Data from cardboard_FLMS001491_019.txt Node
Date: Tue Feb 07 11:39:02 GMT 2017
User: dcchb
Spectrometer: FLMS00149
Trigger mode: 0
Integration Time (sec): 2.000000E-2
Scans to average: 10
Electric dark correction enabled: true
Nonlinearity correction enabled: false
Boxcar width: 0
XAxis mode: Wavelengths
Number of Pixels in Spectrum: 2048
>>>>>Begin Spectral Data<<<<<
341.393	-8.8
341.776	-8.8
342.16	-8.8
342.543	-63.26
342.927	-58.52
343.31	-77.27
343.693	-51.96
344.077	-55.35
344.46	-68.68
344.843	-58.52
345.226	-55.35
345.61	-39.31
345.993	-40.89
346.376	1.14
346.759	11.77
347.142	34.14
347.525	41.37
347.908	57.87
348.291	64.87
348.674	110.07
349.057	126.11
349.44	126.11
349.823	146
350.206	140.35
350.588	192.78
350.971	217.86
351.354	207.92
351.737	227.58
352.119	236.17
352.502	250.63
352.884	267.8
353.267	255.37
353.65	298.09
354.032	288.59
354.414	298.09
354.797	301.7
355.179	329.72
355.562	325.2
355.944	299.44
356.326	344.19
356.709	314.81
357.091	327.01
357.473	330.63
357.855	318.2
358.238	311.87
358.62	339.89
359.002	343.96
359.384	344.19
359.766	327.24
360.148	346.9
360.53	341.7
360.912	344.86
361.294	334.69
361.676	338.54
362.057	343.73
362.439	322.49
362.821	327.24
363.203	319.33
363.584	336.05
363.966	319.33
364.348	303.06
364.729	337.41
365.111	318.42
365.493	322.94
365.874	324.3
366.256	327.24
366.637	311.42
367.019	301.02
367.4	311.19
367.781	304.19
368.163	301.25
368.544	307.35
368.925	314.13
369.306	325.66
369.688	314.36
370.069	275.94
370.45	308.71
370.831	305.77
371.212	317.07
371.593	306.67
371.974	308.48
372.355	296.05
372.736	325.2
373.117	309.84
373.498	325.2
373.879	324.75
374.26	298.09
374.641	305.09
375.021	326.33
375.402	325.88
375.783	324.53
376.163	300.8
376.544	302.83
376.925	306.9
377.305	311.19
377.686	327.46
378.066	316.84
378.447	348.48
378.827	318.65
379.208	324.3
379.588	343.73
379.968	317.29
380.349	321.14
380.729	322.27
381.109	321.59
381.489	309.84
381.87	331.76
382.25	334.69
382.63	327.01
383.01	339.89
383.39	349.84
383.77	337.63
384.15	337.41
384.53	362.94
384.91	347.8
385.29	351.42
385.67	353.23
386.049	352.1
386.429	346.45
386.809	365.2
387.189	344.41
387.568	334.47
387.948	371.08
388.328	369.04
388.707	357.74
389.087	349.84
389.466	364.75
389.846	347.8
390.225	363.62
390.605	381.7
390.984	363.62
391.363	369.95
391.743	367.91
392.122	342.6
392.501	356.16
392.881	362.26
393.26	370.17
393.639	370.4
394.018	379.21
394.397	388.7
394.776	375.37
395.155	398.65
395.534	399.33
395.913	369.27
396.292	392.55
396.671	383.28
397.05	392.32
397.429	384.41
397.808	390.51
398.186	391.19
398.565	385.09
398.944	385.09
399.323	400.23
399.701	411.98
400.08	410.85
400.458	398.65
400.837	421.7
401.215	422.15
401.594	389.83
401.972	405.88
402.351	418.08
402.729	413.79
403.107	415.14
403.486	416.95
403.864	436.61
404.242	432.09
404.62	434.8
404.999	433.45
405.377	431.42
405.755	459.89
406.133	406.56
406.511	444.75
406.889	435.26
407.267	438.65
407.645	455.82
408.023	427.12
408.401	462.15
408.779	465.99
409.156	441.58
409.534	449.95
409.912	456.5
410.29	474.35
410.667	475.71
411.045	487.91
411.422	483.17
411.8	465.99
412.178	493.11
412.555	506.67
412.933	488.14
413.31	510.06
413.687	521.13
414.065	493.11
414.442	510.28
414.819	512.09
415.197	535.59
415.574	513.67
415.951	527.46
416.328	548.47
416.705	528.14
417.082	527.46
417.46	535.37
417.837	538.53
418.214	538.98
418.591	531.53
418.967	535.37
419.344	544.63
419.721	566.78
420.098	537.4
420.475	567.68
420.852	565.2
421.228	574.69
421.605	555.03
421.982	558.42
422.358	570.17
422.735	572.65
423.111	591.41
423.488	600
423.864	583.95
424.241	588.25
424.617	601.13
424.994	599.55
425.37	594.12
425.746	574.24
426.123	611.75
426.499	633.67
426.875	617.85
427.251	648.36
427.627	641.81
428.003	640.68
428.379	650.84
428.756	659.21
429.132	653.56
429.507	671.63
429.883	684.97
430.259	697.62
430.635	672.76
431.011	687.23
431.387	661.01
431.763	683.16
432.138	706.21
432.514	698.07
432.89	698.75
433.265	725.87
433.641	729.26
434.016	739.88
434.392	725.64
434.767	741.24
435.143	757.51
435.518	770.84
435.894	778.98
436.269	764.74
436.644	779.65
437.02	794.12
437.395	788.24
437.77	788.47
438.145	818.3
438.52	811.74
438.895	796.83
439.271	813.33
439.646	837.28
440.021	846.32
440.395	855.81
440.77	863.95
441.145	836.15
441.52	869.6
441.895	845.87
442.27	875.7
442.645	865.53
443.019	883.61
443.394	883.83
443.769	887.45
444.143	885.41
444.518	907.33
444.892	889.48
445.267	909.82
445.641	915.47
446.016	913.44
446.39	929.26
446.764	919.09
447.139	931.52
447.513	933.55
447.887	922.02
448.262	942.36
448.636	949.37
449.01	966.09
449.384	976.71
449.758	958.63
450.132	988.69
450.506	977.62
450.88	1023.49
451.254	990.72
451.628	1021.23
452.002	1024.17
452.376	1024.39
452.75	1018.97
453.123	1049.93
453.497	1037.5
453.871	1050.61
454.244	1069.59
454.618	1073.21
454.992	1103.94
455.365	1124.28
455.739	1127.22
456.112	1134
456.486	1132.87
456.859	1148.23
457.232	1161.11
457.606	1166.31
457.979	1154.79
458.352	1204.28
458.725	1216.93
459.099	1207.67
459.472	1235.24
459.845	1252.86
460.218	1265.97
460.591	1248.79
460.964	1266.65
461.337	1300.54
461.71	1324.95
462.083	1329.02
462.456	1330.6
462.829	1325.4
463.201	1310.94
463.574	1348
463.947	1413.76
464.32	1425.51
464.692	1407.21
465.065	1428.23
465.438	1426.64
465.81	1454.21
466.183	1475.68
466.555	1524.49
466.928	1517.04
467.3	1536.47
467.672	1536.24
468.045	1572.4
468.417	1578.96
468.789	1592.06
469.161	1586.41
469.534	1625.73
469.906	1662.34
470.278	1655.79
470.65	1705.28
471.022	1725.84
471.394	1745.28
471.766	1766.3
472.138	1777.14
472.51	1793.87
472.882	1844.71
473.253	1863.24
473.625	1905.05
473.997	1899.4
474.369	1933.3
474.74	1947.99
475.112	2012.84
475.484	2032.5
475.855	2039.96
476.227	2046.51
476.598	2124.03
476.97	2168.54
477.341	2192.27
477.713	2200.63
478.084	2214.19
478.455	2273.85
478.827	2307.98
479.198	2378.26
479.569	2321.54
479.94	2422.32
480.311	2451.02
480.682	2479.04
481.053	2556.33
481.424	2576.67
481.795	2624.35
482.166	2618.93
482.537	2693.05
482.908	2754.52
483.279	2776.21
483.65	2810.34
484.021	2869.09
484.391	2906.6
484.762	2946.38
485.133	2965.81
485.503	3032.25
485.874	3091.91
486.244	3150.44
486.615	3189.53
486.985	3165.13
487.356	3286.93
487.726	3274.05
488.097	3358.34
488.467	3369.64
488.837	3446.7
489.207	3481.5
489.578	3573.48
489.948	3611.67
490.318	3632.91
490.688	3702.52
491.058	3736.19
491.428	3786.36
491.798	3806.92
492.168	3893.7
492.538	3923.98
492.908	3980.7
493.278	4025.9
493.648	4067.03
494.017	4097.31
494.387	4177.98
494.757	4162.39
495.126	4219.79
495.496	4269.05
495.866	4295.27
496.235	4356.06
496.605	4406
496.974	4434.47
497.344	4461.82
497.713	4506.79
498.082	4569.61
498.452	4628.37
498.821	4690.51
499.19	4668.82
499.559	4703.62
499.928	4767.57
500.298	4836.05
500.667	4886.21
501.036	4885.76
501.405	4919.21
501.774	4943.16
502.143	5046.44
502.512	5048.92
502.88	5077.62
503.249	5139.99
503.618	5156.94
503.987	5225.87
504.356	5249.59
504.724	5335.69
505.093	5322.13
505.462	5372.75
505.83	5415.69
506.199	5545.86
506.567	5561
506.936	5521.22
507.304	5630.15
507.672	5688
508.041	5751.73
508.409	5817.49
508.777	5824.27
509.145	5871.95
509.514	5908.33
509.882	5989.69
510.25	6051.38
510.618	6126.18
510.986	6125.5
511.354	6169.12
511.722	6280.3
512.09	6294.31
512.458	6300.41
512.826	6388.09
513.193	6482.78
513.561	6499.73
513.929	6543.8
514.297	6622.44
514.664	6682.78
515.032	6739.27
515.4	6763.68
515.767	6842.55
516.135	6913.96
516.502	6942.2
516.869	7070.56
517.237	7089.77
517.604	7070.34
517.972	7244.8
518.339	7242.54
518.706	7328.86
519.073	7366.15
519.44	7467.39
519.808	7528.18
520.175	7607.95
520.542	7696.53
520.909	7711.9
521.276	7784.89
521.643	7817.44
522.009	7932.91
522.376	8065.11
522.743	8108.05
523.11	8184.21
523.477	8263.75
523.843	8361.83
524.21	8433.69
524.577	8508.49
524.943	8574.7
525.31	8655.38
525.676	8806.11
526.043	8821.03
526.409	8880.91
526.776	8986.67
527.142	9051.08
527.508	9142.82
527.874	9250.17
528.241	9339.66
528.607	9382.59
528.973	9457.39
529.339	9415.81
529.705	9614.22
530.071	9614.9
530.437	9790.27
530.803	9792.98
531.169	9917.72
531.535	9926.53
531.901	10027.32
532.267	10083.59
532.632	10158.39
532.998	10295.56
533.364	10299.4
533.73	10399.74
534.095	10519.74
534.461	10509.79
534.826	10616.23
535.192	10700.98
535.557	10775.32
535.923	10762.44
536.288	10860.75
536.653	10913.17
537.019	10925.83
537.384	11025.26
537.749	11061.42
538.114	11182.54
538.479	11230.91
538.845	11286.5
539.21	11234.75
539.575	11375.53
539.94	11499.37
540.305	11633.38
540.67	11662.76
541.034	11678.35
541.399	11795.86
541.764	11809.65
542.129	11893.71
542.494	11945.46
542.858	11984.11
543.223	12043.77
543.587	12108.62
543.952	12208.96
544.316	12274.04
544.681	12209.18
545.045	12423.64
545.41	12465.45
545.774	12553.13
546.138	12587.93
546.503	12646.69
546.867	12669.74
547.231	12821.82
547.595	12854.14
547.959	12942.72
548.324	12937.3
548.688	12961.48
549.052	13060.69
549.416	13141.82
549.779	13198.09
550.143	13228.14
550.507	13388.81
550.871	13422.26
551.235	13409.61
551.599	13580.9
551.962	13675.13
552.326	13737.51
552.689	13809.82
553.053	13795.13
553.417	13898.86
553.78	14026.99
554.143	14072.41
554.507	14224.5
554.87	14220.88
555.234	14428.11
555.597	14393.99
555.96	14460.42
556.323	14592.17
556.686	14493.19
557.05	14736.58
557.413	14772.06
557.776	14905.84
558.139	14993.97
558.502	14991.71
558.865	15068.77
559.228	15158.49
559.59	15275.32
559.953	15334.3
560.316	15517.35
560.679	15569.77
561.041	15715.76
561.404	15818.58
561.767	15916.43
562.129	15814.74
562.492	16044.79
562.854	16126.82
563.217	16114.17
563.579	16369.98
563.941	16271.9
564.304	16397.55
564.666	16588.96
565.028	16626.24
565.39	16770.87
565.753	16871.66
566.115	16999.79
566.477	16974.26
566.839	17143.97
567.201	17206.12
567.563	17352.78
567.925	17380.35
568.287	17392.78
568.648	17545.77
569.01	17637.29
569.372	17763.16
569.734	17734.46
570.095	17861.01
570.457	17973.78
570.819	18041.12
571.18	18028.92
571.542	18126.09
571.903	18246.99
572.265	18315.69
572.626	18455.57
572.987	18490.6
573.349	18589.13
573.71	18651.28
574.071	18832.97
574.432	18811.95
574.794	18973.98
575.155	18968.55
575.516	19020.53
575.877	19090.81
576.238	19198.38
576.599	19313.18
576.96	19209
577.32	19338.26
577.681	19398.83
578.042	19501.65
578.403	19619.16
578.763	19607.63
579.124	19685.37
579.485	19758.36
579.845	19893.28
580.206	19930.79
580.566	19928.3
580.927	20025.02
581.287	20040.84
581.648	20056.21
582.008	20153.61
582.368	20193.61
582.728	20248.75
583.089	20280.38
583.449	20293.27
583.809	20290.1
584.169	20321.29
584.529	20413.49
584.889	20568.51
585.249	20427.95
585.609	20492.58
585.969	20553.6
586.329	20559.47
586.688	20730.99
587.048	20660.71
587.408	20599.92
587.768	20769.41
588.127	20698
588.487	20671.79
588.846	21001.04
589.206	20785.91
589.565	20800.15
589.925	20959.01
590.284	20926.24
590.643	21062.29
591.003	21173.24
591.362	21152.45
591.721	21110.87
592.08	21133.47
592.44	21285.56
592.799	21204.2
593.158	21269.29
593.517	21244.88
593.876	21354.25
594.235	21375.95
594.593	21342.73
594.952	21467.25
595.311	21397.87
595.67	21495.72
596.029	21639.22
596.387	21701.36
596.746	21707.47
597.104	21675.83
597.463	21651.65
597.822	21775.49
598.18	21591.31
598.538	21765.09
598.897	21860.91
599.255	21747.69
599.613	22020.23
599.972	21950.4
600.33	22001.7
600.688	21888.25
601.046	22102.48
601.404	22140.67
601.762	22027.23
602.12	22207.11
602.478	22353.78
602.836	22299.31
603.194	22213.22
603.552	22275.13
603.91	22135.48
604.268	22364.17
604.625	22259.77
604.983	22295.7
605.341	22314.68
605.698	22454.11
606.056	22575.01
606.413	22476.03
606.771	22594
607.128	22629.25
607.485	22601.45
607.843	22636.03
608.2	22813.2
608.557	22892.29
608.914	22826.08
609.272	22978.39
609.629	23036.24
609.986	22977.94
610.343	23000.54
610.7	23201.89
611.057	23100.88
611.414	23046.41
611.771	23210.25
612.127	23249.8
612.484	23327.08
612.841	23416.8
613.198	23331.83
613.554	23258.39
613.911	23549.9
614.267	23443.24
614.624	23505.84
614.98	23567.08
615.337	23656.79
615.693	23698.15
616.05	23662.89
616.406	23713.29
616.762	23719.62
617.118	23694.76
617.475	23792.83
617.831	23891.59
618.187	23894.75
618.543	23930.68
618.899	24042.09
619.255	23948.76
619.611	24068.53
619.967	24080.74
620.323	24159.6
620.678	24058.82
621.034	24163.45
621.39	24151.92
621.746	24083
622.101	24423.78
622.457	24229.89
622.812	24368.86
623.168	24342.42
623.523	24460.84
623.879	24462.42
624.234	24311.92
624.589	24549.88
624.945	24429.2
625.3	24435.3
625.655	24539.48
626.01	24482.53
626.365	24485.47
626.72	24461.07
627.075	24471.69
627.43	24515.75
627.785	24506.04
628.14	24485.7
628.495	24564.34
628.85	24636.88
629.205	24570.89
629.559	24751
629.914	24583.1
630.269	24503.78
630.623	24518.69
630.978	24481.4
631.332	24556.43
631.687	24613.83
632.041	24579.25
632.396	24604.79
632.75	24576.09
633.104	24607.5
633.459	24439.37
633.813	24542.87
634.167	24539.71
634.521	24488.41
634.875	24551.46
635.229	24553.72
635.583	24460.84
635.937	24556.43
636.291	24495.19
636.645	24504.68
636.999	24384.46
637.352	24488.64
637.706	24259.49
638.06	24492.93
638.413	24373.38
638.767	24362.54
639.121	24382.2
639.474	24266.04
639.828	24356.89
640.181	24394.63
640.534	24370.9
640.888	24323.44
641.241	24110.79
641.594	24214.97
641.947	24397.34
642.301	24299.49
642.654	24349.88
643.007	24231.47
643.36	24278.92
643.713	24226.5
644.066	24378.58
644.419	24140.17
644.771	24015.65
645.124	23868.77
645.477	23711.48
645.83	23745.15
646.182	23725.27
646.535	23610.01
646.888	23590.58
647.24	23438.49
647.593	23649.11
647.945	23573.18
648.298	23521.43
648.65	23366.41
649.002	23359.17
649.355	23534.08
649.707	23445.27
650.059	23630.58
650.411	23959.16
650.763	23903.34
651.115	24231.24
651.467	24087.74
651.819	24075.31
652.171	24086.39
652.523	24014.3
652.875	24010.46
653.227	23949.67
653.578	24082.54
653.93	24076.22
654.282	23909.44
654.633	23838.71
654.985	24081.19
655.337	24059.95
655.688	23992.15
656.039	24138.14
656.391	23916.67
656.742	23970.91
657.094	24042.09
657.445	24036.9
657.796	24021.53
658.147	23919.84
658.498	23904.92
658.849	24067.86
659.2	23986.73
659.551	24044.13
659.902	24060.85
660.253	23949.21
660.604	24061.75
660.955	23975.88
661.306	24130.68
661.656	24111.02
662.007	24050.23
662.358	24025.6
662.708	24062.88
663.059	24096.33
663.409	23912.15
663.76	24038.48
664.11	24058.36
664.461	24077.35
664.811	24062.21
665.161	24019.04
665.511	24160.96
665.862	24067.63
666.212	24187.17
666.562	24167.06
666.912	24192.6
667.262	24159.15
667.612	24131.36
667.962	24218.81
668.312	24050.68
668.662	24261.75
669.011	24264.23
669.361	24151.47
669.711	24167.97
670.06	24109.21
670.41	24085.71
670.76	24152.37
671.109	24175.88
671.459	24023.11
671.808	24050.68
672.157	24204.12
672.507	24053.17
672.856	24009.55
673.205	24096.33
673.554	24240.05
673.904	23943.57
674.253	24217.68
674.602	24068.08
674.951	23689.56
675.3	23625.38
675.649	24117.12
675.998	24043.9
676.346	24057.69
676.695	24085.71
677.044	23944.02
677.393	24149.44
677.741	24067.4
678.09	23913.06
678.438	23891.82
678.787	23982.66
679.135	23976.78
679.484	23835.09
679.832	23907.18
680.181	23860.18
680.529	23848.65
680.877	23883.23
681.225	23748.54
681.573	23894.75
681.922	23842.1
682.27	23753.06
682.618	23701.31
682.966	23822.66
683.314	23836.22
683.661	23799.84
684.009	23618.38
684.357	23507.64
684.705	23570.24
685.053	23525.95
685.4	23509.45
685.748	23489.11
686.095	23567.08
686.443	23375.22
686.79	23353.3
687.138	23419.06
687.485	23367.76
687.832	23304.94
688.18	23296.8
688.527	23171.16
688.874	23290.48
689.221	23092.06
689.568	23100.2
689.915	23082.57
690.262	23097.94
690.609	23022.46
690.956	22946.98
691.303	22952.86
691.65	22871.96
691.997	22936.13
692.344	22711.96
692.69	22792.18
693.037	22737.72
693.383	22526.88
693.73	22637.84
694.077	22443.94
694.423	22558.07
694.769	22433.32
695.116	22365.53
695.462	22479.2
695.808	22380.44
696.155	22487.33
696.501	22171.86
696.847	22205.31
697.193	22000.57
697.539	22125.76
697.885	21949.04
698.231	21830.63
698.577	21992.43
698.923	21868.59
699.269	21877.63
699.614	21742.49
699.96	21649.84
700.306	21682.61
700.651	21591.08
700.997	21615.72
701.342	21576.4
701.688	21480.81
702.033	21487.13
702.379	21409.62
702.724	21326.91
703.069	21460.69
703.415	21237.65
703.76	21192.23
704.105	21145.45
704.45	21168.27
704.795	21001.72
705.14	20933.93
705.485	20930.76
705.83	20868.39
706.175	20858
706.52	20762.18
706.865	20741.84
707.209	20816.42
707.554	20683.54
707.899	20811.67
708.243	20641.05
708.588	20634.95
708.932	20508.18
709.277	20528.06
709.621	20528.74
709.966	20438.12
710.31	20446.93
710.654	20314.51
710.998	20314.06
711.342	20221.18
711.687	20333.04
712.031	20223.21
712.375	20145.93
712.719	20247.84
713.063	20199.26
713.407	20217.11
713.75	20196.77
714.094	20107.28
714.438	20018.7
714.782	20077
715.125	19936.44
715.469	19984.12
715.812	20008.3
716.156	19733.73
716.499	19837.23
716.843	19772.83
717.186	19760.17
717.53	19877.23
717.873	19844.92
718.216	19663.9
718.559	19688.99
718.902	19554.3
719.246	19657.12
719.589	19576.22
719.932	19469.33
720.275	19500.52
720.617	19483.57
720.96	19449.45
721.303	19488.09
721.646	19465.27
721.989	19469.11
722.331	19413.51
722.674	19365.15
723.016	19399.28
723.359	19411.71
723.701	19375.78
724.044	19266.63
724.386	19203.8
724.729	19262.78
725.071	19270.02
725.413	19101.43
725.755	19218.27
726.097	19149.79
726.439	19073.64
726.782	19102.56
727.124	19236.57
727.465	19094.43
727.807	19092.85
728.149	19083.58
728.491	19054.2
728.833	19053.98
729.175	18972.17
729.516	18960.87
729.858	18963.81
730.199	18945.5
730.541	18961.78
730.882	18976.46
731.224	19002.9
731.565	18925.17
731.906	18909.57
732.248	18840.42
732.589	18867.77
732.93	18808.56
733.271	18834.77
733.612	18796.13
733.953	18707.77
734.294	18787.99
734.635	18619.41
734.976	18823.25
735.317	18843.36
735.658	18752.97
735.999	18742.35
736.339	18650.6
736.68	18680.2
737.021	18670.26
737.361	18498.06
737.702	18759.97
738.042	18584.16
738.383	18568.34
738.723	18590.03
739.063	18573.31
739.404	18700.77
739.744	18532.86
740.084	18440.43
740.424	18591.62
740.764	18503.48
741.104	18637.72
741.444	18514.1
741.784	18367.44
742.124	18454.9
742.464	18410.83
742.804	18416.71
743.143	18408.12
743.483	18394.33
743.823	18363.37
744.162	18311.62
744.502	18354.79
744.841	18329.48
745.181	18416.25
745.52	18324.96
745.86	18445.63
746.199	18255.13
746.538	18315.69
746.877	18351.4
747.216	18342.58
747.556	18314.33
747.895	18376.03
748.234	18296.26
748.573	18300.55
748.911	18253.55
749.25	18283.15
749.589	18240.44
749.928	18222.81
750.267	18202.7
750.605	18083.15
750.944	18096.26
751.283	18004.29
751.621	18087.22
751.96	18040.67
752.298	18102.36
752.636	18160.89
752.975	18026.43
753.313	18086.09
753.651	18051.06
753.989	17939.43
754.327	17934.91
754.666	17998.64
755.004	17913.89
755.342	18021.69
755.679	17891.97
756.017	17783.5
756.355	17817.62
756.693	17778.3
757.031	17795.48
757.368	17741.69
757.706	17724.07
758.044	17667.57
758.381	17740.79
758.719	17661.7
759.056	17732.2
759.394	17663.5
759.731	17529.27
760.068	17554.13
760.405	17479.33
760.743	17409.95
761.08	17470.06
761.417	17416.05
761.754	17324.76
762.091	17376.96
762.428	17191.88
762.765	17225.1
763.102	17236.85
763.438	17146.23
763.775	17060.81
764.112	17147.59
764.449	17189.17
764.785	17064.2
765.122	16970.19
765.458	16903.75
765.795	16931.77
766.131	16853.58
766.467	16905.56
766.804	16690.87
767.14	16587.83
767.476	16658.79
767.812	16563.19
768.148	16736.52
768.485	16559.35
768.821	16498.34
769.157	16419.02
769.492	16374.05
769.828	16435.97
770.164	16248.63
770.5	16271
770.836	16376.31
771.171	16200.27
771.507	16075.07
771.842	16038.69
772.178	16056.99
772.513	15925.02
772.849	15943.1
773.184	15841.18
773.519	15879.14
773.855	15824
774.19	15703.33
774.525	15715.99
774.86	15710.56
775.195	15598.7
775.53	15484.13
775.865	15671.24
776.2	15400.29
776.535	15345.6
776.87	15379.27
777.205	15226.51
777.539	15210.24
777.874	15243.23
778.209	15171.82
778.543	15080.97
778.878	15010.69
779.212	14968.89
779.547	14920.98
779.881	14920.07
780.215	14871.94
780.55	14858.83
780.884	14796.46
781.218	14725.95
781.552	14754.2
781.886	14552.17
782.22	14623.58
782.554	14585.39
782.888	14440.99
783.222	14384.95
783.556	14389.01
783.889	14358.05
784.223	14198.74
784.557	14200.32
784.89	14248.23
785.224	14118.74
785.557	14068.57
785.891	14113.77
786.224	14041.23
786.558	13984.51
786.891	13798.75
787.224	13845.98
787.557	13773.21
787.891	13761.91
788.224	13765.53
788.557	13665.42
788.89	13662.48
789.223	13634.46
789.556	13583.84
789.888	13571.18
790.221	13435.82
790.554	13457.06
790.887	13478.98
791.219	13356.5
791.552	13371.19
791.884	13251.64
792.217	13306.56
792.549	13172.78
792.882	13109.27
793.214	13187.01
793.546	13084.42
793.879	13009.62
794.211	12953.12
794.543	12965.32
794.875	12935.27
795.207	12991.31
795.539	12866.79
795.871	12875.16
796.203	12700.02
796.535	12766.91
796.867	12680.36
797.198	12638.1
797.53	12689.85
797.862	12511.32
798.193	12590.19
798.525	12474.26
798.856	12536.86
799.188	12429.29
799.519	12363.98
799.85	12304.55
800.182	12329.41
800.513	12356.75
800.844	12222.97
801.175	12358.11
801.506	12172.8
801.837	12212.57
802.168	12195.4
802.499	12189.52
802.83	12064.1
803.161	11971.45
803.491	11986.14
803.822	12005.35
804.153	11878.35
804.483	11916.76
804.814	11906.14
805.145	11851.68
805.475	11797.44
805.805	11815.52
806.136	11808.52
806.466	11719.25
806.796	11706.15
807.126	11648.3
807.457	11637
807.787	11582.76
808.117	11633.61
808.447	11578.47
808.777	11613.04
809.107	11524.46
809.436	11420.96
809.766	11480.62
810.096	11362.43
810.426	11413.05
810.755	11398.81
811.085	11347.74
811.414	11317.46
811.744	11242.2
812.073	11274.75
812.403	11234.3
812.732	11190.45
813.061	11236.78
813.39	11187.52
813.719	11164.69
814.049	11188.19
814.378	11170.34
814.707	11034.07
815.036	11008.76
815.365	11058.71
815.693	10943.91
816.022	10890.35
816.351	10859.39
816.68	10847.19
817.008	10920.18
817.337	10802.89
817.665	10801.54
817.994	10888.09
818.322	10830.46
818.651	10731.03
818.979	10641.54
819.307	10723.8
819.636	10635.44
819.964	10587.76
820.292	10703.24
820.62	10689.45
820.948	10701.43
821.276	10632.05
821.604	10587.53
821.932	10621.88
822.259	10651.26
822.587	10645.84
822.915	10668.21
823.243	10689.68
823.57	10571.26
823.898	10586.63
824.225	10543.24
824.553	10586.18
824.88	10611.94
825.207	10657.59
825.535	10583.01
825.862	10572.17
826.189	10559.28
826.516	10654.88
826.843	10678.6
827.17	10600.19
827.497	10695.78
827.824	10681.32
828.151	10656.46
828.478	10594.09
828.805	10699.39
829.131	10620.07
829.458	10520.42
829.785	10574.88
830.111	10664.14
830.438	10703.24
830.764	10606.51
831.09	10561.54
831.417	10569.45
831.743	10626.85
832.069	10623.24
832.395	10485.84
832.722	10606.06
833.048	10541.43
833.374	10586.4
833.7	10533.75
834.026	10591.83
834.351	10603.13
834.677	10517.7
835.003	10524.26
835.329	10593.63
835.654	10472.73
835.98	10431.15
836.306	10521.32
836.631	10522.9
836.956	10484.26
837.282	10542.11
837.607	10443.58
837.932	10390.02
838.258	10455.11
838.583	10353.87
838.908	10300.53
839.233	10350.93
839.558	10343.02
839.883	10314.55
840.208	10258.5
840.533	10291.27
840.858	10257.6
841.182	10284.49
841.507	10288.33
841.832	10200.88
842.156	10133.53
842.481	10211.05
842.805	10193.64
843.13	10148.22
843.454	10084.49
843.778	10133.76
844.103	10062.12
844.427	10011.28
844.751	10040.43
845.075	10019.64
845.399	9958.62
845.723	9971.28
846.047	9976.93
846.371	9870.49
846.695	9850.83
847.019	9773.09
847.343	9718.18
847.666	9669.36
847.99	9672.75
848.313	9620.55
848.637	9611.51
848.96	9630.95
849.284	9621.68
849.607	9458.52
849.931	9487.45
850.254	9374.23
850.577	9390.28
850.9	9288.81
851.223	9316.38
851.546	9288.58
851.869	9133.33
852.192	9312.54
852.515	9193.44
852.838	9109.61
853.161	9115.71
853.483	9076.16
853.806	9076.39
854.129	8977.63
854.451	9019.66
854.774	8971.08
855.096	8901.7
855.419	8871.42
855.741	8898.09
856.063	8769.95
856.385	8829.61
856.708	8778.54
857.03	8797.07
857.352	8835.94
857.674	8737.64
857.996	8736.51
858.318	8607.47
858.64	8706.45
858.961	8684.31
859.283	8646.57
859.605	8662.84
859.926	8674.14
860.248	8589.17
860.57	8569.73
860.891	8584.65
861.212	8555.72
861.534	8484.54
861.855	8523.86
862.176	8443.86
862.498	8490.86
862.819	8448.61
863.14	8477.08
863.461	8405.22
863.782	8433.24
864.103	8364.77
864.424	8332.68
864.745	8380.36
865.065	8397.31
865.386	8299.46
865.707	8348.95
866.027	8314.37
866.348	8269.63
866.668	8315.28
866.989	8284.09
867.309	8263.07
867.63	8283.41
867.95	8221.94
868.27	8188.5
868.59	8201.38
868.91	8189.18
869.23	8183.75
869.55	8099.91
869.87	8142.62
870.19	8121.38
870.51	8167.48
870.83	8141.04
871.15	8061.72
871.469	8125.45
871.789	8122.51
872.109	8105.34
872.428	8052.23
872.748	8049.52
873.067	8099.24
873.386	8102.17
873.706	8087.49
874.025	7973.82
874.344	7996.64
874.663	7939.24
874.982	7910.31
875.301	7937.21
875.62	7923.87
875.939	7892.69
876.258	7959.13
876.577	7926.59
876.896	7884.78
877.214	7901.5
877.533	7922.07
877.852	7865.57
878.17	7910.99
878.489	7840.94
878.807	7766.36
879.125	7800.49
879.444	7823.31
879.762	7794.61
880.08	7763.88
880.398	7708.74
880.716	7754.61
881.034	7648.63
881.352	7645.91
881.67	7750.54
881.988	7660.38
882.306	7673.94
882.624	7714.84
882.941	7584.22
883.259	7619.25
883.577	7560.27
883.894	7544.22
884.212	7563.66
884.529	7558.01
884.846	7525.24
885.164	7457.67
885.481	7564.56
885.798	7513.94
886.115	7412.25
886.432	7461.29
886.75	7406.37
887.067	7484.79
887.383	7342.19
887.7	7405.02
888.017	7379.93
888.334	7369.54
888.651	7345.58
888.967	7304
889.284	7277.79
889.6	7277.79
889.917	7215.64
890.233	7265.59
890.55	7202.31
890.866	7228.3
891.182	7204.12
891.498	7167.51
891.815	7204.57
892.131	7094.06
892.447	7118.47
892.763	7088.87
893.079	7103.56
893.395	7095.42
893.71	6971.81
894.026	7002.77
894.342	6975.2
894.657	6966.38
894.973	6914.41
895.289	6881.64
895.604	6958.48
895.92	6842.55
896.235	6875.09
896.55	6871.47
896.865	6784.92
897.181	6780.63
897.496	6832.15
897.811	6741.31
898.126	6721.87
898.441	6726.39
898.756	6712.15
899.071	6651.14
899.386	6663.79
899.7	6608.43
900.015	6568.65
900.33	6529.33
900.644	6512.16
900.959	6523.46
901.273	6487.3
901.588	6522.1
901.902	6455.89
902.216	6399.17
902.531	6381.77
902.845	6427.19
903.159	6424.7
903.473	6361.43
903.787	6328.44
904.101	6279.85
904.415	6325.05
904.729	6248.44
905.042	6177.25
905.356	6256.35
905.67	6190.59
905.984	6193.75
906.297	6188.33
906.611	6125.95
906.924	6083.47
907.237	6072.62
907.551	6091.83
907.864	6083.7
908.177	6092.74
908.491	6074.2
908.804	6048.22
909.117	5931.84
909.43	5945.17
909.743	5917.15
910.056	5875.57
910.368	5839.18
910.681	5856.13
910.994	5826.3
911.307	5791.05
911.619	5718.51
911.932	5779.52
912.244	5718.96
912.557	5704.04
912.869	5711.95
913.181	5661.33
913.494	5685.51
913.806	5698.17
914.118	5535.46
914.43	5586.76
914.742	5603.48
915.054	5509.93
915.366	5536.82
915.678	5521.22
915.99	5492.07
916.302	5429.48
916.613	5435.13
916.925	5409.14
917.236	5419.53
917.548	5364.62
917.859	5358.74
918.171	5296.6
918.482	5343.15
918.794	5286.65
919.105	5274.9
919.416	5219.09
919.727	5199.88
920.038	5175.92
920.349	5125.98
920.66	5145.64
920.971	5106.77
921.282	5165.53
921.593	5099.09
921.903	5069.26
922.214	5017.74
922.525	5020.22
922.835	5057.96
923.146	4981.58
923.456	4978.41
923.767	4950.84
924.077	4974.57
924.387	4902.26
924.697	4966.66
925.008	4860.23
925.318	4884.41
925.628	4868.59
925.938	4832.2
926.248	4770.96
926.558	4775.71
926.867	4736.84
927.177	4790.62
927.487	4713.34
927.796	4686.67
928.106	4679.21
928.416	4665.43
928.725	4683.51
929.034	4627.46
929.344	4632.21
929.653	4582.72
929.962	4576.84
930.271	4550.85
930.581	4556.05
930.89	4554.92
931.199	4472.21
931.508	4434.02
931.817	4467.92
932.125	4452.78
932.434	4426.79
932.743	4406
933.051	4364.87
933.36	4338.43
933.669	4334.59
933.977	4317.64
934.286	4291.2
934.594	4279.45
934.902	4285.1
935.21	4222.05
935.519	4215.27
935.827	4223.18
936.135	4191.54
936.443	4248.72
936.751	4125.33
937.059	4202.62
937.367	4137.98
937.674	4120.58
937.982	4147.02
938.29	4075.16
938.597	4055.95
938.905	4025.9
939.213	4045.78
939.52	4000.13
939.827	4030.19
940.135	4007.59
940.442	3991.1
940.749	3995.84
941.056	3996.29
941.363	3904.32
941.67	3869.97
941.977	3906.58
942.284	3862.74
942.591	3824.77
942.898	3847.14
943.205	3853.25
943.511	3809.18
943.818	3787.03
944.125	3792.68
944.431	3798.78
944.738	3742.51
945.044	3785
945.35	3752.91
945.657	3719.92
945.963	3687.37
946.269	3663.65
946.575	3660.03
946.881	3636.98
947.187	3689.63
947.493	3596.08
947.799	3615.51
948.105	3587.49
948.41	3577.32
948.716	3594.5
949.022	3549.98
949.327	3532.8
949.633	3490.54
949.938	3474.5
950.244	3505.46
950.549	3437.89
950.854	3423.88
951.16	3460.94
951.465	3443.99
951.77	3404.44
952.075	3396.53
952.38	3380.49
952.685	3415.74
952.99	3353.6
953.294	3305.69
953.599	3359.93
953.904	3318.8
954.209	3275.86
954.513	3254.17
954.818	3242.64
955.122	3281.28
955.426	3270.89
955.731	3238.57
956.035	3212.13
956.339	3217.78
956.643	3194.28
956.948	3155.64
957.252	3129.42
957.556	3147.73
957.86	3110.89
958.163	3140.72
958.467	3141.85
958.771	3109.99
959.075	3138.46
959.378	3074.06
959.682	3061.4
959.985	3053.04
960.289	3042.19
960.592	3035.19
960.896	3043.78
961.199	3032.02
961.502	3002.42
961.805	2959.26
962.108	2958.35
962.411	2943.44
962.714	2948.41
963.017	2928.3
963.32	2929.43
963.623	2910.45
963.926	2855.98
964.228	2864.8
964.531	2832.26
964.833	2863.89
965.136	2838.13
965.438	2830.45
965.741	2815.99
966.043	2786.61
966.345	2790.9
966.648	2791.13
966.95	2743.44
967.252	2750.45
967.554	2757.46
967.856	2725.37
968.158	2678.36
968.46	2743.67
968.761	2715.2
969.063	2692.37
969.365	2668.19
969.666	2652.15
969.968	2676.78
970.269	2659.15
970.571	2649.66
970.872	2599.95
971.174	2602.66
971.475	2591.13
971.776	2601.75
972.077	2611.7
972.378	2578.7
972.679	2533.96
972.98	2542.32
973.281	2530.34
973.582	2537.8
973.883	2499.84
974.183	2524.69
974.484	2491.02
974.785	2483.11
975.085	2485.82
975.386	2475.88
975.686	2481.08
975.986	2454.86
976.287	2420.29
976.587	2398.6
976.887	2433.17
977.187	2444.7
977.487	2377.13
977.787	2364.92
978.087	2392.72
978.387	2367.18
978.687	2361.31
978.987	2383.23
979.286	2344.13
979.586	2345.72
979.885	2312.04
980.185	2319.5
980.484	2294.42
980.784	2290.12
981.083	2302.33
981.382	2287.19
981.682	2298.48
981.981	2255.32
982.28	2228.66
982.579	2226.4
982.878	2248.77
983.177	2238.6
983.475	2227.98
983.774	2168.32
984.073	2199.73
984.372	2188.21
984.67	2148.88
984.969	2166.06
985.267	2194.08
985.566	2147.53
985.864	2133.97
986.162	2088.09
986.461	2132.39
986.759	2086.29
987.057	2100.75
987.355	2074.99
987.653	2085.16
987.951	2060.3
988.249	2031.6
988.547	2047.19
988.844	2048.32
989.142	2022.56
989.44	2019.4
989.737	1995.67
990.035	2007.64
990.332	1985.72
990.63	1969
990.927	1956.35
991.224	1985.27
991.521	1975.1
991.819	1967.65
992.116	1971.26
992.413	1938.72
992.71	1922.22
993.006	1919.06
993.303	1922.68
993.6	1899.4
993.897	1925.16
994.193	1869.34
994.49	1865.28
994.787	1872.28
995.083	1848.78
995.379	1886.52
995.676	1842.45
995.972	1847.65
996.268	1836.35
996.565	1822.11
996.861	1814.66
997.157	1813.53
997.453	1796.58
997.749	1808.55
998.044	1759.06
998.34	1760.19
998.636	1790.93
998.932	1740.08
999.227	1765.84
999.523	1756.35
999.818	1747.76
1000.114	1744.15
1000.409	1727.43
1000.704	1726.75
1001	1702.57
1001.295	1673.87
1001.59	1697.14
1001.885	1683.36
1002.18	1655.79
1002.475	1662.8
1002.77	1640.42
1003.065	1652.63
1003.359	1655.79
1003.654	1588.67
1003.949	1604.04
1004.243	1598.16
1004.538	1591.84
1004.832	1575.57
1005.127	1571.72
1005.421	1548.67
1005.715	1546.19
1006.009	1555.68
1006.304	1555.45
1006.598	1544.15
1006.892	1526.08
1007.186	1525.85
1007.48	1534.66
1007.773	1519.97
1008.067	1463.03
1008.361	1454.44
1008.655	1482.24
1008.948	1469.13
1009.242	1480.43
1009.535	1434.78
1009.829	1453.54
1010.122	1449.02
1010.415	1438.17
1010.708	1436.81
1011.001	1404.05
1011.295	1383.71
1011.588	1403.37
1011.881	1404.27
1012.173	1372.86
1012.466	1389.36
1012.759	1363.82
1013.052	1372.63
1013.344	1343.26
1013.637	1330.6
1013.93	1324.5
1014.222	1350.04
1014.514	1333.09
1014.807	1314.33
1015.099	1337.83
1015.391	1275.91
1015.683	1312.97
1015.976	1293.77
1016.268	1296.25
1016.56	1266.42
1016.851	1265.52
1017.143	1268.46
1017.435	1295.35
1017.727	1252.41
1018.018	1230.49
1018.31	1209.47
1018.602	1216.03
1018.893	1247.66
1019.185	1218.97
1019.476	1214.9
1019.767	1209.7
1020.058	1190.94
1020.35	1195.01
1020.641	1154.56
1020.932	1142.13
1021.223	1168.8
1021.514	1126.99
1021.804	1143.49
1022.095	1142.36
1022.386	1150.72
1022.677	1132.87
1022.967	1106.65
1023.258	1104.62
1023.548	1114.11
1023.839	1102.13
1024.129	1089.03
1024.419	1092.64
1024.709	1068.69
1025	1064.84
1025.29	1067.33
1025.58	1078.63
1025.87	1050.83
1026.16	1025.75
1026.449	1037.05
1026.739	1042.92
1027.029	1017.16
1027.319	1031.17
1027.608	1031.63
1027.898	995.02
1028.187	1016.71
1028.477	1023.72
1028.766	1011.96
1029.055	974.9
1029.344	977.39
1029.634	996.82
1029.923	979.88
1030.212	943.04
1030.501	956.37
1030.79	944.62
1031.078	948.46
1031.367	936.03
1031.656	929.93
1031.945	926.32
1032.233	944.85
1032.522	893.32
1032.81	901.46
1033.099	911.18
1033.387	876.6
1033.675	881.57
1033.963	900.56
1034.251	885.19
1034.54	881.57
1034.828	870.5
1035.116	862.36
1035.403	861.91
1035.691	855.58
1035.979	847.45
1036.267	850.39
1036.554	844.06
1036.842	837.51
1037.129	851.74
1037.417	810.61
1037.704	800.67
1037.992	827.11
1038.279	829.14
1038.566	809.94
1038.853	809.94
1039.14	809.94
