Data from cardboard_FLMS001491_063.txt Node
Date: Tue Feb 07 11:39:56 GMT 2017
User: dcchb
Spectrometer: FLMS00149
Trigger mode: 0
Integration Time (sec): 2.000000E-2
Scans to average: 10
Electric dark correction enabled: true
Nonlinearity correction enabled: false
Boxcar width: 0
XAxis mode: Wavelengths
Number of Pixels in Spectrum: 2048
>>>>>Begin Spectral Data<<<<<
341.393	-7.17
341.776	-7.17
342.16	-7.17
342.543	-58.93
342.927	-64.35
343.31	-70.68
343.693	-57.12
344.077	-74.52
344.46	-68.64
344.843	-37.23
345.226	-35.87
345.61	-46.27
345.993	-29.1
346.376	-4.92
346.759	32.82
347.142	28.98
347.525	24.01
347.908	74.63
348.291	71.02
348.674	82.09
349.057	110.79
349.44	132.03
349.823	139.94
350.206	165.7
350.588	200.28
350.971	217
351.354	225.81
351.737	242.76
352.119	273.72
352.502	264.91
352.884	278.47
353.267	272.37
353.65	271.69
354.032	326.38
354.414	315.3
354.797	318.24
355.179	304.46
355.562	331.8
355.944	328.86
356.326	349.88
356.709	320.73
357.091	339.93
357.473	346.04
357.855	352.36
358.238	346.94
358.62	348.52
359.002	355.98
359.384	339.03
359.766	348.3
360.148	348.75
360.53	345.36
360.912	352.59
361.294	343.78
361.676	331.57
362.057	337.9
362.439	331.57
362.821	336.54
363.203	332.48
363.584	353.95
363.966	329.09
364.348	336.32
364.729	325.02
365.111	334.96
365.493	327.73
365.874	334.06
366.256	322.99
366.637	323.21
367.019	292.03
367.4	327.05
367.781	331.8
368.163	337.67
368.544	312.14
368.925	316.21
369.306	336.77
369.688	325.7
370.069	316.88
370.45	312.36
370.831	335.19
371.212	321.63
371.593	323.44
371.974	337.22
372.355	317.79
372.736	306.94
373.117	315.3
373.498	329.31
373.879	333.38
374.26	328.86
374.641	331.8
375.021	333.38
375.402	329.77
375.783	324.79
376.163	349.2
376.544	349.65
376.925	330.22
377.305	325.47
377.686	344.68
378.066	353.72
378.447	324.57
378.827	337
379.208	341.97
379.588	339.03
379.968	349.43
380.349	334.06
380.729	351.69
381.109	344
381.489	351.23
381.87	375.64
382.25	343.55
382.63	360.95
383.01	339.03
383.39	364.11
383.77	358.69
384.15	376.54
384.53	346.04
384.91	340.61
385.29	361.85
385.67	360.72
386.049	350.1
386.429	369.54
386.809	391.23
387.189	363.21
387.568	358.24
387.948	366.37
388.328	364.34
388.707	385.13
389.087	379.93
389.466	377.67
389.846	371.35
390.225	375.41
390.605	400.72
390.984	380.61
391.363	379.93
391.743	377.9
392.122	386.71
392.501	385.81
392.881	401.63
393.26	398.01
393.639	391.91
394.018	403.66
394.397	394.4
394.776	408.41
395.155	421.29
395.534	421.97
395.913	397.56
396.292	405.24
396.671	404.11
397.05	440.27
397.429	418.8
397.808	415.41
398.186	412.7
398.565	413.83
398.944	414.73
399.323	434.85
399.701	414.73
400.08	440.27
400.458	430.33
400.837	441.85
401.215	448.86
401.594	438.69
401.972	434.4
402.351	437.11
402.729	449.54
403.107	438.92
403.486	441.85
403.864	461.74
404.242	432.81
404.62	479.59
404.999	472.36
405.377	457.9
405.755	476.2
406.133	464.9
406.511	460.38
406.889	478.46
407.267	492.7
407.645	473.94
408.023	506.48
408.401	498.57
408.779	493.83
409.156	478.01
409.534	510.1
409.912	500.38
410.29	532.47
410.667	519.59
411.045	524.11
411.422	526.37
411.8	528.86
412.178	516.43
412.555	551.91
412.933	548.74
413.31	546.48
413.687	556.43
414.065	558.69
414.442	538.35
414.819	559.59
415.197	555.75
415.574	576.76
415.951	572.47
416.328	579.7
416.705	586.48
417.082	582.87
417.46	593.26
417.837	590.32
418.214	597.1
418.591	616.54
418.967	605.01
419.344	616.09
419.721	611.11
420.098	627.38
420.475	623.54
420.852	618.8
421.228	645.24
421.605	627.38
421.982	629.87
422.358	631.68
422.735	666.48
423.111	650.66
423.488	658.12
423.864	657.89
424.241	649.98
424.617	663.77
424.994	649.53
425.37	699.93
425.746	688.17
426.123	667.61
426.499	672.13
426.875	686.14
427.251	706.03
427.627	693.15
428.003	722.98
428.379	713.71
428.756	733.6
429.132	731.56
429.507	706.03
429.883	716.42
430.259	741.73
430.635	763.65
431.011	792.8
431.387	783.09
431.763	788.74
432.138	776.76
432.514	777.44
432.89	804.56
433.265	786.48
433.641	829.41
434.016	845.01
434.392	822.41
434.767	852.01
435.143	835.29
435.518	840.94
435.894	861.05
436.269	881.39
436.644	900.15
437.02	901.28
437.395	898.34
437.77	898.79
438.145	922.29
438.52	919.81
438.895	914.83
439.271	914.61
439.646	911.22
440.021	896.3
440.395	955.06
440.77	933.82
441.145	944.89
441.52	959.58
441.895	987.83
442.27	972.23
442.645	978.11
443.019	971.1
443.394	973.14
443.769	967.49
444.143	1015.85
444.518	997.77
444.892	1020.82
445.267	1022.63
445.641	1028.73
446.016	1042.97
446.39	1028.28
446.764	1048.62
447.139	1001.61
447.513	1065.57
447.887	1056.98
448.262	1062.85
448.636	1084.32
449.01	1080.93
449.384	1064.44
449.758	1093.14
450.132	1093.36
450.506	1102.85
450.88	1124.32
451.254	1125.68
451.628	1139.24
452.002	1131.33
452.376	1167.71
452.75	1140.37
453.123	1162.74
453.497	1198.9
453.871	1192.34
454.244	1199.8
454.618	1229.4
454.992	1217.43
455.365	1213.58
455.739	1231.66
456.112	1260.14
456.486	1287.71
456.859	1293.13
457.232	1299.23
457.606	1308.95
457.979	1312.56
458.352	1338.78
458.725	1363.86
459.099	1363.86
459.472	1401.15
459.845	1368.61
460.218	1439.11
460.591	1408.16
460.964	1421.49
461.337	1451.77
461.71	1458.32
462.083	1490.41
462.456	1526.12
462.829	1537.19
463.201	1536.29
463.574	1537.64
463.947	1558.66
464.32	1592.78
464.692	1600.69
465.065	1633.23
465.438	1653.8
465.81	1653.57
466.183	1674.81
466.555	1702.61
466.928	1736.96
467.3	1711.65
467.672	1749.84
468.045	1800.24
468.417	1770.86
468.789	1799.33
469.161	1843.4
469.534	1869.61
469.906	1866.9
470.278	1903.74
470.65	1924.53
471.022	1932.66
471.394	1977.86
471.766	1999.55
472.138	2033.45
472.51	2068.02
472.882	2073.67
473.253	2082.49
473.625	2138.53
473.997	2197.29
474.369	2212.2
474.74	2218.53
475.112	2281.13
475.484	2285.19
475.855	2344.85
476.227	2366.32
476.598	2386.66
476.97	2418.52
477.341	2495.36
477.713	2498.97
478.084	2532.42
478.455	2621.46
478.827	2656.26
479.198	2669.36
479.569	2708.01
479.94	2788.01
480.311	2787.1
480.682	2898.06
481.053	2898.74
481.424	2960.88
481.795	2989.58
482.166	3064.38
482.537	3085.4
482.908	3154.1
483.279	3168.79
483.65	3273.19
484.021	3315.22
484.391	3378.05
484.762	3355.9
485.133	3419.4
485.503	3454.43
485.874	3551.6
486.244	3606.97
486.615	3644.93
486.985	3692.39
487.356	3759.73
487.726	3817.36
488.097	3884.25
488.467	3869.33
488.837	3987.3
489.207	4072.04
489.578	4094.86
489.948	4133.73
490.318	4223.67
490.688	4234.97
491.058	4294.41
491.428	4426.83
491.798	4392.26
492.168	4458.24
492.538	4528.07
492.908	4555.19
493.278	4625.47
493.648	4633.83
494.017	4767.61
494.387	4787.05
494.757	4861.85
495.126	4871.79
495.496	4949.3
495.866	4940.04
496.235	5054.84
496.605	5137.1
496.974	5176.64
497.344	5225.68
497.713	5268.39
498.082	5315.85
498.452	5383.87
498.821	5384.55
499.19	5456.18
499.559	5511.32
499.928	5533.7
500.298	5579.57
500.667	5662.05
501.036	5677.65
501.405	5743.41
501.774	5743.41
502.143	5897.98
502.512	5894.59
502.88	5942.05
503.249	5951.99
503.618	6031.31
503.987	6068.82
504.356	6141.59
504.724	6224.07
505.093	6213.68
505.462	6283.51
505.83	6362.83
506.199	6344.97
506.567	6536.61
506.936	6508.59
507.304	6629.94
507.672	6591.3
508.041	6709.71
508.409	6756.71
508.777	6852.31
509.145	6847.33
509.514	6930.04
509.882	6993.09
510.25	7066.54
510.618	7132.52
510.986	7140.21
511.354	7284.84
511.722	7346.3
512.09	7421.33
512.458	7445.74
512.826	7528.45
513.193	7579.97
513.561	7575.68
513.929	7691.83
514.297	7815.44
514.664	7865.39
515.032	7862.9
515.4	8053.63
515.767	8072.84
516.135	8112.16
516.502	8136.79
516.869	8332.49
517.237	8299.95
517.604	8384.47
517.972	8532.26
518.339	8593.95
518.706	8611.58
519.073	8669.21
519.44	8758.47
519.808	8916.66
520.175	8880.95
520.542	9095.64
520.909	9117.33
521.276	9144
521.643	9273.03
522.009	9448.4
522.376	9500.6
522.743	9482.52
523.11	9698.33
523.477	9769.52
523.843	9885.22
524.21	9982.17
524.577	10061.49
524.943	10141.26
525.31	10244.76
525.676	10415.83
526.043	10461.02
526.409	10488.37
526.776	10604.07
527.142	10713.67
527.508	10837.51
527.874	10953.67
528.241	10998.19
528.607	11073.89
528.973	11221.68
529.339	11270.04
529.705	11454.22
530.071	11510.71
530.437	11672.74
530.803	11718.17
531.169	11785.28
531.535	11878.84
531.901	11922.68
532.267	12045.62
532.632	12166.74
532.998	12271.82
533.364	12361.99
533.73	12435.66
534.095	12464.36
534.461	12670.68
534.826	12669.1
535.192	12703.68
535.557	12933.05
535.923	12908.64
536.288	13028.87
536.653	13121.29
537.019	13129.88
537.384	13201.07
537.749	13347.05
538.114	13303.66
538.479	13439.03
538.845	13523.54
539.21	13616.42
539.575	13731.45
539.94	13800.82
540.305	13870.2
540.67	13923.98
541.034	14020.03
541.399	14085.79
541.764	14226.8
542.129	14253.02
542.494	14321.71
542.858	14434.48
543.223	14480.13
543.587	14613.46
543.952	14647.58
544.316	14648.26
544.681	14784.75
545.045	14888.25
545.41	15065.65
545.774	15059.55
546.138	15028.81
546.503	15249.83
546.867	15197.85
547.231	15354.91
547.595	15543.83
547.959	15541.34
548.324	15648.01
548.688	15663.15
549.052	15730.49
549.416	15825.4
549.779	15966.87
550.143	16092.29
550.507	16192.4
550.871	16271.72
551.235	16382.9
551.599	16436.23
551.962	16500.87
552.326	16509.23
552.689	16716.23
553.053	16692.5
553.417	16759.84
553.78	17092.71
554.143	17000.51
554.507	17086.61
554.87	17234.18
555.234	17464.91
555.597	17356.89
555.96	17503.55
556.323	17630.33
556.686	17650.44
557.05	17891.56
557.413	17917.33
557.776	17905.8
558.139	18120.26
558.502	18279.58
558.865	18360.7
559.228	18511.89
559.59	18599.34
559.953	18674.14
560.316	18955.49
560.679	18926.56
561.041	19028.48
561.404	19186.44
561.767	19341.69
562.129	19287.68
562.492	19532.42
562.854	19508.92
563.217	19606.77
563.579	19687.9
563.941	19819.42
564.304	19967.22
564.666	20182.12
565.028	20147.32
565.39	20289.01
565.753	20450.82
566.115	20558.39
566.477	20619.18
566.839	20782.33
567.201	20882.22
567.563	20978.94
567.925	21231.14
568.287	21202.66
568.648	21223.23
569.01	21489.43
569.372	21593.39
569.734	21627.96
570.095	21796.09
570.457	21846.26
570.819	21944.56
571.18	21981.63
571.542	22205.8
571.903	22235.18
572.265	22294.61
572.626	22526.02
572.987	22538.67
573.349	22646.01
573.71	22709.97
574.071	22764.66
574.432	22902.51
574.794	23116.28
575.155	23133.91
575.516	23148.15
575.877	23241.25
576.238	23297.75
576.599	23505.43
576.96	23421.81
577.32	23586.33
577.681	23604.41
578.042	23682.6
578.403	23807.34
578.763	23918.52
579.124	23960.1
579.485	24116.94
579.845	24060.67
580.206	24260.21
580.566	24242.58
580.927	24280.1
581.287	24339.76
581.648	24361.22
582.008	24399.64
582.368	24575.68
582.728	24556.02
583.089	24664.04
583.449	24605.51
583.809	24678.73
584.169	24796.24
584.529	24701.78
584.889	24985.16
585.249	24791.72
585.609	24853.41
585.969	25062.67
586.329	25007.53
586.688	25080.75
587.048	25088.44
587.408	25165.72
587.768	25131.6
588.127	25090.7
588.487	25258.38
588.846	25434.87
589.206	25217.25
589.565	25450.23
589.925	25525.26
590.284	25533.62
590.643	25531.36
591.003	25675.54
591.362	25720.28
591.721	25758.48
592.08	25720.06
592.44	25778.14
592.799	25929.09
593.158	25808.42
593.517	25830.34
593.876	26005.7
594.235	25921.18
594.593	26037.56
594.952	26088.64
595.311	26031.24
595.67	26123.66
596.029	26283.43
596.387	26294.28
596.746	26365.69
597.104	26374.28
597.463	26307.61
597.822	26456.08
598.18	26360.72
598.538	26379.48
598.897	26604.55
599.255	26418.12
599.613	26747.38
599.972	26689.98
600.33	26753.03
600.688	26684.55
601.046	26804.32
601.404	26958.44
601.762	26741.5
602.12	27068.72
602.478	27080.02
602.836	27067.37
603.194	26932.23
603.552	27164.09
603.91	27127.25
604.268	27161.15
604.625	27064.66
604.983	27283.63
605.341	27122.51
605.698	27337.87
606.056	27431.88
606.413	27369.51
606.771	27484.98
607.128	27568.82
607.485	27399.79
607.843	27483.85
608.2	27748.25
608.557	27699.44
608.914	27633
609.272	27770.63
609.629	27975.14
609.986	28058.75
610.343	28018.53
610.7	28192.99
611.057	28169.49
611.414	28191.18
611.771	28236.15
612.127	28333.77
612.484	28349.37
612.841	28382.36
613.198	28345.07
613.554	28404.73
613.911	28627.33
614.267	28584.16
614.624	28527.67
614.98	28679.75
615.337	28796.36
615.693	28670.94
616.05	28644.05
616.406	28955
616.762	28797.72
617.118	28824.16
617.475	28957.26
617.831	28957.26
618.187	29131.95
618.543	29105.51
618.899	29279.06
619.255	29247.88
619.611	29208.33
619.967	29383.69
620.323	29454.42
620.678	29353.86
621.034	29241.1
621.39	29390.02
621.746	29330.13
622.101	29719.28
622.457	29524.03
622.812	29512.73
623.168	29563.57
623.523	29814.19
623.879	29750.01
624.234	29675.43
624.589	29631.37
624.945	29692.84
625.3	29736
625.655	29731.93
626.01	29731.03
626.365	29794.3
626.72	29860.74
627.075	29761.99
627.43	29696.9
627.785	29811.25
628.14	29786.62
628.495	29900.51
628.85	29831.59
629.205	29700.07
629.559	29939.16
629.914	29824.58
630.269	29830.23
630.623	29831.36
630.978	29697.81
631.332	30027.97
631.687	30078.59
632.041	29880.4
632.396	29950.91
632.75	29814.41
633.104	29912.26
633.459	29742.55
633.813	29842.89
634.167	29745.04
634.521	29760.4
634.875	29760.18
635.229	29888.54
635.583	29549.56
635.937	29650.8
636.291	29755.21
636.645	29621.2
636.999	29631.82
637.352	29802.21
637.706	29454.65
638.06	29780.74
638.413	29713.17
638.767	29604.7
639.121	29660.29
639.474	29550.24
639.828	29514.99
640.181	29585.72
640.534	29524.7
640.888	29487.64
641.241	29353.18
641.594	29506.4
641.947	29598.6
642.301	29417.59
642.654	29601.31
643.007	29543.69
643.36	29490.35
643.713	29362.22
644.066	29507.76
644.419	29319.06
644.771	29154.77
645.124	28842.91
645.477	28863.93
645.83	28724.27
646.182	28630.49
646.535	28610.15
646.888	28669.13
647.24	28567.44
647.593	28708
647.945	28565.41
648.298	28520.89
648.65	28529.48
649.002	28400.21
649.355	28591.85
649.707	28531.74
650.059	28604.95
650.411	29077.48
650.763	29011.27
651.115	29319.29
651.467	29273.19
651.819	29180.31
652.171	29260.08
652.523	29225.28
652.875	29115
653.227	29032.74
653.578	29239.51
653.93	29274.99
654.282	29042.91
654.633	29091.95
654.985	29115.68
655.337	29060.54
655.688	29159.52
656.039	29247.42
656.391	28966.75
656.742	28979.18
657.094	29110.93
657.445	29143.02
657.796	29121.32
658.147	29071.38
658.498	29028.67
658.849	28950.26
659.2	29096.01
659.551	28971.72
659.902	29121.32
660.253	29014.21
660.604	29047.43
660.955	28950.48
661.306	29070.93
661.656	28978.5
662.007	29116.13
662.358	29122.91
662.708	29160.42
663.059	29145.28
663.409	28884.27
663.76	29106.64
664.11	29172.17
664.461	29175.56
664.811	29236.12
665.161	29249.68
665.511	29064.6
665.862	29264.37
666.212	29227.08
666.562	29244.94
666.912	29259.4
667.262	29290.81
667.612	29050.14
667.962	29181.89
668.312	29144.6
668.662	29205.39
669.011	29232.28
669.361	29116.13
669.711	29191.61
670.06	29229.8
670.41	29171.72
670.76	28991.84
671.109	29139.4
671.459	29136.24
671.808	29075.45
672.157	29033.87
672.507	29030.25
672.856	29034.32
673.205	29026.64
673.554	29044.72
673.904	28925.17
674.253	29163.36
674.602	29135.34
674.951	28594.33
675.3	28712.3
675.649	28986.41
675.998	28936.24
676.346	29050.14
676.695	29043.81
677.044	28915.23
677.393	29011.27
677.741	28988.22
678.09	28963.14
678.438	28743.93
678.787	29029.12
679.135	28891.05
679.484	28741.67
679.832	29042.46
680.181	28682.69
680.529	28921.56
680.877	28709.13
681.225	28715.46
681.573	28900.09
681.922	28710.26
682.27	28483.83
682.618	28595.24
682.966	28566.76
683.314	28734.22
683.661	28507.33
684.009	28430.04
684.357	28393.66
684.705	28405.19
685.053	28372.87
685.4	28385.52
685.748	28132.42
686.095	28264.17
686.443	28140.79
686.79	28141.69
687.138	28081.8
687.485	28201.8
687.832	28074.12
688.18	28159.54
688.527	28000.22
688.874	27855.14
689.221	28023.73
689.568	27851.98
689.915	27819.44
690.262	27739.44
690.609	27761.59
690.956	27609.05
691.303	27602.95
691.65	27429.39
691.997	27642.72
692.344	27351.43
692.69	27368.83
693.037	27427.81
693.383	27186.69
693.73	27249.06
694.077	27056.52
694.423	27119.34
694.769	27062.85
695.116	26975.84
695.462	27013.58
695.808	26879.58
696.155	26897.2
696.501	26722.97
696.847	26677.77
697.193	26693.37
697.539	26629.64
697.885	26485.91
698.231	26444.78
698.577	26445.91
698.923	26420.38
699.269	26226.49
699.614	26120.05
699.96	26154.85
700.306	26110.78
700.651	25971.35
700.997	26075.3
701.342	25873.05
701.688	25818.13
702.033	25679.61
702.379	25758.7
702.724	25734.07
703.069	25826.04
703.415	25499.95
703.76	25488.88
704.105	25489.33
704.45	25430.8
704.795	25275.55
705.14	25327.75
705.485	25217.92
705.83	25189.22
706.175	25226.06
706.52	25150.36
706.865	24997.14
707.209	25123.69
707.554	24906.07
707.899	24905.39
708.243	24919.85
708.588	24791.5
708.932	24658.62
709.277	24617.94
709.621	24718.95
709.966	24595.34
710.31	24531.61
710.654	24368.91
710.998	24488.45
711.342	24517.38
711.687	24391.96
712.031	24321
712.375	24319.19
712.719	24328.46
713.063	24190.38
713.407	24257.72
713.75	24297.04
714.094	24134.11
714.438	24050.27
714.782	24024.28
715.125	23872.88
715.469	24014.57
715.812	23808.02
716.156	23813.22
716.499	23896.6
716.843	23821.13
717.186	23773.44
717.53	23825.64
717.873	23874.91
718.216	23737.74
718.559	23643.28
718.902	23568.25
719.246	23630.4
719.589	23614.35
719.932	23521.25
720.275	23398.31
720.617	23400.35
720.96	23366.9
721.303	23393.34
721.646	23388.82
721.989	23243.06
722.331	23320.57
722.674	23332.1
723.016	23255.26
723.359	23312.89
723.701	23236.28
724.044	23115.15
724.386	23156.74
724.729	23150.86
725.071	23151.31
725.413	23174.36
725.755	23053.69
726.097	22939.11
726.439	22956.29
726.782	22993.35
727.124	23046.91
727.465	22853.92
727.807	23026.8
728.149	22893.92
728.491	22797.2
728.833	22893.69
729.175	22775.05
729.516	22756.75
729.858	22752.23
730.199	22855.95
730.541	22834.03
730.882	22669.06
731.224	22768.95
731.565	22650.08
731.906	22721.27
732.248	22843.52
732.589	22583.64
732.93	22548.39
733.271	22556.07
733.612	22526.92
733.953	22679.69
734.294	22558.56
734.635	22489.41
734.976	22515.17
735.317	22417.32
735.658	22384.1
735.999	22489.41
736.339	22426.59
736.68	22381.16
737.021	22408.51
737.361	22327.38
737.702	22393.82
738.042	22345.01
738.383	22400.15
738.723	22325.35
739.063	22255.97
739.404	22347.94
739.744	22221.62
740.084	22263.2
740.424	22261.17
740.764	22152.47
741.104	22269.75
741.444	22169.87
741.784	22115.63
742.124	22208.06
742.464	22133.94
742.804	22105.24
743.143	22101.85
743.483	22089.19
743.823	21934.4
744.162	21977.33
744.502	21989.76
744.841	21914.51
745.181	22013.71
745.52	21921.74
745.86	21938.24
746.199	21955.64
746.538	21935.07
746.877	21968.29
747.216	21929.42
747.556	21866.83
747.895	21942.76
748.234	21809.88
748.573	21814.62
748.911	21930.55
749.25	21825.92
749.589	21813.72
749.928	21829.09
750.267	21787.73
750.605	21849.2
750.944	21806.26
751.283	21663.44
751.621	21688.98
751.96	21603.78
752.298	21685.59
752.636	21675.42
752.975	21484.24
753.313	21495.08
753.651	21588.64
753.989	21455.31
754.327	21442.66
754.666	21356.11
755.004	21510.68
755.342	21487.4
755.679	21442.2
756.017	21346.84
756.355	21451.02
756.693	21303.45
757.031	21308.2
757.368	21293.06
757.706	21250.57
758.044	21230.23
758.381	21172.38
758.719	21031.14
759.056	21062.1
759.394	21155.43
759.731	20948.43
760.068	20879.28
760.405	20807.64
760.743	20863.24
761.08	20836.8
761.417	20812.39
761.754	20768.1
762.091	20793.18
762.428	20624.15
762.765	20621.66
763.102	20658.5
763.438	20602
763.775	20402.23
764.112	20373.08
764.449	20574.88
764.785	20291.95
765.122	20317.94
765.458	20246.3
765.795	20165.63
766.131	20173.09
766.467	20153.42
766.804	20078.62
767.14	19957.27
767.476	19956.59
767.812	19758.63
768.148	19883.38
768.485	19726.77
768.821	19618.52
769.157	19707.56
769.492	19642.48
769.828	19548.47
770.164	19408.13
770.5	19414.46
770.836	19375.14
771.171	19231.19
771.507	19206.78
771.842	19110.29
772.178	18989.61
772.513	19059.22
772.849	19019.44
773.184	18985.32
773.519	18910.29
773.855	18878.2
774.19	18813.12
774.525	18685.21
774.86	18724.54
775.195	18711.65
775.53	18537.42
775.865	18451.55
776.2	18372.68
776.535	18335.17
776.87	18257.2
777.205	18243.87
777.539	18138.34
777.874	18132.46
778.209	18043.88
778.543	18085.46
778.878	17928.17
779.212	17806.82
779.547	17807.5
779.881	17825.12
780.215	17678.01
780.55	17707.16
780.884	17611.8
781.218	17590.1
781.552	17653.6
781.886	17487.28
782.22	17386.04
782.554	17385.81
782.888	17186.72
783.222	17152.37
783.556	17118.48
783.889	17165.25
784.223	16955.32
784.557	16986.5
784.89	16991.7
785.224	16883.91
785.557	16781.54
785.891	16680.52
786.224	16719.84
786.558	16751.71
786.891	16499.28
787.224	16450.92
787.557	16438.72
787.891	16546.74
788.224	16504.26
788.557	16387.87
788.89	16368.44
789.223	16334.09
789.556	16182.68
789.888	16111.27
790.221	16091.16
790.554	16026.53
790.887	15946.3
791.219	15902.46
791.552	15887.77
791.884	15892.29
792.217	15805.97
792.549	15683.03
792.882	15596.48
793.214	15584.28
793.546	15701.11
793.879	15531.17
794.211	15465.19
794.543	15517.16
794.875	15478.97
795.207	15436.71
795.539	15324.63
795.871	15323.95
796.203	15180.22
796.535	15226.32
796.867	15097.74
797.198	15101.81
797.53	15019.77
797.862	14974.58
798.193	15001.47
798.525	14872.43
798.856	14943.17
799.188	14737.3
799.519	14707.92
799.85	14682.83
800.182	14673.57
800.513	14714.7
800.844	14613.23
801.175	14632.44
801.506	14550.63
801.837	14566.68
802.168	14478.32
802.499	14493.46
802.83	14286.46
803.161	14290.53
803.491	14304.77
803.822	14312.9
804.153	14193.13
804.483	14076.07
804.814	14154.03
805.145	14052.57
805.475	14190.19
805.805	13956.07
806.136	14010.54
806.466	13994.72
806.796	13994.94
807.126	13878.34
807.457	13780.26
807.787	13829.98
808.117	13741.39
808.447	13736.42
808.777	13796.08
809.107	13646.48
809.436	13583.65
809.766	13636.76
810.096	13539.36
810.426	13495.75
810.755	13466.37
811.085	13519.25
811.414	13422.98
811.744	13381.63
812.073	13289.65
812.403	13303.89
812.732	13272.02
813.061	13265.92
813.39	13300.27
813.719	13159.48
814.049	13247.39
814.378	13179.82
814.707	13140.05
815.036	13183.21
815.365	13087.85
815.693	12979.83
816.022	12933.28
816.351	12999.71
816.68	12823
817.008	12942.99
817.337	12910.68
817.665	12826.84
817.994	12886.27
818.322	12809.66
818.651	12756.56
818.979	12653.28
819.307	12720.4
819.636	12631.14
819.964	12632.04
820.292	12710.23
820.62	12663.9
820.948	12649.44
821.276	12667.52
821.604	12570.57
821.932	12550.91
822.259	12683.34
822.587	12595.43
822.915	12566.51
823.243	12640.85
823.57	12597.01
823.898	12578.48
824.225	12570.57
824.553	12483.12
824.88	12536.22
825.207	12541.2
825.535	12603.11
825.862	12588.65
826.189	12529.44
826.516	12596.34
826.843	12627.07
827.17	12626.84
827.497	12677.24
827.824	12653.74
828.151	12620.74
828.478	12546.17
828.805	12665.94
829.131	12593.85
829.458	12554.53
829.785	12546.39
830.111	12532.16
830.438	12616.9
830.764	12578.26
831.09	12612.61
831.417	12555.66
831.743	12614.19
832.069	12531.25
832.395	12512.5
832.722	12561.08
833.048	12512.5
833.374	12539.61
833.7	12440.63
834.026	12545.94
834.351	12528.99
834.677	12472.72
835.003	12535.09
835.329	12484.25
835.654	12470.92
835.98	12369.22
836.306	12404.25
836.631	12365.83
836.956	12500.52
837.282	12456.68
837.607	12409.45
837.932	12317.92
838.258	12321.77
838.583	12307.98
838.908	12189.57
839.233	12306.4
839.558	12197.25
839.883	12137.14
840.208	12168.78
840.533	12190.24
840.858	12248.77
841.182	12137.82
841.507	12119.96
841.832	12098.5
842.156	12083.13
842.481	12060.98
842.805	11986.86
843.13	11937.14
843.454	12004.03
843.778	11948.67
844.103	11939.63
844.427	11835.9
844.751	11889.01
845.075	11879.29
845.399	11749.35
845.723	11763.81
846.047	11719.3
846.371	11623.48
846.695	11650.6
847.019	11619.86
847.343	11574.89
847.666	11429.81
847.99	11409.7
848.313	11358.4
848.637	11357.5
848.96	11298.74
849.284	11335.13
849.607	11250.83
849.931	11189.59
850.254	11186.43
850.577	11104.17
850.9	10996.38
851.223	10986.89
851.546	10924.74
851.869	10903.5
852.192	11043.83
852.515	10765.42
852.838	10783.28
853.161	10726.78
853.483	10775.37
853.806	10673.22
854.129	10710.51
854.451	10682.26
854.774	10649.27
855.096	10570.85
855.419	10589.38
855.741	10545.99
856.063	10480.68
856.385	10397.98
856.708	10384.19
857.03	10403.4
857.352	10381.93
857.674	10374.92
857.996	10329.28
858.318	10223.06
858.64	10258.54
858.961	10194.59
859.283	10159.56
859.605	10102.84
859.926	10237.75
860.248	10101.03
860.57	10089.06
860.891	10142.61
861.212	10021.71
861.534	10066.91
861.855	10033.46
862.176	10006.8
862.498	9959.57
862.819	9975.39
863.14	9990.3
863.461	9926.12
863.782	9913.24
864.103	9892.45
864.424	9863.3
864.745	9846.13
865.065	9796.18
865.386	9812.23
865.707	9789.18
866.027	9837.31
866.348	9770.65
866.668	9759.8
866.989	9735.85
867.309	9639.13
867.63	9673.02
867.95	9704.21
868.27	9640.03
868.59	9583.31
868.91	9632.35
869.23	9620.37
869.55	9561.84
869.87	9631.44
870.19	9623.31
870.51	9565.23
870.83	9561.39
871.15	9422.63
871.469	9517.32
871.789	9483.2
872.109	9517.77
872.428	9457.21
872.748	9513.25
873.067	9507.38
873.386	9487.49
873.706	9445.91
874.025	9394.61
874.344	9342.86
874.663	9286.82
874.982	9428.28
875.301	9366.82
875.62	9349.42
875.939	9344.22
876.258	9315.97
876.577	9287.95
876.896	9294.5
877.214	9236.88
877.533	9273.03
877.852	9243.88
878.17	9220.83
878.489	9231.68
878.807	9223.09
879.125	9268.51
879.444	9158.91
879.762	9146.48
880.08	9138.12
880.398	9074.85
880.716	9086.15
881.034	9043.43
881.352	9100.16
881.67	9065.35
881.988	9009.99
882.306	8982.19
882.624	8975.19
882.941	8960.5
883.259	8934.96
883.577	8964.11
883.894	8905.81
884.212	8880.05
884.529	8842.54
884.846	8835.76
885.164	8781.75
885.481	8821.97
885.798	8805.93
886.115	8773.61
886.432	8812.71
886.75	8746.49
887.067	8803.89
887.383	8763.89
887.7	8727.96
888.017	8608.64
888.334	8644.57
888.651	8638.7
888.967	8602.09
889.284	8598.02
889.6	8533.62
889.917	8550.79
890.233	8591.47
890.55	8524.13
890.866	8481.87
891.182	8487.52
891.498	8447.07
891.815	8407.29
892.131	8384.02
892.447	8355.54
892.763	8324.13
893.079	8304.7
893.395	8269.22
893.71	8297.24
894.026	8210.69
894.342	8258.6
894.657	8217.92
894.973	8193.97
895.289	8200.29
895.604	8145.83
895.92	8081.65
896.235	8040.3
896.55	8057.25
896.865	8004.37
897.181	7960.07
897.496	7967.53
897.811	7996.68
898.126	7880.3
898.441	7880.08
898.756	7822
899.071	7817.03
899.386	7843.47
899.7	7833.3
900.015	7741.77
900.33	7659.29
900.644	7703.36
900.959	7661.1
901.273	7657.26
901.588	7645.51
901.902	7612.29
902.216	7545.39
902.531	7566.41
902.845	7514.44
903.159	7501.1
903.473	7519.18
903.787	7417.94
904.101	7352.18
904.415	7372.97
904.729	7332.97
905.042	7337.26
905.356	7271.28
905.67	7281.22
905.984	7275.57
906.297	7241.22
906.611	7174.33
906.924	7200.77
907.237	7142.02
907.551	7122.13
907.864	7099.08
908.177	7090.94
908.491	7100.66
908.804	6997.61
909.117	6991.06
909.43	7020.21
909.743	6897.05
910.056	6910.38
910.368	6865.86
910.681	6818.41
910.994	6767.79
911.307	6832.87
911.619	6717.85
911.932	6759.43
912.244	6650.5
912.557	6676.94
912.869	6647.57
913.181	6650.28
913.494	6592.88
913.806	6586.55
914.118	6525.53
914.43	6527.34
914.742	6503.16
915.054	6427.23
915.366	6469.49
915.678	6424.75
915.99	6358.53
916.302	6350.85
916.613	6318.53
916.925	6351.08
917.236	6292.77
917.548	6297.07
917.859	6240.8
918.171	6189.95
918.482	6122.38
918.794	6210.97
919.105	6203.28
919.416	6158.54
919.727	6105.21
920.038	6073.57
920.349	6043.51
920.66	6034.93
920.971	5968.49
921.282	5998.77
921.593	5912.67
921.903	5888.26
922.214	5891.65
922.525	5930.3
922.835	5872.67
923.146	5786.57
923.456	5799
923.767	5739.57
924.077	5710.19
924.387	5727.82
924.697	5693.69
925.008	5689.85
925.318	5640.13
925.628	5664.31
925.938	5627.03
926.248	5517.88
926.558	5557.65
926.867	5544.54
927.177	5451.66
927.487	5464.77
927.796	5426.35
928.106	5478.56
928.416	5467.03
928.725	5409.18
929.034	5388.62
929.344	5372.34
929.653	5371.21
929.962	5309.3
930.271	5287.6
930.581	5265
930.89	5221.39
931.199	5228.39
931.508	5180.94
931.817	5205.12
932.125	5245.34
932.434	5117.89
932.743	5134.61
933.051	5111.33
933.36	5072.24
933.669	5041.28
933.977	5032.24
934.286	5015.97
934.594	5038.12
934.902	4990.66
935.21	4928.06
935.519	4934.84
935.827	4922.64
936.135	4904.33
936.443	4860.72
936.751	4865.92
937.059	4835.64
937.367	4848.06
937.674	4769.2
937.982	4758.12
938.29	4705.7
938.597	4735.53
938.905	4719.48
939.213	4675.19
939.52	4722.87
939.827	4669.76
940.135	4656.43
940.442	4587.05
940.749	4608.52
941.056	4582.08
941.363	4556.09
941.67	4504.57
941.977	4504.8
942.284	4477.68
942.591	4446.04
942.898	4443.33
943.205	4481.52
943.511	4406.27
943.818	4425.02
944.125	4369.43
944.431	4361.75
944.738	4315.88
945.044	4328.76
945.35	4376.89
945.657	4302.77
945.963	4265.26
946.269	4293.5
946.575	4244.69
946.881	4253.05
947.187	4237.23
947.493	4183.9
947.799	4192.49
948.105	4134.19
948.41	4133.96
948.716	4106.39
949.022	4111.59
949.327	4090.34
949.633	4046.73
949.938	4048.76
950.244	4031.81
950.549	3982.32
950.854	3967.18
951.16	3998.6
951.465	3954.75
951.77	3907.98
952.075	3907.3
952.38	3977.13
952.685	3907.75
952.99	3860.75
953.294	3850.8
953.599	3858.26
953.904	3862.1
954.209	3797.02
954.513	3800.86
954.818	3762.44
955.122	3766.74
955.426	3734.2
955.731	3727.19
956.035	3681.32
956.339	3729
956.643	3692.39
956.948	3643.8
957.252	3628.44
957.556	3629.79
957.86	3651.03
958.163	3625.5
958.467	3606.06
958.771	3613.29
959.075	3547.08
959.378	3531.26
959.682	3554.54
959.985	3532.62
960.289	3510.02
960.592	3495.78
960.896	3493.98
961.199	3517.48
961.502	3468.89
961.805	3475.45
962.108	3416.92
962.411	3405.84
962.714	3352.06
963.017	3378.95
963.32	3373.75
963.623	3357.93
963.926	3287.2
964.228	3322
964.531	3284.72
964.833	3258.28
965.136	3292.17
965.438	3275.45
965.741	3246.52
966.043	3247.88
966.345	3239.52
966.648	3226.41
966.95	3221.44
967.252	3159.52
967.554	3188.67
967.856	3147.54
968.158	3092.4
968.46	3119.3
968.761	3110.94
969.063	3101.44
969.365	3093.53
969.666	3121.56
969.968	3049.69
970.269	3079.07
970.571	3033.42
970.872	3020.54
971.174	3012.18
971.475	3008.56
971.776	3018.51
972.077	2969.02
972.378	2969.7
972.679	2976.48
972.98	2960.43
973.281	2950.49
973.582	2905.74
973.883	2893.31
974.183	2904.84
974.484	2876.82
974.785	2867.33
975.085	2826.2
975.386	2830.04
975.686	2818.29
975.986	2806.08
976.287	2809.02
976.587	2756.14
976.887	2782.58
977.187	2759.98
977.487	2741.23
977.787	2724.28
978.087	2743.71
978.387	2741.23
978.687	2721.34
978.987	2677.27
979.286	2665.52
979.586	2702.58
979.885	2646.31
980.185	2668.01
980.484	2655.81
980.784	2621.23
981.083	2628.46
981.382	2612.42
981.682	2609.93
981.981	2589.37
982.28	2575.81
982.579	2555.92
982.878	2556.37
983.177	2537.39
983.475	2521.8
983.774	2502.14
984.073	2500.56
984.372	2497.84
984.67	2472.53
984.969	2487
985.267	2494
985.566	2432.31
985.864	2452.42
986.162	2447.45
986.461	2430.73
986.759	2391.86
987.057	2403.61
987.355	2370.62
987.653	2373.78
987.951	2339.2
988.249	2384.4
988.547	2366.55
988.844	2331.07
989.142	2328.58
989.44	2323.84
989.737	2303.95
990.035	2286.55
990.332	2258.75
990.63	2266.21
990.927	2270.96
991.224	2263.95
991.521	2251.52
991.819	2264.86
992.116	2207.68
992.413	2215.59
992.71	2180.11
993.006	2221.47
993.303	2188.25
993.6	2169.26
993.897	2155.71
994.193	2151.64
994.49	2125.65
994.787	2162.71
995.083	2095.59
995.379	2118.64
995.676	2084.97
995.972	2067.8
996.268	2064.41
996.565	2064.41
996.861	2059.44
997.157	2053.34
997.453	2056.5
997.749	2018.99
998.044	2011.3
998.34	2011.76
998.636	2016.73
998.932	1992.77
999.227	1986.44
999.523	1993.68
999.818	1988.7
1000.114	1931.53
1000.409	1928.59
1000.704	1919.78
1001	1934.47
1001.295	1919.55
1001.59	1879.56
1001.885	1924.53
1002.18	1890.85
1002.475	1894.24
1002.77	1857.86
1003.065	1864.87
1003.359	1840.01
1003.654	1838.65
1003.949	1832.32
1004.243	1812.44
1004.538	1804.08
1004.832	1809.95
1005.127	1809.05
1005.421	1738.09
1005.715	1771.08
1006.009	1737.19
1006.304	1761.59
1006.598	1747.36
1006.892	1730.41
1007.186	1707.58
1007.48	1746
1007.773	1697.86
1008.067	1730.41
1008.361	1678.43
1008.655	1655.15
1008.948	1684.08
1009.242	1672.33
1009.535	1642.95
1009.829	1640.47
1010.122	1633.46
1010.415	1631.43
1010.708	1588.04
1011.001	1596.4
1011.295	1579.22
1011.588	1596.85
1011.881	1580.35
1012.173	1580.81
1012.466	1560.47
1012.759	1549.17
1013.052	1518.66
1013.344	1536.06
1013.637	1553.01
1013.93	1517.98
1014.222	1506.68
1014.514	1520.02
1014.807	1514.14
1015.099	1474.37
1015.391	1507.36
1015.683	1485.67
1015.976	1464.2
1016.268	1438.21
1016.56	1445.67
1016.851	1403.41
1017.143	1409.06
1017.435	1437.98
1017.727	1411.09
1018.018	1426.46
1018.31	1382.17
1018.602	1389.4
1018.893	1389.85
1019.185	1363.86
1019.476	1368.61
1019.767	1340.81
1020.058	1340.13
1020.35	1337.42
1020.641	1322.28
1020.932	1306.46
1021.223	1296.29
1021.514	1284.99
1021.804	1269.85
1022.095	1290.64
1022.386	1269.63
1022.677	1272.11
1022.967	1264.2
1023.258	1261.49
1023.548	1251.55
1023.839	1233.24
1024.129	1233.7
1024.419	1216.75
1024.709	1201.38
1025	1187.6
1025.29	1216.52
1025.58	1197.77
1025.87	1183.98
1026.16	1182.85
1026.449	1167.48
1026.739	1156.41
1027.029	1142.4
1027.319	1153.92
1027.608	1130.2
1027.898	1103.3
1028.187	1108.95
1028.477	1110.99
1028.766	1111.21
1029.055	1097.65
1029.344	1084.32
1029.634	1053.81
1029.923	1074.83
1030.212	1117.77
1030.501	1058.11
1030.79	1050.65
1031.078	1061.72
1031.367	1055.17
1031.656	1060.82
1031.945	1019.46
1032.233	1023.08
1032.522	1011.56
1032.81	1001.39
1033.099	986.02
1033.387	1033.25
1033.675	975.17
1033.963	978.79
1034.251	990.31
1034.54	985.34
1034.828	983.08
1035.116	959.13
1035.403	941.27
1035.691	962.52
1035.979	917.77
1036.267	947.83
1036.554	924.1
1036.842	934.72
1037.129	915.29
1037.417	898.79
1037.704	913.48
1037.992	886.81
1038.279	906.25
1038.566	898.34
1038.853	898.34
1039.14	898.34
