Data from cardboard_FLMS001491_046.txt Node
Date: Tue Feb 07 11:39:30 GMT 2017
User: dcchb
Spectrometer: FLMS00149
Trigger mode: 0
Integration Time (sec): 2.000000E-2
Scans to average: 10
Electric dark correction enabled: true
Nonlinearity correction enabled: false
Boxcar width: 0
XAxis mode: Wavelengths
Number of Pixels in Spectrum: 2048
>>>>>Begin Spectral Data<<<<<
341.393	0.08
341.776	0.08
342.16	0.08
342.543	-60.25
342.927	-70.65
343.31	-60.48
343.693	-68.84
344.077	-57.77
344.46	-57.31
344.843	-70.87
345.226	-39.69
345.61	-56.41
345.993	-22.51
346.376	-13.02
346.759	26.98
347.142	35.11
347.525	30.37
347.908	64.94
348.291	87.09
348.674	91.38
349.057	111.04
349.44	134.32
349.823	143.81
350.206	156.01
350.588	160.31
350.971	192.62
351.354	215.67
351.737	212.73
352.119	225.39
352.502	260.42
352.884	251.15
353.267	276.24
353.65	277.82
354.032	296.8
354.414	292.28
354.797	307.65
355.179	311.04
355.562	311.04
355.944	319.4
356.326	340.19
356.709	324.82
357.091	328.89
357.473	325.27
357.855	325.05
358.238	308.55
358.62	329.57
359.002	329.12
359.384	338.38
359.766	324.82
360.148	327.99
360.53	334.54
360.912	331.6
361.294	310.81
361.676	310.13
362.057	313.3
362.439	323.01
362.821	325.05
363.203	322.56
363.584	322.79
363.966	302.45
364.348	303.13
364.729	302
365.111	283.02
365.493	293.64
365.874	292.28
366.256	296.57
366.637	299.51
367.019	306.52
367.4	297.7
367.781	302.22
368.163	278.95
368.544	289.34
368.925	290.7
369.306	299.51
369.688	303.58
370.069	310.36
370.45	298.83
370.831	291.83
371.212	307.65
371.593	292.05
371.974	283.47
372.355	289.57
372.736	294.09
373.117	294.99
373.498	309.91
373.879	304.03
374.26	292.51
374.641	312.17
375.021	288.66
375.402	300.19
375.783	295.67
376.163	303.58
376.544	327.99
376.925	315.56
377.305	309.23
377.686	294.77
378.066	300.19
378.447	321.43
378.827	321.88
379.208	297.7
379.588	312.62
379.968	293.64
380.349	300.19
380.729	312.62
381.109	319.62
381.489	300.64
381.87	308.55
382.25	314.88
382.63	302.9
383.01	304.03
383.39	325.27
383.77	309
384.15	360.3
384.53	314.88
384.91	326.4
385.29	336.57
385.67	329.57
386.049	342.67
386.429	318.04
386.809	328.89
387.189	328.89
387.568	325.5
387.948	308.78
388.328	315.1
388.707	322.34
389.087	352.84
389.466	333.64
389.846	336.12
390.225	349.23
390.605	347.19
390.984	319.85
391.363	325.73
391.743	352.39
392.122	342.22
392.501	352.62
392.881	337.48
393.26	338.61
393.639	348.1
394.018	346.29
394.397	352.84
394.776	338.83
395.155	348.55
395.534	354.88
395.913	355.78
396.292	368.89
396.671	358.49
397.05	349.23
397.429	344.93
397.808	369.11
398.186	371.15
398.565	366.4
398.944	355.1
399.323	366.85
399.701	366.4
400.08	361.66
400.458	340.87
400.837	370.24
401.215	360.08
401.594	365.95
401.972	352.84
402.351	358.04
402.729	372.96
403.107	380.64
403.486	374.99
403.864	346.74
404.242	372.5
404.62	374.09
404.999	389
405.377	399.17
405.755	381.32
406.133	382.9
406.511	395.1
406.889	368.44
407.267	389
407.645	398.72
408.023	397.14
408.401	386.52
408.779	415.44
409.156	401.88
409.534	414.54
409.912	405.05
410.29	406.4
410.667	408.66
411.045	413.63
411.422	428.55
411.8	427.19
412.178	415.67
412.555	406.63
412.933	422.45
413.31	414.09
413.687	444.59
414.065	438.72
414.442	436.23
414.819	443.24
415.197	441.2
415.574	432.16
415.951	419.28
416.328	437.59
416.705	429
417.082	445.5
417.46	440.75
417.837	455.44
418.214	456.34
418.591	478.04
418.967	438.27
419.344	462.22
419.721	450.92
420.098	457.25
420.475	444.37
420.852	489.11
421.228	482.33
421.605	468.77
421.982	473.07
422.358	516.46
422.735	485.27
423.111	479.39
423.488	497.7
423.864	491.6
424.241	505.16
424.617	489.79
424.994	503.8
425.37	501.09
425.746	502.44
426.123	499.05
426.499	507.87
426.875	536.57
427.251	532.27
427.627	519.62
428.003	516.46
428.379	509.68
428.756	513.52
429.132	525.72
429.507	532.5
429.883	535.89
430.259	529.79
430.635	550.58
431.011	558.26
431.387	536.79
431.763	561.88
432.138	559.84
432.514	569.79
432.89	564.14
433.265	567.98
433.641	589.22
434.016	572.95
434.392	593.06
434.767	584.25
435.143	588.09
435.518	594.87
435.894	592.39
436.269	623.35
436.644	603.23
437.02	604.81
437.395	622.44
437.77	622.44
438.145	598.94
438.52	649.79
438.895	626.73
439.271	648.66
439.646	635.55
440.021	653.4
440.395	654.53
440.77	631.71
441.145	641.65
441.52	661.08
441.895	653.4
442.27	695.21
442.645	662.67
443.019	699.5
443.394	668.09
443.769	673.74
444.143	687.3
444.518	682.33
444.892	695.66
445.267	724.13
445.641	679.61
446.016	720.07
446.39	694.53
446.764	724.59
447.139	725.49
447.513	727.98
447.887	725.94
448.262	725.26
448.636	729.78
449.01	737.69
449.384	721.65
449.758	736.34
450.132	758.71
450.506	752.16
450.88	774.75
451.254	766.84
451.628	781.31
452.002	781.53
452.376	788.99
452.75	797.8
453.123	796.45
453.497	806.84
453.871	794.87
454.244	783.57
454.618	816.33
454.992	826.28
455.365	827.41
455.739	838.25
456.112	838.71
456.486	833.06
456.859	845.49
457.232	866.73
457.606	875.77
457.979	867.41
458.352	886.84
458.725	864.24
459.099	898.37
459.472	902.43
459.845	914.41
460.218	906.95
460.591	915.54
460.964	957.8
461.337	943.56
461.71	942.43
462.083	958.25
462.456	973.62
462.829	986.05
463.201	1000.28
463.574	976.1
463.947	1006.16
464.32	993.96
464.692	1025.14
465.065	1039.83
465.438	1038.02
465.81	1064.46
466.183	1054.07
466.555	1075.76
466.928	1071.69
467.3	1091.13
467.672	1101.98
468.045	1116.67
468.417	1107.63
468.789	1118.93
469.161	1125.25
469.534	1155.08
469.906	1188.3
470.278	1186.72
470.65	1203.22
471.022	1209.54
471.394	1235.53
471.766	1240.28
472.138	1258.81
472.51	1256.77
472.882	1257.9
473.253	1292.71
473.625	1298.13
473.997	1317.34
474.369	1357.79
474.74	1351.01
475.112	1370.67
475.484	1397.79
475.855	1395.98
476.227	1412.48
476.598	1486.6
476.97	1441.85
477.341	1486.83
477.713	1520.27
478.084	1520.5
478.455	1546.03
478.827	1576.99
479.198	1628.74
479.569	1602.08
479.94	1654.05
480.311	1654.05
480.682	1687.5
481.053	1739.93
481.424	1773.37
481.795	1782.64
482.166	1798.46
482.537	1814.5
482.908	1870.54
483.279	1889.07
483.65	1932.24
484.021	1958.9
484.391	1951.67
484.762	2005.46
485.133	2022.18
485.503	2038.9
485.874	2057.43
486.244	2097.88
486.615	2121.84
486.985	2114.83
487.356	2194.83
487.726	2181.04
488.097	2222.85
488.467	2223.08
488.837	2280.93
489.207	2310.31
489.578	2361.38
489.948	2364.32
490.318	2415.84
490.688	2458.55
491.058	2458.78
491.428	2489.96
491.798	2487.7
492.168	2553.69
492.538	2594.37
492.908	2604.08
493.278	2639.79
493.648	2657.42
494.017	2689.96
494.387	2700.13
494.757	2767.92
495.126	2763.18
495.496	2772.89
495.866	2809.28
496.235	2811.08
496.605	2858.31
496.974	2870.74
497.344	2909.84
497.713	2938.54
498.082	2985.32
498.452	2999.33
498.821	3015.37
499.19	3055.6
499.559	3087.69
499.928	3104.64
500.298	3136.5
500.667	3128.36
501.036	3168.81
501.405	3204.52
501.774	3197.74
502.143	3231.86
502.512	3240.68
502.88	3310.73
503.249	3288.36
503.618	3358.41
503.987	3383.5
504.356	3365.65
504.724	3419.43
505.093	3473.21
505.462	3440.9
505.83	3500.11
506.199	3535.36
506.567	3616.49
506.936	3601.12
507.304	3632.08
507.672	3662.81
508.041	3656.94
508.409	3713.21
508.777	3789.14
509.145	3816.26
509.514	3806.54
509.882	3789.82
510.25	3851.73
510.618	3851.96
510.986	3884.95
511.354	3962.24
511.722	4006.76
512.09	4022.8
512.458	4026.87
512.826	4051.73
513.193	4155.46
513.561	4155.91
513.929	4175.79
514.297	4221.44
514.664	4228.67
515.032	4247.66
515.4	4334.66
515.767	4350.7
516.135	4372.4
516.502	4372.85
516.869	4416.69
517.237	4460.53
517.604	4453.3
517.972	4526.97
518.339	4626.86
518.706	4613.75
519.073	4641.32
519.44	4690.13
519.808	4771.94
520.175	4820.97
520.542	4864.82
520.909	4824.36
521.276	4840.18
521.643	4953.17
522.009	5014.19
522.376	5033.4
522.743	5110.68
523.11	5169.89
523.477	5161.53
523.843	5222.77
524.21	5262.09
524.577	5310.68
524.943	5353.39
525.31	5426.16
525.676	5468.19
526.043	5484.46
526.409	5538.24
526.776	5620.5
527.142	5610.11
527.508	5676.09
527.874	5747.05
528.241	5775.3
528.607	5757.67
528.973	5832.93
529.339	5924
529.705	5944.34
530.071	5927.84
530.437	6015.75
530.803	6098.46
531.169	6145.91
531.535	6113.37
531.901	6142.07
532.267	6248.28
532.632	6291.67
532.998	6318.79
533.364	6368.05
533.73	6399.01
534.095	6430.88
534.461	6458.45
534.826	6513.59
535.192	6544.77
535.557	6690.3
535.923	6628.84
536.288	6706.35
536.653	6696.41
537.019	6705.67
537.384	6792
537.749	6863.41
538.114	6903.18
538.479	6876.97
538.845	6956.06
539.21	6963.07
539.575	7018.88
539.94	7029.5
540.305	7076.96
540.67	7047.13
541.034	7121.93
541.399	7155.83
541.764	7245.09
542.129	7216.39
542.494	7310.85
542.858	7327.35
543.223	7364.18
543.587	7394.47
543.952	7483.5
544.316	7450.28
544.681	7505.88
545.045	7521.02
545.41	7579.55
545.774	7620.22
546.138	7612.77
546.503	7709.49
546.867	7746.55
547.231	7785.19
547.595	7822.48
547.959	7878.75
548.324	7846.88
548.688	7847.11
549.052	8017.5
549.416	7956.49
549.779	8037.16
550.143	8066.09
550.507	8137.95
550.871	8166.42
551.235	8186.31
551.599	8231.05
551.962	8290.04
552.326	8324.84
552.689	8408
553.053	8410.94
553.417	8431.73
553.78	8513.08
554.143	8565.06
554.507	8559.41
554.87	8596.47
555.234	8665.17
555.597	8633.76
555.96	8742.91
556.323	8794.43
556.686	8874.43
557.05	8923.92
557.413	8887.53
557.776	8977.02
558.139	9107.64
558.502	9070.58
558.865	9172.95
559.228	9145.38
559.59	9243.46
559.953	9250.46
560.316	9315.55
560.679	9339.5
561.041	9423.57
561.404	9530.23
561.767	9547.4
562.129	9607.29
562.492	9650.45
562.854	9707.85
563.217	9707.85
563.579	9791.92
563.941	9875.76
564.304	9868.98
564.666	9929.77
565.028	10044.11
565.39	9967.96
565.753	10166.37
566.115	10194.17
566.477	10180.38
566.839	10251.11
567.201	10389.42
567.563	10320.27
567.925	10404.33
568.287	10450.88
568.648	10500.15
569.01	10603.42
569.372	10574.04
569.734	10622.4
570.095	10727.94
570.457	10752.12
570.819	10784.21
571.18	10818.78
571.542	10899.01
571.903	10960.7
572.265	10990.98
572.626	11070.3
572.987	11106.23
573.349	11084.31
573.71	11166.8
574.071	11192.78
574.432	11283.18
574.794	11347.13
575.155	11317.98
575.516	11331.31
575.877	11424.19
576.238	11520.46
576.599	11488.37
576.96	11536.96
577.32	11553.68
577.681	11515.71
578.042	11644.98
578.403	11703.05
578.763	11693.11
579.124	11755.03
579.485	11779.89
579.845	11837.51
580.206	11748.25
580.566	11901.92
580.927	11865.76
581.287	11907.12
581.648	11960.9
582.008	12022.37
582.368	11914.57
582.728	12071.41
583.089	12077.73
583.449	12065.3
583.809	12041.8
584.169	12127
584.529	12192.31
584.889	12233.89
585.249	12194.11
585.609	12187.79
585.969	12261.23
586.329	12239.76
586.688	12305.75
587.048	12375.8
587.408	12387.33
587.768	12253.77
588.127	12275.69
588.487	12399.08
588.846	12412.87
589.206	12313.43
589.565	12351.85
589.925	12541.68
590.284	12490.6
590.643	12454.9
591.003	12497.84
591.362	12635.23
591.721	12554.78
592.08	12519.76
592.44	12608.79
592.799	12580.77
593.158	12630.26
593.517	12658.96
593.876	12733.76
594.235	12613.31
594.593	12755.68
594.952	12751.39
595.311	12710.26
595.67	12780.09
596.029	12817.83
596.387	12828.9
596.746	12894.43
597.104	12844.49
597.463	12820.54
597.822	12896.69
598.18	12855.57
598.538	12892.18
598.897	12916.58
599.255	12847.43
599.613	12985.28
599.972	12966.98
600.33	13023.02
600.688	12988.67
601.046	13008.56
601.404	13096.92
601.762	13084.49
602.12	13140.08
602.478	13131.26
602.836	13194.99
603.194	13126.97
603.552	13205.84
603.91	13116.8
604.268	13221.88
604.625	13185.05
604.983	13222.56
605.341	13201.55
605.698	13321.09
606.056	13282
606.413	13306.85
606.771	13432.73
607.128	13411.03
607.485	13425.04
607.843	13372.84
608.2	13484.02
608.557	13429.34
608.914	13418.26
609.272	13539.16
609.629	13562.89
609.986	13605.83
610.343	13521.31
610.7	13716.79
611.057	13672.27
611.414	13693.51
611.771	13670.91
612.127	13705.71
612.484	13763.56
612.841	13788.42
613.198	13725.6
613.554	13775.77
613.911	13925.59
614.267	13906.39
614.624	14001.3
614.98	13905.26
615.337	14025.48
615.693	13945.93
616.05	13956.33
616.406	14006.95
616.762	14030.9
617.118	13999.94
617.475	14015.08
617.831	14053.27
618.187	14181.86
618.543	14141.63
618.899	14287.84
619.255	14237.68
619.611	14160.62
619.967	14333.49
620.323	14311.8
620.678	14338.46
621.034	14267.96
621.39	14246.26
621.746	14301.63
622.101	14460.04
622.457	14387.28
622.812	14378.24
623.168	14400.16
623.523	14479.25
623.879	14528.29
624.234	14361.06
624.589	14485.35
624.945	14487.39
625.3	14528.74
625.655	14509.08
626.01	14555.63
626.365	14545.47
626.72	14576.65
627.075	14552.47
627.43	14503.43
627.785	14471.34
628.14	14494.84
628.495	14529.42
628.85	14538.23
629.205	14558.57
629.559	14719.25
629.914	14548.18
630.269	14563.54
630.623	14602.19
630.978	14553.37
631.332	14523.09
631.687	14537.33
632.041	14701.62
632.396	14668.17
632.75	14583.2
633.104	14539.59
633.459	14613.94
633.813	14490.33
634.167	14541.4
634.521	14572.81
634.875	14525.58
635.229	14587.5
635.583	14554.5
635.937	14478.8
636.291	14575.52
636.645	14559.02
636.999	14504.79
637.352	14479.48
637.706	14478.12
638.06	14521.51
638.413	14493.94
638.767	14503.21
639.121	14426.82
639.474	14400.16
639.828	14529.19
640.181	14474.05
640.534	14454.39
640.888	14493.26
641.241	14425.69
641.594	14374.85
641.947	14475.41
642.301	14372.81
642.654	14398.58
643.007	14381.85
643.36	14351.35
643.713	14343.66
644.066	14448.52
644.419	14352.48
644.771	14255.08
645.124	14092.82
645.477	14149.54
645.83	13979.6
646.182	13961.53
646.535	13955.42
646.888	13945.48
647.24	13898.02
647.593	13951.36
647.945	14024.57
648.298	13961.98
648.65	13846.5
649.002	13851.25
649.355	13976.44
649.707	13859.16
650.059	13948.87
650.411	14147.51
650.763	14198.36
651.115	14405.58
651.467	14223.44
651.819	14275.87
652.171	14314.28
652.523	14139.6
652.875	14264.34
653.227	14157.23
653.578	14252.37
653.93	14172.82
654.282	14154.74
654.633	14191.8
654.985	14147.51
655.337	14265.7
655.688	14272.48
656.039	14322.87
656.391	14160.39
656.742	14231.57
657.094	14247.62
657.445	14281.97
657.796	14229.09
658.147	14217.56
658.498	14175.53
658.849	14311.57
659.2	14151.8
659.551	14257.79
659.902	14315.87
660.253	14224.34
660.604	14213.95
660.955	14240.16
661.306	14302.08
661.656	14205.36
662.007	14274.51
662.358	14189.77
662.708	14291.46
663.059	14213.04
663.409	14104.12
663.76	14337.56
664.11	14295.08
664.461	14303.89
664.811	14255.08
665.161	14314.51
665.511	14243.33
665.862	14275.87
666.212	14340.95
666.562	14358.13
666.912	14265.47
667.262	14295.98
667.612	14286.71
667.962	14282.65
668.312	14240.39
668.662	14367.62
669.011	14349.76
669.361	14214.63
669.711	14310.89
670.06	14285.81
670.41	14254.63
670.76	14285.13
671.109	14222.99
671.459	14325.81
671.808	14308.41
672.157	14246.72
672.507	14201.75
672.856	14228.64
673.205	14217.34
673.554	14229.99
673.904	14252.82
674.253	14284.23
674.602	14225.93
674.951	14079.26
675.3	14062.31
675.649	14265.25
675.998	14207.39
676.346	14237.22
676.695	14248.75
677.044	14204.68
677.393	14208.52
677.741	14262.76
678.09	14170.56
678.438	14167.62
678.787	14235.42
679.135	14217.56
679.484	14191.8
679.832	14220.73
680.181	14118.58
680.529	14178.69
680.877	14144.57
681.225	14141.18
681.573	14203.1
681.922	14142.76
682.27	14062.31
682.618	14054.18
682.966	14041.52
683.314	14133.72
683.661	14076.1
684.009	14077.23
684.357	13966.27
684.705	13991.36
685.053	13994.29
685.4	13983.67
685.748	13969.43
686.095	13932.37
686.443	13862.32
686.79	13899.61
687.138	13936.89
687.485	13862.77
687.832	13819.16
688.18	13853.96
688.527	13762.43
688.874	13837.69
689.221	13805.15
689.568	13749.1
689.915	13750.68
690.262	13722.21
690.609	13651.03
690.956	13607.64
691.303	13660.74
691.65	13557.02
691.997	13625.94
692.344	13517.92
692.69	13539.16
693.037	13580.74
693.383	13369.68
693.73	13456.23
694.077	13393.18
694.423	13344.82
694.769	13345.04
695.116	13316.57
695.462	13339.17
695.808	13337.14
696.155	13338.72
696.501	13234.77
696.847	13308.89
697.193	13070.48
697.539	13220.98
697.885	13116.58
698.231	13040.42
698.577	13159.96
698.923	12945.06
699.269	13025.96
699.614	12987.77
699.96	12969.01
700.306	13009.01
700.651	12923.81
700.997	12835.23
701.342	12832.74
701.688	12858.28
702.033	12752.97
702.379	12807.21
702.724	12736.02
703.069	12822.35
703.415	12626.65
703.76	12679.3
704.105	12673.42
704.45	12603.14
704.795	12537.16
705.14	12584.16
705.485	12588.68
705.83	12544.39
706.175	12527.89
706.52	12517.72
706.865	12399.98
707.209	12430.72
707.554	12326.77
707.899	12450.83
708.243	12347.33
708.588	12360.66
708.932	12276.6
709.277	12239.54
709.621	12303.26
709.966	12211.29
710.31	12244.28
710.654	12167
710.998	12124.51
711.342	12196.37
711.687	12064.4
712.031	12065.98
712.375	11988.02
712.719	12108.24
713.063	12092.2
713.407	12130.61
713.75	12035.93
714.094	12067.79
714.438	11978.98
714.782	11923.61
715.125	11936.49
715.469	11915.7
715.812	11919.77
716.156	11909.6
716.499	11896.72
716.843	11917.06
717.186	11879.77
717.53	11897.17
717.873	11832.09
718.216	11829.38
718.559	11718.87
718.902	11729.27
719.246	11744.18
719.589	11729.49
719.932	11718.87
720.275	11713
720.617	11698.08
720.96	11648.59
721.303	11736.05
721.646	11615.82
721.989	11567.24
722.331	11739.44
722.674	11607.46
723.016	11633.9
723.359	11639.1
723.701	11663.05
724.044	11593.23
724.386	11515.49
724.729	11596.39
725.071	11557.97
725.413	11582.38
725.755	11580.8
726.097	11520.69
726.439	11477.75
726.782	11534.24
727.124	11581.25
727.465	11502.83
727.807	11502.83
728.149	11452.44
728.491	11347.58
728.833	11483.4
729.175	11382.16
729.516	11399.33
729.858	11354.36
730.199	11360.69
730.541	11359.33
730.882	11360.46
731.224	11375.83
731.565	11267.36
731.906	11371.99
732.248	11325.44
732.589	11295.38
732.93	11266.46
733.271	11286.57
733.612	11290.18
733.953	11368.83
734.294	11235.27
734.635	11270.52
734.976	11298.32
735.317	11168.15
735.658	11203.18
735.999	11253.12
736.339	11134.93
736.68	11117.53
737.021	11216.06
737.361	11122.05
737.702	11132.45
738.042	11241.82
738.383	11162.73
738.723	11189.4
739.063	11115.72
739.404	11116.18
739.744	11147.36
740.084	11080.7
740.424	11141.03
740.764	11090.19
741.104	11191.2
741.444	11150.98
741.784	11077.76
742.124	11119.34
742.464	11087.48
742.804	11001.38
743.143	11073.01
743.483	11133.13
743.823	10948.05
744.162	11002.73
744.502	11023.3
744.841	10983.3
745.181	11040.47
745.52	11003.41
745.86	11001.15
746.199	11013.81
746.538	10999.8
746.877	11010.19
747.216	11026.46
747.556	11024.43
747.895	11048.61
748.234	10962.96
748.573	10957.54
748.911	10917.54
749.25	10943.53
749.589	10893.13
749.928	10929.06
750.267	10931.1
750.605	10866.24
750.944	10885
751.283	10814.49
751.621	10937.65
751.96	10869.18
752.298	10864.21
752.636	10837.31
752.975	10762.51
753.313	10820.59
753.651	10814.04
753.989	10729.97
754.327	10772.91
754.666	10714.61
755.004	10742.4
755.342	10812.23
755.679	10715.28
756.017	10672.57
756.355	10686.58
756.693	10628.28
757.031	10653.36
757.368	10602.29
757.706	10622.63
758.044	10535.85
758.381	10660.6
758.719	10602.07
759.056	10546.02
759.394	10560.03
759.731	10477.78
760.068	10458.79
760.405	10440.71
760.743	10431.9
761.08	10440.04
761.417	10462.86
761.754	10373.6
762.091	10437.1
762.428	10323.43
762.765	10325.91
763.102	10349.19
763.438	10199.14
763.775	10255.86
764.112	10261.06
764.449	10180.16
764.785	10156.2
765.122	10169.76
765.458	10097.67
765.795	10121.17
766.131	10103.32
766.467	10015.64
766.804	10013.38
767.14	9932.7
767.476	9991.91
767.812	9933.16
768.148	9950.11
768.485	9886.83
768.821	9873.05
769.157	9835.08
769.492	9856.55
769.828	9791.92
770.164	9752.6
770.5	9713.73
770.836	9728.42
771.171	9670.11
771.507	9669.21
771.842	9582.43
772.178	9565.93
772.513	9564.35
772.849	9523.45
773.184	9471.93
773.519	9518.25
773.855	9472.83
774.19	9444.36
774.525	9403.23
774.86	9385.15
775.195	9344.92
775.53	9336.79
775.865	9303.34
776.2	9253.4
776.535	9213.85
776.87	9181.09
777.205	9203.46
777.539	9107.19
777.874	9187.87
778.209	9050.24
778.543	9077.36
778.878	8990.13
779.212	9016.12
779.547	8909.23
779.881	8967.76
780.215	8924.6
780.55	8955.1
780.884	8898.16
781.218	8871.94
781.552	8888.21
781.886	8847.76
782.22	8692.96
782.554	8735
782.888	8668.11
783.222	8658.61
783.556	8653.87
783.889	8594.44
784.223	8574.77
784.557	8500.2
784.89	8589.46
785.224	8508.11
785.557	8450.71
785.891	8504.95
786.224	8428.34
786.558	8446.42
786.891	8406.87
787.224	8365.06
787.557	8332.97
787.891	8297.27
788.224	8229.7
788.557	8283.26
788.89	8264.5
789.223	8234.44
789.556	8148.35
789.888	8190.38
790.221	8114.22
790.554	8128.01
790.887	8069.93
791.219	8063.38
791.552	7999.87
791.884	8009.14
792.217	7939.54
792.549	7924.85
792.882	7883.27
793.214	7831.97
793.546	7858.41
793.879	7820.9
794.211	7823.83
794.543	7834.23
794.875	7757.85
795.207	7845.3
795.539	7725.53
795.871	7714.91
796.203	7610.73
796.535	7637.4
796.867	7711.97
797.198	7623.61
797.53	7679.2
797.862	7609.6
798.193	7575.48
798.525	7478.31
798.856	7523.5
799.188	7479.66
799.519	7436.5
799.85	7391.3
800.182	7380.23
800.513	7422.94
800.844	7362.83
801.175	7359.67
801.506	7389.04
801.837	7340.91
802.168	7315.15
802.499	7339.55
802.83	7291.19
803.161	7261.14
803.491	7203.29
803.822	7232.21
804.153	7184.53
804.483	7119.9
804.814	7154.25
805.145	7174.13
805.475	7108.6
805.805	7084.64
806.136	7095.94
806.466	7099.79
806.796	7105.89
807.126	7036.28
807.457	7043.74
807.787	7009.84
808.117	6991.31
808.447	6976.62
808.777	6984.99
809.107	6923.74
809.436	6907.02
809.766	6939.11
810.096	6908.15
810.426	6875.84
810.755	6937.76
811.085	6878.1
811.414	6848.27
811.744	6800.36
812.073	6808.49
812.403	6802.84
812.732	6782.51
813.061	6749.51
813.39	6742.73
813.719	6697.31
814.049	6733.24
814.378	6784.31
814.707	6680.81
815.036	6701.38
815.365	6676.07
815.693	6620.02
816.022	6633.36
816.351	6587.03
816.68	6566.01
817.008	6595.62
817.337	6528.27
817.665	6457.99
817.994	6559.69
818.322	6499.35
818.651	6503.64
818.979	6465.23
819.307	6464.77
819.636	6467.71
819.964	6442.4
820.292	6480.37
820.62	6470.2
820.948	6438.79
821.276	6449.86
821.604	6496.41
821.932	6449.63
822.259	6432.46
822.587	6385
822.915	6454.6
823.243	6418
823.57	6441.72
823.898	6404.89
824.225	6413.93
824.553	6416.87
824.88	6426.36
825.207	6448.28
825.535	6405.11
825.862	6408.73
826.189	6426.81
826.516	6433.36
826.843	6397.2
827.17	6425.68
827.497	6415.74
827.824	6437.88
828.151	6430.88
828.478	6378.22
828.805	6433.14
829.131	6424.1
829.458	6410.31
829.785	6414.38
830.111	6384.32
830.438	6439.92
830.764	6436.98
831.09	6439.92
831.417	6342.74
831.743	6453.93
832.069	6415.28
832.395	6401.5
832.722	6428.16
833.048	6387.94
833.374	6436.07
833.7	6384.55
834.026	6358.34
834.351	6351.1
834.677	6376.64
835.003	6389.3
835.329	6349.3
835.654	6388.84
835.98	6295.51
836.306	6328.28
836.631	6335.96
836.956	6397.66
837.282	6356.75
837.607	6336.19
837.932	6343.19
838.258	6312.91
838.583	6304.33
838.908	6244.89
839.233	6256.64
839.558	6259.13
839.883	6257.77
840.208	6250.32
840.533	6219.13
840.858	6251.22
841.182	6210.09
841.507	6208.06
841.832	6168.51
842.156	6156.31
842.481	6189.07
842.805	6144.33
843.13	6143.65
843.454	6134.16
843.778	6082.86
844.103	6105.01
844.427	6092.81
844.751	6123.77
845.075	6055.52
845.399	6046.71
845.723	6018.91
846.047	5993.6
846.371	5982.3
846.695	6009.64
847.019	5912.25
847.343	5898.01
847.666	5881.96
847.99	5880.61
848.313	5837.9
848.637	5815.07
848.96	5839.25
849.284	5799.03
849.607	5734.4
849.931	5753.15
850.254	5761.97
850.577	5703.89
850.9	5623.21
851.223	5617.56
851.546	5620.28
851.869	5638.35
852.192	5639.26
852.515	5568.07
852.838	5541.41
853.161	5546.38
853.483	5531.24
853.806	5509.54
854.129	5517.45
854.451	5487.4
854.774	5487.85
855.096	5441.98
855.419	5450.11
855.741	5416.21
856.063	5413.28
856.385	5423.44
856.708	5335.54
857.03	5376.21
857.352	5406.72
857.674	5306.16
857.996	5295.31
858.318	5284.47
858.64	5341.19
858.961	5290.79
859.283	5290.12
859.605	5238.82
859.926	5284.01
860.248	5191.36
860.57	5218.93
860.891	5230.68
861.212	5195.2
861.534	5168.54
861.855	5147.75
862.176	5200.63
862.498	5150.23
862.819	5252.38
863.14	5150.68
863.461	5127.41
863.782	5142.1
864.103	5153.17
864.424	5103.91
864.745	5066.84
865.065	5112.49
865.386	5067.52
865.707	5064.81
866.027	5098.03
866.348	5068.88
866.668	5084.24
866.989	5107.97
867.309	4978.03
867.63	5036.56
867.95	5056.45
868.27	4986.17
868.59	5022.78
868.91	4997.92
869.23	4992.27
869.55	4958.6
869.87	4994.3
870.19	4948.66
870.51	4988.43
870.83	4961.99
871.15	4931.03
871.469	4981.42
871.789	4969.9
872.109	4938.49
872.428	4896.68
872.748	4959.95
873.067	4928.09
873.386	4850.35
873.706	4891.03
874.025	4901.88
874.344	4853.52
874.663	4862.33
874.982	4867.53
875.301	4880.18
875.62	4856.45
875.939	4867.75
876.258	4867.3
876.577	4816
876.896	4818.72
877.214	4787.76
877.533	4883.8
877.852	4801.77
878.17	4806.96
878.489	4812.61
878.807	4817.59
879.125	4746.17
879.444	4763.8
879.762	4787.98
880.08	4789.79
880.398	4686.97
880.716	4738.04
881.034	4730.13
881.352	4740.07
881.67	4690.13
881.988	4689.45
882.306	4689.45
882.624	4724.25
882.941	4670.24
883.259	4673.86
883.577	4631.38
883.894	4629.57
884.212	4592.28
884.529	4618.49
884.846	4569.91
885.164	4616.46
885.481	4615.56
885.798	4651.49
886.115	4559.51
886.432	4589.57
886.75	4543.69
887.067	4565.39
887.383	4535.78
887.7	4535.11
888.017	4549.8
888.334	4553.19
888.651	4530.36
888.967	4484.26
889.284	4499.18
889.6	4505.28
889.917	4424.38
890.233	4476.8
890.55	4423.92
890.866	4426.86
891.182	4429.35
891.498	4414.88
891.815	4421.89
892.131	4386.41
892.447	4368.33
892.763	4374.66
893.079	4369.46
893.395	4310.93
893.71	4319.07
894.026	4307.54
894.342	4337.82
894.657	4248.79
894.973	4260.31
895.289	4247.2
895.604	4250.37
895.92	4221.22
896.235	4216.92
896.55	4176.7
896.865	4175.79
897.181	4176.25
897.496	4175.57
897.811	4204.27
898.126	4171.5
898.441	4109.58
898.756	4132.63
899.071	4135.34
899.386	4080.2
899.7	4094.89
900.015	4062.35
900.33	4045.85
900.644	4042.24
900.959	4058.06
901.273	4013.54
901.588	3965.63
901.902	3985.06
902.216	3928.57
902.531	3959.3
902.845	3915.01
903.159	3934.22
903.473	3932.86
903.787	3917.27
904.101	3880.43
904.415	3902.36
904.729	3869.59
905.042	3830.94
905.356	3816.71
905.67	3805.63
905.984	3787.78
906.297	3803.6
906.611	3815.58
906.924	3791.62
907.237	3810.83
907.551	3728.35
907.864	3741
908.177	3748.23
908.491	3657.84
908.804	3708.01
909.117	3685.19
909.43	3663.94
909.743	3668.46
910.056	3726.09
910.368	3644.28
910.681	3607.9
910.994	3631.85
911.307	3598.18
911.619	3585.08
911.932	3587.79
912.244	3567.45
912.557	3525.42
912.869	3518.64
913.181	3501.69
913.494	3488.58
913.806	3494.23
914.118	3470.05
914.43	3470.05
914.742	3467.34
915.054	3474.34
915.366	3464.17
915.678	3403.16
915.99	3416.04
916.302	3399.32
916.613	3338.3
916.925	3369.94
917.236	3349.15
917.548	3320
917.859	3318.42
918.171	3315.48
918.482	3290.85
918.794	3295.82
919.105	3278.87
919.416	3312.31
919.727	3254.46
920.038	3223.5
920.349	3231.19
920.66	3246.78
920.971	3207.46
921.282	3178.98
921.593	3172.43
921.903	3144.41
922.214	3166.78
922.525	3149.61
922.835	3147.8
923.146	3115.03
923.456	3095.6
923.767	3117.52
924.077	3093.11
924.387	3073.9
924.697	3079.55
925.008	3055.82
925.318	3095.6
925.628	3019.89
925.938	3020.34
926.248	2992.55
926.558	2980.35
926.867	3000.68
927.177	2937.41
927.487	2954.36
927.796	2906.22
928.106	2914.36
928.416	2963.17
928.725	2911.19
929.034	2890.63
929.344	2909.39
929.653	2878.2
929.962	2903.96
930.271	2856.51
930.581	2810.18
930.89	2791.88
931.199	2816.51
931.508	2796.17
931.817	2798.2
932.125	2783.51
932.434	2784.87
932.743	2730.41
933.051	2778.99
933.36	2759.33
933.669	2728.15
933.977	2722.05
934.286	2701.03
934.594	2725.66
934.902	2700.8
935.21	2695.16
935.519	2668.72
935.827	2633.69
936.135	2653.35
936.443	2646.12
936.751	2656.74
937.059	2615.38
937.367	2603.86
937.674	2601.37
937.982	2584.88
938.29	2623.97
938.597	2551.66
938.905	2513.69
939.213	2553.46
939.52	2536.29
939.827	2547.14
940.135	2538.32
940.442	2493.8
940.749	2521.37
941.056	2479.34
941.363	2461.04
941.67	2449.51
941.977	2442.28
942.284	2479.34
942.591	2464.65
942.898	2448.38
943.205	2425.56
943.511	2417.42
943.818	2439.57
944.125	2408.16
944.431	2370.19
944.738	2376.52
945.044	2353.02
945.35	2399.34
945.657	2334.94
945.963	2372.68
946.269	2351.89
946.575	2303.08
946.881	2333.58
947.187	2310.76
947.493	2300.82
947.799	2324.09
948.105	2301.49
948.41	2247.48
948.716	2246.58
949.022	2238.22
949.327	2230.99
949.633	2225.11
949.938	2240.25
950.244	2208.39
950.549	2210.65
950.854	2214.26
951.16	2196.64
951.465	2169.97
951.77	2202.74
952.075	2164.1
952.38	2141.27
952.685	2187.6
952.99	2141.72
953.294	2137.43
953.599	2139.24
953.904	2096.98
954.209	2059.01
954.513	2089.75
954.818	2074.15
955.122	2069.86
955.426	2064.66
955.731	2050.88
956.035	2060.6
956.339	2060.6
956.643	2073.7
956.948	2067.15
957.252	2032.8
957.556	2016.3
957.86	2015.17
958.163	2052.69
958.467	1976.08
958.771	2025.12
959.075	2006.36
959.378	1982.41
959.682	1974.72
959.985	1950.77
960.289	1958.23
960.592	1962.29
960.896	1948.06
961.199	1912.35
961.502	1921.39
961.805	1946.02
962.108	1902.41
962.411	1904.22
962.714	1892.92
963.017	1891.33
963.32	1860.37
963.623	1869.41
963.926	1878
964.228	1856.53
964.531	1874.16
964.833	1833.93
965.136	1851.11
965.438	1839.81
965.741	1852.69
966.043	1819.02
966.345	1821.51
966.648	1773.82
966.95	1769.08
967.252	1800.72
967.554	1782.86
967.856	1798.46
968.158	1783.09
968.46	1758.68
968.761	1742.19
969.063	1757.1
969.365	1735.18
969.666	1742.41
969.968	1743.09
970.269	1715.07
970.571	1736.99
970.872	1696.76
971.174	1703.54
971.475	1665.58
971.776	1677.55
972.077	1701.06
972.378	1708.97
972.679	1675.29
972.98	1643.88
973.281	1645.24
973.582	1651.57
973.883	1639.59
974.183	1667.61
974.484	1624.22
974.785	1623.77
975.085	1622.19
975.386	1644.79
975.686	1613.15
975.986	1589.42
976.287	1614.05
976.587	1602.98
976.887	1604.11
977.187	1577.67
977.487	1610.44
977.787	1563.89
978.087	1579.03
978.387	1543.55
978.687	1539.03
978.987	1525.24
979.286	1540.16
979.586	1567.5
979.885	1526.6
980.185	1527.28
980.484	1502.42
980.784	1507.39
981.083	1529.08
981.382	1500.84
981.682	1479.82
981.981	1456.77
982.28	1489.31
982.579	1471.23
982.878	1471.91
983.177	1464.9
983.475	1462.65
983.774	1437.79
984.073	1433.72
984.372	1462.42
984.67	1422.65
984.969	1431.69
985.267	1460.16
985.566	1424
985.864	1420.61
986.162	1419.48
986.461	1416.32
986.759	1421.97
987.057	1391.91
987.355	1376.32
987.653	1375.19
987.951	1380.84
988.249	1364.79
988.547	1374.29
988.844	1382.65
989.142	1331.8
989.44	1340.61
989.737	1324.12
990.035	1361.18
990.332	1331.58
990.63	1317.79
990.927	1319.37
991.224	1330.22
991.521	1327.96
991.819	1289.32
992.116	1309.65
992.413	1293.61
992.71	1315.08
993.006	1269.43
993.303	1292.48
993.6	1278.02
993.897	1274.63
994.193	1289.09
994.49	1273.72
994.787	1258.81
995.083	1267.62
995.379	1273.95
995.676	1242.31
995.972	1234.4
996.268	1231.69
996.565	1231.46
996.861	1240.96
997.157	1240.96
997.453	1194.63
997.749	1188.08
998.044	1200.51
998.34	1189.21
998.636	1184.23
998.932	1188.08
999.227	1186.72
999.523	1181.75
999.818	1165.25
1000.114	1194.86
1000.409	1162.09
1000.704	1139.49
1001	1156.66
1001.295	1144.69
1001.59	1145.82
1001.885	1116.89
1002.18	1134.52
1002.475	1106.04
1002.77	1121.86
1003.065	1144.69
1003.359	1098.36
1003.654	1105.59
1003.949	1104.24
1004.243	1099.49
1004.538	1096.55
1004.832	1113.5
1005.127	1064.92
1005.421	1073.05
1005.715	1056.78
1006.009	1039.61
1006.304	1036.89
1006.598	1046.61
1006.892	1067.18
1007.186	1050.23
1007.48	1075.76
1007.773	1024.69
1008.067	1025.37
1008.361	1012.71
1008.655	1009.78
1008.948	1008.65
1009.242	1008.65
1009.535	999.83
1009.829	996.89
1010.122	989.66
1010.415	970.45
1010.708	978.14
1011.001	983.34
1011.295	1002.09
1011.588	979.95
1011.881	978.36
1012.173	950.57
1012.466	953.51
1012.759	942.66
1013.052	957.8
1013.344	940.4
1013.637	957.35
1013.93	907.63
1014.222	930.91
1014.514	933.17
1014.807	926.61
1015.099	879.84
1015.391	916.9
1015.683	893.85
1015.976	895.65
1016.268	931.81
1016.56	933.17
1016.851	913.73
1017.143	880.97
1017.435	891.13
1017.727	882.55
1018.018	876.67
1018.31	869.89
1018.602	869.44
1018.893	860.63
1019.185	863.56
1019.476	866.73
1019.767	850.46
1020.058	866.5
1020.35	831.02
1020.641	874.86
1020.932	854.75
1021.223	849.1
1021.514	821.53
1021.804	814.3
1022.095	814.07
1022.386	812.49
1022.677	810.68
1022.967	825.6
1023.258	809.33
1023.548	795.54
1023.839	796.67
1024.129	772.72
1024.419	808.2
1024.709	775.43
1025	769.1
1025.29	764.81
1025.58	786.28
1025.87	769.56
1026.16	748.99
1026.449	759.84
1026.739	749.67
1027.029	745.15
1027.319	744.25
1027.608	750.12
1027.898	741.53
1028.187	739.5
1028.477	727.75
1028.766	722.55
1029.055	718.03
1029.344	734.08
1029.634	696.79
1029.923	708.77
1030.212	705.38
1030.501	707.18
1030.79	696.79
1031.078	671.48
1031.367	668.77
1031.656	684.59
1031.945	709.44
1032.233	660.18
1032.522	670.12
1032.81	697.92
1033.099	672.38
1033.387	669.45
1033.675	664.93
1033.963	672.38
1034.251	666.06
1034.54	656.34
1034.828	662.67
1035.116	649.79
1035.403	642.33
1035.691	646.17
1035.979	635.32
1036.267	656.34
1036.554	664.47
1036.842	630.8
1037.129	629.22
1037.417	623.57
1037.704	626.28
1037.992	620.41
1038.279	649.33
1038.566	635.32
1038.853	635.32
1039.14	635.32
