Data from cardboard_FLMS001491_032.txt Node
Date: Tue Feb 07 11:39:20 GMT 2017
User: dcchb
Spectrometer: FLMS00149
Trigger mode: 0
Integration Time (sec): 2.000000E-2
Scans to average: 10
Electric dark correction enabled: true
Nonlinearity correction enabled: false
Boxcar width: 0
XAxis mode: Wavelengths
Number of Pixels in Spectrum: 2048
>>>>>Begin Spectral Data<<<<<
341.393	-22.15
341.776	-22.15
342.16	-22.15
342.543	-59.66
342.927	-88.81
343.31	-72.54
343.693	-71.64
344.077	-55.14
344.46	-74.57
344.843	-49.72
345.226	-43.39
345.61	-32.99
345.993	-13.11
346.376	6.1
346.759	-5.65
347.142	33.22
347.525	56.72
347.908	43.84
348.291	78.87
348.674	86.55
349.057	113.44
349.44	103.73
349.823	131.75
350.206	149.37
350.588	189.6
350.971	219.88
351.354	216.49
351.737	225.76
352.119	255.36
352.502	236.83
352.884	272.08
353.267	261.69
353.65	273.21
354.032	292.2
354.414	317.05
354.797	302.36
355.179	318.64
355.562	309.14
355.944	312.53
356.326	333.55
356.709	323.83
357.091	302.59
357.473	328.35
357.855	344.62
358.238	341.46
358.62	340.78
359.002	343.27
359.384	344.62
359.766	319.99
360.148	308.01
360.53	324.51
360.912	331.06
361.294	332.65
361.676	308.47
362.057	321.35
362.439	326.32
362.821	323.61
363.203	328.13
363.584	319.54
363.966	300.56
364.348	308.69
364.729	300.33
365.111	305.53
365.493	308.47
365.874	292.87
366.256	306.66
366.637	308.01
367.019	307.79
367.4	308.47
367.781	313.44
368.163	288.58
368.544	303.95
368.925	311.4
369.306	285.19
369.688	295.59
370.069	311.86
370.45	311.86
370.831	294.91
371.212	300.11
371.593	298.98
371.974	298.98
372.355	318.86
372.736	307.11
373.117	294.68
373.498	316.15
373.879	319.54
374.26	299.65
374.641	311.4
375.021	279.54
375.402	304.85
375.783	289.94
376.163	308.92
376.544	314.57
376.925	308.47
377.305	301.01
377.686	312.76
378.066	301.91
378.447	321.12
378.827	314.34
379.208	329.93
379.588	303.95
379.968	334
380.349	343.72
380.729	318.18
381.109	316.15
381.489	329.03
381.87	345.53
382.25	318.64
382.63	355.47
383.01	331.29
383.39	332.19
383.77	338.52
384.15	329.48
384.53	331.06
384.91	352.99
385.29	346.88
385.67	335.36
386.049	355.02
386.429	334.91
386.809	326.32
387.189	346.66
387.568	349.6
387.948	345.98
388.328	337.17
388.707	350.73
389.087	349.37
389.466	341.23
389.846	343.04
390.225	353.44
390.605	360.22
390.984	348.92
391.363	338.07
391.743	341.91
392.122	356.15
392.501	373.1
392.881	368.8
393.26	349.6
393.639	369.71
394.018	381.46
394.397	375.13
394.776	375.13
395.155	378.97
395.534	365.64
395.913	388.69
396.292	390.05
396.671	376.71
397.05	381.91
397.429	372.87
397.808	363.15
398.186	383.04
398.565	384.4
398.944	375.81
399.323	387.11
399.701	394.79
400.08	385.07
400.458	390.72
400.837	421.68
401.215	390.05
401.594	398.63
401.972	390.05
402.351	386.66
402.729	390.95
403.107	385.3
403.486	413.55
403.864	413.77
404.242	403.38
404.62	410.84
404.999	400.44
405.377	410.16
405.755	406.54
406.133	412.42
406.511	441.57
406.889	432.98
407.267	424.62
407.645	437.73
408.023	449.48
408.401	434.34
408.779	427.79
409.156	449.71
409.534	444.96
409.912	436.6
410.29	461.68
410.667	451.97
411.045	446.32
411.422	438.86
411.8	465.52
412.178	467.78
412.555	463.04
412.933	477.5
413.31	471.4
413.687	475.24
414.065	494.45
414.442	480.44
414.819	463.26
415.197	489.03
415.574	469.37
415.951	491.29
416.328	503.94
416.705	508.46
417.082	508.69
417.46	491.74
417.837	504.39
418.214	480.89
418.591	512.98
418.967	523.83
419.344	526.99
419.721	527.44
420.098	526.77
420.475	530.61
420.852	517.95
421.228	529.25
421.605	557.95
421.982	541.68
422.358	535.58
422.735	543.04
423.111	536.03
423.488	562.92
423.864	558.63
424.241	587.78
424.617	570.61
424.994	554.11
425.37	588.91
425.746	552.98
426.123	560.21
426.499	577.61
426.875	577.84
427.251	571.06
427.627	621.68
428.003	615.8
428.379	593.88
428.756	601.34
429.132	627.1
429.507	617.84
429.883	606.54
430.259	643.15
430.635	617.61
431.011	629.36
431.387	660.77
431.763	666.65
432.138	657.61
432.514	682.02
432.89	667.78
433.265	669.59
433.641	660.77
434.016	669.13
434.392	692.41
434.767	717.5
435.143	696.25
435.518	708.46
435.894	714.11
436.269	726.53
436.644	715.91
437.02	734.67
437.395	737.38
437.77	726.08
438.145	741.22
438.52	742.13
438.895	771.51
439.271	763.37
439.646	748.23
440.021	781.45
440.395	790.49
440.77	786.19
441.145	793.2
441.52	802.24
441.895	796.14
442.27	795.23
442.645	795.01
443.019	815.35
443.394	819.19
443.769	822.58
444.143	800.43
444.518	837.27
444.892	810.83
445.267	838.85
445.641	835.91
446.016	826.64
446.39	842.92
446.764	861.9
447.139	833.42
447.513	858.96
447.887	875.46
448.262	851.73
448.636	865.29
449.01	902.35
449.384	882.46
449.758	892.41
450.132	885.63
450.506	938.73
450.88	924.95
451.254	896.25
451.628	932.63
452.002	916.36
452.376	926.3
452.75	934.44
453.123	971.95
453.497	953.42
453.871	998.62
454.244	994.55
454.618	986.41
454.992	1001.56
455.365	995
455.739	1026.41
456.112	1033.87
456.486	1032.74
456.859	1043.81
457.232	1077.03
457.606	1047.88
457.979	1053.76
458.352	1117.94
458.725	1093.3
459.099	1107.99
459.472	1112.74
459.845	1147.54
460.218	1126.52
460.591	1144.83
460.964	1139.63
461.337	1163.13
461.71	1163.13
462.083	1205.17
462.456	1209.23
462.829	1211.04
463.201	1239.74
463.574	1260.76
463.947	1251.94
464.32	1271.83
464.692	1293.07
465.065	1293.98
465.438	1286.29
465.81	1314.77
466.183	1358.38
466.555	1360.42
466.928	1364.48
467.3	1378.27
467.672	1407.87
468.045	1410.81
468.417	1435.67
468.789	1432.5
469.161	1478.83
469.534	1494.88
469.906	1473.41
470.278	1504.82
470.65	1513.86
471.022	1532.39
471.394	1575.1
471.766	1592.5
472.138	1607.19
472.51	1653.06
472.882	1646.51
473.253	1671.59
473.625	1657.58
473.997	1712.72
474.369	1732.38
474.74	1744.81
475.112	1785.94
475.484	1797.24
475.855	1861.87
476.227	1834.53
476.598	1917.92
476.97	1897.35
477.341	1942.1
477.713	1969.44
478.084	2005.37
478.455	2046.05
478.827	2074.3
479.198	2131.02
479.569	2132.37
479.94	2165.59
480.311	2184.8
480.682	2243.56
481.053	2264.35
481.424	2318.13
481.795	2328.75
482.166	2384.57
482.537	2405.36
482.908	2439.94
483.279	2458.92
483.65	2533.27
484.021	2578.24
484.391	2583.89
484.762	2618.01
485.133	2632.25
485.503	2707.95
485.874	2762.64
486.244	2778.46
486.615	2804.67
486.985	2862.52
487.356	2917.21
487.726	2936.65
488.097	2967.38
488.467	2988.17
488.837	3128.28
489.207	3105.91
489.578	3148.62
489.948	3178.67
490.318	3267.48
490.688	3267.48
491.058	3304.55
491.428	3333.7
491.798	3434.71
492.168	3476.29
492.538	3504.99
492.908	3516.29
493.278	3598.1
493.648	3595.39
494.017	3617.76
494.387	3667.25
494.757	3728.04
495.126	3812.1
495.496	3803.52
495.866	3858.66
496.235	3869.5
496.605	3899.78
496.974	3944.08
497.344	3961.03
497.713	4020.46
498.082	4036.96
498.452	4144.07
498.821	4151.53
499.19	4158.53
499.559	4203.73
499.928	4206.67
500.298	4264.07
500.667	4308.81
501.036	4344.74
501.405	4369.15
501.774	4376.61
502.143	4442.82
502.512	4467.45
502.88	4499.77
503.249	4523.5
503.618	4595.13
503.987	4585.42
504.356	4659.54
504.724	4715.58
505.093	4715.58
505.462	4737.95
505.83	4810.04
506.199	4859.99
506.567	4904.05
506.936	4939.31
507.304	5001.68
507.672	5017.95
508.041	5070.83
508.409	5081
508.777	5194.89
509.145	5235.57
509.514	5237.83
509.882	5299.52
510.25	5362.34
510.618	5362.57
510.986	5427.65
511.354	5462.46
511.722	5501.78
512.09	5575.9
512.458	5601.43
512.826	5660.87
513.193	5685.95
513.561	5701.09
513.929	5751.94
514.297	5841.65
514.664	5933.4
515.032	5952.61
515.4	5981.76
515.767	6021.76
516.135	6079.16
516.502	6056.79
516.869	6233.51
517.237	6278.25
517.604	6260.4
517.972	6367.74
518.339	6424.69
518.706	6425.37
519.073	6487.06
519.44	6569.77
519.808	6627.85
520.175	6680.28
520.542	6780.84
520.909	6834.85
521.276	6857.22
521.643	7035.75
522.009	6999.14
522.376	7089.08
522.743	7099.7
523.11	7239.36
523.477	7335.63
523.843	7377.43
524.21	7534.94
524.577	7486.13
524.943	7583.53
525.31	7638.67
525.676	7709.18
526.043	7857.19
526.409	7911.43
526.776	7948.04
527.142	8004.54
527.508	8066.91
527.874	8098.09
528.241	8271.87
528.607	8320.91
528.973	8351.64
529.339	8348.71
529.705	8473.68
530.071	8535.82
530.437	8675.7
530.803	8697.17
531.169	8797.51
531.535	8788.47
531.901	8857.62
532.267	9021.01
532.632	9087.9
532.998	9130.38
533.364	9192.07
533.73	9219.19
534.095	9253.54
534.461	9355.69
534.826	9465.51
535.192	9502.8
535.557	9559.3
535.923	9578.73
536.288	9676.58
536.653	9771.27
537.019	9707.99
537.384	9811.49
537.749	9933.07
538.114	9928.78
538.479	9958.61
538.845	10094.2
539.21	10084.93
539.575	10135.78
539.94	10229.11
540.305	10288.54
540.67	10371.25
541.034	10387.98
541.399	10424.13
541.764	10493.74
542.129	10525.82
542.494	10598.37
542.858	10608.76
543.223	10697.57
543.587	10814.18
543.952	10795.2
544.316	10929.88
544.681	10985.25
545.045	11013.27
545.41	11146.37
545.774	11146.15
546.138	11189.31
546.503	11248.97
546.867	11226.37
547.231	11416.65
547.595	11476.53
547.959	11568.06
548.324	11532.35
548.688	11645.12
549.052	11678.34
549.416	11637.43
549.779	11776.64
550.143	11809.18
550.507	11987.48
550.871	12020.93
551.235	12012.57
551.599	12123.98
551.962	12199.45
552.326	12249.85
552.689	12465.66
553.053	12342.27
553.417	12445.1
553.78	12610.97
554.143	12633.79
554.507	12654.36
554.87	12782.94
555.234	12838.76
555.597	12859.77
555.96	12920.56
556.323	13008.25
556.686	13070.62
557.05	13220.67
557.413	13282.36
557.776	13286.2
558.139	13509.7
558.502	13458.63
558.865	13500.21
559.228	13658.17
559.59	13683.03
559.953	13760.32
560.316	13921.22
560.679	13981.33
561.041	14124.15
561.404	14151.27
561.767	14306.06
562.129	14321.66
562.492	14455.89
562.854	14499.51
563.217	14546.96
563.579	14650.91
563.941	14777.46
564.304	14719.84
564.666	14911.25
565.028	14974.3
565.39	15014.29
565.753	15170.45
566.115	15195.98
566.477	15393.72
566.839	15325.7
567.201	15492.93
567.563	15658.35
567.925	15713.49
568.287	15742.18
568.648	15701.06
569.01	15923.42
569.372	16060.37
569.734	15943.54
570.095	16160.71
570.457	16218.56
570.819	16363.64
571.18	16327.71
571.542	16537.87
571.903	16601.82
572.265	16593.46
572.626	16672.33
572.987	16851.08
573.349	16807.24
573.71	16941.48
574.071	17037.29
574.432	17028.7
574.794	17212.65
575.155	17268.02
575.516	17173.33
575.877	17313.67
576.238	17420.56
576.599	17406.55
576.96	17487
577.32	17647.67
577.681	17710.27
578.042	17738.97
578.403	17729.93
578.763	17790.27
579.124	17884.73
579.485	17911.85
579.845	18036.36
580.206	18006.08
580.566	18100.77
580.927	18242.68
581.287	18231.61
581.648	18159.52
582.008	18293.98
582.368	18413.75
582.728	18445.84
583.089	18416.24
583.449	18359.52
583.809	18539.63
584.169	18587.99
584.529	18570.59
584.889	18739.39
585.249	18677.02
585.609	18570.59
585.969	18847.87
586.329	18661.43
586.688	18912.72
587.048	18932.38
587.408	18879.05
587.768	18907.98
588.127	18931.93
588.487	18935.32
588.846	19077.92
589.206	18985.49
589.565	19045.6
589.925	19185.94
590.284	19164.02
590.643	19153.85
591.003	19300.74
591.362	19329.89
591.721	19294.41
592.08	19336.21
592.44	19410.79
592.799	19451.47
593.158	19448.75
593.517	19266.61
593.876	19687.39
594.235	19506.38
594.593	19471.8
594.952	19588.86
595.311	19552.93
595.67	19734.62
596.029	19756.09
596.387	19765.81
596.746	19845.58
597.104	19811.91
597.463	19857.78
597.822	20046.7
598.18	19895.75
598.538	19856.2
598.897	19999.7
599.255	19889.42
599.613	20255.96
599.972	20049.19
600.33	20152.01
600.688	20084.9
601.046	20093.71
601.404	20326.47
601.762	20279.92
602.12	20345.23
602.478	20454.83
602.836	20462.06
603.194	20373.93
603.552	20317.21
603.91	20427.26
604.268	20528.05
604.625	20519.23
604.983	20602.85
605.341	20568.5
605.698	20613.47
606.056	20783.63
606.413	20767.82
606.771	20889.17
607.128	20825.44
607.485	20802.16
607.843	20858.21
608.2	20912.67
608.557	21024.98
608.914	20912.9
609.272	21028.83
609.629	21190.4
609.986	21155.15
610.343	21176.17
610.7	21356.5
611.057	21307.91
611.414	21317.41
611.771	21376.84
612.127	21407.12
612.484	21389.04
612.841	21517.63
613.198	21471.53
613.554	21534.35
613.911	21673.78
614.267	21564.4
614.624	21665.19
614.98	21702.48
615.337	21824.74
615.693	21733.67
616.05	21719.43
616.406	21916.49
616.762	21864.06
617.118	21869.48
617.475	21890.72
617.831	22004.17
618.187	22003.72
618.543	22064.96
618.899	22133.88
619.255	22113.32
619.611	22151.51
619.967	22260.21
620.323	22301.79
620.678	22245.29
621.034	22236.7
621.39	22219.98
621.746	22311.28
622.101	22477.15
622.457	22309.47
622.812	22446.87
623.168	22508.11
623.523	22651.61
623.879	22686.41
624.234	22431.27
624.589	22527.32
624.945	22565.51
625.3	22634.21
625.655	22740.87
626.01	22579.52
626.365	22711.72
626.72	22568.22
627.075	22659.29
627.43	22652.06
627.785	22698.61
628.14	22799.17
628.495	22735.67
628.85	22728.22
629.205	22711.49
629.559	22725.96
629.914	22634.21
630.269	22756.69
630.623	22674.43
630.978	22750.14
631.332	22823.13
631.687	22831.26
632.041	22754.88
632.396	22865.61
632.75	22634.89
633.104	22772.51
633.459	22593.76
633.813	22691.61
634.167	22687.77
634.521	22719.63
634.875	22771.83
635.229	22694.77
635.583	22622.23
635.937	22613.19
636.291	22760.76
636.645	22663.36
636.999	22692.96
637.352	22652.51
637.706	22528
638.06	22589.91
638.413	22535.23
638.767	22459.07
639.121	22503.59
639.474	22490.03
639.828	22471.73
640.181	22567.32
640.534	22555.79
640.888	22489.58
641.241	22435.12
641.594	22400.77
641.947	22652.96
642.301	22445.96
642.654	22514.21
643.007	22594.21
643.36	22529.13
643.713	22496.36
644.066	22560.99
644.419	22447.55
644.771	22314.44
645.124	22139.53
645.477	22164.84
645.83	21931.4
646.182	21988.12
646.535	21904.96
646.888	21870.84
647.24	21799.88
647.593	21894.79
647.945	21882.59
648.298	21701.58
648.65	21805.98
649.002	21725.53
649.355	21815.7
649.707	21789.26
650.059	21929.59
650.411	22166.42
650.763	22134.79
651.115	22380.65
651.467	22394.44
651.819	22289.58
652.171	22223.14
652.523	22289.58
652.875	22310.83
653.227	22239.42
653.578	22400.77
653.93	22363.03
654.282	22333.65
654.633	22225.18
654.985	22291.84
655.337	22247.55
655.688	22352.18
656.039	22452.29
656.391	22107.89
656.742	22269.7
657.094	22365.51
657.445	22322.35
657.796	22257.04
658.147	22293.43
658.498	22234.44
658.849	22323.25
659.2	22242.13
659.551	22303.14
659.902	22248
660.253	22311.5
660.604	22383.82
660.955	22316.02
661.306	22345.85
661.656	22322.12
662.007	22315.35
662.358	22347.44
662.708	22334.33
663.059	22309.02
663.409	22170.04
663.76	22335.01
664.11	22330.49
664.461	22362.35
664.811	22464.72
665.161	22420.65
665.511	22309.24
665.862	22400.77
666.212	22437.83
666.562	22446.87
666.912	22309.92
667.262	22379.3
667.612	22313.09
667.962	22335.68
668.312	22363.25
668.662	22484.83
669.011	22408.68
669.361	22339.75
669.711	22363.25
670.06	22285.06
670.41	22296.59
670.76	22310.6
671.109	22449.58
671.459	22255.69
671.808	22319.87
672.157	22367.77
672.507	22332.29
672.856	22359.64
673.205	22331.16
673.554	22297.27
673.904	22255.46
674.253	22394.44
674.602	22334.55
674.951	21990.38
675.3	22010.04
675.649	22316.93
675.998	22273.76
676.346	22255.91
676.695	22238.96
677.044	22172.75
677.393	22305.63
677.741	22308.11
678.09	22242.58
678.438	22193.31
678.787	22226.99
679.135	22266.08
679.484	22041.91
679.832	22264.05
680.181	22026.99
680.529	22107.67
680.877	22084.17
681.225	22142.69
681.573	22182.92
681.922	22028.57
682.27	22059.53
682.618	22025.18
682.966	21989.93
683.314	22102.7
683.661	21935.92
684.009	21798.52
684.357	21859.31
684.705	21860.67
685.053	21859.54
685.4	21752.42
685.748	21791.52
686.095	21735.02
686.443	21733.67
686.79	21642.14
687.138	21747
687.485	21769.6
687.832	21598.3
688.18	21702.48
688.527	21553.56
688.874	21498.87
689.221	21433.11
689.568	21505.65
689.915	21430.17
690.262	21466.78
690.609	21389.72
690.956	21264.53
691.303	21276.28
691.65	21315.6
691.997	21142.04
692.344	21079.67
692.69	21062.27
693.037	21075.15
693.383	20947.02
693.73	20963.52
694.077	20976.17
694.423	20869.96
694.769	20821.15
695.116	20917.42
695.462	20738.21
695.808	20680.13
696.155	20731.43
696.501	20566.92
696.847	20612.57
697.193	20521.72
697.539	20555.17
697.885	20403.98
698.231	20378.67
698.577	20460.48
698.923	20369.18
699.269	20220.71
699.614	20189.53
699.96	20164.67
700.306	20149.98
700.651	20004.22
700.997	19983.2
701.342	20032.47
701.688	19927.39
702.033	19892.36
702.379	19822.53
702.724	19727.16
703.069	19843.09
703.415	19695.98
703.76	19639.26
704.105	19572.59
704.45	19625.7
704.795	19491.69
705.14	19502.54
705.485	19429.55
705.83	19397
706.175	19371.24
706.52	19426.61
706.865	19302.09
707.209	19340.96
707.554	19177.8
707.899	19340.96
708.243	19169.89
708.588	19112.27
708.932	18994.08
709.277	19044.25
709.621	19068.2
709.966	18975.77
710.31	18950.69
710.654	18803.8
710.998	18858.04
711.342	18923.8
711.687	18882.22
712.031	18770.58
712.375	18737.59
712.719	18807.87
713.063	18701.66
713.407	18841.54
713.75	18766.96
714.094	18716.34
714.438	18552.96
714.782	18689
715.125	18530.59
715.469	18555.67
715.812	18476.35
716.156	18450.81
716.499	18376.47
716.843	18469.34
717.186	18336.69
717.53	18347.54
717.873	18463.47
718.216	18227.09
718.559	18305.51
718.902	18174.89
719.246	18255.34
719.589	18162.69
719.932	18049.92
720.275	17996.81
720.617	18146.42
720.96	18162.91
721.303	18140.09
721.646	18100.77
721.989	17970.15
722.331	18181.67
722.674	18132.18
723.016	18052.18
723.359	18084.5
723.701	18036.14
724.044	17909.13
724.386	17889.25
724.729	17994.56
725.071	17884.5
725.413	17925.18
725.755	17851.28
726.097	17742.58
726.439	17645.19
726.782	17691.29
727.124	17912.07
727.465	17737.84
727.807	17756.6
728.149	17642.7
728.491	17698.29
728.833	17735.8
729.175	17686.99
729.516	17682.7
729.858	17622.81
730.199	17590.95
730.541	17570.61
730.882	17564.51
731.224	17580.55
731.565	17568.35
731.906	17588.46
732.248	17569.93
732.589	17441.8
732.93	17430.5
733.271	17463.72
733.612	17539.2
733.953	17524.96
734.294	17449.71
734.635	17462.37
734.976	17524.74
735.317	17331.52
735.658	17376.94
735.999	17415.14
736.339	17381.01
736.68	17431.18
737.021	17370.39
737.361	17302.82
737.702	17392.09
738.042	17257.17
738.383	17250.85
738.723	17383.72
739.063	17278.87
739.404	17317.28
739.744	17209.49
740.084	17249.94
740.424	17271.41
740.764	17269.38
741.104	17261.47
741.444	17231.86
741.784	17169.94
742.124	17222.82
742.464	17150.74
742.804	17275.03
743.143	17043.85
743.483	17141.24
743.823	17094.69
744.162	17115.71
744.502	17074.13
744.841	16881.59
745.181	17100.12
745.52	17047.69
745.86	17113.9
746.199	17073
746.538	17010.4
746.877	17079.1
747.216	16962.27
747.556	16959.33
747.895	17064.86
748.234	16845.21
748.573	16835.72
748.911	16768.37
749.25	16880.23
749.589	16858.77
749.928	16881.36
750.267	16898.99
750.605	16796.17
750.944	16821.48
751.283	16656.51
751.621	16797.52
751.96	16725.89
752.298	16847.47
752.636	16772.89
752.975	16755.72
753.313	16612.67
753.651	16755.04
753.989	16644.99
754.327	16645.21
754.666	16607.7
755.004	16614.48
755.342	16577.19
755.679	16522.73
756.017	16551.88
756.355	16605.89
756.693	16554.59
757.031	16480.24
757.368	16436.86
757.706	16426.23
758.044	16349.85
758.381	16439.34
758.719	16413.58
759.056	16385.78
759.394	16241.38
759.731	16211.55
760.068	16245.45
760.405	16174.72
760.743	16060.59
761.08	16169.97
761.417	16074.38
761.754	16104.21
762.091	15931.11
762.428	16042.97
762.765	15816.08
763.102	15964.55
763.438	15855.4
763.775	15779.02
764.112	15804.33
764.449	15823.76
764.785	15794.61
765.122	15670.32
765.458	15557.11
765.795	15643.88
766.131	15663.09
766.467	15541.74
766.804	15449.31
767.14	15473.72
767.476	15520.5
767.812	15342.42
768.148	15458.35
768.485	15312.37
768.821	15260.84
769.157	15288.19
769.492	15157.12
769.828	15186.04
770.164	15082.99
770.5	15066.5
770.836	15057.46
771.171	15017.23
771.507	14949.66
771.842	14839.61
772.178	14803.23
772.513	14748.54
772.849	14830.12
773.184	14677.13
773.519	14691.82
773.855	14590.58
774.19	14546.06
774.525	14546.74
774.86	14562.55
775.195	14512.16
775.53	14415.21
775.865	14380.19
776.2	14208.44
776.535	14184.03
776.87	14183.13
777.205	14101.32
777.539	14052.29
777.874	14092.28
778.209	13969.35
778.543	14006.41
778.878	13852.74
779.212	13951.5
779.547	13770.94
779.881	13834.89
780.215	13728.23
780.55	13792.41
780.884	13628.57
781.218	13693.43
781.552	13717.38
781.886	13513.09
782.22	13503.15
782.554	13441.23
782.888	13341.34
783.222	13381.34
783.556	13289.82
783.889	13260.67
784.223	13166.89
784.557	13100.9
784.89	13118.3
785.224	13080.56
785.557	13101.8
785.891	12978.64
786.224	12903.84
786.558	12973.22
786.891	12866.78
787.224	12795.14
787.557	12761.02
787.891	12809.61
788.224	12721.47
788.557	12747.01
788.89	12644.87
789.223	12700.23
789.556	12559.9
789.888	12547.69
790.221	12486.23
790.554	12360.35
790.887	12398.54
791.219	12423.18
791.552	12310.64
791.884	12229.06
792.217	12309.51
792.549	12235.84
792.882	12108.38
793.214	12090.76
793.546	12177.98
793.879	12029.51
794.211	11935.05
794.543	12051.66
794.875	11938.67
795.207	11963.98
795.539	11897.77
795.871	11874.26
796.203	11801.27
796.535	11721.5
796.867	11743.65
797.198	11722.4
797.53	11661.16
797.862	11639.47
798.193	11726.47
798.525	11592.46
798.856	11584.55
799.188	11538
799.519	11441.51
799.85	11437.44
800.182	11407.38
800.513	11433.6
800.844	11296.65
801.175	11407.61
801.506	11393.6
801.837	11254.39
802.168	11222.08
802.499	11214.85
802.83	11124.23
803.161	11185.24
803.491	11128.97
803.822	11137.11
804.153	11057.11
804.483	11001.29
804.814	10961.07
805.145	10975.08
805.475	10973.04
805.805	10963.55
806.136	10949.77
806.466	10873.16
806.796	10862.31
807.126	10745.93
807.457	10745.25
807.787	10746.38
808.117	10756.33
808.447	10643.79
808.777	10656.44
809.107	10610.79
809.436	10675.43
809.766	10586.39
810.096	10546.39
810.426	10580.96
810.755	10583.45
811.085	10444.92
811.414	10533.51
811.744	10413.74
812.073	10411.48
812.403	10376.68
812.732	10363.12
813.061	10348.65
813.39	10312.72
813.719	10252.61
814.049	10390.46
814.378	10294.19
814.707	10257.13
815.036	10193.18
815.365	10216
815.693	10051.26
816.022	10118.83
816.351	10070.02
816.68	10032.5
817.008	10028.44
817.337	10006.97
817.665	9976.01
817.994	10063.46
818.322	9951.83
818.651	9941.21
818.979	9799.06
819.307	9978.72
819.636	9923.58
819.964	9870.7
820.292	9875.22
820.62	9877.25
820.948	9815.79
821.276	9793.19
821.604	9745.51
821.932	9840.87
822.259	9807.65
822.587	9805.62
822.915	9771.49
823.243	9798.16
823.57	9774.88
823.898	9829.35
824.225	9715.68
824.553	9797.26
824.88	9810.14
825.207	9827.54
825.535	9806.07
825.862	9906.86
826.189	9757.26
826.516	9815.34
826.843	9820.98
827.17	9842.91
827.497	9857.14
827.824	9891.72
828.151	9797.71
828.478	9878.61
828.805	9869.12
829.131	9788.22
829.458	9817.37
829.785	9757.71
830.111	9756.13
830.438	9838.61
830.764	9839.52
831.09	9844.49
831.417	9807.2
831.743	9855.11
832.069	9833.41
832.395	9729.46
832.722	9796.8
833.048	9743.25
833.374	9778.27
833.7	9704.15
834.026	9693.98
834.351	9774.21
834.677	9754.77
835.003	9694.66
835.329	9729.24
835.654	9712.29
835.98	9649.69
836.306	9630.71
836.631	9671.61
836.956	9715.9
837.282	9660.99
837.607	9648.79
837.932	9572.4
838.258	9599.75
838.583	9610.14
838.908	9538.73
839.233	9580.31
839.558	9504.61
839.883	9501.9
840.208	9478.17
840.533	9445.4
840.858	9511.39
841.182	9455.8
841.507	9499.19
841.832	9431.84
842.156	9416.25
842.481	9404.05
842.805	9354.56
843.13	9284.73
843.454	9353.2
843.778	9408.79
844.103	9258.97
844.427	9298.96
844.751	9270.72
845.075	9296.03
845.399	9258.97
845.723	9206.99
846.047	9202.47
846.371	9224.39
846.695	9123.38
847.019	9094
847.343	9034.11
847.666	8989.82
847.99	8912.08
848.313	8929.03
848.637	8907.11
848.96	8843.84
849.284	8839.54
849.607	8781.24
849.931	8831.18
850.254	8697.85
850.577	8654.24
850.9	8630.06
851.223	8549.61
851.546	8607.91
851.869	8555.26
852.192	8606.55
852.515	8468.93
852.838	8488.59
853.161	8471.42
853.483	8396.62
853.806	8385.09
854.129	8338.99
854.451	8383.73
854.774	8352.77
855.096	8274.13
855.419	8289.5
855.741	8198.88
856.063	8257.18
856.385	8157.3
856.708	8161.14
857.03	8202.04
857.352	8158.88
857.674	8058.77
857.996	8039.79
858.318	8016.74
858.64	7998.89
858.961	8025.1
859.283	7976.51
859.605	7912.11
859.926	7974.03
860.248	7906.01
860.57	7935.38
860.891	7873.92
861.212	7894.26
861.534	7906.23
861.855	7789.17
862.176	7834.82
862.498	7839.79
862.819	7831.21
863.14	7830.3
863.461	7812.68
863.782	7732.68
864.103	7732.9
864.424	7728.61
864.745	7789.63
865.065	7740.14
865.386	7688.84
865.707	7631.44
866.027	7635.51
866.348	7600.03
866.668	7702.17
866.989	7591.89
867.309	7592.34
867.63	7602.06
867.95	7499.01
868.27	7539.01
868.59	7531.55
868.91	7519.8
869.23	7535.17
869.55	7583.3
869.87	7555.73
870.19	7562.51
870.51	7489.29
870.83	7498.33
871.15	7479.58
871.469	7473.48
871.789	7441.84
872.109	7423.76
872.428	7428.73
872.748	7382.18
873.067	7473.25
873.386	7422.18
873.706	7397.32
874.025	7370.65
874.344	7345.57
874.663	7359.35
874.982	7380.6
875.301	7335.63
875.62	7356.42
875.939	7371.33
876.258	7290.66
876.577	7347.6
876.896	7266.25
877.214	7304.21
877.533	7273.71
877.852	7240.26
878.17	7252.69
878.489	7252.92
878.807	7248.4
879.125	7237.78
879.444	7204.1
879.762	7197.78
880.08	7192.13
880.398	7158.23
880.716	7166.82
881.034	7158.46
881.352	7197.55
881.67	7078.91
881.988	7112.36
882.306	7102.41
882.624	7105.35
882.941	7088.63
883.259	7001.85
883.577	7036.2
883.894	6930.44
884.212	7032.81
884.529	7024.45
884.846	6967.05
885.164	6951
885.481	6919.37
885.798	6916.2
886.115	6837.11
886.432	6867.84
886.75	6885.02
887.067	6877.33
887.383	6847.73
887.7	6821.06
888.017	6827.39
888.334	6787.84
888.651	6791.23
888.967	6714.17
889.284	6734.74
889.6	6696.32
889.917	6667.4
890.233	6658.81
890.55	6681.18
890.866	6669.88
891.182	6669.2
891.498	6661.29
891.815	6607.96
892.131	6527.51
892.447	6556.66
892.763	6529.09
893.079	6533.39
893.395	6491.81
893.71	6481.86
894.026	6444.35
894.342	6455.88
894.657	6432.37
894.973	6399.38
895.289	6408.87
895.604	6382.88
895.92	6352.38
896.235	6308.08
896.55	6285.26
896.865	6306.27
897.181	6283
897.496	6260.63
897.811	6242.55
898.126	6194.87
898.441	6222.44
898.756	6161.42
899.071	6160.74
899.386	6159.39
899.7	6074.42
900.015	6060.63
900.33	6047.75
900.644	6017.02
900.959	6080.52
901.273	6033.74
901.588	5965.49
901.902	5986.74
902.216	5967.07
902.531	5898.15
902.845	5953.52
903.159	5901.54
903.473	5826.97
903.787	5865.83
904.101	5802.79
904.415	5824.93
904.729	5773.18
905.042	5756.46
905.356	5750.36
905.67	5681.21
905.984	5727.31
906.297	5738.15
906.611	5658.61
906.924	5671.26
907.237	5633.07
907.551	5629.46
907.864	5624.94
908.177	5604.15
908.491	5537.71
908.804	5506.3
909.117	5503.13
909.43	5462.23
909.743	5479.63
910.056	5458.61
910.368	5430.37
910.681	5390.37
910.994	5401.44
911.307	5337.26
911.619	5321.67
911.932	5288.9
912.244	5296.81
912.557	5285.74
912.869	5302.46
913.181	5233.99
913.494	5224.5
913.806	5200.54
914.118	5185.4
914.43	5120.77
914.742	5157.38
915.054	5088.91
915.366	5107.89
915.678	5089.13
915.99	5100.43
916.302	5076.25
916.613	4981.34
916.925	5039.87
917.236	4995.57
917.548	4965.75
917.859	4957.16
918.171	4915.8
918.482	4912.64
918.794	4887.33
919.105	4870.38
919.416	4826.99
919.727	4852.08
920.038	4819.99
920.349	4814.79
920.66	4716.71
920.971	4728.46
921.282	4722.59
921.593	4737.05
921.903	4649.37
922.214	4662.93
922.525	4730.05
922.835	4613.21
923.146	4615.7
923.456	4583.83
923.767	4596.72
924.077	4582.03
924.387	4564.85
924.697	4525.76
925.008	4537.28
925.318	4511.07
925.628	4490.73
925.938	4461.35
926.248	4418.87
926.558	4392.88
926.867	4387.68
927.177	4374.35
927.487	4332.09
927.796	4344.74
928.106	4321.92
928.416	4306.55
928.725	4317.4
929.034	4243.28
929.344	4232.66
929.653	4255.93
929.962	4177.97
930.271	4183.84
930.581	4216.39
930.89	4194.69
931.199	4165.09
931.508	4117.63
931.817	4107.69
932.125	4142.94
932.434	4107.01
932.743	4063.85
933.051	4050.74
933.36	4029.72
933.669	4014.58
933.977	4000.8
934.286	3994.92
934.594	3962.16
934.902	3958.09
935.21	3931.65
935.519	3938.88
935.827	3914.7
936.135	3883.29
936.443	3870.86
936.751	3872.44
937.059	3868.6
937.367	3846.23
937.674	3812.1
937.982	3811.88
938.29	3800.58
938.597	3812.78
938.905	3715.83
939.213	3716.51
939.52	3721.26
939.827	3779.56
940.135	3698.66
940.442	3674.25
940.749	3670.86
941.056	3703.18
941.363	3634.48
941.67	3609.85
941.977	3600.13
942.284	3577.76
942.591	3607.36
942.898	3564.88
943.205	3575.95
943.511	3507.25
943.818	3574.14
944.125	3469.74
944.431	3476.97
944.738	3509.06
945.044	3483.07
945.35	3501.83
945.657	3451.66
945.963	3440.59
946.269	3383.41
946.575	3425.67
946.881	3404.2
947.187	3341.61
947.493	3319.23
947.799	3323.08
948.105	3320.82
948.41	3294.15
948.716	3317.65
949.022	3305.68
949.327	3291.21
949.633	3234.49
949.938	3229.97
950.244	3250.54
950.549	3193.59
950.854	3196.53
951.16	3200.14
951.465	3191.1
951.77	3210.76
952.075	3158.56
952.38	3153.59
952.685	3143.19
952.99	3096.64
953.294	3100.94
953.599	3083.76
953.904	3058.45
954.209	3061.16
954.513	3015.97
954.818	3018
955.122	2971.22
955.426	3016.19
955.731	2977.1
956.035	2961.73
956.339	2942.07
956.643	2966.7
956.948	2923.54
957.252	2936.87
957.556	2926.25
957.86	2877.66
958.163	2893.03
958.467	2894.39
958.771	2877.89
959.075	2844.9
959.378	2846.03
959.682	2863.43
959.985	2848.29
960.289	2839.25
960.592	2838.8
960.896	2815.52
961.199	2766.71
961.502	2734.84
961.805	2751.79
962.108	2763.77
962.411	2714.5
962.714	2739.59
963.017	2741.4
963.32	2690.78
963.623	2705.47
963.926	2690.55
964.228	2690.1
964.531	2658.46
964.833	2674.51
965.136	2630.44
965.438	2634.51
965.741	2619.14
966.043	2585.92
966.345	2608.97
966.648	2577.11
966.95	2563.32
967.252	2539.14
967.554	2522.42
967.856	2540.05
968.158	2561.06
968.46	2545.24
968.761	2504.79
969.063	2498.24
969.365	2493.27
969.666	2488.07
969.968	2452.82
970.269	2440.61
970.571	2469.54
970.872	2449.65
971.174	2428.64
971.475	2432.48
971.776	2414.63
972.077	2416.43
972.378	2409.88
972.679	2373.27
972.98	2341.18
973.281	2366.72
973.582	2378.92
973.883	2348.86
974.183	2341.86
974.484	2331.24
974.785	2303.22
975.085	2296.89
975.386	2281.3
975.686	2277.68
975.986	2304.8
976.287	2274.52
976.587	2258.92
976.887	2244.01
977.187	2241.97
977.487	2261.41
977.787	2239.49
978.087	2208.98
978.387	2200.17
978.687	2176.44
978.987	2171.92
979.286	2166.27
979.586	2157.68
979.885	2158.14
980.185	2112.94
980.484	2153.84
980.784	2117.23
981.083	2088.08
981.382	2106.39
981.682	2079.49
981.981	2103
982.28	2093.05
982.579	2058.25
982.878	2051.25
983.177	2053.73
983.475	2058.7
983.774	2006.05
984.073	2012.15
984.372	2023.68
984.67	2015.09
984.969	2001.76
985.267	1997.69
985.566	1997.91
985.864	1982.09
986.162	1961.53
986.461	1977.35
986.759	1954.52
987.057	1941.64
987.355	1949.33
987.653	1962.66
987.951	1943.68
988.249	1928.54
988.547	1915.2
988.844	1904.58
989.142	1907.52
989.44	1894.64
989.737	1868.2
990.035	1869.56
990.332	1853.74
990.63	1869.1
990.927	1844.02
991.224	1843.79
991.521	1828.88
991.819	1836.34
992.116	1819.39
992.413	1794.76
992.71	1778.26
993.006	1770.8
993.303	1773.29
993.6	1794.98
993.897	1739.84
994.193	1772.38
994.49	1759.05
994.787	1743.46
995.083	1747.07
995.379	1741.88
995.676	1717.02
995.972	1707.53
996.268	1708.43
996.565	1676.11
996.861	1740.52
997.157	1699.16
997.453	1656.45
997.749	1665.27
998.044	1649
998.34	1639.96
998.636	1628.21
998.932	1618.94
999.227	1652.84
999.523	1634.76
999.818	1622.56
1000.114	1599.28
1000.409	1598.6
1000.704	1583.91
1001	1589.11
1001.295	1574.42
1001.59	1566.74
1001.885	1546.4
1002.18	1543.46
1002.475	1543.91
1002.77	1545.04
1003.065	1528.1
1003.359	1516.57
1003.654	1544.82
1003.949	1509.56
1004.243	1472.5
1004.538	1494.42
1004.832	1511.37
1005.127	1466.85
1005.421	1472.05
1005.715	1476.57
1006.009	1454.43
1006.304	1453.3
1006.598	1425.5
1006.892	1410.36
1007.186	1439.96
1007.48	1400.19
1007.773	1411.04
1008.067	1378.27
1008.361	1385.73
1008.655	1381.66
1008.948	1370.81
1009.242	1357.93
1009.535	1378.72
1009.829	1372.62
1010.122	1338.27
1010.415	1347.99
1010.708	1357.7
1011.001	1345.05
1011.295	1311.38
1011.588	1332.85
1011.881	1303.92
1012.173	1281.1
1012.466	1298.04
1012.759	1307.99
1013.052	1311.38
1013.344	1282.23
1013.637	1294.88
1013.93	1260.31
1014.222	1245.17
1014.514	1259.18
1014.807	1242.23
1015.099	1247.2
1015.391	1259.18
1015.683	1258.72
1015.976	1227.54
1016.268	1220.53
1016.56	1223.92
1016.851	1203.36
1017.143	1184.38
1017.435	1195.22
1017.727	1174.43
1018.018	1175.79
1018.31	1176.24
1018.602	1130.59
1018.893	1134.21
1019.185	1140.08
1019.476	1124.26
1019.767	1134.21
1020.058	1157.26
1020.35	1126.07
1020.641	1103.93
1020.932	1111.61
1021.223	1087.66
1021.514	1092.85
1021.804	1080.88
1022.095	1082.01
1022.386	1058.5
1022.677	1049.92
1022.967	1063.7
1023.258	1047.66
1023.548	1040.65
1023.839	1047.66
1024.129	1028.45
1024.419	1016.24
1024.709	1032.97
1025	1010.37
1025.29	1004.49
1025.58	995.45
1025.87	977.83
1026.16	967.88
1026.449	997.26
1026.739	974.66
1027.029	989.58
1027.319	961.1
1027.608	956.13
1027.898	961.78
1028.187	977.38
1028.477	956.36
1028.766	956.13
1029.055	929.24
1029.344	936.92
1029.634	922.69
1029.923	924.27
1030.212	910.71
1030.501	921.11
1030.79	888.34
1031.078	924.72
1031.367	882.01
1031.656	890.6
1031.945	885.17
1032.233	868
1032.522	879.75
1032.81	879.3
1033.099	876.14
1033.387	853.08
1033.675	846.76
1033.963	860.32
1034.251	871.39
1034.54	838.17
1034.828	837.94
1035.116	823.03
1035.403	819.87
1035.691	826.42
1035.979	798.85
1036.267	821.45
1036.554	814.67
1036.842	794.56
1037.129	794.56
1037.417	780.77
1037.704	784.16
1037.992	768.57
1038.279	782.35
1038.566	769.92
1038.853	769.92
1039.14	769.92
