Data from cardboard_FLMS001491_066.txt Node
Date: Tue Feb 07 11:39:57 GMT 2017
User: dcchb
Spectrometer: FLMS00149
Trigger mode: 0
Integration Time (sec): 2.000000E-2
Scans to average: 10
Electric dark correction enabled: true
Nonlinearity correction enabled: false
Boxcar width: 0
XAxis mode: Wavelengths
Number of Pixels in Spectrum: 2048
>>>>>Begin Spectral Data<<<<<
341.393	-7.73
341.776	-7.73
342.16	-7.73
342.543	-59.48
342.927	-62.64
343.31	-79.81
343.693	-74.39
344.077	-44.33
344.46	-57.22
344.843	-63.09
345.226	-40.04
345.61	-46.14
345.993	-12.7
346.376	0.86
346.759	21.43
347.142	25.04
347.525	37.92
347.908	52.84
348.291	68.66
348.674	92.61
349.057	118.37
349.44	116.11
349.823	151.59
350.206	147.98
350.588	188.88
350.971	206.51
351.354	212.38
351.737	237.47
352.119	251.48
352.502	257.13
352.884	271.36
353.267	288.54
353.65	286.05
354.032	307.29
354.414	293.74
354.797	324.47
355.179	309.1
355.562	304.58
355.944	329.67
356.326	327.18
356.709	345.26
357.091	328.31
357.473	339.16
357.855	342.77
358.238	364.24
358.62	335.77
359.002	340.51
359.384	344.81
359.766	340.29
360.148	344.36
360.53	324.02
360.912	359.95
361.294	340.51
361.676	330.57
362.057	341.87
362.439	319.95
362.821	322.66
363.203	349.1
363.584	312.94
363.966	323.79
364.348	313.17
364.729	322.89
365.111	322.89
365.493	319.27
365.874	304.58
366.256	313.62
366.637	317.24
367.019	327.18
367.4	298.93
367.781	317.01
368.163	313.4
368.544	337.58
368.925	334.64
369.306	328.08
369.688	329.44
370.069	331.7
370.45	317.01
370.831	311.81
371.212	329.89
371.593	344.13
371.974	310.46
372.355	323.56
372.736	322.21
373.117	326.95
373.498	314.75
373.879	343.45
374.26	335.77
374.641	334.41
375.021	303.68
375.402	330.57
375.783	350.23
376.163	318.59
376.544	334.86
376.925	347.97
377.305	341.42
377.686	331.25
378.066	352.72
378.447	329.44
378.827	317.24
379.208	344.13
379.588	336.45
379.968	345.03
380.349	335.09
380.729	350
381.109	329.89
381.489	342.1
381.87	362.89
382.25	321.53
382.63	353.39
383.01	352.49
383.39	371.25
383.77	350.23
384.15	339.16
384.53	358.14
384.91	340.74
385.29	373.96
385.67	359.27
386.049	375.77
386.429	357.46
386.809	344.36
387.189	359.95
387.568	378.48
387.948	362.89
388.328	389.55
388.707	384.81
389.087	373.51
389.466	389.1
389.846	370.12
390.225	392.72
390.605	394.07
390.984	381.64
391.363	370.34
391.743	372.6
392.122	374.41
392.501	391.36
392.881	378.03
393.26	392.04
393.639	386.16
394.018	397.24
394.397	394.52
394.776	405.37
395.155	409.66
395.534	419.16
395.913	397.24
396.292	406.5
396.671	410.79
397.05	425.94
397.429	409.89
397.808	408.76
398.186	407.63
398.565	403.56
398.944	425.03
399.323	414.41
399.701	433.84
400.08	427.52
400.458	432.26
400.837	445.6
401.215	431.36
401.594	447.18
401.972	427.52
402.351	440.17
402.729	428.42
403.107	447.86
403.486	447.86
403.864	453.73
404.242	436.33
404.62	456.22
404.999	461.87
405.377	454.63
405.755	442.43
406.133	447.86
406.511	462.77
406.889	457.12
407.267	462.54
407.645	488.76
408.023	478.36
408.401	493.96
408.779	506.61
409.156	485.59
409.534	501.64
409.912	495.54
410.29	510.45
410.667	515.65
411.045	526.5
411.422	525.37
411.8	535.31
412.178	520.85
412.555	530.11
412.933	523.33
413.31	533.95
413.687	537.34
414.065	560.39
414.442	551.58
414.819	567.85
415.197	574.41
415.574	557.23
415.951	568.53
416.328	571.92
416.705	581.64
417.082	601.52
417.46	589.09
417.837	594.07
418.214	599.26
418.591	591.81
418.967	600.85
419.344	589.77
419.721	616.66
420.098	608.3
420.475	606.95
420.852	605.14
421.228	625.48
421.605	621.64
421.982	630.68
422.358	637
422.735	646.95
423.111	647.62
423.488	644.23
423.864	661.64
424.241	671.13
424.617	653.5
424.994	664.57
425.37	664.12
425.746	674.52
426.123	668.41
426.499	677.23
426.875	669.09
427.251	686.27
427.627	715.65
428.003	720.62
428.379	741.18
428.756	712.93
429.132	728.53
429.507	735.53
429.883	737.57
430.259	763.33
430.635	748.86
431.011	759.49
431.387	775.53
431.763	789.77
432.138	786.38
432.514	798.81
432.89	805.81
433.265	802.65
433.641	825.7
434.016	800.84
434.392	822.99
434.767	828.18
435.143	860.27
435.518	854.62
435.894	864.34
436.269	859.37
436.644	870.44
437.02	875.64
437.395	885.81
437.77	894.85
438.145	875.87
438.52	909.54
438.895	923.78
439.271	918.8
439.646	925.81
440.021	953.15
440.395	926.49
440.77	941.85
441.145	956.77
441.52	983.21
441.895	956.77
442.27	981.85
442.645	975.07
443.019	976.2
443.394	989.76
443.769	999.03
444.143	990.44
444.518	1004
444.892	1016.65
445.267	991.8
445.641	1023.21
446.016	1019.37
446.39	1040.83
446.764	1060.72
447.139	1066.82
447.513	1052.81
447.887	1053.72
448.262	1051.91
448.636	1055.98
449.01	1084.67
449.384	1080.83
449.758	1069.31
450.132	1092.13
450.506	1123.54
450.88	1113.37
451.254	1128.74
451.628	1106.82
452.002	1145.92
452.376	1133.49
452.75	1164.67
453.123	1148.18
453.497	1146.37
453.871	1168.29
454.244	1205.12
454.618	1217.55
454.992	1237.67
455.365	1223.65
455.739	1225.24
456.112	1272.69
456.486	1266.14
456.859	1282.41
457.232	1319.7
457.606	1333.03
457.979	1307.04
458.352	1350.88
458.725	1386.59
459.099	1368.96
459.472	1389.53
459.845	1433.37
460.218	1400.37
460.591	1435.4
460.964	1446.47
461.337	1442.86
461.71	1512.23
462.083	1458.22
462.456	1499.81
462.829	1506.36
463.201	1527.6
463.574	1538.67
463.947	1541.39
464.32	1559.69
464.692	1615.06
465.065	1627.03
465.438	1620.48
465.81	1649.86
466.183	1666.81
466.555	1695.05
466.928	1686.24
467.3	1720.82
467.672	1742.74
468.045	1800.14
468.417	1784.32
468.789	1778.44
469.161	1841.04
469.534	1866.8
469.906	1907.93
470.278	1886.24
470.65	1934.14
471.022	1956.29
471.394	2011.2
471.766	1963.52
472.138	2036.51
472.51	2079.68
472.882	2090.52
473.253	2132.33
473.625	2121.94
473.997	2187.24
474.369	2198.54
474.74	2225.66
475.112	2286.9
475.484	2293.23
475.855	2342.95
476.227	2350.86
476.598	2420.23
476.97	2463.4
477.341	2521.02
477.713	2516.5
478.084	2540.46
478.455	2599.44
478.827	2660.45
479.198	2728.7
479.569	2696.38
479.94	2762.6
480.311	2825.19
480.682	2827.45
481.053	2904.97
481.424	2989.94
481.795	2970.73
482.166	3025.64
482.537	3064.74
482.908	3118.52
483.279	3211.62
483.65	3262.7
484.021	3325.97
484.391	3398.74
484.762	3384.95
485.133	3376.59
485.503	3491.84
485.874	3595.12
486.244	3588.56
486.615	3639.64
486.985	3683.02
487.356	3780.65
487.726	3807.77
488.097	3891.15
488.467	3886.86
488.837	3977.93
489.207	4101.32
489.578	4100.64
489.948	4109
490.318	4170.02
490.688	4224.03
491.058	4269.9
491.428	4376.34
491.798	4424.93
492.168	4492.72
492.538	4569.55
492.908	4594.19
493.278	4644.58
493.648	4724.13
494.017	4748.08
494.387	4810
494.757	4848.42
495.126	4916.44
495.496	4951.47
495.866	4969.09
496.235	5030.79
496.605	5079.37
496.974	5135.64
497.344	5173.38
497.713	5266.03
498.082	5293.6
498.452	5337.9
498.821	5407.05
499.19	5466.71
499.559	5518.46
499.928	5577.66
500.298	5561.17
500.667	5635.52
501.036	5655.4
501.405	5718.45
501.774	5783.99
502.143	5806.36
502.512	5849.52
502.88	5900.14
503.249	5966.81
503.618	6012.23
503.987	6094.49
504.356	6110.76
504.724	6157.76
505.093	6213.58
505.462	6270.98
505.83	6332.67
506.199	6350.98
506.567	6482.27
506.936	6501.26
507.304	6611.08
507.672	6625.77
508.041	6669.61
508.409	6758.88
508.777	6866.44
509.145	6887.69
509.514	6966.33
509.882	7000.45
510.25	7025.99
510.618	7056.27
510.986	7145.76
511.354	7236.6
511.722	7261.91
512.09	7418.29
512.458	7440.21
512.826	7543.94
513.193	7570.38
513.561	7624.62
513.929	7726.08
514.297	7819.64
514.664	7905.29
515.032	7933.53
515.4	8016.02
515.767	8086.07
516.135	8170.59
516.502	8182.12
516.869	8303.92
517.237	8335.56
517.604	8429.34
517.972	8538.94
518.339	8553.63
518.706	8616
519.073	8745.49
519.44	8781.87
519.808	8892.61
520.175	8922.89
520.542	9032.49
520.909	9182.32
521.276	9150.45
521.643	9293.95
522.009	9429.99
522.376	9499.37
522.743	9593.6
523.11	9705.69
523.477	9780.49
523.843	9891
524.21	10017.77
524.577	10075.17
524.943	10179.35
525.31	10204.66
525.676	10328.95
526.043	10521.94
526.409	10584.99
526.776	10619.11
527.142	10765.1
527.508	10827.92
527.874	11028.14
528.241	10961.93
528.607	11076.28
528.973	11189.49
529.339	11259.32
529.705	11423.39
530.071	11547
530.437	11605.3
530.803	11693.89
531.169	11783.83
531.535	11829.03
531.901	11910.83
532.267	12069.7
532.632	12207.32
532.998	12252.52
533.364	12319.18
533.73	12392.85
534.095	12572.96
534.461	12657.7
534.826	12677.36
535.192	12776.8
535.557	12843.46
535.923	12844.59
536.288	12946.96
536.653	13036.9
537.019	13104.47
537.384	13219.27
537.749	13309.66
538.114	13399.61
538.479	13478.47
538.845	13519.15
539.21	13489.09
539.575	13693.38
539.94	13737.68
540.305	13999.14
540.67	13960.49
541.034	14063.99
541.399	14168.4
541.764	14170.88
542.129	14296.76
542.494	14278.68
542.858	14454.27
543.223	14427.37
543.587	14568.39
543.952	14631.21
544.316	14726.35
544.681	14730.64
545.045	14885.22
545.41	14943.75
545.774	15075.72
546.138	15135.15
546.503	15211.76
546.867	15303.51
547.231	15469.61
547.595	15446.33
547.959	15624.86
548.324	15638.87
548.688	15665.31
549.052	15811.75
549.416	15855.81
549.779	15946.21
550.143	15996.6
550.507	16100.55
550.871	16256.03
551.235	16263.71
551.599	16364.05
551.962	16464.16
552.326	16583.93
552.689	16694.43
553.053	16639.75
553.417	16795.22
553.78	16969.45
554.143	17056.46
554.507	17102.11
554.87	17192.05
555.234	17401.76
555.597	17419.84
555.96	17546.39
556.323	17640.17
556.686	17652.37
557.05	17889.2
557.413	17821.18
557.776	18005.81
558.139	18146.15
558.502	18263.88
558.865	18233.15
559.228	18470.66
559.59	18604.89
559.953	18655.74
560.316	18907.48
560.679	18958.78
561.041	19128.95
561.404	19176.85
561.767	19363.06
562.129	19286.46
562.492	19496.17
562.854	19582.72
563.217	19520.12
563.579	19707.69
563.941	19831.53
564.304	20064.97
564.666	20128.69
565.028	20219.09
565.39	20290.05
565.753	20407.33
566.115	20692.29
566.477	20720.77
566.839	20739.53
567.201	21022.46
567.563	21076.92
567.925	21233.98
568.287	21253.18
568.648	21305.39
569.01	21416.12
569.372	21586.96
569.734	21683.91
570.095	21734.53
570.457	21872.83
570.819	22014.07
571.18	21958.02
571.542	22127.06
571.903	22302.2
572.265	22288.64
572.626	22478.01
572.987	22503.77
573.349	22569.53
573.71	22805.23
574.071	22818.57
574.432	22905.34
574.794	23191.44
575.155	23204.32
575.516	23073.48
575.877	23187.82
576.238	23355.73
576.599	23447.93
576.96	23425.1
577.32	23499.45
577.681	23670.75
578.042	23742.61
578.403	23779.22
578.763	23897.18
579.124	24018.76
579.485	24143.5
579.845	24209.94
580.206	24193.67
580.566	24244.29
580.927	24300.11
581.287	24489.26
581.648	24437.96
582.008	24522.7
582.368	24527
582.728	24552.08
583.089	24698.97
583.449	24670.72
583.809	24645.41
584.169	24777.39
584.529	24753.21
584.889	24898.96
585.249	24891.28
585.609	24863.71
585.969	25017.6
586.329	25028.68
586.688	25050.37
587.048	25157.04
587.408	25086.53
587.768	25210.37
588.127	25180.99
588.487	25129.01
588.846	25444.71
589.206	25327.88
589.565	25452.85
589.925	25577.59
590.284	25478.61
590.643	25615.56
591.003	25686.74
591.362	25699.39
591.721	25745.27
592.08	25684.71
592.44	25931.48
592.799	25844.02
593.158	25771.71
593.517	25849.22
593.876	25913.85
594.235	25898.26
594.593	26016.22
594.952	26211.25
595.311	26049.67
595.67	26185.71
596.029	26352.03
596.387	26339.83
596.746	26405.59
597.104	26347.06
597.463	26341.86
597.822	26560.39
598.18	26343.67
598.538	26364.24
598.897	26572.37
599.255	26424.57
599.613	26840.61
599.972	26599.03
600.33	26758.12
600.688	26722.87
601.046	26733.27
601.404	26904.79
601.762	26828.18
602.12	26968.51
602.478	27059.13
602.836	27038.57
603.194	27021.39
603.552	27088.28
603.91	27076.76
604.268	27263.65
604.625	27129.64
604.983	27322.4
605.341	27208.73
605.698	27405.79
606.056	27432
606.413	27368.28
606.771	27498.44
607.128	27486.47
607.485	27501.83
607.843	27519.46
608.2	27699.34
608.557	27815.27
608.914	27727.82
609.272	27883.07
609.629	27938.88
609.986	28188.59
610.343	28081.93
610.7	28165.09
611.057	28135.94
611.414	28194.02
611.771	28291.19
612.127	28280.57
612.484	28198.99
612.841	28370.74
613.198	28302.04
613.554	28364.18
613.911	28516.27
614.267	28658.41
614.624	28511.98
614.98	28598.98
615.337	28828.58
615.693	28772.08
616.05	28726.66
616.406	28862.48
616.762	28845.07
617.118	28932.98
617.475	28906.32
617.831	29088.91
618.187	29165.97
618.543	29179.76
618.899	29319.86
619.255	29303.82
619.611	29259.98
619.967	29383.37
620.323	29436.25
620.678	29343.14
621.034	29490.26
621.39	29331.16
621.746	29366.19
622.101	29750.14
622.457	29555.11
622.812	29518.96
623.168	29598.73
623.523	29590.59
623.879	29808.44
624.234	29480.99
624.589	29704.49
624.945	29643.47
625.3	29709.68
625.655	29662.91
626.01	29817.93
626.365	29879.17
626.72	29738.16
627.075	29628.78
627.43	29741.1
627.785	29794.88
628.14	29857.48
628.495	29837.14
628.85	29831.04
629.205	29794.88
629.559	29888.66
629.914	29770.7
630.269	30031.26
630.623	29872.84
630.978	29833.07
631.332	29935.44
631.687	29991.94
632.041	29851.83
632.396	29984.93
632.75	29840.75
633.104	29952.84
633.459	29706.07
633.813	29791.04
634.167	29676.69
634.521	29765.5
634.875	29956.23
635.229	29809.34
635.583	29655.22
635.937	29677.6
636.291	29717.14
636.645	29695.22
636.999	29751.49
637.352	29691.15
637.706	29569.8
638.06	29635.11
638.413	29649.57
638.767	29530.25
639.121	29620.2
639.474	29377.72
639.828	29558.95
640.181	29514.66
640.534	29591.95
640.888	29515.11
641.241	29345.85
641.594	29524.38
641.947	29535.23
642.301	29417.04
642.654	29459.97
643.007	29478.5
643.36	29516.7
643.713	29447.77
644.066	29561.89
644.419	29307.66
644.771	29150.83
645.124	28835.36
645.477	28862.02
645.83	28723.27
646.182	28647.11
646.535	28599.43
646.888	28704.97
647.24	28511.75
647.593	28584.06
647.945	28551.52
648.298	28500.23
648.65	28695.93
649.002	28369.83
649.355	28631.97
649.707	28479.21
650.059	28689.82
650.411	28960.1
650.763	28963.26
651.115	29374.1
651.467	29206.65
651.819	29296.36
652.171	29203.71
652.523	28994.68
652.875	29181.56
653.227	29124.39
653.578	29389.69
653.93	29239.41
654.282	29174.56
654.633	29031.96
654.985	29135.01
655.337	29189.02
655.688	29087.1
656.039	29130.04
656.391	29022.92
656.742	29061.57
657.094	29032.87
657.445	29314.44
657.796	29108.12
658.147	29062.92
658.498	29140.21
658.849	29240.09
659.2	29050.95
659.551	28999.2
659.902	29139.76
660.253	29106.31
660.604	29132.98
660.955	28964.17
661.306	29285.74
661.656	28997.84
662.007	29072.41
662.358	29197.38
662.708	29123.03
663.059	29194.9
663.409	28924.62
663.76	29208.91
664.11	29155.8
664.461	29249.81
664.811	29288.91
665.161	29168.23
665.511	29157.38
665.862	29169.81
666.212	29342.46
666.562	29287.55
666.912	29256.14
667.262	29196.25
667.612	29177.72
667.962	29243.03
668.312	29139.76
668.662	29387.66
669.011	29318.73
669.361	29140.21
669.711	29169.81
670.06	29154.45
670.41	29159.19
670.76	29087.78
671.109	29170.26
671.459	29048.01
671.808	29168.91
672.157	29167.1
672.507	28940.44
672.856	29047.33
673.205	29053.21
673.554	29137.27
673.904	29079.42
674.253	29236.48
674.602	29109.47
674.951	28636.04
675.3	28607.79
675.649	28962.13
675.998	29051.17
676.346	29036.48
676.695	29092.07
677.044	28920.1
677.393	28984.73
677.741	29045.52
678.09	28878.52
678.438	28973.66
678.787	28971.17
679.135	28943.6
679.484	28750.39
679.832	28908.35
680.181	28862.25
680.529	28867.67
680.877	28677.85
681.225	28666.77
681.573	28917.84
681.922	28838.97
682.27	28670.84
682.618	28646.66
682.966	28523.73
683.314	28641.24
683.661	28624.74
684.009	28406.44
684.357	28335.94
684.705	28401.7
685.053	28392.88
685.4	28380
685.748	28301.36
686.095	28171.87
686.443	28230.18
686.79	28163.51
687.138	28183.4
687.485	28210.97
687.832	27995.83
688.18	28248.71
688.527	28075.38
688.874	27976.62
689.221	27986.34
689.568	27920.13
689.915	27772.56
690.262	27800.13
690.609	27784.09
690.956	27671.55
691.303	27681.94
691.65	27494.83
691.997	27523.75
692.344	27369.18
692.69	27330.99
693.037	27396.75
693.383	27244.66
693.73	27343.19
694.077	27089.41
694.423	27076.99
694.769	26992.24
695.116	26978.68
695.462	26902.98
695.808	26909.53
696.155	26986.59
696.501	26790.21
696.847	26751.8
697.193	26453.05
697.539	26707.05
697.885	26357
698.231	26482.2
698.577	26476.1
698.923	26388.42
699.269	26263.45
699.614	26140.51
699.96	26102.55
700.306	26189.55
700.651	25995.43
700.997	26011.48
701.342	25943.46
701.688	25878.83
702.033	25830.01
702.379	25813.52
702.724	25643.35
703.069	25698.49
703.415	25561.09
703.76	25474.99
704.105	25510.7
704.45	25399.74
704.795	25284.72
705.14	25314.32
705.485	25206.07
705.83	25165.4
706.175	25229.35
706.52	25065.97
706.865	24966.76
707.209	24987.78
707.554	24897.38
707.899	24966.08
708.243	24793.66
708.588	24916.36
708.932	24657.84
709.277	24732.64
709.621	24723.38
709.966	24577.84
710.31	24577.16
710.654	24387.34
710.998	24463.04
711.342	24444.96
711.687	24365.87
712.031	24380.56
712.375	24284.74
712.719	24336.49
713.063	24223.95
713.407	24327.23
713.75	24137.4
714.094	24232.77
714.438	24166.55
714.782	24038.65
715.125	24055.6
715.469	23999.78
715.812	23960.01
716.156	23913.68
716.499	23900.57
716.843	23817.41
717.186	23701.71
717.53	23901.93
717.873	23948.48
718.216	23764.3
718.559	23579.68
718.902	23472.79
719.246	23668.04
719.589	23615.61
719.932	23375.16
720.275	23337.88
720.617	23397.76
720.96	23341.94
721.303	23390.08
721.646	23401.38
721.989	23264.88
722.331	23406.8
722.674	23309.85
723.016	23363.19
723.359	23289.06
723.701	23270.53
724.044	23229.63
724.386	23165
724.729	23289.97
725.071	23101.05
725.413	23124.55
725.755	23033.48
726.097	23082.51
726.439	22882.97
726.782	22926.13
727.124	23051.55
727.465	22894.04
727.807	22990.54
728.149	22889.53
728.491	22908.28
728.833	22959.81
729.175	22790.54
729.516	22818.34
729.858	22726.37
730.199	22837.78
730.541	22794.39
730.882	22741.05
731.224	22789.19
731.565	22630.78
731.906	22626.71
732.248	22708.29
732.589	22658.8
732.93	22509.65
733.271	22593.71
733.612	22638.23
733.953	22679.59
734.294	22559.36
734.635	22525.92
734.976	22598.69
735.317	22442.76
735.658	22402.53
735.999	22374.51
736.339	22377.45
736.68	22472.36
737.021	22477.33
737.361	22289.99
737.702	22479.37
738.042	22395.98
738.383	22405.7
738.723	22448.63
739.063	22254.51
739.404	22312.37
739.744	22208.41
740.084	22160.96
740.424	22268.98
740.764	22233.95
741.104	22344.68
741.444	22138.81
741.784	22095.42
742.124	22143.56
742.464	22259.03
742.804	22138.81
743.143	22065.14
743.483	22230.11
743.823	22083.44
744.162	22038.25
744.502	22144.01
744.841	21998.02
745.181	22204.57
745.52	22024.92
745.86	21978.36
746.199	22070.11
746.538	22007.74
746.877	21963.67
747.216	22014.29
747.556	21898.36
747.895	21989.66
748.234	21923.9
748.573	21871.47
748.911	21774.98
749.25	21874.18
749.589	21754.19
749.928	21954.86
750.267	21897.46
750.605	21767.52
750.944	21664.7
751.283	21707.86
751.621	21791.48
751.96	21679.84
752.298	21652.95
752.636	21675.55
752.975	21564.14
753.313	21530.69
753.651	21593.06
753.989	21550.35
754.327	21438.94
754.666	21338.15
755.004	21500.64
755.342	21544.25
755.679	21551.71
756.017	21320.08
756.355	21374.08
756.693	21358.27
757.031	21332.28
757.368	21291.38
757.706	21157.37
758.044	21215.22
758.381	21167.54
758.719	21148.78
759.056	21051.38
759.394	21058.84
759.731	20867.21
760.068	21003.25
760.405	20910.37
760.743	20856.81
761.08	20860.43
761.417	20831.05
761.754	20731.39
762.091	20703.82
762.428	20617.49
762.765	20590.38
763.102	20590.15
763.438	20433.32
763.775	20415.69
764.112	20439.87
764.449	20444.84
764.785	20355.35
765.122	20257.05
765.458	20136.15
765.795	20154.68
766.131	20141.12
766.467	20141.8
766.804	20034.23
767.14	19929.15
767.476	19980.9
767.812	19871.98
768.148	19926.89
768.485	19798.08
768.821	19604.41
769.157	19727.8
769.492	19580.01
769.828	19519.44
770.164	19368.26
770.5	19349.05
770.836	19425.44
771.171	19311.99
771.507	19266.8
771.842	19137.53
772.178	19120.81
772.513	19113.58
772.849	18970.98
773.184	18910.87
773.519	18945.45
773.855	18882.17
774.19	18793.59
774.525	18692.12
774.86	18702.06
775.195	18650.99
775.53	18588.17
775.865	18470.43
776.2	18453.48
776.535	18352.02
776.87	18296.88
777.205	18215.3
777.539	18239.03
777.874	18172.81
778.209	17962.65
778.543	17966.04
778.878	17818.47
779.212	17888.07
779.547	17879.04
779.881	17854.63
780.215	17720.17
780.55	17740.51
780.884	17652.15
781.218	17618.03
781.552	17600.4
781.886	17461.65
782.22	17362.66
782.554	17330.12
782.888	17209.22
783.222	17147.98
783.556	17164.03
783.889	17087.42
784.223	17038.83
784.557	17022.56
784.89	16974.65
785.224	16872.73
785.557	16734.21
785.891	16820.08
786.224	16709.8
786.558	16739.18
786.891	16590.71
787.224	16450.37
787.557	16399.07
787.891	16477.26
788.224	16372.63
788.557	16421.45
788.89	16298.96
789.223	16310.49
789.556	16195.92
789.888	16131.28
790.221	16081.79
790.554	15953.66
790.887	15956.6
791.219	15985.98
791.552	15884.29
791.884	15862.37
792.217	15850.84
792.549	15754.57
792.882	15643.61
793.214	15541.92
793.546	15621.69
793.879	15463.73
794.211	15449.95
794.543	15467.8
794.875	15421.47
795.207	15404.98
795.539	15329.5
795.871	15297.18
796.203	15263.74
796.535	15127.24
796.867	15125.66
797.198	15103.06
797.53	15067.81
797.862	15025.33
798.193	14968.15
798.525	14901.03
798.856	14945.55
799.188	14820.36
799.519	14807.03
799.85	14660.59
800.182	14673.7
800.513	14667.14
800.844	14556.19
801.175	14584.21
801.506	14579.46
801.837	14532.91
802.168	14517.09
802.499	14494.04
802.83	14292.24
803.161	14290.43
803.491	14277.55
803.822	14292.92
804.153	14240.94
804.483	14108.06
804.814	14122.98
805.145	14092.92
805.475	14071
805.805	14035.97
806.136	13971.57
806.466	13949.65
806.796	13925.24
807.126	13813.83
807.457	13749.65
807.787	13794.85
808.117	13760.73
808.447	13773.83
808.777	13725.47
809.107	13718.02
809.436	13597.34
809.766	13678.47
810.096	13614.51
810.426	13528.19
810.755	13520.73
811.085	13454.07
811.414	13441.86
811.744	13351.7
812.073	13329.55
812.403	13299.04
812.732	13319.61
813.061	13275.09
813.39	13171.14
813.719	13193.74
814.049	13234.64
814.378	13198.03
814.707	13176.11
815.036	13158.03
815.365	13021.54
815.693	13007.98
816.022	12898.15
816.351	12922.1
816.68	12861.54
817.008	12864.48
817.337	12817.93
817.665	12816.12
817.994	12906.51
818.322	12786.29
818.651	12782.22
818.979	12693.18
819.307	12791.49
819.636	12745.16
819.964	12643.02
820.292	12626.07
820.62	12650.7
820.948	12664.94
821.276	12615.67
821.604	12604.37
821.932	12628.1
822.259	12647.76
822.587	12602.56
822.915	12528.67
823.243	12640.3
823.57	12553.53
823.898	12666.07
824.225	12553.3
824.553	12616.12
824.88	12546.97
825.207	12576.12
825.535	12569.8
825.862	12594.65
826.189	12598.72
826.516	12610.25
826.843	12559.4
827.17	12582.9
827.497	12570.25
827.824	12586.52
828.151	12527.99
828.478	12596.46
828.805	12607.54
829.131	12622
829.458	12566.18
829.785	12483.47
830.111	12600.53
830.438	12612.06
830.764	12573.19
831.09	12560.76
831.417	12572.28
831.743	12584.49
832.069	12574.54
832.395	12527.54
832.722	12566.86
833.048	12523.47
833.374	12556.24
833.7	12451.16
834.026	12514.66
834.351	12533.64
834.677	12496.8
835.003	12546.75
835.329	12454.32
835.654	12519.63
835.98	12373.42
836.306	12436.01
836.631	12370.93
836.956	12441.21
837.282	12402.8
837.607	12415
837.932	12249.58
838.258	12327.54
838.583	12270.14
838.908	12269.24
839.233	12218.85
839.558	12192.41
839.883	12227.66
840.208	12123.25
840.533	12179.98
840.858	12208.68
841.182	12160.99
841.507	12121.45
841.832	12117.83
842.156	12089.81
842.481	12003.71
842.805	12048.45
843.13	11933.2
843.454	11935.91
843.778	11868.35
844.103	11942.92
844.427	11831.96
844.751	11880.32
845.075	11839.87
845.399	11836.03
845.723	11736.6
846.047	11798.97
846.371	11665.64
846.695	11676.26
847.019	11561.01
847.343	11527.79
847.666	11469.03
847.99	11402.37
848.313	11433.78
848.637	11351.98
848.96	11349.49
849.284	11349.72
849.607	11280.56
849.931	11240.79
850.254	11091.19
850.577	11008.26
850.9	11016.62
851.223	11022.04
851.546	10945.88
851.869	10856.62
852.192	10918.77
852.515	10837.86
852.838	10785.89
853.161	10913.57
853.483	10759.22
853.806	10769.39
854.129	10683.07
854.451	10591.09
854.774	10668.15
855.096	10605.1
855.419	10504.31
855.741	10539.12
856.063	10457.31
856.385	10536.4
856.708	10392.23
857.03	10396.07
857.352	10413.47
857.674	10386.13
857.996	10347.93
858.318	10236.75
858.64	10228.16
858.961	10226.36
859.283	10142.06
859.605	10242.17
859.926	10185
860.248	10131.22
860.57	10107.04
860.891	10097.77
861.212	10085.34
861.534	10015.74
861.855	9978.68
862.176	10013.25
862.498	10032.46
862.819	9968.06
863.14	9932.58
863.461	9914.05
863.782	9913.6
864.103	9886.7
864.424	9866.59
864.745	9881.73
865.065	9831.11
865.386	9821.39
865.707	9784.11
866.027	9786.14
866.348	9816.2
866.668	9773.49
866.989	9791.34
867.309	9612.59
867.63	9726.48
867.95	9657.33
868.27	9636.31
868.59	9634.73
868.91	9615.07
869.23	9699.14
869.55	9591.8
869.87	9671.57
870.19	9519.26
870.51	9566.49
870.83	9574.85
871.15	9471.35
871.469	9540.27
871.789	9490.33
872.109	9512.7
872.428	9462.53
872.748	9495.98
873.067	9457.79
873.386	9483.55
873.706	9475.87
874.025	9419.82
874.344	9356.55
874.663	9426.38
874.982	9377.34
875.301	9370.11
875.62	9408.3
875.939	9265.7
876.258	9326.49
876.577	9323.78
876.896	9305.25
877.214	9279.49
877.533	9291.69
877.852	9197.68
878.17	9258.7
878.489	9222.09
878.807	9176.44
879.125	9195.65
879.444	9142.54
879.762	9130.57
880.08	9106.16
880.398	9120.62
880.716	9082.66
881.034	9068.87
881.352	9077.91
881.67	9024.81
881.988	8967.18
882.306	8963.56
882.624	9003.79
882.941	8942.77
883.259	9010.34
883.577	8898.93
883.894	8907.29
884.212	8874.98
884.529	8866.39
884.846	8865.04
885.164	8825.26
885.481	8822.55
885.798	8830.23
886.115	8752.27
886.432	8730.35
886.75	8747.75
887.067	8731.25
887.383	8720.63
887.7	8683.8
888.017	8677.24
888.334	8726.51
888.651	8576.68
888.967	8662.55
889.284	8575.33
889.6	8565.61
889.917	8527.87
890.233	8532.16
890.55	8493.97
890.866	8482.45
891.182	8486.06
891.498	8465.5
891.815	8403.8
892.131	8319.96
892.447	8286.07
892.763	8360.64
893.079	8320.64
893.395	8283.81
893.71	8198.61
894.026	8244.71
894.342	8250.59
894.657	8177.37
894.973	8121.78
895.289	8142.79
895.604	8174.88
895.92	8089.69
896.235	8043.59
896.55	8052.18
896.865	8004.49
897.181	7986.64
897.496	8012.85
897.811	7950.03
898.126	8000.88
898.441	7893.76
898.756	7849.02
899.071	7813.09
899.386	7779.87
899.7	7786.42
900.015	7729.92
900.33	7682.69
900.644	7664.84
900.959	7691.73
901.273	7678.4
901.588	7595.46
901.902	7562.02
902.216	7534.22
902.531	7520.66
902.845	7465.75
903.159	7466.43
903.473	7457.84
903.787	7418.97
904.101	7379.42
904.415	7396.15
904.729	7320.9
905.042	7305.08
905.356	7254.91
905.67	7305.53
905.984	7272.53
906.297	7266.43
906.611	7131.97
906.924	7192.31
907.237	7130.84
907.551	7136.27
907.864	7057.85
908.177	7135.59
908.491	7084.07
908.804	7011.52
909.117	6978.53
909.43	6935.82
909.743	6957.29
910.056	6911.64
910.368	6875.48
910.681	6829.61
910.994	6830.06
911.307	6785.32
911.619	6666.67
911.932	6743.74
912.244	6723.85
912.557	6729.5
912.869	6624.64
913.181	6653.79
913.494	6675.71
913.806	6562.04
914.118	6587.13
914.43	6472.56
914.742	6511.88
915.054	6446.79
915.366	6438.21
915.678	6407.47
915.99	6342.84
916.302	6379.22
916.613	6298.32
916.925	6325.44
917.236	6296.74
917.548	6213.58
917.859	6247.48
918.171	6191.89
918.482	6163.86
918.794	6146.01
919.105	6148.72
919.416	6119.8
919.727	6102.85
920.038	6053.36
920.349	6048.84
920.66	5994.83
920.971	6030.53
921.282	5978.56
921.593	5915.96
921.903	5895.4
922.214	5844.55
922.525	5933.59
922.835	5881.61
923.146	5802.74
923.456	5766.13
923.767	5774.72
924.077	5782.86
924.387	5734.04
924.697	5692.01
925.008	5703.08
925.318	5642.97
925.628	5665.35
925.938	5594.84
926.248	5565.91
926.558	5561.39
926.867	5545.8
927.177	5496.08
927.487	5465.8
927.796	5408.18
928.106	5471
928.416	5435.75
928.725	5397.1
929.034	5334.96
929.344	5381.74
929.653	5278.01
929.962	5310.55
930.271	5272.14
930.581	5292.02
930.89	5210.44
931.199	5264.23
931.508	5171.57
931.817	5158.69
932.125	5240.95
932.434	5168.86
932.743	5082.31
933.051	5078.69
933.36	5120.5
933.669	5085.02
933.977	5050.22
934.286	5034.4
934.594	4987.85
934.902	4979.71
935.21	4953.5
935.519	4905.59
935.827	4915.31
936.135	4843.22
936.443	4840.51
936.751	4906.27
937.059	4792.15
937.367	4807.74
937.674	4759.15
937.982	4799.83
938.29	4767.74
938.597	4730.68
938.905	4659.72
939.213	4671.25
939.52	4675.77
939.827	4650.46
940.135	4625.15
940.442	4604.36
940.749	4569.1
941.056	4592.38
941.363	4556
941.67	4532.49
941.977	4555.54
942.284	4452.5
942.591	4550.8
942.898	4494.98
943.205	4486.85
943.511	4447.98
943.818	4425.83
944.125	4361.88
944.431	4370.01
944.738	4360.29
945.044	4336.57
945.35	4330.47
945.657	4297.92
945.963	4275.55
946.269	4265.16
946.575	4250.69
946.881	4248.66
947.187	4208.89
947.493	4163.24
947.799	4176.12
948.105	4137.93
948.41	4133.41
948.716	4111.94
949.022	4078.72
949.327	4106.52
949.633	4059.74
949.938	4059.29
950.244	4033.75
950.549	3996.91
950.854	3953.3
951.16	4007.54
951.465	3964.83
951.77	3925.5
952.075	3889.12
952.38	3904.26
952.685	3910.14
952.99	3895.9
953.294	3850.7
953.599	3843.47
953.904	3832.17
954.209	3810.93
954.513	3783.36
954.818	3754.21
955.122	3761.44
955.426	3725.28
955.731	3721.67
956.035	3731.84
956.339	3694.32
956.643	3720.76
956.948	3659.75
957.252	3615
957.556	3648.68
957.86	3628.56
958.163	3607.32
958.467	3585.4
958.771	3563.48
959.075	3569.81
959.378	3549.92
959.682	3549.02
959.985	3514.89
960.289	3518.96
960.592	3537.72
960.896	3450.49
961.199	3449.58
961.502	3433.09
961.805	3412.75
962.108	3404.61
962.411	3406.65
962.714	3364.39
963.017	3378.4
963.32	3354.22
963.623	3360.77
963.926	3359.42
964.228	3318.74
964.531	3270.61
964.833	3342.47
965.136	3283.71
965.438	3286.42
965.741	3274.22
966.043	3229.7
966.345	3234
966.648	3206.2
966.95	3216.6
967.252	3189.25
967.554	3151.06
967.856	3144.28
968.158	3151.06
968.46	3113.55
968.761	3096.83
969.063	3104.51
969.365	3112.87
969.666	3092.98
969.968	3054.11
970.269	3040.56
970.571	3017.05
970.872	3069.71
971.174	3026.77
971.475	3016.83
971.776	2982.03
972.077	2979.54
972.378	2933.44
972.679	2952.2
972.98	2962.37
973.281	2912.88
973.582	2917.62
973.883	2864.74
974.183	2881.92
974.484	2875.14
974.785	2870.84
975.085	2811.86
975.386	2831.75
975.686	2812.31
975.986	2778.19
976.287	2806.21
976.587	2794.46
976.887	2773.9
977.187	2768.02
977.487	2740.22
977.787	2722.15
978.087	2732.09
978.387	2715.14
978.687	2727.12
978.987	2713.56
979.286	2704.29
979.586	2681.24
979.885	2665.2
980.185	2655.26
980.484	2634.24
980.784	2639.44
981.083	2601.7
981.382	2628.59
981.682	2573.68
981.981	2575.94
982.28	2568.03
982.579	2539.1
982.878	2563.05
983.177	2561.7
983.475	2503.85
983.774	2486.22
984.073	2518.54
984.372	2484.86
984.67	2484.41
984.969	2505.2
985.267	2478.31
985.566	2460.23
985.864	2448.93
986.162	2411.19
986.461	2417.75
986.759	2414.81
987.057	2382.04
987.355	2372.55
987.653	2398.54
987.951	2379.56
988.249	2350.18
988.547	2329.16
988.844	2309.28
989.142	2333
989.44	2286.9
989.737	2305.21
990.035	2287.58
990.332	2259.11
990.63	2272.44
990.927	2242.84
991.224	2256.85
991.521	2217.3
991.819	2276.96
992.116	2240.35
992.413	2179.34
992.71	2168.04
993.006	2166.91
993.303	2197.41
993.6	2198.77
993.897	2167.36
994.193	2160.58
994.49	2142.27
994.787	2102.95
995.083	2135.04
995.379	2125.55
995.676	2111.77
995.972	2099.79
996.268	2065.67
996.565	2058.21
996.861	2083.97
997.157	2060.92
997.453	2037.19
997.749	2021.37
998.044	2036.29
998.34	2024.76
998.636	2039.68
998.932	2032.67
999.227	2006.91
999.523	1999.91
999.818	1967.59
1000.114	1963.97
1000.409	1948.15
1000.704	1905.44
1001	1911.55
1001.295	1905.9
1001.59	1922.62
1001.885	1904.31
1002.18	1880.59
1002.475	1912
1002.77	1890.53
1003.065	1847.59
1003.359	1836.07
1003.654	1824.09
1003.949	1833.13
1004.243	1820.02
1004.538	1779.35
1004.832	1822.28
1005.127	1808.27
1005.421	1785
1005.715	1762.17
1006.009	1774.15
1006.304	1762.4
1006.598	1721.72
1006.892	1719.69
1007.186	1745
1007.48	1705.45
1007.773	1695.73
1008.067	1687.82
1008.361	1677.43
1008.655	1686.92
1008.948	1653.7
1009.242	1654.15
1009.535	1656.19
1009.829	1628.62
1010.122	1601.95
1010.415	1632.23
1010.708	1608.05
1011.001	1577.54
1011.295	1587.49
1011.588	1571.22
1011.881	1571.44
1012.173	1560.82
1012.466	1584.55
1012.759	1561.27
1013.052	1568.28
1013.344	1536.19
1013.637	1521.27
1013.93	1534.61
1014.222	1520.6
1014.514	1503.19
1014.807	1498
1015.099	1489.64
1015.391	1486.92
1015.683	1443.99
1015.976	1417.55
1016.268	1443.08
1016.56	1433.14
1016.851	1441.95
1017.143	1415.97
1017.435	1409.86
1017.727	1402.18
1018.018	1397.44
1018.31	1373.48
1018.602	1377.32
1018.893	1378.9
1019.185	1357.66
1019.476	1332.35
1019.767	1345.68
1020.058	1349.53
1020.35	1334.61
1020.641	1313.82
1020.932	1297.32
1021.223	1284.67
1021.514	1286.7
1021.804	1258.46
1022.095	1277.66
1022.386	1289.87
1022.677	1254.84
1022.967	1247.16
1023.258	1231.34
1023.548	1253.48
1023.839	1226.14
1024.129	1214.61
1024.419	1221.39
1024.709	1227.95
1025	1218.68
1025.29	1220.04
1025.58	1177.1
1025.87	1182.75
1026.16	1152.92
1026.449	1173.49
1026.739	1157.22
1027.029	1143.88
1027.319	1134.84
1027.608	1142.98
1027.898	1124.22
1028.187	1131.45
1028.477	1095.97
1028.766	1097.56
1029.055	1085.35
1029.344	1091
1029.634	1095.52
1029.923	1072.25
1030.212	1064.79
1030.501	1057.33
1030.79	1047.84
1031.078	1059.59
1031.367	1019.82
1031.656	1041.06
1031.945	1030.44
1032.233	1021.4
1032.522	1009.65
1032.81	1004.45
1033.099	980.72
1033.387	991.34
1033.675	990.67
1033.963	990.67
1034.251	979.37
1034.54	958.58
1034.828	936.2
1035.116	942.53
1035.403	944.34
1035.691	961.51
1035.979	949.54
1036.267	950.22
1036.554	928.07
1036.842	939.59
1037.129	950.22
1037.417	929.65
1037.704	921.29
1037.992	889.65
1038.279	930.1
1038.566	897.11
1038.853	897.11
1039.14	897.11
