Data from cardboard_FLMS001491_034.txt Node
Date: Tue Feb 07 11:39:21 GMT 2017
User: dcchb
Spectrometer: FLMS00149
Trigger mode: 0
Integration Time (sec): 2.000000E-2
Scans to average: 10
Electric dark correction enabled: true
Nonlinearity correction enabled: false
Boxcar width: 0
XAxis mode: Wavelengths
Number of Pixels in Spectrum: 2048
>>>>>Begin Spectral Data<<<<<
341.393	-18.26
341.776	-18.26
342.16	-18.26
342.543	-66.62
342.927	-62.78
343.31	-55.32
343.693	-55.32
344.077	-70.46
344.46	-53.74
344.843	-39.05
345.226	-47.41
345.61	-59.17
345.993	-13.06
346.376	-7.64
346.759	16.31
347.142	15.86
347.525	35.07
347.908	75.52
348.291	76.2
348.674	90.89
349.057	91.34
349.44	118.23
349.823	160.49
350.206	155.52
350.588	178.57
350.971	204.56
351.354	215.18
351.737	217.66
352.119	261.5
352.502	263.76
352.884	249.08
353.267	285.01
353.65	272.8
354.032	275.52
354.414	304.67
354.797	302.18
355.179	322.52
355.562	330.2
355.944	310.54
356.326	336.98
356.709	335.4
357.091	332.24
357.473	336.53
357.855	335.63
358.238	350.09
358.62	336.98
359.002	332.24
359.384	341.73
359.766	350.99
360.148	323.2
360.53	322.97
360.912	317.77
361.294	315.97
361.676	338.34
362.057	335.17
362.439	322.29
362.821	314.16
363.203	309.41
363.584	325.68
363.966	314.61
364.348	322.29
364.729	321.16
365.111	304.67
365.493	309.41
365.874	296.31
366.256	298.34
366.637	320.49
367.019	293.59
367.4	302.86
367.781	305.57
368.163	303.09
368.544	326.14
368.925	316.42
369.306	300.6
369.688	317.1
370.069	287.27
370.45	316.42
370.831	291.33
371.212	327.72
371.593	302.18
371.974	311.9
372.355	303.54
372.736	306.93
373.117	315.29
373.498	304.89
373.879	320.03
374.26	307.15
374.641	302.18
375.021	310.54
375.402	319.81
375.783	329.75
376.163	318.45
376.544	297.21
376.925	327.72
377.305	324.33
377.686	317.32
378.066	325.23
378.447	331.33
378.827	290.43
379.208	318
379.588	320.94
379.968	322.29
380.349	314.61
380.729	320.94
381.109	356.19
381.489	325.46
381.87	320.71
382.25	337.89
382.63	339.24
383.01	307.6
383.39	309.41
383.77	357.32
384.15	306.7
384.53	359.81
384.91	324.33
385.29	340.37
385.67	329.75
386.049	339.92
386.429	352.58
386.809	328.62
387.189	326.36
387.568	346.93
387.948	343.31
388.328	348.06
388.707	348.51
389.087	338.79
389.466	344.21
389.846	343.76
390.225	370.65
390.605	358
390.984	356.64
391.363	353.71
391.743	346.02
392.122	377.21
392.501	359.13
392.881	351.22
393.26	363.2
393.639	371.56
394.018	358.45
394.397	360.26
394.776	373.14
395.155	383.76
395.534	366.36
395.913	368.85
396.292	372.01
396.671	378.11
397.05	372.91
397.429	369.98
397.808	384.67
398.186	362.07
398.565	385.57
398.944	366.13
399.323	401.84
399.701	373.82
400.08	389.18
400.458	378.79
400.837	388.96
401.215	390.09
401.594	412.01
401.972	395.96
402.351	406.59
402.729	422.18
403.107	409.07
403.486	387.6
403.864	398.22
404.242	397.32
404.62	411.11
404.999	410.65
405.377	398
405.755	420.37
406.133	409.52
406.511	407.04
406.889	405.46
407.267	429.18
407.645	408.85
408.023	424.21
408.401	430.09
408.779	456.3
409.156	447.94
409.534	428.73
409.912	452.91
410.29	466.47
410.667	452.46
411.045	450.2
411.422	442.74
411.8	461.73
412.178	451.33
412.555	474.83
412.933	473.93
413.31	475.96
413.687	496.75
414.065	485.45
414.442	500.37
414.819	494.72
415.197	478.45
415.574	500.82
415.951	489.3
416.328	504.44
416.705	502.85
417.082	490.2
417.46	495.85
417.837	519.12
418.214	515.74
418.591	516.86
418.967	494.94
419.344	535.4
419.721	517.54
420.098	532.91
420.475	523.42
420.852	542.18
421.228	538.11
421.605	526.13
421.982	544.21
422.358	566.81
422.735	559.35
423.111	550.99
423.488	561.84
423.864	551.21
424.241	555.28
424.617	555.96
424.994	560.48
425.37	567.03
425.746	561.16
426.123	570.65
426.499	581.27
426.875	584.89
427.251	594.38
427.627	596.18
428.003	612.46
428.379	614.04
428.756	645.9
429.132	630.08
429.507	632.34
429.883	631.21
430.259	643.19
430.635	631.89
431.011	642.74
431.387	654.26
431.763	677.31
432.138	647.48
432.514	683.41
432.89	676.86
433.265	669.4
433.641	696.3
434.016	694.71
434.392	702.85
434.767	723.64
435.143	703.75
435.518	702.85
435.894	693.13
436.269	732.9
436.644	728.61
437.02	727.93
437.395	722.51
437.77	735.84
438.145	728.16
438.52	764.54
438.895	751.89
439.271	768.84
439.646	780.13
440.021	784.65
440.395	780.59
440.77	786.46
441.145	780.36
441.52	822.17
441.895	786.46
442.27	785.11
442.645	782.62
443.019	801.38
443.394	817.42
443.769	849.51
444.143	820.81
444.518	837.99
444.892	824.2
445.267	829.63
445.641	841.83
446.016	852.22
446.39	865.56
446.764	870.75
447.139	871.43
447.513	874.37
447.887	849.29
448.262	881.83
448.636	869.85
449.01	886.12
449.384	896.74
449.758	922.73
450.132	905.56
450.506	917.53
450.88	912.11
451.254	930.41
451.628	942.84
452.002	943.07
452.376	954.82
452.75	945.55
453.123	972.9
453.497	983.07
453.871	959.57
454.244	989.62
454.618	982.62
454.992	994.59
455.365	982.62
455.739	1021.48
456.112	1019.22
456.486	1038.43
456.859	1078.21
457.232	1044.08
457.606	1061.94
457.979	1060.13
458.352	1069.62
458.725	1114.82
459.099	1092.89
459.472	1117.08
459.845	1137.41
460.218	1140.8
460.591	1146
460.964	1151.88
461.337	1173.12
461.71	1203.17
462.083	1210.63
462.456	1224.19
462.829	1207.47
463.201	1231.65
463.574	1217.19
463.947	1250.4
464.32	1264.64
464.692	1280.46
465.065	1304.41
465.438	1315.94
465.81	1339.89
466.183	1341.7
466.555	1364.98
466.928	1360.23
467.3	1359.1
467.672	1383.73
468.045	1371.53
468.417	1423.06
468.789	1453.34
469.161	1452.43
469.534	1456.28
469.906	1510.06
470.278	1517.97
470.65	1541.47
471.022	1538.98
471.394	1566.1
471.766	1627.57
472.138	1567.23
472.51	1608.81
472.882	1656.27
473.253	1684.07
473.625	1665.08
473.997	1739.21
474.369	1750.5
474.74	1732.88
475.112	1786.44
475.484	1825.08
475.855	1839.09
476.227	1864.63
476.598	1882.93
476.97	1894
477.341	1950.05
477.713	1993.21
478.084	1994.11
478.455	2040.44
478.827	2067.33
479.198	2100.1
479.569	2096.26
479.94	2145.07
480.311	2188.91
480.682	2244.5
481.053	2247.21
481.424	2315.01
481.795	2344.39
482.166	2360.66
482.537	2416.48
482.908	2436.36
483.279	2476.36
483.65	2528.56
484.021	2562.01
484.391	2584.16
484.762	2615.79
485.133	2639.52
485.503	2665.51
485.874	2745.05
486.244	2784.15
486.615	2827.76
486.985	2860.76
487.356	2900.31
487.726	2907.08
488.097	2992.28
488.467	3039.06
488.837	3087.64
489.207	3073.63
489.578	3143.69
489.948	3194.76
490.318	3230.47
490.688	3251.93
491.058	3335.1
491.428	3375.09
491.798	3413.06
492.168	3453.28
492.538	3460.74
492.908	3565.37
493.278	3555.66
493.648	3598.82
494.017	3673.84
494.387	3711.36
494.757	3693.28
495.126	3771.92
495.496	3764.24
495.866	3850.34
496.235	3867.29
496.605	3874.97
496.974	3909.09
497.344	3960.39
497.713	4013.5
498.082	4006.04
498.452	4101.4
498.821	4155.41
499.19	4114.28
499.559	4196.77
499.928	4190.67
500.298	4245.81
500.667	4280.61
501.036	4347.72
501.405	4334.39
501.774	4384.56
502.143	4484.22
502.512	4462.75
502.88	4505.91
503.249	4542.07
503.618	4611.22
503.987	4606.93
504.356	4656.87
504.724	4681.73
505.093	4713.36
505.462	4786.13
505.83	4822.06
506.199	4829.75
506.567	4976.41
506.936	4911.78
507.304	5008.72
507.672	5029.74
508.041	5058.67
508.409	5130.08
508.777	5144.77
509.145	5188.61
509.514	5261.15
509.882	5319.9
510.25	5314.93
510.618	5372.33
510.986	5416.85
511.354	5477.19
511.722	5525.77
512.09	5542.04
512.458	5551.31
512.826	5695.49
513.193	5717.86
513.561	5800.79
513.929	5845.31
514.297	5848.93
514.664	5941.36
515.032	5949.72
515.4	6024.52
515.767	6066.55
516.135	6119.88
516.502	6165.3
516.869	6241.23
517.237	6234
517.604	6290.27
517.972	6373.66
518.339	6408.91
518.706	6520.77
519.073	6523.26
519.44	6572.75
519.808	6686.42
520.175	6721.45
520.542	6766.64
520.909	6825.17
521.276	6874.66
521.643	6972.29
522.009	7030.37
522.376	7073.98
522.743	7161.66
523.11	7224.94
523.477	7292.51
523.843	7371.37
524.21	7444.82
524.577	7499.96
524.943	7573.18
525.31	7694.3
525.676	7791.48
526.043	7840.51
526.409	7876.67
526.776	7991.47
527.142	8060.62
527.508	8130.45
527.874	8144.91
528.241	8222.2
528.607	8317.34
528.973	8400.5
529.339	8393.27
529.705	8495.86
530.071	8589.42
530.437	8640.49
530.803	8697.89
531.169	8781.73
531.535	8818.79
531.901	8908.96
532.267	8974.72
532.632	8974.5
532.998	9107.6
533.364	9123.19
533.73	9209.97
534.095	9343.07
534.461	9324.54
534.826	9451.55
535.192	9519.57
535.557	9586.23
535.923	9640.01
536.288	9681.6
536.653	9699.22
537.019	9730.86
537.384	9807.24
537.749	9902.38
538.114	9893.79
538.479	9993.23
538.845	10063.28
539.21	10045.43
539.575	10115.93
539.94	10264.86
540.305	10268.92
540.67	10312.09
541.034	10384.85
541.399	10393.44
541.764	10501.69
542.129	10596.6
542.494	10619.88
542.858	10708.01
543.223	10689.48
543.587	10804.5
543.952	10809.02
544.316	10915.01
544.681	10912.52
545.045	11065.74
545.41	11025.06
545.774	11185.28
546.138	11245.85
546.503	11296.02
546.867	11358.61
547.231	11317.26
547.595	11418.95
547.959	11550.25
548.324	11527.87
548.688	11567.87
549.052	11635.89
549.416	11702.79
549.779	11811.26
550.143	11806.29
550.507	11929.9
550.871	11957.24
551.235	11988.43
551.599	12157.01
551.962	12315.2
552.326	12281.08
552.689	12328.08
553.053	12364.24
553.417	12414.63
553.78	12605.81
554.143	12553.38
554.507	12697.56
554.87	12779.82
555.234	12799.48
555.597	12828.86
555.96	13002.41
556.323	13038.12
556.686	13073.6
557.05	13186.59
557.413	13316.98
557.776	13345.68
558.139	13422.74
558.502	13440.14
558.865	13625.67
559.228	13651.43
559.59	13670.19
559.953	13781.6
560.316	13945.89
560.679	13998.77
561.041	14051.65
561.404	14241.02
561.767	14325.54
562.129	14349.04
562.492	14369.61
562.854	14500.23
563.217	14497.29
563.579	14654.12
563.941	14698.86
564.304	14817.05
564.666	14888.69
565.028	14986.31
565.39	15118.51
565.753	15138.85
566.115	15322.13
566.477	15381.33
566.839	15359.64
567.201	15494.1
567.563	15521.67
567.925	15770.25
568.287	15822.45
568.648	15869.23
569.01	15903.8
569.372	16060.86
569.734	16111.94
570.095	16151.71
570.457	16247.75
570.819	16352.61
571.18	16396.22
571.542	16527.97
571.903	16596.22
572.265	16575.88
572.626	16716.66
572.987	16693.61
573.349	16835.53
573.71	17005.24
574.071	17014.51
574.432	17042.76
574.794	17289.98
575.155	17252.02
575.516	17182.42
575.877	17369.98
576.238	17431.9
576.599	17508.06
576.96	17498.34
577.32	17525.91
577.681	17617.43
578.042	17802.96
578.403	17772.68
578.763	17785.79
579.124	17876.41
579.485	17946.92
579.845	18042.73
580.206	18040.25
580.566	18154.14
580.927	18146.46
581.287	18231.88
581.648	18237.3
582.008	18302.16
582.368	18331.31
582.728	18360.46
583.089	18404.98
583.449	18468.48
583.809	18500.12
584.169	18559.78
584.529	18488.14
584.889	18746.89
585.249	18613.56
585.609	18541.7
585.969	18808.81
586.329	18704.86
586.688	18856.5
587.048	18864.18
587.408	18913.44
587.768	18833.45
588.127	18917.51
588.487	18976.72
588.846	19076.15
589.206	19032.99
589.565	19102.59
589.925	19105.53
590.284	19180.78
590.643	19265.07
591.003	19278.18
591.362	19324.73
591.721	19310.5
592.08	19319.76
592.44	19338.29
592.799	19392.75
593.158	19489.02
593.517	19506.87
593.876	19604.27
594.235	19386.43
594.593	19481.56
594.952	19648.79
595.311	19554.78
595.67	19607.89
596.029	19822.57
596.387	19848.79
596.746	19938.28
597.104	19766.75
597.463	19875.68
597.822	19888.56
598.18	19825.74
598.538	19902.34
598.897	20040.87
599.255	19887.43
599.613	20154.99
599.972	20051.27
600.33	20201.77
600.688	20172.85
601.046	20220.53
601.404	20260.53
601.762	20209
602.12	20408.77
602.478	20388.88
602.836	20424.82
603.194	20368.77
603.552	20421.65
603.91	20350.69
604.268	20502.55
604.625	20402.9
604.983	20613.74
605.341	20565.38
605.698	20655.09
606.056	20715.88
606.413	20736.45
606.771	20907.29
607.128	20842.43
607.485	20788.42
607.843	20853.51
608.2	20919.27
608.557	21063.44
608.914	20993.39
609.272	21059.15
609.629	21113.39
609.986	21171.46
610.343	21188.41
610.7	21296.66
611.057	21329.65
611.414	21301.63
611.771	21366.49
612.127	21471.34
612.484	21365.36
612.841	21498.46
613.198	21499.36
613.554	21424.79
613.911	21725.35
614.267	21608.06
614.624	21649.42
614.98	21642.64
615.337	21782.75
615.693	21782.29
616.05	21765.57
616.406	21999.46
616.762	21932.57
617.118	21951.1
617.475	21879.69
617.831	22080.14
618.187	21995.62
618.543	22143.64
618.899	22183.19
619.255	22256.18
619.611	22178.89
619.967	22286.01
620.323	22315.61
620.678	22185
621.034	22239.23
621.39	22405.78
621.746	22199.01
622.101	22512.9
622.457	22466.12
622.812	22424.54
623.168	22459.56
623.523	22499.56
623.879	22596.28
624.234	22463.18
624.589	22468.15
624.945	22563.52
625.3	22688.94
625.655	22596.51
626.01	22665.66
626.365	22726
626.72	22651.88
627.075	22703.63
627.43	22684.87
627.785	22676.51
628.14	22602.39
628.495	22724.87
628.85	22759.67
629.205	22699.11
629.559	22832.21
629.914	22646.23
630.269	22681.93
630.623	22613.01
630.978	22584.99
631.332	22855.71
631.687	22852.1
632.041	22805.09
632.396	22806.67
632.75	22699.11
633.104	22782.72
633.459	22781.14
633.813	22765.77
634.167	22684.87
634.521	22729.39
634.875	22819.1
635.229	22639.22
635.583	22600.58
635.937	22674.47
636.291	22629.5
636.645	22730.07
636.999	22626.57
637.352	22773.23
637.706	22548.38
638.06	22670.86
638.413	22576.85
638.767	22582.5
639.121	22663.85
639.474	22448.04
639.828	22559.68
640.181	22588.37
640.534	22535.95
640.888	22493.91
641.241	22385.89
641.594	22544.08
641.947	22565.78
642.301	22564.87
642.654	22547.02
643.007	22445.33
643.36	22496.4
643.713	22410.98
644.066	22629.96
644.419	22340.7
644.771	22279.46
645.124	22111.78
645.477	22055.28
645.83	21999.69
646.182	21917.66
646.535	21901.39
646.888	21873.37
647.24	21884.44
647.593	22014.83
647.945	21982.97
648.298	21808.73
648.65	21695.74
649.002	21697.78
649.355	21782.75
649.707	21800.83
650.059	22000.14
650.411	22282.39
650.763	22218.22
651.115	22501.15
651.467	22292.56
651.819	22440.58
652.171	22313.13
652.523	22273.58
652.875	22326.69
653.227	22163.08
653.578	22446.68
653.93	22402.17
654.282	22290.08
654.633	22143.19
654.985	22268.84
655.337	22301.6
655.688	22234.03
656.039	22379.57
656.391	22148.39
656.742	22219.35
657.094	22331.21
657.445	22243.07
657.796	22270.87
658.147	22343.41
658.498	22299.57
658.849	22333.92
659.2	22305.9
659.551	22249.17
659.902	22349.06
660.253	22326.91
660.604	22360.36
660.955	22238.33
661.306	22296.63
661.656	22322.39
662.007	22345.9
662.358	22352.9
662.708	22307.93
663.059	22334.37
663.409	22157.43
663.76	22412.33
664.11	22352.22
664.461	22418.44
664.811	22379.79
665.161	22334.82
665.511	22379.79
665.862	22298.89
666.212	22464.76
666.562	22412.11
666.912	22476.51
667.262	22278.78
667.612	22501.6
667.962	22368.72
668.312	22320.13
668.662	22521.26
669.011	22450.75
669.361	22377.08
669.711	22371.21
670.06	22315.39
670.41	22327.82
670.76	22258.44
671.109	22408.94
671.459	22363.07
671.808	22367.36
672.157	22317.2
672.507	22264.99
672.856	22340.25
673.205	22243.53
673.554	22320.59
673.904	22414.82
674.253	22459.56
674.602	22277.65
674.951	22076.75
675.3	21977.54
675.649	22227.25
675.998	22292.34
676.346	22243.98
676.695	22427.02
677.044	22115.39
677.393	22319.23
677.741	22214.15
678.09	22274.94
678.438	22274.26
678.787	22204.43
679.135	22265.45
679.484	22131.21
679.832	22320.59
680.181	22039.46
680.529	22174.15
680.877	22102.29
681.225	22128.95
681.573	22291.66
681.922	21987.49
682.27	21982.97
682.618	22056.64
682.966	21930.77
683.314	22049.63
683.661	21928.73
684.009	21940.71
684.357	21779.13
684.705	21801.95
685.053	21837.66
685.4	21884.44
685.748	21802.63
686.095	21719.7
686.443	21578.68
686.79	21694.16
687.138	21608.97
687.485	21708.62
687.832	21678.34
688.18	21686.03
688.527	21538.69
688.874	21483.55
689.221	21530.55
689.568	21439.25
689.915	21337.56
690.262	21462.75
690.609	21349.09
690.956	21362.19
691.303	21245.36
691.65	21223.67
691.997	21193.61
692.344	21073.39
692.69	21015.31
693.037	21110.67
693.383	20813.51
693.73	20986.38
694.077	20922.88
694.423	20856.67
694.769	20764.47
695.116	20780.96
695.462	20760.85
695.808	20727.18
696.155	20814.18
696.501	20522.21
696.847	20555.21
697.193	20533.97
697.539	20552.5
697.885	20397.02
698.231	20382.78
698.577	20383.24
698.923	20324.25
699.269	20229.57
699.614	20209
699.96	20174.88
700.306	20191.83
700.651	20024.83
700.997	19988.9
701.342	19989.8
701.688	19893.76
702.033	19865.28
702.379	19916.58
702.724	19776.47
703.069	19780.09
703.415	19781.67
703.76	19669.13
704.105	19684.72
704.45	19603.14
704.795	19487.21
705.14	19543.26
705.485	19405.41
705.83	19413.77
706.175	19338.74
706.52	19344.84
706.865	19308.24
707.209	19283.15
707.554	19287.67
707.899	19257.39
708.243	19116.83
708.588	19072.99
708.932	19088.13
709.277	19055.13
709.621	19088.81
709.966	19009.03
710.31	18936.04
710.654	18862.82
710.998	18867.79
711.342	18857.85
711.687	18800.68
712.031	18882.03
712.375	18663.51
712.719	18800.23
713.063	18743.05
713.407	18836.61
713.75	18629.16
714.094	18748.7
714.438	18612.89
714.782	18741.47
715.125	18619.67
715.469	18576.28
715.812	18423.74
716.156	18357.3
716.499	18417.64
716.843	18437.98
717.186	18339.22
717.53	18471.2
717.873	18322.27
718.216	18376.73
718.559	18305.55
718.902	18175.16
719.246	18230.07
719.589	18150.53
719.932	18100.58
720.275	18000.25
720.617	18070.53
720.96	18020.59
721.303	18080.02
721.646	18232.78
721.989	17924.77
722.331	18070.98
722.674	18018.1
723.016	18063.52
723.359	18055.84
723.701	18055.61
724.044	17900.81
724.386	17935.39
724.729	17950.98
725.071	17860.36
725.413	17957.76
725.755	17878.22
726.097	17936.29
726.439	17770.42
726.782	17747.82
727.124	17814.49
727.465	17755.73
727.807	17733.81
728.149	17689.75
728.491	17739.46
728.833	17801.61
729.175	17648.17
729.516	17682.52
729.858	17569.52
730.199	17552.35
730.541	17545.12
730.882	17736.07
731.224	17700.59
731.565	17425.8
731.906	17595.96
732.248	17595.51
732.589	17455.4
732.93	17450.43
733.271	17573.59
733.612	17449.75
733.953	17533.14
734.294	17500.6
734.635	17428.28
734.976	17517.32
735.317	17453.82
735.658	17442.97
735.999	17428.96
736.339	17395.97
736.68	17477.32
737.021	17399.13
737.361	17235.75
737.702	17321.39
738.042	17324.56
738.383	17343.77
738.723	17360.26
739.063	17245.01
739.404	17337.67
739.744	17210.89
740.084	17140.38
740.424	17281.62
740.764	17290.89
741.104	17278.23
741.444	17210.66
741.784	17134.96
742.124	17190.1
742.464	17149.65
742.804	17170.66
743.143	17103.32
743.483	17182.87
743.823	17012.25
744.162	17016.77
744.502	17133.38
744.841	16994.4
745.181	17051.57
745.52	17060.16
745.86	17046.15
746.199	17041.63
746.538	17058.8
746.877	17031.01
747.216	17007.05
747.556	17008.41
747.895	17012.7
748.234	16951.69
748.573	16901.07
748.911	16890.22
749.25	16968.41
749.589	16878.92
749.928	16915.98
750.267	16905.59
750.605	16846.38
750.944	16806.83
751.283	16795.08
751.621	16767.96
751.96	16773.84
752.298	16753.5
752.636	16729.77
752.975	16699.94
753.313	16637.8
753.651	16705.82
753.989	16657.46
754.327	16690.22
754.666	16558.7
755.004	16706.5
755.342	16563.22
755.679	16542.88
756.017	16530.68
756.355	16558.93
756.693	16454.07
757.031	16542.66
757.368	16445.94
757.706	16535.43
758.044	16483
758.381	16458.82
758.719	16355.32
759.056	16453.85
759.394	16332.49
759.731	16180.18
760.068	16130.24
760.405	16170.46
760.743	16134.08
761.08	16198.26
761.417	16044.14
761.754	16048.21
762.091	16034.87
762.428	15934.99
762.765	15951.94
763.102	16010.24
763.438	15947.87
763.775	15846.86
764.112	15837.82
764.449	15784.94
764.785	15695.67
765.122	15743.13
765.458	15620.2
765.795	15559.86
766.131	15629.91
766.467	15509.69
766.804	15565.28
767.14	15432.86
767.476	15476.92
767.812	15345.18
768.148	15404.16
768.485	15330.26
768.821	15306.76
769.157	15274.44
769.492	15248
769.828	15127.33
770.164	15100.89
770.5	15065.86
770.836	15086.65
771.171	14936.15
771.507	14911.29
771.842	14836.26
772.178	14881.01
772.513	14761.69
772.849	14732.31
773.184	14688.92
773.519	14698.41
773.855	14540.68
774.19	14527.8
774.525	14591.07
774.86	14481.92
775.195	14497.06
775.53	14483.28
775.865	14389.72
776.2	14254.81
776.535	14227.69
776.87	14175.71
777.205	14196.05
777.539	14158.99
777.874	14139.11
778.209	13970.07
778.543	13981.14
778.878	13846.68
779.212	13986.79
779.547	13904.99
779.881	13762.17
780.215	13731.43
780.55	13824.54
780.884	13721.04
781.218	13633.36
781.552	13676.52
781.886	13544.09
782.22	13471.1
782.554	13560.14
782.888	13372.8
783.222	13360.37
783.556	13316.08
783.889	13235.4
784.223	13132.8
784.557	13134.39
784.89	13139.36
785.224	13061.62
785.557	13042.64
785.891	13047.38
786.224	12935.97
786.558	12965.8
786.891	12827.73
787.224	12821.17
787.557	12698.69
787.891	12844.22
788.224	12708.63
788.557	12692.36
788.89	12684
789.223	12636.55
789.556	12540.5
789.888	12547.06
790.221	12486.72
790.554	12435.2
790.887	12454.18
791.219	12305.48
791.552	12387.06
791.884	12226.39
792.217	12268.19
792.549	12256.9
792.882	12232.72
793.214	12109.55
793.546	12064.58
793.879	12020.74
794.211	11966.06
794.543	12029.33
794.875	11970.58
795.207	11937.81
795.539	11925.38
795.871	11942.55
796.203	11786.4
796.535	11731.71
796.867	11739.17
797.198	11686.29
797.53	11673.86
797.862	11599.51
798.193	11696.91
798.525	11645.61
798.856	11625.05
799.188	11481.1
799.519	11475.9
799.85	11389.35
800.182	11467.54
800.513	11500.53
800.844	11306.41
801.175	11379.86
801.506	11323.59
801.837	11229.8
802.168	11278.62
802.499	11249.46
802.83	11188.22
803.161	11165.62
803.491	11105.97
803.822	11138.73
804.153	11127.66
804.483	11007.21
804.814	10968.12
805.145	11006.53
805.475	10950.71
805.805	10875.24
806.136	10877.04
806.466	10875.24
806.796	10912.75
807.126	10713.88
807.457	10729.48
807.787	10771.74
808.117	10757.73
808.447	10649.03
808.777	10695.81
809.107	10634.34
809.436	10701.46
809.766	10682.02
810.096	10566.32
810.426	10556.83
810.755	10506.88
811.085	10493.33
811.414	10549.6
811.744	10438.19
812.073	10479.77
812.403	10404.97
812.732	10338.08
813.061	10371.75
813.39	10288.59
813.719	10290.62
814.049	10345.76
814.378	10357.51
814.707	10217.63
815.036	10269.83
815.365	10158.65
815.693	10122.94
816.022	10117.06
816.351	10097.63
816.68	10055.6
817.008	10065.31
817.337	9969.95
817.665	9938.99
817.994	10007.46
818.322	10001.14
818.651	9989.61
818.979	9938.99
819.307	9999.55
819.636	9798.43
819.964	9836.17
820.292	9882.04
820.62	9891.31
820.948	9784.42
821.276	9804.98
821.604	9876.39
821.932	9903.06
822.259	9841.37
822.587	9928.59
822.915	9803.63
823.243	9840.01
823.57	9797.52
823.898	9820.58
824.225	9792.78
824.553	9876.84
824.88	9841.82
825.207	9838.65
825.535	9789.39
825.862	9864.87
826.189	9792.78
826.516	9841.59
826.843	9819.22
827.17	9829.84
827.497	9838.65
827.824	9822.16
828.151	9903.06
828.478	9842.04
828.805	9884.3
829.131	9767.47
829.458	9795.94
829.785	9732.67
830.111	9782.16
830.438	9816.06
830.764	9765.44
831.09	9759.79
831.417	9757.98
831.743	9793.23
832.069	9832.33
832.395	9737.19
832.722	9811.31
833.048	9711.65
833.374	9801.37
833.7	9744.87
834.026	9705.78
834.351	9722.95
834.677	9690.18
835.003	9751.2
835.329	9689.05
835.654	9706
835.98	9710.97
836.306	9641.14
836.631	9651.54
836.956	9649.05
837.282	9696.06
837.607	9685.66
837.932	9615.16
838.258	9592.11
838.583	9603.86
838.908	9545.55
839.233	9565.44
839.558	9579.68
839.883	9520.92
840.208	9476.63
840.533	9471.66
840.858	9531.32
841.182	9486.57
841.507	9423.52
841.832	9439.57
842.156	9368.38
842.481	9398.89
842.805	9409.74
843.13	9370.42
843.454	9317.99
843.778	9403.18
844.103	9284.09
844.427	9253.58
844.751	9323.19
845.075	9288.61
845.399	9241.61
845.723	9216.75
846.047	9187.82
846.371	9163.87
846.695	9179.46
847.019	9048.39
847.343	8967.49
847.666	9031.44
847.99	8953.71
848.313	8964.1
848.637	8887.49
848.96	8901.28
849.284	8871.67
849.607	8823.31
849.931	8770.66
850.254	8727.5
850.577	8650.44
850.9	8562.08
851.223	8635.52
851.546	8647.5
851.869	8553.26
852.192	8575.41
852.515	8436.88
852.838	8449.54
853.161	8466.49
853.483	8443.44
853.806	8378.13
854.129	8397.56
854.451	8327.06
854.774	8263.78
855.096	8239.37
855.419	8262.88
855.741	8278.69
856.063	8202.54
856.385	8236.66
856.708	8165.03
857.03	8112.15
857.352	8121.18
857.674	8112.37
857.996	8078.47
858.318	8059.94
858.64	8069.89
858.961	7989.89
859.283	7963.9
859.605	7961.64
859.926	8001.64
860.248	8033.5
860.57	7932.94
860.891	7927.74
861.212	7920.29
861.534	7851.14
861.855	7854.53
862.176	7836.9
862.498	7860.4
862.819	7792.15
863.14	7806.39
863.461	7718.48
863.782	7777.92
864.103	7742.89
864.424	7671.25
864.745	7716.45
865.065	7667.64
865.386	7626.06
865.707	7657.92
866.027	7606.85
866.348	7687.07
866.668	7717.81
866.989	7609.11
867.309	7551.71
867.63	7603.91
867.95	7601.2
868.27	7614.31
868.59	7572.5
868.91	7571.14
869.23	7521.2
869.55	7476.46
869.87	7501.99
870.19	7471.48
870.51	7485.27
870.83	7566.85
871.15	7483.24
871.469	7457.47
871.789	7454.54
872.109	7506.74
872.428	7403.01
872.748	7474.65
873.067	7414.99
873.386	7398.04
873.706	7416.8
874.025	7300.42
874.344	7346.29
874.663	7407.98
874.982	7397.36
875.301	7377.02
875.62	7391.49
875.939	7299.29
876.258	7303.58
876.577	7256.35
876.896	7309.91
877.214	7274.65
877.533	7245.95
877.852	7242.34
878.17	7225.84
878.489	7226.07
878.807	7208.89
879.125	7155.33
879.444	7277.59
879.762	7153.75
880.08	7205.95
880.398	7186.97
880.716	7158.5
881.034	7091.83
881.352	7102.23
881.67	7086.86
881.988	7095
882.306	7083.02
882.624	7077.82
882.941	7047.77
883.259	6996.47
883.577	7058.16
883.894	6974.77
884.212	7011.16
884.529	6963.7
884.846	6949.46
885.164	6979.07
885.481	6936.58
885.798	7019.29
886.115	6950.14
886.432	6931.16
886.75	6845.29
887.067	6833.08
887.383	6842.8
887.7	6854.55
888.017	6744.72
888.334	6821.11
888.651	6763.25
888.967	6799.64
889.284	6765.51
889.6	6723.26
889.917	6711.28
890.233	6700.43
890.55	6689.13
890.866	6670.15
891.182	6629.92
891.498	6683.93
891.815	6604.39
892.131	6546.99
892.447	6520.32
892.763	6550.83
893.079	6536.59
893.395	6523.03
893.71	6527.1
894.026	6461.57
894.342	6472.19
894.657	6413.43
894.973	6425.18
895.289	6443.94
895.604	6325.07
895.92	6321.23
896.235	6299.76
896.55	6370.5
896.865	6277.84
897.181	6289.37
897.496	6248.01
897.811	6237.39
898.126	6220.22
898.441	6241.23
898.756	6207.34
899.071	6129.15
899.386	6136.6
899.7	6112.88
900.015	6084.18
900.33	6025.42
900.644	6096.15
900.959	6098.19
901.273	6015.25
901.588	5994.91
901.902	5978.19
902.216	5946.1
902.531	5904.07
902.845	5915.59
903.159	5878.98
903.473	5881.47
903.787	5813.9
904.101	5812.09
904.415	5817.97
904.729	5809.61
905.042	5733.45
905.356	5685.09
905.67	5766.22
905.984	5762.15
906.297	5710.17
906.611	5667.46
906.924	5689.38
907.237	5655.71
907.551	5599.67
907.864	5613.23
908.177	5606.67
908.491	5591.08
908.804	5580.01
909.117	5524.64
909.43	5468.15
909.743	5452.1
910.056	5509.95
910.368	5419.79
910.681	5339.79
910.994	5388.15
911.307	5366.23
911.619	5339.56
911.932	5347.02
912.244	5281.03
912.557	5256.63
912.869	5208.94
913.181	5264.08
913.494	5222.05
913.806	5214.14
914.118	5223.86
914.43	5122.39
914.742	5175.95
915.054	5148.83
915.366	5085.33
915.678	5028.61
915.99	5037.65
916.302	5067.25
916.613	5024.32
916.925	4991.55
917.236	5004.88
917.548	4960.36
917.859	4988.84
918.171	4931.89
918.482	4916.07
918.794	4890.99
919.105	4914.26
919.416	4861.38
919.727	4838.33
920.038	4867.26
920.349	4794.04
920.66	4774.61
920.971	4776.19
921.282	4778.22
921.593	4706.36
921.903	4651.45
922.214	4712.01
922.525	4695.29
922.835	4639.24
923.146	4581.84
923.456	4604.22
923.767	4603.99
924.077	4566.48
924.387	4518.79
924.697	4500.94
925.008	4497.55
925.318	4500.04
925.628	4512.47
925.938	4473.82
926.248	4416.42
926.558	4437.89
926.867	4401.06
927.177	4382.07
927.487	4360.38
927.796	4329.42
928.106	4297.1
928.416	4310.66
928.725	4289.87
929.034	4256.2
929.344	4272.92
929.653	4272.25
929.962	4249.65
930.271	4231.8
930.581	4180.95
930.89	4190.44
931.199	4147.5
931.508	4133.04
931.817	4136.43
932.125	4138.69
932.434	4126.49
932.743	4073.61
933.051	4100.5
933.36	4017.34
933.669	4039.94
933.977	3968.07
934.286	4043.33
934.594	3976.89
934.902	3947.28
935.21	3958.58
935.519	3950.67
935.827	3872.48
936.135	3895.08
936.443	3909.77
936.751	3893.27
937.059	3873.16
937.367	3839.26
937.674	3826.16
937.982	3823.67
938.29	3763.33
938.597	3778.02
938.905	3751.81
939.213	3751.36
939.52	3757.91
939.827	3755.42
940.135	3704.35
940.442	3672.71
940.749	3689.21
941.056	3639.72
941.363	3675.88
941.67	3632.72
941.977	3612.6
942.284	3614.64
942.591	3584.13
942.898	3553.85
943.205	3584.58
943.511	3559.04
943.818	3534.86
944.125	3493.96
944.431	3465.71
944.738	3422.78
945.044	3485.37
945.35	3450.8
945.657	3430.23
945.963	3421.42
946.269	3435.88
946.575	3453.74
946.881	3394.98
947.187	3346.85
947.493	3308.88
947.799	3355.66
948.105	3304.14
948.41	3286.96
948.716	3304.14
949.022	3282.22
949.327	3278.15
949.633	3219.17
949.938	3260.07
950.244	3263.23
950.549	3213.29
950.854	3197.7
951.16	3203.12
951.465	3168.55
951.77	3178.94
952.075	3115.67
952.38	3170.13
952.685	3130.36
952.99	3083.13
953.294	3102.56
953.599	3072.96
953.904	3058.27
954.209	3049
954.513	3077.25
954.818	3034.09
955.122	2988.44
955.426	2986.4
955.731	2989.34
956.035	2971.26
956.339	2979.17
956.643	2972.85
956.948	2953.41
957.252	2927.2
957.556	2941.21
957.86	2898.27
958.163	2930.81
958.467	2851.04
958.771	2900.76
959.075	2876.8
959.378	2849.68
959.682	2857.59
959.985	2842.91
960.289	2833.19
960.592	2792.96
960.896	2795.45
961.199	2747.54
961.502	2773.75
961.805	2742.8
962.108	2736.92
962.411	2739.63
962.714	2716.58
963.017	2717.49
963.32	2725.39
963.623	2700.99
963.926	2683.59
964.228	2705.28
964.531	2670.93
964.833	2683.14
965.136	2615.11
965.438	2628.22
965.741	2656.7
966.043	2626.64
966.345	2601.1
966.648	2580.54
966.95	2550.94
967.252	2563.82
967.554	2556.13
967.856	2561.78
968.158	2516.59
968.46	2523.37
968.761	2515.23
969.063	2489.02
969.365	2492.86
969.666	2488.79
969.968	2457.83
970.269	2468.23
970.571	2444.95
970.872	2416.7
971.174	2427.1
971.475	2411.96
971.776	2419.41
972.077	2430.26
972.378	2401.79
972.679	2349.36
972.98	2384.84
973.281	2343.94
973.582	2418.51
973.883	2338.51
974.183	2326.99
974.484	2331.96
974.785	2298.74
975.085	2315.01
975.386	2327.44
975.686	2288.57
975.986	2301.45
976.287	2275.69
976.587	2238.4
976.887	2276.59
977.187	2225.29
977.487	2236.14
977.787	2212.64
978.087	2234.33
978.387	2210.83
978.687	2185.97
978.987	2201.57
979.286	2180.1
979.586	2178.06
979.885	2166.09
980.185	2126.31
980.484	2138.74
980.784	2113.89
981.083	2089.48
981.382	2092.42
981.682	2124.28
981.981	2105.07
982.28	2065.52
982.579	2037.73
982.878	2073.21
983.177	2055.36
983.475	2064.39
983.774	2059.2
984.073	2037.28
984.372	2012.64
984.67	2035.47
984.969	2030.95
985.267	2008.8
985.566	1990.05
985.864	1988.01
986.162	1970.16
986.461	1949.37
986.759	1971.29
987.057	1928.35
987.355	1932.19
987.653	1968.35
987.951	1916.83
988.249	1931.52
988.547	1900.11
988.844	1899.2
989.142	1895.59
989.44	1913.21
989.737	1874.34
990.035	1872.76
990.332	1843.84
990.63	1854.68
990.927	1849.94
991.224	1832.76
991.521	1842.93
991.819	1811.52
992.116	1824.63
992.413	1831.18
992.71	1795.7
993.006	1772.88
993.303	1776.94
993.6	1754.12
993.897	1748.47
994.193	1765.87
994.49	1722.93
994.787	1758.64
995.083	1718.64
995.379	1744.4
995.676	1731.97
995.972	1692.88
996.268	1718.19
996.565	1703.05
996.861	1703.5
997.157	1708.02
997.453	1697.62
997.749	1659.21
998.044	1640
998.34	1637.29
998.636	1630.06
998.932	1652.2
999.227	1616.5
999.523	1632.99
999.818	1574.01
1000.114	1597.06
1000.409	1590.74
1000.704	1562.04
1001	1602.94
1001.295	1587.8
1001.59	1579.21
1001.885	1564.3
1002.18	1525.2
1002.475	1541.02
1002.77	1514.8
1003.065	1516.61
1003.359	1530.85
1003.654	1533.11
1003.949	1512.09
1004.243	1483.62
1004.538	1444.07
1004.832	1466.67
1005.127	1477.97
1005.421	1485.43
1005.715	1443.39
1006.009	1458.99
1006.304	1460.57
1006.598	1396.84
1006.892	1428.25
1007.186	1412.43
1007.48	1407.24
1007.773	1412.43
1008.067	1393.23
1008.361	1389.38
1008.655	1360.46
1008.948	1353.23
1009.242	1391.19
1009.535	1375.6
1009.829	1380.35
1010.122	1371.76
1010.415	1342.61
1010.708	1354.13
1011.001	1320.91
1011.295	1310.29
1011.588	1305.77
1011.881	1277.3
1012.173	1272.33
1012.466	1287.92
1012.759	1274.36
1013.052	1258.54
1013.344	1290.63
1013.637	1265.09
1013.93	1249.5
1014.222	1227.81
1014.514	1266
1014.807	1221.71
1015.099	1215.6
1015.391	1229.84
1015.683	1225.55
1015.976	1209.95
1016.268	1199.33
1016.56	1206.56
1016.851	1183.06
1017.143	1186.23
1017.435	1178.77
1017.727	1186
1018.018	1179.9
1018.31	1137.64
1018.602	1159.56
1018.893	1136.74
1019.185	1142.61
1019.476	1120.92
1019.767	1136.51
1020.058	1135.83
1020.35	1065.55
1020.641	1061.03
1020.932	1123.85
1021.223	1089.73
1021.514	1080.47
1021.804	1104.87
1022.095	1069.39
1022.386	1068.04
1022.677	1047.25
1022.967	1039.34
1023.258	1015.16
1023.548	1037.53
1023.839	1031.88
1024.129	1032.33
1024.419	1042.95
1024.709	1022.16
1025	982.62
1025.29	986.68
1025.58	981.49
1025.87	992.11
1026.16	969.51
1026.449	964.76
1026.739	951.88
1027.029	980.58
1027.319	971.77
1027.608	978.1
1027.898	967.47
1028.187	944.42
1028.477	965.21
1028.766	945.1
1029.055	924.76
1029.344	932
1029.634	926.35
1029.923	918.89
1030.212	930.19
1030.501	883.41
1030.79	900.58
1031.078	905.33
1031.367	868.95
1031.656	887.25
1031.945	892.9
1032.233	859.91
1032.522	854.94
1032.81	860.81
1033.099	853.13
1033.387	848.83
1033.675	848.38
1033.963	867.14
1034.251	845.9
1034.54	841.15
1034.828	808.16
1035.116	805.9
1035.403	847.48
1035.691	820.81
1035.979	820.36
1036.267	813.35
1036.554	802.06
1036.842	812
1037.129	795.95
1037.417	769.06
1037.704	784.43
1037.992	765.22
1038.279	749.4
1038.566	790.3
1038.853	790.3
1039.14	790.3
