Data from cardboard_FLMS001491_055.txt Node
Date: Tue Feb 07 11:39:44 GMT 2017
User: dcchb
Spectrometer: FLMS00149
Trigger mode: 0
Integration Time (sec): 2.000000E-2
Scans to average: 10
Electric dark correction enabled: true
Nonlinearity correction enabled: false
Boxcar width: 0
XAxis mode: Wavelengths
Number of Pixels in Spectrum: 2048
>>>>>Begin Spectral Data<<<<<
341.393	-10.93
341.776	-10.93
342.16	-10.93
342.543	-53.19
342.927	-60.2
343.31	-70.14
343.693	-65.39
344.077	-59.97
344.46	-45.96
344.843	-60.65
345.226	-34.66
345.61	-36.69
345.993	-19.52
346.376	-9.8
346.759	5.79
347.142	35.39
347.525	26.36
347.908	66.35
348.291	76.52
348.674	103.87
349.057	88.5
349.44	119.23
349.823	131.44
350.206	160.81
350.588	170.31
350.971	168.95
351.354	231.77
351.737	254.6
352.119	226.12
352.502	249.85
352.884	250.3
353.267	273.81
353.65	278.1
354.032	310.87
354.414	321.94
354.797	298.44
355.179	308.83
355.562	325.78
355.944	315.16
356.326	308.83
356.709	335.05
357.091	309.96
357.473	330.53
357.855	331.21
358.238	347.25
358.62	329.62
359.002	334.14
359.384	324.65
359.766	344.54
360.148	331.66
360.53	343.41
360.912	348.61
361.294	326.69
361.676	314.03
362.057	327.14
362.439	326.46
362.821	321.71
363.203	305.67
363.584	314.48
363.966	306.35
364.348	305.22
364.729	314.26
365.111	303.18
365.493	305.9
365.874	289.85
366.256	294.14
366.637	305.44
367.019	307.93
367.4	291.43
367.781	306.57
368.163	325.56
368.544	302.28
368.925	288.27
369.306	329.17
369.688	297.99
370.069	289.85
370.45	285.56
370.831	300.92
371.212	308.38
371.593	287.37
371.974	288.72
372.355	312.45
372.736	310.19
373.117	297.76
373.498	304.77
373.879	312.22
374.26	294.37
374.641	279
375.021	303.86
375.402	305.67
375.783	314.26
376.163	323.07
376.544	309.29
376.925	295.27
377.305	333.01
377.686	301.15
378.066	307.7
378.447	328.95
378.827	325.78
379.208	309.51
379.588	305.22
379.968	324.2
380.349	293.92
380.729	326.46
381.109	321.71
381.489	329.17
381.87	336.86
382.25	334.37
382.63	338.44
383.01	324.65
383.39	322.17
383.77	321.94
384.15	360.36
384.53	349.74
384.91	325.1
385.29	337.31
385.67	327.82
386.049	330.08
386.429	310.87
386.809	332.34
387.189	355.61
387.568	343.18
387.948	337.53
388.328	356.97
388.707	343.41
389.087	329.17
389.466	343.41
389.846	345.89
390.225	348.15
390.605	340.47
390.984	343.41
391.363	337.31
391.743	340.92
392.122	338.89
392.501	344.09
392.881	378.44
393.26	366.23
393.639	376.18
394.018	358.78
394.397	381.15
394.776	366.46
395.155	362.17
395.534	342.96
395.913	362.84
396.292	374.59
396.671	375.72
397.05	354.71
397.429	379.57
397.808	406.01
398.186	375.5
398.565	362.62
398.944	369.62
399.323	385.44
399.701	370.75
400.08	385.67
400.458	374.82
400.837	386.12
401.215	379.34
401.594	397.19
401.972	391.54
402.351	379.11
402.729	383.41
403.107	400.36
403.486	427.02
403.864	378.66
404.242	420.02
404.62	428.83
404.999	420.24
405.377	401.94
405.755	425.44
406.133	414.59
406.511	443.07
406.889	417.53
407.267	393.13
407.645	434.03
408.023	434.48
408.401	430.64
408.779	410.3
409.156	435.38
409.534	441.71
409.912	441.94
410.29	453.01
410.667	448.27
411.045	449.62
411.422	461.82
411.8	454.37
412.178	458.21
412.555	470.86
412.933	471.09
413.31	476.06
413.687	467.02
414.065	455.5
414.442	491.2
414.819	497.76
415.197	460.47
415.574	482.16
415.951	473.8
416.328	477.64
416.705	509.51
417.082	492.56
417.46	488.26
417.837	506.57
418.214	493.69
418.591	507.25
418.967	510.18
419.344	521.71
419.721	504.76
420.098	497.98
420.475	510.86
420.852	526.23
421.228	533.01
421.605	518.77
421.982	544.53
422.358	522.84
422.735	528.26
423.111	538.88
423.488	545.21
423.864	550.64
424.241	541.14
424.617	541.14
424.994	542.27
425.37	546.79
425.746	571.2
426.123	581.14
426.499	543.18
426.875	584.08
427.251	566
427.627	579.11
428.003	572.1
428.379	598.09
428.756	579.56
429.132	606.9
429.507	600.13
429.883	590.18
430.259	607.81
430.635	589.73
431.011	620.69
431.387	620.01
431.763	612.78
432.138	634.02
432.514	639.22
432.89	634.7
433.265	663.4
433.641	660.69
434.016	668.82
434.392	648.71
434.767	688.48
435.143	683.29
435.518	700.01
435.894	688.71
436.269	681.48
436.644	691.2
437.02	703.85
437.395	703.85
437.77	714.02
438.145	699.11
438.52	713.34
438.895	732.33
439.271	749.73
439.646	736.85
440.021	741.82
440.395	738.88
440.77	742.95
441.145	763.74
441.52	766.22
441.895	765.54
442.27	756.05
442.645	747.01
443.019	766.9
443.394	780.69
443.769	794.02
444.143	767.8
444.518	806.45
444.892	806.67
445.267	803.06
445.641	801.7
446.016	826.56
446.39	792.66
446.764	806.9
447.139	823.4
447.513	817.75
447.887	824.53
448.262	837.63
448.636	832.66
449.01	843.73
449.384	873.56
449.758	854.58
450.132	879.21
450.506	874.24
450.88	875.82
451.254	870.17
451.628	876.28
452.002	892.32
452.376	918.08
452.75	901.36
453.123	917.18
453.497	923.05
453.871	918.76
454.244	959.66
454.618	963.28
454.992	951.3
455.365	960.12
455.739	987.46
456.112	962.83
456.486	980.68
456.859	980.45
457.232	1007.8
457.606	1024.97
457.979	1028.14
458.352	1034.01
458.725	1047.57
459.099	1043.28
459.472	1077.18
459.845	1068.81
460.218	1071.98
460.591	1061.36
460.964	1098.19
461.337	1128.25
461.71	1146.78
462.083	1126.67
462.456	1152.65
462.829	1177.51
463.201	1177.06
463.574	1150.39
463.947	1188.58
464.32	1215.25
464.692	1225.65
465.065	1234.69
465.438	1235.59
465.81	1263.38
466.183	1264.06
466.555	1277.4
466.928	1283.72
467.3	1299.32
467.672	1287.11
468.045	1344.74
468.417	1340.44
468.789	1365.08
469.161	1386.77
469.534	1409.14
469.906	1419.76
470.278	1431.97
470.65	1449.14
471.022	1454.11
471.394	1473.77
471.766	1509.71
472.138	1511.29
472.51	1549.25
472.882	1565.98
473.253	1582.92
473.625	1582.02
473.997	1641.45
474.369	1623.6
474.74	1664.05
475.112	1676.03
475.484	1725.75
475.855	1721.9
476.227	1742.47
476.598	1803.03
476.97	1805.52
477.341	1820.21
477.713	1800.77
478.084	1874.44
478.455	1902.46
478.827	1935.23
479.198	2022.23
479.569	1977.72
479.94	2018.62
480.311	2037.83
480.682	2143.36
481.053	2148.56
481.424	2185.17
481.795	2205.96
482.166	2207.99
482.537	2250.48
482.908	2305.84
483.279	2307.2
483.65	2382
484.021	2374.32
484.391	2426.74
484.762	2458.83
485.133	2491.83
485.503	2520.3
485.874	2560.53
486.244	2603.69
486.615	2666.74
486.985	2686.4
487.356	2754.42
487.726	2727.53
488.097	2803.01
488.467	2812.95
488.837	2894.3
489.207	2947.18
489.578	2952.83
489.948	2967.52
490.318	3035.77
490.688	3046.61
491.058	3071.25
491.428	3108.53
491.798	3215.88
492.168	3236.44
492.538	3248.64
492.908	3298.13
493.278	3301.75
493.648	3384.46
494.017	3431.01
494.387	3456.1
494.757	3471.69
495.126	3510.78
495.496	3522.53
495.866	3591.69
496.235	3598.24
496.605	3639.59
496.974	3665.58
497.344	3713.94
497.713	3759.82
498.082	3798.01
498.452	3835.52
498.821	3833.94
499.19	3875.07
499.559	3948.06
499.928	3974.05
500.298	3962.75
500.667	4033.93
501.036	4059.7
501.405	4096.98
501.774	4132.69
502.143	4180.37
502.512	4179.69
502.88	4197.54
503.249	4253.36
503.618	4274.38
503.987	4271.89
504.356	4383.08
504.724	4378.78
505.093	4390.31
505.462	4452
505.83	4486.35
506.199	4519.8
506.567	4604.31
506.936	4600.25
507.304	4688.61
507.672	4682.05
508.041	4765.67
508.409	4758.43
508.777	4850.18
509.145	4882.5
509.514	4895.83
509.882	4965.21
510.25	5024.64
510.618	4973.12
510.986	5107.58
511.354	5130.63
511.722	5244.52
512.09	5196.16
512.458	5224.41
512.826	5282.26
513.193	5360
513.561	5400
513.929	5403.39
514.297	5527
514.664	5537.62
515.032	5582.37
515.4	5616.49
515.767	5695.81
516.135	5731.06
516.502	5713.21
516.869	5800.67
517.237	5885.86
517.604	5899.65
517.972	5943.71
518.339	5994.79
518.706	6061.45
519.073	6094.9
519.44	6127.66
519.808	6194.1
520.175	6297.38
520.542	6346.87
520.909	6399.3
521.276	6454.43
521.643	6519.07
522.009	6578.95
522.376	6579.18
522.743	6676.35
523.11	6818.94
523.477	6813.52
523.843	6894.88
524.21	6964.93
524.577	7081.54
524.943	7098.26
525.31	7113.85
525.676	7292.38
526.043	7297.8
526.409	7374.86
526.776	7455.76
527.142	7504.35
527.508	7559.26
527.874	7662.54
528.241	7728.3
528.607	7771.24
528.973	7839.48
529.339	7869.54
529.705	7965.58
530.071	8069.31
530.437	8093.94
530.803	8077.22
531.169	8206.48
531.535	8264.1
531.901	8298.45
532.267	8365.12
532.632	8432.01
532.998	8568.5
533.364	8574.61
533.73	8685.34
534.095	8760.36
534.461	8759.91
534.826	8816.41
535.192	8894.37
535.557	8959
535.923	9068.15
536.288	9080.81
536.653	9116.29
537.019	9153.57
537.384	9156.74
537.749	9239.67
538.114	9339.78
538.479	9398.09
538.845	9410.06
539.21	9451.87
539.575	9501.59
539.94	9541.36
540.305	9654.58
540.67	9614.13
541.034	9741.13
541.399	9790.39
541.764	9894.8
542.129	9924.63
542.494	9981.8
542.858	9994
543.223	10034.45
543.587	10175.92
543.952	10166.2
544.316	10222.47
544.681	10236.71
545.045	10301.79
545.41	10387.21
545.774	10452.75
546.138	10434.67
546.503	10522.8
546.867	10488
547.231	10702.68
547.595	10726.64
547.959	10847.54
548.324	10792.85
548.688	10950.36
549.052	10961.66
549.416	10954.66
549.779	11043.47
550.143	11036.24
550.507	11214.99
550.871	11237.59
551.235	11317.81
551.599	11351.03
551.962	11452.5
552.326	11449.33
552.689	11590.57
553.053	11572.72
553.417	11658.82
553.78	11803.67
554.143	11808.64
554.507	11821.3
554.87	11903.11
555.234	12039.6
555.597	12004.35
555.96	12125.7
556.323	12216.54
556.686	12310.78
557.05	12339.93
557.413	12404.79
557.776	12499.25
558.139	12630.77
558.502	12639.81
558.865	12643.65
559.228	12783.53
559.59	12836.87
559.953	12930.65
560.316	13109.4
560.679	13111.66
561.041	13139.68
561.404	13296.29
561.767	13386.68
562.129	13429.84
562.492	13538.54
562.854	13570.41
563.217	13583.96
563.579	13626.9
563.941	13762.27
564.304	13822.83
564.666	13919.78
565.028	14009.72
565.39	14018.98
565.753	14168.81
566.115	14287.45
566.477	14354.57
566.839	14396.82
567.201	14504.17
567.563	14446.32
567.925	14647.89
568.287	14761.79
568.648	14723.37
569.01	14911.16
569.372	14970.82
569.734	14953.65
570.095	15099.86
570.457	15180.31
570.819	15261.89
571.18	15249.91
571.542	15330.13
571.903	15403.8
572.265	15499.17
572.626	15501.2
572.987	15633.4
573.349	15727.19
573.71	15828.88
574.071	15842.21
574.432	15821.42
574.794	16047.85
575.155	16024.8
575.516	16083.33
575.877	16158.59
576.238	16255.53
576.599	16256.44
576.96	16228.64
577.32	16403.1
577.681	16441.97
578.042	16514.28
578.403	16435.19
578.763	16594.06
579.124	16736.42
579.485	16752.47
579.845	16718.8
580.206	16742.53
580.566	16841.96
580.927	16957.89
581.287	16901.17
581.648	16976.42
582.008	17001.28
582.368	17041.28
582.728	17068.39
583.089	17119.24
583.449	17158.33
583.809	17167.6
584.169	17227.03
584.529	17155.85
584.889	17428.38
585.249	17390.64
585.609	17269.97
585.969	17391.77
586.329	17339.8
586.688	17467.93
587.048	17448.04
587.408	17405.33
587.768	17488.95
588.127	17481.94
588.487	17423.86
588.846	17676.51
589.206	17615.5
589.565	17544.31
589.925	17788.6
590.284	17721.71
590.643	17731.88
591.003	17847.36
591.362	17909.27
591.721	17878.32
592.08	17946.11
592.44	17925.77
592.799	18001.48
593.158	17941.82
593.517	17917.18
593.876	18040.34
594.235	18039.21
594.593	18084.19
594.952	18030.18
595.311	18064.3
595.67	18166.22
596.029	18249.6
596.387	18224.29
596.746	18332.77
597.104	18189.27
597.463	18314.01
597.822	18374.35
598.18	18339.55
598.538	18382.03
598.897	18474.23
599.255	18395.14
599.613	18623.83
599.972	18438.3
600.33	18573.89
600.688	18487.56
601.046	18617.28
601.404	18723.72
601.762	18677.16
602.12	18864.05
602.478	18704.06
602.836	18883.49
603.194	18749.25
603.552	18841.45
603.91	18926.88
604.268	19025.63
604.625	18905.18
604.983	18964.84
605.341	18928.68
605.698	19041.9
606.056	19019.53
606.413	19206.19
606.771	19220.43
607.128	19164.38
607.485	19176.13
607.843	19179.98
608.2	19312.85
608.557	19418.16
608.914	19322.57
609.272	19419.97
609.629	19551.04
609.986	19571.15
610.343	19543.81
610.7	19654.54
611.057	19608.21
611.414	19600.98
611.771	19598.72
612.127	19736.8
612.484	19811.15
612.841	19797.13
613.198	19728.66
613.554	19866.51
613.911	19934.08
614.267	19907.87
614.624	20035.77
614.98	20007.07
615.337	20135.88
615.693	20037.81
616.05	20119.16
616.406	20242.55
616.762	20127.3
617.118	20090.46
617.475	20297.91
617.831	20309.66
618.187	20334.07
618.543	20373.84
618.899	20486.38
619.255	20464.91
619.611	20544.01
619.967	20591.01
620.323	20564.57
620.678	20595.31
621.034	20545.59
621.39	20659.71
621.746	20555.08
622.101	20910.55
622.457	20680.95
622.812	20791.23
623.168	20869.87
623.523	20725.7
623.879	20825.81
624.234	20687.05
624.589	20747.62
624.945	20840.05
625.3	20911.46
625.655	20762.76
626.01	20847.5
626.365	20965.47
626.72	20913.04
627.075	20919.14
627.43	20897.9
627.785	20925.92
628.14	20942.19
628.495	20936.31
628.85	21032.58
629.205	20855.41
629.559	21056.76
629.914	21045.69
630.269	21026.03
630.623	20933.15
630.978	20863.32
631.332	21078.01
631.687	21134.27
632.041	21092.24
632.396	21049.31
632.75	21017.22
633.104	21136.53
633.459	21039.81
633.813	20962.08
634.167	20938.57
634.521	20954.84
634.875	20970.66
635.229	20953.94
635.583	20855.41
635.937	20944.68
636.291	20925.24
636.645	20967.27
636.999	20932.47
637.352	20956.65
637.706	20816.32
638.06	20999.14
638.413	20869.87
638.767	20896.09
639.121	21015.63
639.474	20833.49
639.828	20785.36
640.181	20776.32
640.534	20891.34
640.888	20681.63
641.241	20721.86
641.594	20722.31
641.947	20909.87
642.301	20900.38
642.654	20863.32
643.007	20854.28
643.36	20844.79
643.713	20760.5
644.066	20812.48
644.419	20707.17
644.771	20583.1
645.124	20536.32
645.477	20424.46
645.83	20203.23
646.182	20302.43
646.535	20259.72
646.888	20203.68
647.24	20037.81
647.593	20243.22
647.945	20211.81
648.298	20130.23
648.65	19993.97
649.002	19937.92
649.355	20118.93
649.707	20180.85
650.059	20203.45
650.411	20616.1
650.763	20498.13
651.115	20699.26
651.467	20605.48
651.819	20661.52
652.171	20608.19
652.523	20561.63
652.875	20617
653.227	20509.21
653.578	20709.88
653.93	20638.47
654.282	20637.56
654.633	20608.86
654.985	20630.79
655.337	20589.66
655.688	20612.93
656.039	20730.67
656.391	20453.61
656.742	20499.49
657.094	20559.15
657.445	20694.96
657.796	20755.53
658.147	20663.1
658.498	20727.73
658.849	20579.04
659.2	20564.35
659.551	20569.32
659.902	20712.59
660.253	20577.23
660.604	20653.84
660.955	20535.19
661.306	20718.24
661.656	20691.35
662.007	20694.74
662.358	20650.22
662.708	20617.9
663.059	20722.76
663.409	20581.75
663.76	20719.14
664.11	20759.82
664.461	20735.87
664.811	20806.15
665.161	20687.51
665.511	20683.67
665.862	20730.9
666.212	20815.19
666.562	20776.77
666.912	20695.42
667.262	20680.5
667.612	20706.26
667.962	20859.03
668.312	20710.56
668.662	20713.49
669.011	20778.8
669.361	20669.88
669.711	20765.7
670.06	20742.87
670.41	20643.89
670.76	20618.36
671.109	20824.23
671.459	20744.45
671.808	20663.1
672.157	20649.99
672.507	20643.89
672.856	20606.15
673.205	20704.46
673.554	20723.44
673.904	20639.82
674.253	20779.71
674.602	20735.19
674.951	20448.42
675.3	20348.98
675.649	20630.11
675.998	20573.84
676.346	20668.07
676.695	20734.74
677.044	20504.46
677.393	20645.7
677.741	20751.01
678.09	20613.16
678.438	20426.72
678.787	20577.23
679.135	20542.2
679.484	20494.07
679.832	20639.37
680.181	20417.91
680.529	20579.04
680.877	20544.91
681.225	20432.15
681.573	20701.74
681.922	20464.46
682.27	20446.16
682.618	20403.9
682.966	20386.05
683.314	20493.39
683.661	20378.14
684.009	20295.2
684.357	20272.38
684.705	20315.31
685.053	20361.41
685.4	20278.48
685.748	20174.3
686.095	20174.3
686.443	20199.16
686.79	20088.2
687.138	20185.37
687.485	20019.28
687.832	20132.95
688.18	20153.28
688.527	19947.19
688.874	19942.44
689.221	19985.38
689.568	19891.14
689.915	19885.27
690.262	19840.98
690.609	19768.44
690.956	19785.61
691.303	19748.77
691.65	19716.68
691.997	19603.24
692.344	19587.87
692.69	19601.21
693.037	19577.71
693.383	19451.83
693.73	19463.58
694.077	19378.84
694.423	19412.29
694.769	19354.43
695.116	19318.96
695.462	19326.19
695.808	19294.55
696.155	19320.99
696.501	19110.37
696.847	19098.17
697.193	19027.44
697.539	19097.72
697.885	18938.63
698.231	18912.41
698.577	18935.46
698.923	18881.9
699.269	18769.14
699.614	18844.17
699.96	18641.46
700.306	18634.45
700.651	18579.77
700.997	18657.28
701.342	18566.21
701.688	18601.23
702.033	18445.98
702.379	18511.52
702.724	18412.54
703.069	18552.2
703.415	18224.97
703.76	18326.21
704.105	18316.27
704.45	18282.82
704.795	18203.73
705.14	18063.85
705.485	18077.41
705.83	18076.73
706.175	18128.93
706.52	18002.15
706.865	17937.75
707.209	17897.98
707.554	17895.26
707.899	17963.51
708.243	17832.44
708.588	17773.69
708.932	17697.75
709.277	17618.89
709.621	17699.79
709.966	17601.49
710.31	17700.69
710.654	17525.1
710.998	17587.48
711.342	17535.95
711.687	17573.92
712.031	17382.74
712.375	17425.22
712.719	17450.3
713.063	17326.47
713.407	17517.87
713.75	17416.63
714.094	17328.27
714.438	17339.12
714.782	17337.54
715.125	17193.14
715.469	17255.73
715.812	17176.64
716.156	17061.39
716.499	17151.33
716.843	17149.75
717.186	17027.26
717.53	17124.21
717.873	17112.91
718.216	17134.83
718.559	17031.11
718.902	16875.4
719.246	16987.27
719.589	16807.83
719.932	16819.59
720.275	16853.26
720.617	16835.18
720.96	16854.39
721.303	16832.47
721.646	16876.08
721.989	16686.48
722.331	16785.69
722.674	16787.95
723.016	16728.51
723.359	16705.24
723.701	16771
724.044	16718.35
724.386	16650.32
724.729	16720.38
725.071	16732.36
725.413	16646.26
725.755	16627.05
726.097	16594.06
726.439	16498.46
726.782	16547.73
727.124	16582.3
727.465	16448.75
727.807	16496.2
728.149	16497.11
728.491	16447.17
728.833	16482.42
729.175	16384.57
729.516	16453.27
729.858	16436.55
730.199	16366.72
730.541	16379.37
730.882	16313.38
731.224	16364.23
731.565	16381.86
731.906	16387.73
732.248	16346.38
732.589	16275.42
732.93	16203.11
733.271	16221.41
733.612	16226.61
733.953	16374.85
734.294	16295.98
734.635	16102.32
734.976	16225.7
735.317	16174.18
735.658	16241.75
735.999	16113.39
736.339	16145.93
736.68	16230.67
737.021	16080.85
737.361	16065.48
737.702	16129.66
738.042	16164.91
738.383	16121.07
738.723	16139.15
739.063	16084.01
739.404	16070.91
739.744	16088.98
740.084	15996.78
740.424	15997.23
740.764	16022.54
741.104	16076.55
741.444	15958.14
741.784	15938.25
742.124	16021.41
742.464	16055.76
742.804	15940.29
743.143	15908.65
743.483	15920.4
743.823	15871.59
744.162	15841.76
744.502	15951.81
744.841	15896.67
745.181	15962.89
745.52	15858.71
745.86	15871.81
746.199	15856.45
746.538	15719.95
746.877	15846.5
747.216	15759.73
747.556	15831.59
747.895	15827.52
748.234	15748.43
748.573	15732.38
748.911	15783
749.25	15730.12
749.589	15767.41
749.928	15823.91
750.267	15750.91
750.605	15679.95
750.944	15786.62
751.283	15647.19
751.621	15682.89
751.96	15699.84
752.298	15570.58
752.636	15600.18
752.975	15507.08
753.313	15498.04
753.651	15623.46
753.989	15511.6
754.327	15539.17
754.666	15610.58
755.004	15544.59
755.342	15583.46
755.679	15421.2
756.017	15348.21
756.355	15427.31
756.693	15416.91
757.031	15388.89
757.368	15396.57
757.706	15421.2
758.044	15245.62
758.381	15299.85
758.719	15265.5
759.056	15254.2
759.394	15144.6
759.731	15210.81
760.068	15129.69
760.405	15029.58
760.743	15106.41
761.08	15079.29
761.417	15051.5
761.754	15036.58
762.091	14947.32
762.428	14849.02
762.765	14806.98
763.102	14929.01
763.438	14790.94
763.775	14752.07
764.112	14762.01
764.449	14718.85
764.785	14697.61
765.122	14641.79
765.458	14617.16
765.795	14600.44
766.131	14650.83
766.467	14543.04
766.804	14501.23
767.14	14389.82
767.476	14387.33
767.812	14402.7
768.148	14345.98
768.485	14260.78
768.821	14203.38
769.157	14264.4
769.492	14198.19
769.828	14080.67
770.164	14108.24
770.5	14096.72
770.836	14054.69
771.171	13894.69
771.507	13931.75
771.842	13793
772.178	13809.27
772.513	13859.66
772.849	13808.59
773.184	13619.22
773.519	13804.07
773.855	13644.08
774.19	13583.74
774.525	13589.16
774.86	13604.53
775.195	13526.57
775.53	13428.04
775.865	13424.42
776.2	13327.25
776.535	13223.97
776.87	13269.62
777.205	13195.95
777.539	13178.78
777.874	13215.84
778.209	13068.95
778.543	13030.08
778.878	12913.25
779.212	12965.22
779.547	12933.13
779.881	12998.44
780.215	12876.86
780.55	12860.59
780.884	12758.22
781.218	12800.71
781.552	12772.01
781.886	12700.6
782.22	12615.18
782.554	12618.34
782.888	12538.79
783.222	12425.8
783.556	12407.05
783.889	12323.21
784.223	12228.75
784.557	12285.24
784.89	12287.28
785.224	12204.57
785.557	12233.94
785.891	12122.76
786.224	12188.97
786.558	12142.87
786.891	12056.55
787.224	12020.84
787.557	11967.96
787.891	11968.41
788.224	11884.8
788.557	11986.94
788.89	11824.46
789.223	11838.25
789.556	11770.45
789.888	11711.92
790.221	11734.52
790.554	11593.96
790.887	11637.12
791.219	11585.37
791.552	11558.71
791.884	11451.82
792.217	11432.38
792.549	11410.69
792.882	11296.34
793.214	11365.27
793.546	11362.78
793.879	11238.04
794.211	11263.35
794.543	11292.05
794.875	11231.03
795.207	11217.02
795.539	11133.86
795.871	11170.47
796.203	11137.7
796.535	11076.01
796.867	10997.37
797.198	10999.63
797.53	10974.09
797.862	10866.07
798.193	10953.75
798.525	10798.5
798.856	10880.31
799.188	10731.16
799.519	10758.95
799.85	10692.97
800.182	10683.25
800.513	10664.49
800.844	10573.42
801.175	10654.32
801.506	10633.31
801.837	10649.13
802.168	10576.36
802.499	10554.21
802.83	10474.89
803.161	10407.1
803.491	10484.61
803.822	10446.87
804.153	10341.56
804.483	10347.67
804.814	10302.02
805.145	10335.91
805.475	10266.76
805.805	10219.31
806.136	10178.63
806.466	10202.58
806.796	10180.44
807.126	10119.88
807.457	10102.02
807.787	10114.68
808.117	10024.06
808.447	10019.31
808.777	10020.67
809.107	10029.03
809.436	9989.71
809.766	9875.59
810.096	9897.96
810.426	9900.67
810.755	9864.74
811.085	9841.24
811.414	9853.44
811.744	9725.54
812.073	9756.95
812.403	9717.17
812.732	9709.72
813.061	9664.97
813.39	9631.07
813.719	9637.4
814.049	9731.41
814.378	9622.49
814.707	9588.82
815.036	9590.62
815.365	9565.54
815.693	9490.97
816.022	9459.78
816.351	9469.72
816.68	9374.13
817.008	9481.47
817.337	9452.1
817.665	9372.55
817.994	9355.83
818.322	9388.59
818.651	9319.9
818.979	9291.65
819.307	9331.2
819.636	9281.93
819.964	9259.11
820.292	9315.83
820.62	9276.51
820.948	9268.6
821.276	9222.5
821.604	9201.71
821.932	9232.21
822.259	9262.95
822.587	9226.11
822.915	9204.64
823.243	9239.9
823.57	9124.42
823.898	9236.73
824.225	9240.12
824.553	9203.97
824.88	9198.77
825.207	9194.48
825.535	9172.1
825.862	9228.6
826.189	9205.32
826.516	9219.79
826.843	9280.35
827.17	9257.75
827.497	9264.08
827.824	9222.5
828.151	9220.69
828.478	9195.61
828.805	9313.57
829.131	9205.55
829.458	9157.19
829.785	9161.93
830.111	9208.03
830.438	9294.81
830.764	9208.49
831.09	9192.67
831.417	9173.91
831.743	9242.84
832.069	9217.07
832.395	9234.25
832.722	9211.42
833.048	9194.48
833.374	9208.03
833.7	9102.95
834.026	9152.22
834.351	9147.92
834.677	9166.45
835.003	9198.09
835.329	9146.57
835.654	9149.05
835.98	9108.83
836.306	9051.88
836.631	9113.12
836.956	9068.15
837.282	9088.04
837.607	9036.51
837.932	9025.44
838.258	8984.31
838.583	8946.57
838.908	9028.15
839.233	8973.01
839.558	9000.81
839.883	8916.74
840.208	8894.37
840.533	8907.48
840.858	8893.01
841.182	8913.58
841.507	8940.02
841.832	8826.8
842.156	8888.27
842.481	8813.47
842.805	8888.72
843.13	8808.27
843.454	8766.69
843.778	8747.26
844.103	8764.2
844.427	8703.64
844.751	8744.09
845.075	8760.81
845.399	8647.37
845.723	8629.07
846.047	8648.05
846.371	8536.41
846.695	8569.86
847.019	8499.13
847.343	8422.07
847.666	8403.76
847.99	8418.22
848.313	8463.42
848.637	8319.02
848.96	8343.2
849.284	8339.81
849.607	8223.65
849.931	8248.51
850.254	8189.76
850.577	8073.83
850.9	8073.15
851.223	8125.8
851.546	8103.66
851.869	8014.39
852.192	8114.96
852.515	7964.9
852.838	7948.18
853.161	7997.9
853.483	7839.26
853.806	7877.9
854.129	7910.67
854.451	7872.48
854.774	7841.07
855.096	7798.81
855.419	7784.12
855.741	7715.42
856.063	7683.1
856.385	7682.43
856.708	7695.31
857.03	7571.24
857.352	7665.02
857.674	7607.4
857.996	7591.81
858.318	7559.94
858.64	7542.99
858.961	7512.71
859.283	7451.7
859.605	7429.1
859.926	7471.36
860.248	7439.04
860.57	7394.3
860.891	7457.8
861.212	7373.51
861.534	7420.29
861.855	7380.51
862.176	7364.24
862.498	7362.43
862.819	7304.36
863.14	7249.22
863.461	7274.98
863.782	7258.48
864.103	7309.55
864.424	7243.57
864.745	7307.75
865.065	7191.14
865.386	7230.01
865.707	7200.63
866.027	7225.71
866.348	7155.89
866.668	7189.56
866.989	7145.94
867.309	7095.1
867.63	7116.79
867.95	7167.41
868.27	7074.76
868.59	7088.09
868.91	7058.49
869.23	7108.43
869.55	7104.59
869.87	7110.69
870.19	7084.47
870.51	7084.93
870.83	7029.79
871.15	7070.01
871.469	7050.58
871.789	7001.09
872.109	7010.58
872.428	6969
872.748	6989.79
873.067	6957.02
873.386	6966.74
873.706	6973.74
874.025	6976
874.344	6994.08
874.663	6945.04
874.982	6920.41
875.301	6925.61
875.62	6906.4
875.939	6888.1
876.258	6844.93
876.577	6876.57
876.896	6831.83
877.214	6802.22
877.533	6846.29
877.852	6801.77
878.17	6869.57
878.489	6840.64
878.807	6809.68
879.125	6813.3
879.444	6773.52
879.762	6752.96
880.08	6707.08
880.398	6707.76
880.716	6769
881.034	6698.27
881.352	6697.14
881.67	6695.33
881.988	6658.5
882.306	6675.45
882.624	6601.78
882.941	6585.96
883.259	6580.08
883.577	6578.95
883.894	6613.98
884.212	6590.02
884.529	6551.38
884.846	6576.92
885.164	6545.51
885.481	6491.95
885.798	6510.48
886.115	6515.9
886.432	6486.98
886.75	6491.04
887.067	6478.61
887.383	6416.47
887.7	6409.69
888.017	6326.08
888.334	6450.37
888.651	6399.97
888.967	6390.03
889.284	6362.01
889.6	6359.75
889.917	6295.34
890.233	6314.1
890.55	6284.95
890.866	6330.37
891.182	6271.16
891.498	6254.44
891.815	6248.56
892.131	6256.02
892.447	6164.72
892.763	6154.1
893.079	6144.39
893.395	6126.99
893.71	6136.03
894.026	6119.53
894.342	6096.7
894.657	6114.33
894.973	6031.4
895.289	6079.08
895.604	6029.59
895.92	5954.56
896.235	6016.48
896.55	5983.71
896.865	5984.84
897.181	5915.92
897.496	5987.55
897.811	5902.13
898.126	5861.68
898.441	5828.46
898.756	5815.13
899.071	5797.73
899.386	5763.83
899.7	5778.07
900.015	5742.36
900.33	5706.88
900.644	5739.65
900.959	5726.54
901.273	5665.53
901.588	5663.27
901.902	5661.91
902.216	5602.71
902.531	5594.34
902.845	5540.33
903.159	5505.31
903.473	5536.04
903.787	5545.76
904.101	5494.91
904.415	5527.45
904.729	5468.02
905.042	5411.52
905.356	5439.09
905.67	5442.94
905.984	5447.46
906.297	5419.21
906.611	5355.48
906.924	5385.54
907.237	5277.74
907.551	5326.55
907.864	5305.76
908.177	5288.36
908.491	5264.64
908.804	5235.26
909.117	5188.25
909.43	5189.84
909.743	5183.28
910.056	5107.58
910.368	5137.63
910.681	5113.23
910.994	5079.33
911.307	5073.45
911.619	5021.93
911.932	5033.91
912.244	4987.81
912.557	5000.91
912.869	4962.95
913.181	4981.25
913.494	4957.98
913.806	4882.72
914.118	4902.61
914.43	4863.74
914.742	4877.53
915.054	4863.52
915.366	4835.72
915.678	4821.26
915.99	4779.45
916.302	4743.75
916.613	4733.58
916.925	4713.01
917.236	4730.19
917.548	4697.87
917.859	4698.1
918.171	4650.41
918.482	4671.2
918.794	4642.05
919.105	4582.39
919.416	4572.45
919.727	4588.95
920.038	4576.07
920.349	4537.88
920.66	4514.6
920.971	4512.11
921.282	4463.07
921.593	4426.01
921.903	4470.31
922.214	4408.16
922.525	4426.92
922.835	4383.3
923.146	4369.07
923.456	4371.55
923.767	4343.08
924.077	4307.82
924.387	4303.3
924.697	4273.02
925.008	4323.87
925.318	4245.91
925.628	4251.33
925.938	4254.27
926.248	4196.87
926.558	4166.59
926.867	4160.94
927.177	4201.84
927.487	4126.81
927.796	4077.1
928.106	4092.01
928.416	4112.12
928.725	4084.33
929.034	4063.99
929.344	4039.36
929.653	4057.66
929.962	4020.15
930.271	4022.41
930.581	3949.87
930.89	3942.86
931.199	3963.43
931.508	3917.78
931.817	3916.2
932.125	3900.15
932.434	3920.04
932.743	3855.86
933.051	3842.53
933.36	3832.13
933.669	3763.43
933.977	3788.52
934.286	3795.3
934.594	3819.02
934.902	3760.95
935.21	3708.74
935.519	3748.74
935.827	3684.56
936.135	3685.02
936.443	3681.85
936.751	3685.47
937.059	3659.48
937.367	3625.58
937.674	3605.47
937.982	3610.67
938.29	3553.95
938.597	3564.79
938.905	3555.75
939.213	3562.99
939.52	3527.96
939.827	3565.47
940.135	3514.4
940.442	3506.26
940.749	3463.78
941.056	3489.99
941.363	3442.76
941.67	3450.45
941.977	3419.03
942.284	3353.5
942.591	3404.35
942.898	3412.25
943.205	3366.38
943.511	3359.6
943.818	3352.6
944.125	3292.48
944.431	3301.75
944.738	3288.19
945.044	3274.41
945.35	3293.61
945.657	3243.22
945.963	3264.24
946.269	3236.89
946.575	3234.63
946.881	3200.74
947.187	3191.02
947.493	3171.58
947.799	3195.09
948.105	3171.36
948.41	3142.88
948.716	3131.81
949.022	3108.99
949.327	3130.45
949.633	3099.72
949.938	3064.69
950.244	3077.57
950.549	3049.55
950.854	3050.23
951.16	3018.37
951.465	3002.32
951.77	3037.8
952.075	2984.47
952.38	2971.14
952.685	2971.14
952.99	2932.27
953.294	2956.9
953.599	2912.38
953.904	2907.41
954.209	2909.67
954.513	2905.15
954.818	2865.38
955.122	2862.66
955.426	2855.21
955.731	2872.38
956.035	2842.78
956.339	2808.65
956.643	2809.11
956.948	2810.46
957.252	2791.03
957.556	2784.25
957.86	2854.3
958.163	2751.48
958.467	2718.94
958.771	2759.39
959.075	2733.63
959.378	2707.64
959.682	2713.97
959.985	2717.13
960.289	2721.88
960.592	2678.94
960.896	2661.09
961.199	2643.69
961.502	2663.12
961.805	2618.38
962.108	2588.77
962.411	2613.63
962.714	2581.77
963.017	2608.43
963.32	2589.45
963.623	2579.73
963.926	2581.32
964.228	2507.65
964.531	2553.29
964.833	2538.61
965.136	2499.74
965.438	2503.58
965.741	2498.38
966.043	2485.05
966.345	2472.62
966.648	2465.39
966.95	2472.17
967.252	2440.98
967.554	2481.88
967.856	2429.91
968.158	2422.68
968.46	2420.19
968.761	2379.06
969.063	2342.45
969.365	2375.67
969.666	2392.17
969.968	2347.42
970.269	2346.97
970.571	2330.02
970.872	2346.75
971.174	2320.31
971.475	2323.92
971.776	2291.38
972.077	2273.08
972.378	2270.82
972.679	2271.95
972.98	2315.33
973.281	2253.19
973.582	2216.35
973.883	2230.14
974.183	2218.16
974.484	2175.68
974.785	2191.95
975.085	2202.34
975.386	2186.52
975.686	2190.14
975.986	2185.62
976.287	2152.85
976.587	2154.21
976.887	2124.61
977.187	2127.77
977.487	2103.81
977.787	2113.98
978.087	2102.91
978.387	2100.65
978.687	2079.41
978.987	2089.8
979.286	2077.37
979.586	2065.85
979.885	2070.14
980.185	2042.57
980.484	2015.23
980.784	2036.02
981.083	2030.82
981.382	2006.19
981.682	2030.82
981.981	1978.85
982.28	2017.72
982.579	1985.17
982.878	1961.9
983.177	1966.87
983.475	1977.94
983.774	1956.02
984.073	1947.43
984.372	1936.14
984.67	1910.6
984.969	1911.96
985.267	1924.38
985.566	1901.56
985.864	1891.39
986.162	1858.17
986.461	1860.21
986.759	1868.11
987.057	1852.75
987.355	1854.78
987.653	1872.18
987.951	1848.68
988.249	1851.17
988.547	1829.25
988.844	1829.02
989.142	1813.43
989.44	1799.19
989.737	1791.96
990.035	1793.99
990.332	1758.29
990.63	1761.9
990.927	1761.68
991.224	1740.43
991.521	1758.51
991.819	1728.46
992.116	1742.02
992.413	1717.38
992.71	1723.71
993.006	1706.99
993.303	1692.07
993.6	1729.81
993.897	1676.48
994.193	1663.83
994.49	1676.48
994.787	1661.57
995.083	1666.99
995.379	1672.64
995.676	1644.17
995.972	1630.61
996.268	1641.68
996.565	1610.49
996.861	1623.38
997.157	1616.14
997.453	1591.74
997.749	1600.78
998.044	1581.79
998.34	1581.34
998.636	1571.85
998.932	1583.83
999.227	1551.06
999.523	1550.16
999.818	1544.06
1000.114	1554.22
1000.409	1533.89
1000.704	1510.38
1001	1492.98
1001.295	1506.09
1001.59	1503.38
1001.885	1506.77
1002.18	1478.75
1002.475	1470.16
1002.77	1457.5
1003.065	1449.82
1003.359	1443.72
1003.654	1438.52
1003.949	1439.43
1004.243	1431.52
1004.538	1437.84
1004.832	1417.05
1005.127	1435.58
1005.421	1417.28
1005.715	1403.04
1006.009	1386.77
1006.304	1376.38
1006.598	1374.12
1006.892	1328.47
1007.186	1361.24
1007.48	1364.4
1007.773	1350.84
1008.067	1353.55
1008.361	1341.8
1008.655	1340.9
1008.948	1322.37
1009.242	1314.91
1009.535	1326.21
1009.829	1296.15
1010.122	1299.09
1010.415	1283.72
1010.708	1286.89
1011.001	1271.75
1011.295	1252.76
1011.588	1274.68
1011.881	1267.68
1012.173	1244.4
1012.466	1256.61
1012.759	1241.92
1013.052	1224.06
1013.344	1224.97
1013.637	1224.29
1013.93	1241.92
1014.222	1193.1
1014.514	1217.28
1014.807	1197.85
1015.099	1197.4
1015.391	1181.13
1015.683	1176.38
1015.976	1174.12
1016.268	1204.63
1016.56	1148.59
1016.851	1130.06
1017.143	1141.13
1017.435	1137.06
1017.727	1135.25
1018.018	1140.9
1018.31	1116.5
1018.602	1125.31
1018.893	1103.84
1019.185	1108.81
1019.476	1059.55
1019.767	1069.04
1020.058	1080.34
1020.35	1083.73
1020.641	1043.5
1020.932	1053.45
1021.223	1048.48
1021.514	1043.5
1021.804	1050.51
1022.095	1024.97
1022.386	1053.45
1022.677	1036.05
1022.967	1004.18
1023.258	999.66
1023.548	1020.91
1023.839	992.43
1024.129	1017.29
1024.419	974.35
1024.709	1000.11
1025	947.91
1025.29	964.64
1025.58	969.16
1025.87	937.74
1026.16	941.59
1026.449	947.46
1026.739	934.58
1027.029	939.1
1027.319	914.69
1027.608	931.19
1027.898	918.08
1028.187	925.54
1028.477	901.81
1028.766	916.73
1029.055	879.67
1029.344	890.06
1029.634	892.77
1029.923	884.41
1030.212	869.27
1030.501	869.27
1030.79	855.26
1031.078	858.88
1031.367	855.94
1031.656	848.71
1031.945	860.01
1032.233	849.61
1032.522	833.11
1032.81	840.8
1033.099	828.14
1033.387	850.97
1033.675	812.1
1033.963	830.63
1034.251	832.89
1034.54	783.85
1034.828	817.29
1035.116	784.3
1035.403	794.02
1035.691	809.16
1035.979	798.31
1036.267	755.15
1036.554	768.03
1036.842	791.98
1037.129	747.01
1037.417	738.65
1037.704	766.45
1037.992	766
1038.279	750.63
1038.566	752.21
1038.853	752.21
1039.14	752.21
