Data from cardboard_FLMS001491_061.txt Node
Date: Tue Feb 07 11:39:56 GMT 2017
User: dcchb
Spectrometer: FLMS00149
Trigger mode: 0
Integration Time (sec): 2.000000E-2
Scans to average: 10
Electric dark correction enabled: true
Nonlinearity correction enabled: false
Boxcar width: 0
XAxis mode: Wavelengths
Number of Pixels in Spectrum: 2048
>>>>>Begin Spectral Data<<<<<
341.393	-3.29
341.776	-3.29
342.16	-3.29
342.543	-55.04
342.927	-55.72
343.31	-62.05
343.693	-57.3
344.077	-50.07
344.46	-61.37
344.843	-50.75
345.226	-41.03
345.61	-44.42
345.993	-12.33
346.376	1
346.759	-2.61
347.142	13.88
347.525	33.54
347.908	48.69
348.291	79.19
348.674	86.88
349.057	118.74
349.44	126.65
349.823	140.66
350.206	158.74
350.588	183.37
350.971	215.46
351.354	241.22
351.737	257.49
352.119	240.54
352.502	281.45
352.884	283.71
353.267	282.35
353.65	297.04
354.032	292.75
354.414	311.96
354.797	319.19
355.179	316.25
355.562	338.62
355.944	318.28
356.326	328.9
356.709	328
357.091	324.16
357.473	339.07
357.855	342.69
358.238	348.11
358.62	331.62
359.002	340.2
359.384	351.5
359.766	329.81
360.148	339.07
360.53	346.08
360.912	326.42
361.294	336.36
361.676	333.42
362.057	310.83
362.439	330.03
362.821	324.84
363.203	317.38
363.584	329.13
363.966	309.7
364.348	305.18
364.729	337.27
365.111	322.12
365.493	320.09
365.874	328.9
366.256	320.32
366.637	292.97
367.019	319.86
367.4	328
367.781	339.3
368.163	345.85
368.544	311.73
368.925	308.34
369.306	326.64
369.688	297.04
370.069	294.78
370.45	293.65
370.831	305.63
371.212	306.08
371.593	313.08
371.974	304.72
372.355	324.38
372.736	311.05
373.117	320.09
373.498	328
373.879	300.2
374.26	324.84
374.641	313.31
375.021	319.64
375.402	340.88
375.783	337.72
376.163	330.26
376.544	329.36
376.925	308.79
377.305	316.7
377.686	335.23
378.066	329.36
378.447	326.42
378.827	323.71
379.208	336.36
379.588	317.83
379.968	339.98
380.349	346.3
380.729	351.5
381.109	333.42
381.489	358.51
381.87	353.99
382.25	350.37
382.63	343.82
383.01	364.61
383.39	358.96
383.77	351.5
384.15	359.41
384.53	348.34
384.91	352.86
385.29	364.38
385.67	352.63
386.049	357.6
386.429	375
386.809	371.39
387.189	358.28
387.568	360.99
387.948	379.75
388.328	363.48
388.707	369.35
389.087	362.35
389.466	355.57
389.846	367.55
390.225	365.06
390.605	370.94
390.984	370.03
391.363	363.25
391.743	410.48
392.122	404.16
392.501	402.57
392.881	398.51
393.26	379.75
393.639	380.2
394.018	385.85
394.397	388.56
394.776	404.38
395.155	383.14
395.534	398.05
395.913	410.48
396.292	396.7
396.671	403.48
397.05	401.22
397.429	387.66
397.808	415.23
398.186	415
398.565	396.47
398.944	437.15
399.323	416.59
399.701	413.2
400.08	418.84
400.458	432.86
400.837	442.12
401.215	421.56
401.594	440.77
401.972	422.01
402.351	433.53
402.729	435.12
403.107	432.86
403.486	441.67
403.864	429.01
404.242	431.95
404.62	444.38
404.999	469.69
405.377	464.95
405.755	462.46
406.133	465.17
406.511	456.81
406.889	475.34
407.267	493.42
407.645	473.08
408.023	473.76
408.401	495.68
408.779	480.99
409.156	525.73
409.534	507.66
409.912	487.54
410.29	515.11
410.667	510.14
411.045	508.33
411.422	496.81
411.8	499.52
412.178	524.6
412.555	533.87
412.933	532.97
413.31	538.84
413.687	542.01
414.065	551.5
414.442	543.81
414.819	547.88
415.197	566.64
415.574	557.15
415.951	554.66
416.328	567.99
416.705	565.96
417.082	565.28
417.46	573.19
417.837	576.13
418.214	570.71
418.591	587.88
418.967	593.3
419.344	606.64
419.721	586.98
420.098	616.81
420.475	606.18
420.852	631.95
421.228	620.65
421.605	651.61
421.982	630.59
422.358	640.08
422.735	655.9
423.111	641.44
423.488	643.47
423.864	661.55
424.241	647.31
424.617	651.38
424.994	674.21
425.37	680.53
425.746	644.38
426.123	676.01
426.499	684.83
426.875	698.16
427.251	701.55
427.627	680.98
428.003	729.12
428.379	716.46
428.756	716.46
429.132	718.05
429.507	732.96
429.883	760.53
430.259	744.03
430.635	738.16
431.011	764.6
431.387	759.85
431.763	786.74
432.138	786.74
432.514	803.24
432.89	792.62
433.265	797.82
433.641	806.63
434.016	816.57
434.392	829.91
434.767	840.53
435.143	819.51
435.518	836.01
435.894	824.26
436.269	856.35
436.644	884.14
437.02	882.56
437.395	880.3
437.77	885.27
438.145	896.57
438.52	894.76
438.895	918.72
439.271	914.88
439.646	904.48
440.021	925.5
440.395	941.54
440.77	927.53
441.145	949.68
441.52	954.88
441.895	963.01
442.27	940.19
442.645	963.69
443.019	955.1
443.394	991.03
443.769	994.2
444.143	987.64
444.518	1014.99
444.892	1000.07
445.267	1013.86
445.641	1000.3
446.016	1021.31
446.39	1026.96
446.764	1056.34
447.139	1031.48
447.513	1032.16
447.887	1056.12
448.262	1050.01
448.636	1059.51
449.01	1080.75
449.384	1072.39
449.758	1097.25
450.132	1103.57
450.506	1070.35
450.88	1112.16
451.254	1098.15
451.628	1101.76
452.002	1122.56
452.376	1140.41
452.75	1135.89
453.123	1173.4
453.497	1173.85
453.871	1178.6
454.244	1222.67
454.618	1222.67
454.992	1212.72
455.365	1229.22
455.739	1236
456.112	1292.95
456.486	1283.68
456.859	1298.37
457.232	1287.97
457.606	1323.23
457.979	1320.06
458.352	1356.67
458.725	1362.1
459.099	1384.47
459.472	1367.75
459.845	1412.72
460.218	1392.15
460.591	1415.88
460.964	1428.08
461.337	1467.86
461.71	1505.14
462.083	1485.94
462.456	1522.32
462.829	1512.38
463.201	1548.31
463.574	1523.45
463.947	1565.48
464.32	1553.28
464.692	1599.83
465.065	1588.76
465.438	1620.4
465.81	1636.89
466.183	1672.37
466.555	1715.76
466.928	1726.61
467.3	1699.72
467.672	1739.49
468.045	1778.13
468.417	1767.74
468.789	1802.31
469.161	1816.1
469.534	1824.01
469.906	1872.37
470.278	1897.45
470.65	1893.16
471.022	1971.57
471.394	1978.8
471.766	1999.37
472.138	2006.6
472.51	2060.61
472.882	2126.6
473.253	2110.55
473.625	2145.81
473.997	2177.22
474.369	2188.06
474.74	2236.88
475.112	2223.54
475.484	2309.87
475.855	2346.93
476.227	2388.28
476.598	2410.66
476.97	2466.93
477.341	2498.56
477.713	2522.74
478.084	2555.51
478.455	2591.22
478.827	2616.08
479.198	2645.68
479.569	2696.07
479.94	2767.03
480.311	2819.69
480.682	2894.94
481.053	2966.57
481.424	2919.8
481.795	2971.55
482.166	3024.65
482.537	3074.59
482.908	3155.95
483.279	3155.04
483.65	3222.84
484.021	3297.87
484.391	3342.16
484.762	3344.64
485.133	3417.64
485.503	3461.25
485.874	3543.96
486.244	3561.59
486.615	3675.48
486.985	3675.71
487.356	3743.05
487.726	3766.33
488.097	3884.29
488.467	3907.34
488.837	3947.57
489.207	4025.53
489.578	4091.06
489.948	4144.85
490.318	4194.11
490.688	4249.25
491.058	4300.55
491.428	4369.48
491.798	4379.64
492.168	4495.8
492.538	4520.21
492.908	4595.91
493.278	4649.02
493.648	4628.9
494.017	4743.93
494.387	4788.9
494.757	4842.91
495.126	4905.51
495.496	4953.41
495.866	5005.62
496.235	5032.51
496.605	5138.27
496.974	5125.84
497.344	5157.25
497.713	5225.05
498.082	5248.55
498.452	5321.54
498.821	5355.89
499.19	5437.92
499.559	5513.63
499.928	5545.49
500.298	5606.28
500.667	5611.93
501.036	5664.81
501.405	5736.45
501.774	5761.53
502.143	5800.4
502.512	5885.82
502.88	5887.18
503.249	5940.51
503.618	6044.23
503.987	6046.04
504.356	6069.09
504.724	6197.9
505.093	6222.31
505.462	6238.13
505.83	6332.14
506.199	6379.37
506.567	6458.91
506.936	6522.19
507.304	6582.98
507.672	6627.72
508.041	6634.73
508.409	6752.69
508.777	6810.54
509.145	6857.32
509.514	6915.17
509.882	6996.98
510.25	6986.13
510.618	7130.53
510.986	7120.36
511.354	7273.13
511.722	7304.54
512.09	7466.34
512.458	7454.14
512.826	7455.27
513.193	7558.32
513.561	7594.02
513.929	7698.43
514.297	7770.97
514.664	7863.62
515.032	7884.86
515.4	8049.38
515.767	8078.76
516.135	8096.16
516.502	8071.07
516.869	8250.96
517.237	8372.08
517.604	8329.6
517.972	8439.42
518.339	8565.75
518.706	8550.61
519.073	8696.37
519.44	8766.42
519.808	8848.68
520.175	8873.76
520.542	9036.92
520.909	9166.19
521.276	9152.63
521.643	9268.78
522.009	9426.29
522.376	9474.88
522.743	9571.15
523.11	9647.53
523.477	9752.61
523.843	9839.39
524.21	9961.64
524.577	10114.18
524.943	10108.76
525.31	10231.47
525.676	10303.56
526.043	10470.78
526.409	10493.61
526.776	10684.11
527.142	10732.25
527.508	10810.21
527.874	10897.67
528.241	11016.08
528.607	11126.81
528.973	11244.77
529.339	11263.08
529.705	11385.11
530.071	11564.31
530.437	11614.71
530.803	11694.71
531.169	11845.44
531.535	11869.39
531.901	11999.11
532.267	12051.31
532.632	12144.86
532.998	12176.95
533.364	12345.09
533.73	12369.94
534.095	12565.19
534.461	12634.79
534.826	12671.4
535.192	12866.43
535.557	12868.24
535.923	12920.21
536.288	12997.72
536.653	13123.6
537.019	13144.16
537.384	13165.63
537.749	13279.07
538.114	13365.17
538.479	13403.14
538.845	13588.44
539.21	13551.83
539.575	13712.96
539.94	13775.78
540.305	13964.25
540.67	13982.78
541.034	14064.59
541.399	14041.31
541.764	14171.93
542.129	14216.67
542.494	14400.62
542.858	14437.69
543.223	14450.11
543.587	14599.26
543.952	14654.4
544.316	14709.99
544.681	14805.13
545.045	14826.15
545.41	14999.7
545.774	15090.78
546.138	15063.21
546.503	15161.06
546.867	15307.94
547.231	15456.42
547.595	15529.41
547.959	15606.24
548.324	15701.61
548.688	15693.25
549.052	15865.44
549.416	15873.81
549.779	15999
550.143	16049.62
550.507	16163.74
550.871	16222.95
551.235	16244.87
551.599	16533.68
551.962	16535.94
552.326	16579.55
552.689	16798.53
553.053	16749.94
553.417	16724.18
553.78	17064.96
554.143	16988.35
554.507	17142.25
554.87	17146.54
555.234	17404.84
555.597	17342.92
555.96	17478.96
556.323	17628.34
556.686	17672.63
557.05	17804.15
557.413	17899.29
557.776	17952.4
558.139	18175.21
558.502	18161.2
558.865	18294.99
559.228	18410.91
559.59	18584.69
559.953	18612.72
560.316	18884.35
560.679	18885.03
561.041	19047.51
561.404	19136.32
561.767	19353.04
562.129	19254.51
562.492	19538.12
562.854	19481.85
563.217	19589.87
563.579	19728.39
563.941	19850.2
564.304	19919.8
564.666	20119.12
565.028	20203.64
565.39	20203.18
565.753	20453.8
566.115	20550.52
566.477	20657.86
566.839	20738.99
567.201	20886.1
567.563	21054.01
567.925	21090.17
568.287	21192.08
568.648	21357.5
569.01	21400.67
569.372	21627.33
569.734	21583.03
570.095	21841.78
570.457	21856.25
570.819	21852.63
571.18	22027.54
571.542	22107.54
571.903	22202
572.265	22246.29
572.626	22419.62
572.987	22438.83
573.349	22598.37
573.71	22671.37
574.071	22769.44
574.432	22979.38
574.794	23120.85
575.155	23154.07
575.516	23124.69
575.877	23251.46
576.238	23244.23
576.599	23472.7
576.96	23429.54
577.32	23469.31
577.681	23622.98
578.042	23678.57
578.403	23740.27
578.763	23807.61
579.124	23963.76
579.485	24011.67
579.845	24118.79
580.206	24030.2
580.566	24278.1
580.927	24314.04
581.287	24378.21
581.648	24355.16
582.008	24552
582.368	24560.36
582.728	24474.71
583.089	24599.68
583.449	24614.82
583.809	24616.4
584.169	24733.23
584.529	24784.08
584.889	24962.61
585.249	24874.02
585.609	24787.92
585.969	25024.53
586.329	24924.42
586.688	25060
587.048	25162.83
587.408	25067.69
587.768	25204.63
588.127	25169.61
588.487	25320.34
588.846	25468.81
589.206	25280.79
589.565	25321.69
589.925	25539.99
590.284	25283.05
590.643	25464.06
591.003	25676.49
591.362	25714.45
591.721	25751.51
592.08	25686.88
592.44	25849.59
592.799	25883.71
593.158	25845.07
593.517	25880.77
593.876	25982.69
594.235	25947.21
594.593	26045.06
594.952	26092.97
595.311	26023.37
595.67	26217.71
596.029	26311.72
596.387	26459.52
596.746	26475.56
597.104	26224.49
597.463	26315.34
597.822	26506.75
598.18	26360.08
598.538	26337.03
598.897	26523.7
599.255	26394.66
599.613	26714.88
599.972	26648.89
600.33	26633.52
600.688	26606.18
601.046	26738.83
601.404	26887.98
601.762	26827.42
602.12	26972.05
602.478	27016.56
602.836	27005.49
603.194	26887.75
603.552	27067.41
603.91	27001.42
604.268	27161.42
604.625	27158.93
604.983	27344.46
605.341	27049.33
605.698	27218.37
606.056	27471.01
606.413	27427.63
606.771	27526.38
607.128	27615.87
607.485	27454.29
607.843	27482.31
608.2	27675.98
608.557	27784.45
608.914	27717.79
609.272	27787.39
609.629	27936.77
609.986	28022.41
610.343	27908.74
610.7	28159.36
611.057	28087.27
611.414	28131.11
611.771	28217.66
612.127	28355.29
612.484	28289.75
612.841	28285.91
613.198	28288.62
613.554	28418.11
613.911	28535.39
614.267	28670.53
614.624	28567.71
614.98	28687.48
615.337	28830.08
615.693	28776.52
616.05	28723.41
616.406	28976.29
616.762	28789.85
617.118	28915.72
617.475	28824.2
617.831	29073.68
618.187	29064.42
618.543	29156.17
618.899	29360.46
619.255	29240.46
619.611	29288.82
619.967	29363.85
620.323	29392.77
620.678	29370.17
621.034	29282.72
621.39	29222.38
621.746	29385.54
622.101	29717.74
622.457	29427.57
622.812	29614.46
623.168	29637.74
623.523	29693.78
623.879	29776.72
624.234	29549.38
624.589	29684.52
624.945	29683.61
625.3	29713.89
625.655	29748.92
626.01	29812.65
626.365	29747.34
626.72	29801.58
627.075	29790.28
627.43	29767.68
627.785	29759.99
628.14	29905.75
628.495	29907.56
628.85	29814.23
629.205	29781.91
629.559	29940.55
629.914	29893.78
630.269	29850.16
630.623	29733.78
630.978	29728.13
631.332	29990.27
631.687	30034.56
632.041	29828.24
632.396	29892.42
632.75	29755.25
633.104	29933.32
633.459	29897.39
633.813	29804.74
634.167	29861.01
634.521	29827.79
634.875	29841.8
635.229	29720
635.583	29766.55
635.937	29630.28
636.291	29675.93
636.645	29612.43
636.999	29604.29
637.352	29662.14
637.706	29511.19
638.06	29674.8
638.413	29618.53
638.767	29630.28
639.121	29614.24
639.474	29429.61
639.828	29418.76
640.181	29553.45
640.534	29610.17
640.888	29498.31
641.241	29340.34
641.594	29496.95
641.947	29559.1
642.301	29401.81
642.654	29564.97
643.007	29434.81
643.36	29551.64
643.713	29496.27
644.066	29578.3
644.419	29255.83
644.771	29109.16
645.124	28819.91
645.477	28872.11
645.83	28849.06
646.182	28550.08
646.535	28562.29
646.888	28622.62
647.24	28487.49
647.593	28689.51
647.945	28604.32
648.298	28525.22
648.65	28492.46
649.002	28319.13
649.355	28483.19
649.707	28487.26
650.059	28663.75
650.411	28993.46
650.763	29059.22
651.115	29302.61
651.467	29249.05
651.819	29247.47
652.171	29166.11
652.523	29169.28
652.875	29036.62
653.227	29020.35
653.578	29295.83
653.93	29235.94
654.282	29100.58
654.633	28988.26
654.985	29037.75
655.337	29085.21
655.688	28976.74
656.039	29244.75
656.391	28936.74
656.742	28972.9
657.094	29023.97
657.445	29167.47
657.796	29115.49
658.147	29127.02
658.498	29088.37
658.849	29063.97
659.2	29103.29
659.551	29069.39
659.902	29187.13
660.253	29054.02
660.604	29067.58
660.955	28913.46
661.306	29096.28
661.656	29037.53
662.007	29039.56
662.358	29032.33
662.708	28977.64
663.059	29179.44
663.409	28982.16
663.76	29200.24
664.11	29145.77
664.461	29272.78
664.811	29177.86
665.161	29205.88
665.511	29114.14
665.862	29152.78
666.212	29305.99
666.562	29322.72
666.912	29179.22
667.262	29188.03
667.612	29256.5
667.962	29257.63
668.312	29122.5
668.662	29327.92
669.011	29192.78
669.361	29096.51
669.711	29180.8
670.06	29150.74
670.41	29035.04
670.76	29093.35
671.109	29192.1
671.459	29121.82
671.808	29093.35
672.157	29186.68
672.507	28896.29
672.856	29018.09
673.205	29150.97
673.554	29122.72
673.904	29032.78
674.253	29198.2
674.602	29091.99
674.951	28574.26
675.3	28547.37
675.649	29057.19
675.998	29074.59
676.346	29158.2
676.695	29029.62
677.044	28835.27
677.393	28958.66
677.741	28921.82
678.09	28887.02
678.438	28827.59
678.787	28949.62
679.135	28971.54
679.484	28838.21
679.832	28925.89
680.181	28765.9
680.529	28866.01
680.877	28749.17
681.225	28780.36
681.573	28883.18
681.922	28660.81
682.27	28620.36
682.618	28654.49
682.966	28595.05
683.314	28611.32
683.661	28677.76
684.009	28357.09
684.357	28311.67
684.705	28392.8
685.053	28343.53
685.4	28392.35
685.748	28388.28
686.095	28303.54
686.443	28196.65
686.79	28124.56
687.138	28165.46
687.485	28190.77
687.832	28087.5
688.18	28124.78
688.527	27938.35
688.874	27956.43
689.221	27976.76
689.568	27816.54
689.915	27804.57
690.262	27820.38
690.609	27744.68
690.956	27583.55
691.303	27700.84
691.65	27477.12
691.997	27513.5
692.344	27373.16
692.69	27371.13
693.037	27435.99
693.383	27131.14
693.73	27348.31
694.077	27135.2
694.423	27075.32
694.769	26983.57
695.116	26990.12
695.462	26996
695.808	26963.46
696.155	26980.41
696.501	26682.79
696.847	26717.81
697.193	26522.57
697.539	26623.13
697.885	26421.55
698.231	26415.22
698.577	26295.45
698.923	26222.01
699.269	26272.4
699.614	26122.8
699.96	26142.69
700.306	26050.26
700.651	26027.66
700.997	25867.22
701.342	25989.25
701.688	25908.8
702.033	25967.1
702.379	25721.91
702.724	25680.33
703.069	25652.98
703.415	25438.75
703.76	25446.89
704.105	25540.22
704.45	25439.2
704.795	25252.32
705.14	25191.75
705.485	25207.8
705.83	25195.59
706.175	25222.03
706.52	25050.51
706.865	24942.72
707.209	24899.78
707.554	24956.96
707.899	24967.8
708.243	24905.88
708.588	24795.61
708.932	24752.44
709.277	24776.85
709.621	24694.59
709.966	24533.92
710.31	24681.26
710.654	24431.55
710.998	24455.73
711.342	24539.79
711.687	24355.84
712.031	24343.87
712.375	24226.58
712.719	24361.04
713.063	24210.08
713.407	24326.92
713.75	24258.44
714.094	24210.54
714.438	24147.03
714.782	24208.73
715.125	24047.38
715.469	24058.9
715.812	23835.63
716.156	23821.39
716.499	23762.41
716.843	23887.61
717.186	23730.32
717.53	23790.89
717.873	23837.89
718.216	23791.11
718.559	23625.24
718.902	23587.28
719.246	23718.57
719.589	23566.26
719.932	23418.69
720.275	23435.19
720.617	23375.3
720.96	23364
721.303	23369.43
721.646	23469.31
721.989	23244.69
722.331	23346.83
722.674	23290.33
723.016	23203.56
723.359	23303.21
723.701	23286.27
724.044	23042.66
724.386	23128.08
724.729	23107.06
725.071	23140.28
725.413	23048.53
725.755	23113.84
726.097	22997.23
726.439	22882.44
726.782	22923.11
727.124	23042.43
727.465	22979.38
727.807	22891.7
728.149	22800.18
728.491	22860.51
728.833	22850.35
729.175	22792.27
729.516	22806.28
729.858	22862.32
730.199	22788.65
730.541	22806.28
730.882	22793.85
731.224	22753.4
731.565	22642.22
731.906	22683.12
732.248	22602.67
732.589	22640.86
732.93	22522.9
733.271	22615.55
733.612	22585.04
733.953	22630.69
734.294	22525.16
734.635	22432.05
734.976	22579.17
735.317	22495.1
735.658	22477.7
735.999	22433.86
736.339	22417.81
736.68	22547.98
737.021	22406.74
737.361	22254.2
737.702	22440.19
738.042	22326.29
738.383	22293.52
738.723	22375.1
739.063	22243.58
739.404	22239.06
739.744	22227.99
740.084	22184.37
740.424	22254.2
740.764	22189.57
741.104	22293.07
741.444	22180.53
741.784	22177.59
742.124	22147.54
742.464	22172.17
742.804	22081.1
743.143	22066.41
743.483	22069.35
743.823	22009.92
744.162	21979.86
744.502	22077.26
744.841	22057.82
745.181	22154.32
745.52	21946.19
745.86	22037.03
746.199	21907.77
746.538	21881.56
746.877	22031.84
747.216	21906.64
747.556	21903.25
747.895	21945.51
748.234	21815.57
748.573	21815.8
748.911	21843.14
749.25	21881.78
749.589	21867.55
749.928	21717.27
750.267	21911.16
750.605	21803.14
750.944	21736.7
751.283	21670.72
751.621	21806.31
751.96	21597.5
752.298	21651.96
752.636	21667.78
752.975	21544.39
753.313	21531.28
753.651	21591.62
753.989	21489.25
754.327	21495.8
754.666	21357.05
755.004	21504.17
755.342	21443.6
755.679	21445.18
756.017	21381.91
756.355	21377.39
756.693	21258.52
757.031	21346.66
757.368	21290.61
757.706	21259.2
758.044	21122.93
758.381	21175.14
758.719	21101.46
759.056	21043.16
759.394	21076.61
759.731	20956.16
760.068	20852.66
760.405	20837.74
760.743	20755.26
761.08	20907.8
761.417	20773.79
761.754	20774.47
762.091	20745.77
762.428	20706.45
762.765	20553.91
763.102	20554.13
763.438	20530.86
763.775	20439.56
764.112	20476.85
764.449	20444.31
764.785	20302.84
765.122	20200.47
765.458	20171.77
765.795	20153.47
766.131	20056.97
766.467	20172.9
766.804	20046.13
767.14	19949.63
767.476	20033.7
767.812	19816.3
768.148	19887.71
768.485	19773.59
768.821	19598
769.157	19644.1
769.492	19616.08
769.828	19594.16
770.164	19443.2
770.5	19442.3
770.836	19442.53
771.171	19286.82
771.507	19266.94
771.842	19109.88
772.178	19058.35
772.513	19035.3
772.849	19012.48
773.184	18970.22
773.519	18909.21
773.855	18863.11
774.19	18800.73
774.525	18697.23
774.86	18693.84
775.195	18677.8
775.53	18529.33
775.865	18500.18
776.2	18404.13
776.535	18311.48
776.87	18322.1
777.205	18208.21
777.539	18162.11
777.874	18230.81
778.209	17978.61
778.543	17980.64
778.878	17920.08
779.212	17887.09
779.547	17753.08
779.881	17855.67
780.215	17737.71
780.55	17709.01
780.884	17683.7
781.218	17609.81
781.552	17637.6
781.886	17566.19
782.22	17390.15
782.554	17402.13
782.888	17236.93
783.222	17231.06
783.556	17090.04
783.889	17042.36
784.223	16869.26
784.557	16871.75
784.89	16890.73
785.224	16875.59
785.557	16822.26
785.891	16762.82
786.224	16724.86
786.558	16787.23
786.891	16572.54
787.224	16556.73
787.557	16428.37
787.891	16427.92
788.224	16407.13
788.557	16378.88
788.89	16376.62
789.223	16287.13
789.556	16162.84
789.888	16244.19
790.221	16087.13
790.554	15966.68
790.887	15970.53
791.219	15942.5
791.552	15900.47
791.884	15810.76
792.217	15829.51
792.549	15805.78
792.882	15641.5
793.214	15672.46
793.546	15662.29
793.879	15486.47
794.211	15353.82
794.543	15481.27
794.875	15446.47
795.207	15482.63
795.539	15350.66
795.871	15452.57
796.203	15239.25
796.535	15173.71
796.867	15163.09
797.198	15032.02
797.53	15051.23
797.862	15019.36
798.193	15066.14
798.525	14843.1
798.856	14947.28
799.188	14797.68
799.519	14718.81
799.85	14654.4
800.182	14644.46
800.513	14721.29
800.844	14605.14
801.175	14601.3
801.506	14632.48
801.837	14569.43
802.168	14420.74
802.499	14447.18
802.83	14371.7
803.161	14429.78
803.491	14257.58
803.822	14359.27
804.153	14200.18
804.483	14139.16
804.814	14017.81
805.145	14165.6
805.475	14079.95
805.805	13981.43
806.136	13945.27
806.466	13962.67
806.796	13946.4
807.126	13839.28
807.457	13827.98
807.787	13788.89
808.117	13753.41
808.447	13605.84
808.777	13728.33
809.107	13629.12
809.436	13698.95
809.766	13662.11
810.096	13567.88
810.426	13532.85
810.755	13497.82
811.085	13489.24
811.414	13415.79
811.744	13338.51
812.073	13379.86
812.403	13368.11
812.732	13253.99
813.061	13275
813.39	13135.8
813.719	13204.95
814.049	13256.02
814.378	13174.67
814.707	13118.85
815.036	13130.38
815.365	13053.77
815.693	12972.64
816.022	12943.94
816.351	12893.77
816.68	12897.39
817.008	12953.2
817.337	12762.02
817.665	12795.92
817.994	12863.72
818.322	12744.17
818.651	12777.16
818.979	12687.45
819.307	12774
819.636	12721.8
819.964	12635.7
820.292	12667.34
820.62	12632.99
820.948	12639.54
821.276	12597.28
821.604	12527.68
821.932	12607.45
822.259	12616.26
822.587	12575.81
822.915	12557.28
823.243	12622.37
823.57	12576.04
823.898	12592.54
824.225	12558.64
824.553	12498.98
824.88	12603.84
825.207	12572.88
825.535	12497.17
825.862	12668.47
826.189	12629.82
826.516	12612.2
826.843	12548.24
827.17	12702.36
827.497	12638.41
827.824	12642.25
828.151	12632.76
828.478	12590.95
828.805	12713.89
829.131	12543.95
829.458	12540.33
829.785	12502.14
830.111	12541.69
830.438	12592.54
830.764	12500.34
831.09	12509.15
831.417	12529.03
831.743	12554.57
832.069	12612.2
832.395	12515.25
832.722	12533.1
833.048	12548.02
833.374	12528.58
833.7	12436.16
834.026	12442.71
834.351	12453.78
834.677	12486.1
835.003	12489.26
835.329	12526.78
835.654	12463.95
835.98	12320.45
836.306	12443.84
836.631	12367.68
836.956	12436.61
837.282	12352.32
837.607	12323.62
837.932	12318.42
838.258	12325.2
838.583	12281.58
838.908	12160.68
839.233	12185.54
839.558	12214.69
839.883	12098.54
840.208	12099.22
840.533	12120.68
840.858	12140.12
841.182	12142.15
841.507	12182.15
841.832	11988.26
842.156	12105.54
842.481	12020.35
842.805	12002.95
843.13	12039.78
843.454	11919.56
843.778	11923.85
844.103	11881.82
844.427	11896.06
844.751	11932.67
845.075	11831.88
845.399	11797.3
845.723	11725.44
846.047	11728.15
846.371	11709.17
846.695	11669.4
847.019	11568.83
847.343	11573.13
847.666	11455.16
847.99	11378.33
848.313	11376.07
848.637	11395.96
848.96	11241.39
849.284	11271.21
849.607	11248.62
849.931	11244.77
850.254	11128.17
850.577	11054.27
850.9	10975.18
851.223	10989.87
851.546	10950.77
851.869	10823.09
852.192	11031.9
852.515	10856.08
852.838	10718.24
853.161	10827.16
853.483	10712.59
853.806	10695.41
854.129	10677.11
854.451	10683.21
854.774	10616.77
855.096	10586.71
855.419	10572.02
855.741	10484.34
856.063	10427.85
856.385	10401.63
856.708	10422.88
857.03	10344.01
857.352	10325.48
857.674	10383.55
857.996	10264.01
858.318	10230.79
858.64	10283.22
858.961	10186.27
859.283	10148.53
859.605	10137.01
859.926	10188.76
860.248	10139.49
860.57	10101.3
860.891	10047.97
861.212	10066.27
861.534	10072.6
861.855	9986.73
862.176	10020.17
862.498	10026.95
862.819	10029.67
863.14	9894.75
863.461	9958.71
863.782	9893.62
864.103	9894.3
864.424	9855.43
864.745	9833.96
865.065	9820.86
865.386	9791.25
865.707	9769.79
866.027	9763.46
866.348	9770.69
866.668	9802.1
866.989	9727.98
867.309	9696.12
867.63	9673.97
867.95	9692.73
868.27	9575.89
868.59	9639.85
868.91	9684.14
869.23	9602.11
869.55	9592.62
869.87	9634.65
870.19	9593.29
870.51	9528.89
870.83	9583.12
871.15	9534.31
871.469	9480.3
871.789	9537.02
872.109	9464.03
872.428	9416.8
872.748	9473.75
873.067	9457.03
873.386	9464.93
873.706	9443.24
874.025	9403.92
874.344	9347.2
874.663	9342
874.982	9320.98
875.301	9355.79
875.62	9359.63
875.939	9263.13
876.258	9341.32
876.577	9282.34
876.896	9314.43
877.214	9264.71
877.533	9279.4
877.852	9273.98
878.17	9201.44
878.489	9231.72
878.807	9251.38
879.125	9204.15
879.444	9187.43
879.762	9138.39
880.08	9162.12
880.398	9104.72
880.716	9092.06
881.034	9035.12
881.352	9014.78
881.67	8979.3
881.988	9040.54
882.306	9004.16
882.624	8998.73
882.941	8986.98
883.259	8966.19
883.577	8923.25
883.894	8880.09
884.212	8874.67
884.529	8917.15
884.846	8827.66
885.164	8810.26
885.481	8755.8
885.798	8836.48
886.115	8760.09
886.432	8798.96
886.75	8831.51
887.067	8710.38
887.383	8681.45
887.7	8688.91
888.017	8650.27
888.334	8677.84
888.651	8610.27
888.967	8693.2
889.284	8539.76
889.6	8524.17
889.917	8460.67
890.233	8535.92
890.55	8514.68
890.866	8486.43
891.182	8489.14
891.498	8372.99
891.815	8373.66
892.131	8310.61
892.447	8368.24
892.763	8358.98
893.079	8259.77
893.395	8264.51
893.71	8212.76
894.026	8243.5
894.342	8227.23
894.657	8132.99
894.973	8150.85
895.289	8170.28
895.604	8177.96
895.92	8081.69
896.235	8001.47
896.55	8012.77
896.865	8038.98
897.181	8025.88
897.496	7970.51
897.811	7889.16
898.126	7920.12
898.441	7839.21
898.756	7841.93
899.071	7833.57
899.386	7826.56
899.7	7746.11
900.015	7741.59
900.33	7658.88
900.644	7728.48
900.959	7695.72
901.273	7671.54
901.588	7647.13
901.902	7559.67
902.216	7550.63
902.531	7551.31
902.845	7446.68
903.159	7484.87
903.473	7444.2
903.787	7436.51
904.101	7390.19
904.415	7417.53
904.729	7343.86
905.042	7360.81
905.356	7281.49
905.67	7302.73
905.984	7264.31
906.297	7262.73
906.611	7197.65
906.924	7163.98
907.237	7188.16
907.551	7085.11
907.864	7075.85
908.177	7064.77
908.491	7011.89
908.804	7060.25
909.117	6907.71
909.43	6959.46
909.743	6922.4
910.056	6926.24
910.368	6864.1
910.681	6861.16
910.994	6735.51
911.307	6800.82
911.619	6712.69
911.932	6733.48
912.244	6677.44
912.557	6700.49
912.869	6630.21
913.181	6645.12
913.494	6634.27
913.806	6545.46
914.118	6548.63
914.43	6491.23
914.742	6511.57
915.054	6407.61
915.366	6439.25
915.678	6473.37
915.99	6405.13
916.302	6329.42
916.613	6283.78
916.925	6342.98
917.236	6291.01
917.548	6232.03
917.859	6227.73
918.171	6202.87
918.482	6257.79
918.794	6189.99
919.105	6153.61
919.416	6112.48
919.727	6106.38
920.038	6097.34
920.349	5973.5
920.66	6006.95
920.971	5991.13
921.282	5978.92
921.593	5933.95
921.903	5907.74
922.214	5886.95
922.525	5844.69
922.835	5858.25
923.146	5863.45
923.456	5788.2
923.767	5783.22
924.077	5746.39
924.387	5762.43
924.697	5677.24
925.008	5651.48
925.318	5661.87
925.628	5642.21
925.938	5630.23
926.248	5545.49
926.558	5561.08
926.867	5543.23
927.177	5494.87
927.487	5480.18
927.796	5435.89
928.106	5447.64
928.416	5412.61
928.725	5375.55
929.034	5380.97
929.344	5393.18
929.653	5356.12
929.962	5273.63
930.271	5282.22
930.581	5229.79
930.89	5218.94
931.199	5222.56
931.508	5140.08
931.817	5219.4
932.125	5226.4
932.434	5172.17
932.743	5077.48
933.051	5027.54
933.36	5108.44
933.669	5057.37
933.977	5073.86
934.286	4973.98
934.594	4967.88
934.902	4963.36
935.21	4904.15
935.519	4897.37
935.827	4910.48
936.135	4824.38
936.443	4836.13
936.751	4804.72
937.059	4836.36
937.367	4773.08
937.674	4829.35
937.982	4762.91
938.29	4714.78
938.597	4763.82
938.905	4653.76
939.213	4662.58
939.52	4642.24
939.827	4691.05
940.135	4609.7
940.442	4612.18
940.749	4584.16
941.056	4613.99
941.363	4510.26
941.67	4537.61
941.977	4519.08
942.284	4496.7
942.591	4509.36
942.898	4486.08
943.205	4449.02
943.511	4423.49
943.818	4410.15
944.125	4348.69
944.431	4367.22
944.738	4347.33
945.044	4302.81
945.35	4298.74
945.657	4274.11
945.963	4291.74
946.269	4234.56
946.575	4212.64
946.881	4258.07
947.187	4166.09
947.493	4203.15
947.799	4169.25
948.105	4135.36
948.41	4156.83
948.716	4131.52
949.022	4065.53
949.327	4071.18
949.633	4070.95
949.938	4013.33
950.244	4039.77
950.549	4028.92
950.854	3989.15
951.16	3940.11
951.465	3920.9
951.77	3936.49
952.075	3969.49
952.38	3911.86
952.685	3941.92
952.99	3890.17
953.294	3896.95
953.599	3877.74
953.904	3823.05
954.209	3815.59
954.513	3823.05
954.818	3772.66
955.122	3779.66
955.426	3791.86
955.731	3720.45
956.035	3721.36
956.339	3722.49
956.643	3709.15
956.948	3668.93
957.252	3629.38
957.556	3676.16
957.86	3578.54
958.163	3591.87
958.467	3598.87
958.771	3550.29
959.075	3537.18
959.378	3534.92
959.682	3527.46
959.985	3486.11
960.289	3515.49
960.592	3484.53
960.896	3477.52
961.199	3442.27
961.502	3471.87
961.805	3468.26
962.108	3406.56
962.411	3416.28
962.714	3382.16
963.017	3354.36
963.32	3377.64
963.623	3364.98
963.926	3341.48
964.228	3303.97
964.531	3276.4
964.833	3268.71
965.136	3266.45
965.438	3257.64
965.741	3238.88
966.043	3199.34
966.345	3223.74
966.648	3176.96
966.95	3186.46
967.252	3143.52
967.554	3142.62
967.856	3159.79
968.158	3140.81
968.46	3126.12
968.761	3092.9
969.063	3105.55
969.365	3055.61
969.666	3052.45
969.968	3041.6
970.269	3048.15
970.571	3037.08
970.872	3016.97
971.174	3001.15
971.475	2988.95
971.776	2980.36
972.077	3001.83
972.378	2948.27
972.679	2938.1
972.98	2924.32
973.281	2921.6
973.582	2912.79
973.883	2881.61
974.183	2840.25
974.484	2866.92
974.785	2831.21
975.085	2817.88
975.386	2822.17
975.686	2809.52
975.986	2861.04
976.287	2849.06
976.587	2816.52
976.887	2765
977.187	2762.51
977.487	2774.49
977.787	2715.06
978.087	2712.57
978.387	2720.03
978.687	2684.1
978.987	2673.93
979.286	2666.02
979.586	2632.57
979.885	2674.38
980.185	2681.61
980.484	2640.71
980.784	2626.02
981.083	2586.47
981.382	2588.73
981.682	2587.38
981.981	2559.58
982.28	2619.24
982.579	2536.3
982.878	2567.49
983.177	2506.93
983.475	2537.66
983.774	2503.31
984.073	2507.15
984.372	2483.88
984.67	2465.8
984.969	2488.4
985.267	2463.54
985.566	2433.71
985.864	2420.15
986.162	2423.54
986.461	2414.5
986.759	2412.01
987.057	2419.92
987.355	2387.83
987.653	2343.31
987.951	2379.7
988.249	2345.57
988.547	2313.94
988.844	2321.17
989.142	2288.4
989.44	2291.34
989.737	2278.23
990.035	2262.19
990.332	2282.52
990.63	2286.82
990.927	2238.23
991.224	2217.89
991.521	2228.06
991.819	2221.51
992.116	2247.27
992.413	2198.91
992.71	2214.05
993.006	2180.15
993.303	2213.37
993.6	2160.95
993.897	2174.05
994.193	2143.77
994.49	2152.36
994.787	2101.51
995.083	2113.94
995.379	2092.93
995.676	2091.12
995.972	2090.89
996.268	2050.21
996.565	2058.8
996.861	2026.49
997.157	2030.33
997.453	2054.73
997.749	2010.44
998.044	1988.75
998.34	2003.66
998.636	1989.65
998.932	2017.45
999.227	1961.86
999.523	1935.64
999.818	1954.4
1000.114	1952.82
1000.409	1934.74
1000.704	1954.4
1001	1943.1
1001.295	1911.24
1001.59	1916.43
1001.885	1896.77
1002.18	1876.66
1002.475	1879.82
1002.77	1874.63
1003.065	1853.84
1003.359	1835.76
1003.654	1839.6
1003.949	1820.62
1004.243	1808.64
1004.538	1792.14
1004.832	1832.82
1005.127	1761.86
1005.421	1758.02
1005.715	1758.02
1006.009	1735.87
1006.304	1753.95
1006.598	1713.05
1006.892	1725.25
1007.186	1743.33
1007.48	1668.53
1007.773	1702.2
1008.067	1702.2
1008.361	1675.31
1008.655	1677.12
1008.948	1650.68
1009.242	1668.3
1009.535	1651.81
1009.829	1642.77
1010.122	1598.47
1010.415	1593.05
1010.708	1597.8
1011.001	1614.52
1011.295	1589.66
1011.588	1595.31
1011.881	1564.13
1012.173	1519.38
1012.466	1548.76
1012.759	1545.37
1013.052	1531.58
1013.344	1525.71
1013.637	1506.27
1013.93	1510.79
1014.222	1498.82
1014.514	1478.93
1014.807	1455.88
1015.099	1472.38
1015.391	1487.07
1015.683	1475.54
1015.976	1431.47
1016.268	1448.42
1016.56	1457.46
1016.851	1450.91
1017.143	1447.97
1017.435	1415.43
1017.727	1399.16
1018.018	1408.2
1018.31	1397.8
1018.602	1393.28
1018.893	1388.08
1019.185	1377.01
1019.476	1331.59
1019.767	1338.37
1020.058	1329.1
1020.35	1298.6
1020.641	1309.22
1020.932	1316
1021.223	1303.79
1021.514	1312.38
1021.804	1260.63
1022.095	1261.31
1022.386	1271.7
1022.677	1260.4
1022.967	1253.85
1023.258	1256.11
1023.548	1210.46
1023.839	1226.73
1024.129	1237.35
1024.419	1213.17
1024.709	1186.51
1025	1176.11
1025.29	1174.53
1025.58	1196.45
1025.87	1157.81
1026.16	1186.51
1026.449	1167.53
1026.739	1161.65
1027.029	1138.83
1027.319	1129.11
1027.608	1134.76
1027.898	1108.32
1028.187	1128.43
1028.477	1134.08
1028.766	1122.78
1029.055	1088.66
1029.344	1107.64
1029.634	1084.14
1029.923	1078.71
1030.212	1077.58
1030.501	1082.78
1030.79	1054.53
1031.078	1038.26
1031.367	1043.91
1031.656	1044.82
1031.945	1023.35
1032.233	1025.38
1032.522	1015.89
1032.81	987.19
1033.099	981.09
1033.387	1004.14
1033.675	982.22
1033.963	989.68
1034.251	965.72
1034.54	950.81
1034.828	986.51
1035.116	951.49
1035.403	945.16
1035.691	967.53
1035.979	936.8
1036.267	944.71
1036.554	926.85
1036.842	909
1037.129	920.53
1037.417	927.53
1037.704	925.72
1037.992	891.15
1038.279	883.24
1038.566	892.73
1038.853	892.73
1039.14	892.73
