Data from cardboard_FLMS001491_085.txt Node
Date: Tue Feb 07 11:40:16 GMT 2017
User: dcchb
Spectrometer: FLMS00149
Trigger mode: 0
Integration Time (sec): 2.000000E-2
Scans to average: 10
Electric dark correction enabled: true
Nonlinearity correction enabled: false
Boxcar width: 0
XAxis mode: Wavelengths
Number of Pixels in Spectrum: 2048
>>>>>Begin Spectral Data<<<<<
341.393	-7.15
341.776	-7.15
342.16	-7.15
342.543	-72.68
342.927	-78.33
343.31	-59.12
343.693	-70.2
344.077	-47.82
344.46	-48.28
344.843	-65.68
345.226	-29.97
345.61	-31.1
345.993	-43.3
346.376	-14.15
346.759	9.12
347.142	3.7
347.525	62.46
347.908	51.83
348.291	93.87
348.674	90.03
349.057	98.61
349.44	105.39
349.823	147.88
350.206	175.45
350.588	184.94
350.971	196.46
351.354	211.15
351.737	243.24
352.119	256.8
352.502	249.57
352.884	272.85
353.267	279.63
353.65	286.63
354.032	310.36
354.414	310.59
354.797	295.44
355.179	316.23
355.562	328.89
355.944	315.56
356.326	325.05
356.709	344.03
357.091	313.52
357.473	332.73
357.855	329.12
358.238	335.22
358.62	332.05
359.002	313.07
359.384	326.86
359.766	341.54
360.148	340.19
360.53	338.61
360.912	333.86
361.294	330.92
361.676	329.57
362.057	322.56
362.439	323.01
362.821	334.09
363.203	318.27
363.584	332.05
363.966	321.43
364.348	343.58
364.729	324.6
365.111	319.62
365.493	330.47
365.874	317.59
366.256	327.53
366.637	316.23
367.019	309.23
367.4	320.53
367.781	312.84
368.163	310.81
368.544	327.53
368.925	314.43
369.306	301.32
369.688	302
370.069	324.37
370.45	322.56
370.831	305.61
371.212	320.3
371.593	310.13
371.974	305.39
372.355	314.88
372.736	327.53
373.117	310.59
373.498	330.7
373.879	297.25
374.26	302
374.641	316.46
375.021	317.82
375.402	309.23
375.783	322.79
376.163	309.23
376.544	321.43
376.925	320.08
377.305	335.9
377.686	344.26
378.066	326.86
378.447	340.64
378.827	328.89
379.208	340.19
379.588	339.28
379.968	350.36
380.349	343.13
380.729	322.11
381.109	347.19
381.489	341.77
381.87	347.42
382.25	340.64
382.63	346.97
383.01	346.74
383.39	342.67
383.77	331.6
384.15	353.3
384.53	351.94
384.91	345.16
385.29	384.03
385.67	356.91
386.049	367.53
386.429	359.17
386.809	387.42
387.189	347.42
387.568	372.5
387.948	365.05
388.328	382.45
388.707	372.5
389.087	366.85
389.466	358.27
389.846	373.63
390.225	365.95
390.605	408.66
390.984	390.13
391.363	381.54
391.743	388.32
392.122	406.63
392.501	411.37
392.881	411.83
393.26	393.52
393.639	386.29
394.018	378.61
394.397	418.6
394.776	398.49
395.155	395.55
395.534	419.96
395.913	404.59
396.292	438.49
396.671	438.04
397.05	412.05
397.429	408.44
397.808	393.75
398.186	389.23
398.565	444.59
398.944	409.11
399.323	408.66
399.701	420.41
400.08	424.71
400.458	406.85
400.837	447.3
401.215	415.67
401.594	449.11
401.972	435.78
402.351	443.01
402.729	443.46
403.107	463.58
403.486	441.66
403.864	459.06
404.242	454.31
404.62	472.16
404.999	471.71
405.377	436.68
405.755	462.9
406.133	457.25
406.511	477.36
406.889	456.34
407.267	472.61
407.645	503.8
408.023	492.28
408.401	506.74
408.779	483.91
409.156	502.67
409.534	509.22
409.912	504.03
410.29	519.39
410.667	518.49
411.045	551.48
411.422	545.16
411.8	518.26
412.178	550.13
412.555	554.19
412.933	563.23
413.31	555.78
413.687	569.34
414.065	564.14
414.442	558.04
414.819	572.95
415.197	573.18
415.574	588.32
415.951	603.46
416.328	587.64
416.705	595.32
417.082	605.04
417.46	579.28
417.837	615.66
418.214	603.01
418.591	617.24
418.967	611.59
419.344	603.68
419.721	643.91
420.098	637.36
420.475	629.45
420.852	636.68
421.228	659.5
421.605	658.15
421.982	668.54
422.358	660.63
422.735	679.16
423.111	662.89
423.488	677.81
423.864	680.07
424.241	710.12
424.617	688.65
424.994	694.3
425.37	695.21
425.746	705.6
426.123	706.28
426.499	715.09
426.875	690.46
427.251	735.21
427.627	744.47
428.003	763.23
428.379	750.12
428.756	746.96
429.132	756.9
429.507	781.76
429.883	770.23
430.259	774.3
430.635	786.5
431.011	817.69
431.387	829.89
431.763	821.98
432.138	825.15
432.514	847.97
432.89	833.74
433.265	868.76
433.641	852.72
434.016	875.54
434.392	858.82
434.767	893.39
435.143	915.77
435.518	921.87
435.894	898.82
436.269	936.33
436.644	925.03
437.02	922.09
437.395	938.59
437.77	958.93
438.145	969.1
438.52	966.84
438.895	965.03
439.271	981.08
439.646	987.86
440.021	1006.16
440.395	989.44
440.77	989.66
441.145	1002.77
441.52	1031.47
441.895	1015.2
442.27	1009.32
442.645	1038.93
443.019	1049.77
443.394	1078.25
443.769	1081.64
444.143	1041.19
444.518	1078.93
444.892	1065.14
445.267	1083.45
445.641	1096.78
446.016	1078.7
446.39	1098.59
446.764	1132.26
447.139	1105.14
447.513	1125.03
447.887	1131.81
448.262	1127.51
448.636	1128.19
449.01	1115.31
449.384	1165.7
449.758	1148.76
450.132	1195.08
450.506	1183.33
450.88	1219.49
451.254	1185.14
451.628	1219.04
452.002	1224.01
452.376	1249.54
452.75	1229.43
453.123	1256.55
453.497	1247.51
453.871	1262.42
454.244	1316.89
454.618	1318.02
454.992	1322.08
455.365	1294.06
455.739	1344.23
456.112	1372.93
456.486	1368.64
456.859	1387.39
457.232	1429.2
457.606	1398.01
457.979	1421.97
458.352	1460.39
458.725	1468.75
459.099	1462.65
459.472	1523.43
459.845	1502.19
460.218	1517.56
460.591	1535.86
460.964	1536.09
461.337	1556.88
461.71	1613.6
462.083	1639.14
462.456	1617.67
462.829	1606.6
463.201	1652.24
463.574	1665.13
463.947	1731.79
464.32	1706.71
464.692	1737.21
465.065	1731.11
465.438	1766.37
465.81	1762.52
466.183	1827.83
466.555	1835.74
466.928	1896.53
467.3	1868.74
467.672	1907.38
468.045	1936.98
468.417	1951.67
468.789	1936.31
469.161	1970.43
469.534	2006.59
469.906	2065.79
470.278	2069.86
470.65	2088.17
471.022	2115.28
471.394	2149.41
471.766	2167.49
472.138	2217.2
472.51	2246.81
472.882	2274.83
473.253	2319.12
473.625	2365.45
473.997	2382.62
474.369	2391.66
474.74	2426.24
475.112	2478.66
475.484	2517.98
475.855	2551.43
476.227	2562.28
476.598	2629.17
476.97	2638.43
477.341	2746.91
477.713	2756.17
478.084	2762.05
478.455	2867.58
478.827	2846.56
479.198	2967.24
479.569	2963.85
479.94	3024.64
480.311	3051.3
480.682	3131.3
481.053	3209.94
481.424	3232.54
481.795	3310.28
482.166	3331.52
482.537	3366.78
482.908	3440.9
483.279	3466.21
483.65	3543.04
484.021	3602.02
484.391	3670.27
484.762	3693.32
485.133	3770.83
485.503	3825.07
485.874	3888.12
486.244	3944.84
486.615	3980.77
486.985	4067.1
487.356	4110.94
487.726	4118.62
488.097	4288.11
488.467	4307.99
488.837	4366.98
489.207	4414.21
489.578	4467.99
489.948	4511.38
490.318	4604.94
490.688	4627.53
491.058	4676.8
491.428	4784.37
491.798	4811.48
492.168	4920.18
492.538	4933.29
492.908	4983.46
493.278	5049.44
493.648	5106.84
494.017	5227.29
494.387	5230.91
494.757	5261.87
495.126	5338.93
495.496	5381.19
495.866	5406.27
496.235	5481.3
496.605	5547.74
496.974	5586.83
497.344	5650.78
497.713	5688.75
498.082	5782.98
498.452	5841.97
498.821	5835.64
499.19	5856.43
499.559	5971.68
499.928	6006.03
500.298	6114.73
500.667	6069.98
501.036	6172.58
501.405	6228.4
501.774	6276.76
502.143	6359.24
502.512	6360.6
502.88	6459.35
503.249	6507.26
503.618	6508.84
503.987	6573.47
504.356	6675.39
504.724	6679.68
505.093	6754.71
505.462	6815.05
505.83	6836.29
506.199	6915.38
506.567	7025.66
506.936	7046.91
507.304	7133.91
507.672	7182.49
508.041	7248.48
508.409	7324.19
508.777	7356.73
509.145	7457.97
509.514	7476.5
509.882	7603.5
510.25	7606.44
510.618	7660.9
510.986	7747
511.354	7842.59
511.722	7914.68
512.09	7989.93
512.458	8014.56
512.826	8104.05
513.193	8172.3
513.561	8163.26
513.929	8256.14
514.297	8328.45
514.664	8427.66
515.032	8493.19
515.4	8615.9
515.767	8638.73
516.135	8674.88
516.502	8694.77
516.869	8871.72
517.237	8943.58
517.604	8956.01
517.972	9123.23
518.339	9195.32
518.706	9210.46
519.073	9274.87
519.44	9386.05
519.808	9502.21
520.175	9527.52
520.542	9701.98
520.909	9735.2
521.276	9775.19
521.643	9884.8
522.009	9987.17
522.376	10076.2
522.743	10192.13
523.11	10308.06
523.477	10418.57
523.843	10534.72
524.21	10634.61
524.577	10735.17
524.943	10788.95
525.31	10887.03
525.676	10991.21
526.043	11104.43
526.409	11117.76
526.776	11379.9
527.142	11328.15
527.508	11384.42
527.874	11553.23
528.241	11670.06
528.607	11689.95
528.973	11936.04
529.339	11908.7
529.705	12056.26
530.071	12220.33
530.437	12291.96
530.803	12290.61
531.169	12456.03
531.535	12413.32
531.901	12539.64
532.267	12677.27
532.632	12807.43
532.998	12800.65
533.364	12937.6
533.73	12981.44
534.095	13185.05
534.461	13224.14
534.826	13304.37
535.192	13390.24
535.557	13444.48
535.923	13524.25
536.288	13650.8
536.653	13663.23
537.019	13680.4
537.384	13841.3
537.749	13999.26
538.114	13967.85
538.479	13941.64
538.845	14071.58
539.21	14188.64
539.575	14258.69
539.94	14434.73
540.305	14507.27
540.67	14512.92
541.034	14555.63
541.399	14660.26
541.764	14721.73
542.129	14846.25
542.494	14828.85
542.858	15041.95
543.223	15034.94
543.587	15166.69
543.952	15260.7
544.316	15286.01
544.681	15295.73
545.045	15409.4
545.41	15528.72
545.774	15598.77
546.138	15655.94
546.503	15738.2
546.867	15794.25
547.231	15886.67
547.595	16017.74
547.959	16109.04
548.324	16109.72
548.688	16144.74
549.052	16267.68
549.416	16408.24
549.779	16404.4
550.143	16543.6
550.507	16736.59
550.871	16766.65
551.235	16739.98
551.599	16975.46
551.962	16979.3
552.326	17009.81
552.689	17182.91
553.053	17194.43
553.417	17264.49
553.78	17501.55
554.143	17431.49
554.507	17562.56
554.87	17738.83
555.234	17843.23
555.597	17842.78
555.96	18009.55
556.323	18082.77
556.686	18020.18
557.05	18211.81
557.413	18344.01
557.776	18367.51
558.139	18455.19
558.502	18576.77
558.865	18722.76
559.228	18883.2
559.59	18961.39
559.953	19059.47
560.316	19323.19
560.679	19330.42
561.041	19489.97
561.404	19582.39
561.767	19659
562.129	19668.27
562.492	19884.76
562.854	19942.39
563.217	20074.36
563.579	20080.69
563.941	20325.2
564.304	20392.09
564.666	20465.99
565.028	20684.74
565.39	20757.73
565.753	20816.26
566.115	21009.25
566.477	20990.95
566.839	21127.44
567.201	21347.55
567.563	21343.93
567.925	21564.04
568.287	21606.3
568.648	21766.29
569.01	21866.18
569.372	21960.64
569.734	21967.64
570.095	22070.46
570.457	22278.14
570.819	22388.87
571.18	22440.62
571.542	22455.99
571.903	22677.68
572.265	22715.65
572.626	22753.84
572.987	22868.18
573.349	22942.08
573.71	23023.89
574.071	23238.57
574.432	23291.9
574.794	23546.13
575.155	23483.31
575.516	23463.2
575.877	23663.42
576.238	23613.02
576.599	23851.66
576.96	23800.59
577.32	23889.4
577.681	24003.52
578.042	24037.19
578.403	24146.79
578.763	24146.57
579.124	24301.14
579.485	24421.14
579.845	24401.03
580.206	24428.82
580.566	24608.93
580.927	24653.45
581.287	24703.39
581.648	24750.62
582.008	24802.14
582.368	24841.69
582.728	24868.58
583.089	24914.23
583.449	24913.1
583.809	24912.88
584.169	25086.66
584.529	25065.19
584.889	25328.68
585.249	25124.85
585.609	25104.74
585.969	25360.77
586.329	25307.44
586.688	25303.83
587.048	25382.69
587.408	25435.12
587.768	25416.59
588.127	25476.93
588.487	25477.38
588.846	25552.86
589.206	25471.51
589.565	25585.85
589.925	25803.47
590.284	25579.3
590.643	25777.26
591.003	25795.79
591.362	25949.01
591.721	25812.06
592.08	25905.84
592.44	26072.62
592.799	25992.4
593.158	25992.62
593.517	26049.12
593.876	26112.62
594.235	26065.61
594.593	26120.98
594.952	26243.46
595.311	26322.1
595.67	26336.57
596.029	26387.19
596.387	26370.01
596.746	26650.68
597.104	26419.96
597.463	26495.43
597.822	26675.99
598.18	26522.33
598.538	26455.43
598.897	26699.72
599.255	26536.11
599.613	26969.09
599.972	26717.57
600.33	26868.98
600.688	26732.26
601.046	26896.33
601.404	27019.71
601.762	27003.89
602.12	27088.64
602.478	27135.87
602.836	27164.57
603.194	27062.88
603.552	27260.61
603.91	27107.85
604.268	27289.99
604.625	27242.08
604.983	27274.85
605.341	27244.57
605.698	27532.24
606.056	27590.77
606.413	27608.4
606.771	27554.16
607.128	27687.49
607.485	27580.83
607.843	27543.32
608.2	27772.46
608.557	27954.83
608.914	27834.38
609.272	27967.26
609.629	28044.32
609.986	28236.18
610.343	27902.4
610.7	28214.03
611.057	28268.95
611.414	28261.26
611.771	28311.2
612.127	28361.82
612.484	28396.4
612.841	28441.82
613.198	28269.62
613.554	28375.61
613.911	28589.39
614.267	28546.45
614.624	28644.76
614.98	28703.28
615.337	28843.85
615.693	28689.73
616.05	28770.18
616.406	28910.96
616.762	28873.68
617.118	28869.16
617.475	28932.88
617.831	29021.92
618.187	29112.99
618.543	29141.92
618.899	29365.19
619.255	29112.77
619.611	29237.96
619.967	29346.66
620.323	29445.41
620.678	29426.88
621.034	29367.67
621.39	29282.7
621.746	29359.31
622.101	29638.63
622.457	29508.91
622.812	29579.19
623.168	29582.36
623.523	29635.46
623.879	29745.07
624.234	29446.54
624.589	29608.12
624.945	29702.13
625.3	29672.07
625.655	29652.86
626.01	29778.74
626.365	29775.57
626.72	29622.36
627.075	29701
627.43	29693.77
627.785	29713.88
628.14	29743.26
628.495	29778.51
628.85	29755.69
629.205	29677.72
629.559	29813.99
629.914	29640.89
630.269	29788.68
630.623	29655.35
630.978	29674.78
631.332	29780.77
631.687	29885.63
632.041	29795.46
632.396	29871.39
632.75	29675.01
633.104	29812.41
633.459	29634.33
633.813	29731.28
634.167	29717.5
634.521	29751.17
634.875	29764.5
635.229	29757.72
635.583	29556.82
635.937	29594.33
636.291	29626.42
636.645	29612.87
636.999	29571.06
637.352	29597.5
637.706	29580.55
638.06	29611.06
638.413	29509.14
638.767	29515.01
639.121	29579.42
639.474	29371.97
639.828	29417.84
640.181	29317.73
640.534	29404.28
640.888	29346.21
641.241	29319.09
641.594	29329.94
641.947	29351.4
642.301	29398.18
642.654	29409.93
643.007	29415.58
643.36	29403.83
643.713	29300.11
644.066	29393.21
644.419	29213.1
644.771	29057.85
645.124	28713.68
645.477	28702.61
645.83	28548.94
646.182	28506.91
646.535	28454.25
646.888	28436.63
647.24	28374.93
647.593	28473.23
647.945	28505.78
648.298	28438.21
648.65	28344.2
649.002	28268.49
649.355	28459.45
649.707	28334.71
650.059	28378.32
650.411	28773.34
650.763	28903.05
651.115	29129.26
651.467	29108.7
651.819	29076.38
652.171	29074.35
652.523	29034.58
652.875	28923.17
653.227	28865.77
653.578	29079.77
653.93	28942.15
654.282	28999.55
654.633	28819.67
654.985	28982.6
655.337	28938.76
655.688	29080.22
656.039	29048.13
656.391	28772.66
656.742	28823.06
657.094	28917.06
657.445	29035.48
657.796	28902.15
658.147	28809.27
658.498	28813.34
658.849	29042.94
659.2	28837.97
659.551	28774.02
659.902	28997.29
660.253	28958.19
660.604	28915.71
660.955	28902.83
661.306	28861.47
661.656	28852.89
662.007	28917.97
662.358	28924.97
662.708	28933.56
663.059	28901.47
663.409	28736.96
663.76	29095.14
664.11	29008.59
664.461	29071.18
664.811	29066.67
665.161	28976.95
665.511	28884.97
665.862	29064.18
666.212	29140.11
666.562	29099.88
666.912	28948.48
667.262	28986.22
667.612	29007.01
667.962	29016.04
668.312	28962.04
668.662	29153.89
669.011	29097.4
669.361	28912.09
669.711	28889.27
670.06	29048.81
670.41	28931.3
670.76	28850.4
671.109	29023.28
671.459	28829.16
671.808	28874.13
672.157	28939.89
672.507	28822.6
672.856	28761.59
673.205	28828.93
673.554	29039.77
673.904	28874.13
674.253	28929.49
674.602	28969.49
674.951	28522.72
675.3	28393.91
675.649	28820.57
675.998	28901.92
676.346	28722.27
676.695	28985.76
677.044	28659.67
677.393	28728.37
677.741	28816.05
678.09	28711.19
678.438	28725.43
678.787	28816.95
679.135	28720.01
679.484	28581.48
679.832	28742.38
680.181	28554.81
680.529	28588.94
680.877	28517.75
681.225	28476.17
681.573	28651.76
681.922	28576.51
682.27	28426.46
682.618	28432.78
682.966	28374.71
683.314	28303.97
683.661	28284.31
684.009	28194.6
684.357	28209.51
684.705	28163.19
685.053	28148.05
685.4	28184.65
685.748	27970.2
686.095	28090.65
686.443	27848.62
686.79	27913.48
687.138	27974.94
687.485	28054.71
687.832	27932.91
688.18	27969.07
688.527	27798
688.874	27745.57
689.221	27824.21
689.568	27698.57
689.915	27640.26
690.262	27580.38
690.609	27562.3
690.956	27497.89
691.303	27485.46
691.65	27358.46
691.997	27319.37
692.344	27094.29
692.69	27113.72
693.037	27190.1
693.383	27043.22
693.73	27181.52
694.077	27020.84
694.423	27033.95
694.769	26904.46
695.116	26774.75
695.462	26750.34
695.808	26715.99
696.155	26686.16
696.501	26421.54
696.847	26588.76
697.193	26460.63
697.539	26460.63
697.885	26250.24
698.231	26204.14
698.577	26253.63
698.923	26196.23
699.269	26035.78
699.614	25940.42
699.96	25892.74
700.306	25977.25
700.651	25782.68
700.997	25749.24
701.342	25697.71
701.688	25742.23
702.033	25622.91
702.379	25537.27
702.724	25450.71
703.069	25457.04
703.415	25252.08
703.76	25341.57
704.105	25426.31
704.45	25213.89
704.795	25066.32
705.14	25081.01
705.485	25091.63
705.83	24891.63
706.175	24921.24
706.52	24901.12
706.865	24867.68
707.209	24687.57
707.554	24675.59
707.899	24683.73
708.243	24657.29
708.588	24641.7
708.932	24425.21
709.277	24590.17
709.621	24525.09
709.966	24323.74
710.31	24345.43
710.654	24139.34
710.998	24167.81
711.342	24126.91
711.687	24293.46
712.031	23975.95
712.375	23941.38
712.719	24010.07
713.063	24076.29
713.407	24130.98
713.75	24026.12
714.094	23981.83
714.438	23881.26
714.782	23830.64
715.125	23808.5
715.469	23759.69
715.812	23692.8
716.156	23582.97
716.499	23611.89
716.843	23550.65
717.186	23482.63
717.53	23622.06
717.873	23627.49
718.216	23558.79
718.559	23415.74
718.902	23340.49
719.246	23431.56
719.589	23269.53
719.932	23236.54
720.275	23230.89
720.617	23200.6
720.96	23094.17
721.303	23144.79
721.646	23180.72
721.989	23043.09
722.331	23187.27
722.674	23138.91
723.016	23064.11
723.359	23078.12
723.701	23099.82
724.044	22875.64
724.386	22911.12
724.729	22922.65
725.071	22877.68
725.413	22904.57
725.755	22836.55
726.097	22821.63
726.439	22667.74
726.782	22774.18
727.124	22839.26
727.465	22679.04
727.807	22635.2
728.149	22616.89
728.491	22602.2
728.833	22630
729.175	22561.98
729.516	22493.28
729.858	22520.85
730.199	22554.97
730.541	22395.43
730.882	22583.9
731.224	22481.75
731.565	22370.8
731.906	22362.43
732.248	22418.7
732.589	22333.06
732.93	22273.4
733.271	22335.32
733.612	22382.1
733.953	22371.7
734.294	22340.06
734.635	22220.74
734.976	22362.66
735.317	22172.16
735.658	22270.46
735.999	22095.1
736.339	22177.13
736.68	22145.49
737.021	22106.85
737.361	22168.54
737.702	22163.12
738.042	22150.91
738.383	22184.81
738.723	22133.51
739.063	21972.84
739.404	22086.96
739.744	22031.6
740.084	22027.98
740.424	22009.22
740.764	21924.03
741.104	22074.08
741.444	22013.52
741.784	21960.64
742.124	21897.14
742.464	21933.29
742.804	21938.94
743.143	21853.3
743.483	21899.85
743.823	21823.92
744.162	21834.54
744.502	21830.7
744.841	21724.03
745.181	21882.67
745.52	21811.94
745.86	21825.73
746.199	21772.17
746.538	21792.73
746.877	21699.85
747.216	21694.88
747.556	21707.76
747.895	21744.82
748.234	21574.88
748.573	21662.11
748.911	21711.15
749.25	21625.05
749.589	21619.86
749.928	21620.31
750.267	21662.11
750.605	21577.14
750.944	21529.69
751.283	21629.35
751.621	21604.04
751.96	21503.93
752.298	21503.93
752.636	21530.82
752.975	21426.41
753.313	21298.73
753.651	21505.06
753.989	21347.77
754.327	21343.25
754.666	21241.79
755.004	21343.03
755.342	21466.64
755.679	21375.79
756.017	21212.41
756.355	21363.59
756.693	21232.29
757.031	21200.88
757.368	21175.8
757.706	21108.91
758.044	21153.88
758.381	21116.37
758.719	21026.88
759.056	21065.29
759.394	20959.76
759.731	20871.85
760.068	20900.55
760.405	20784.62
760.743	20813.77
761.08	20903.72
761.417	20781.23
761.754	20712.31
762.091	20674.34
762.428	20642.71
762.765	20448.13
763.102	20542.37
763.438	20460.79
763.775	20374.92
764.112	20428.47
764.449	20535.59
764.785	20342.6
765.122	20229.84
765.458	20228.03
765.795	20218.31
766.131	20221.02
766.467	20157.97
766.804	19978.32
767.14	19932.44
767.476	20000.46
767.812	19932.67
768.148	19934.02
768.485	19809.96
768.821	19774.48
769.157	19768.6
769.492	19638.44
769.828	19595.05
770.164	19481.61
770.5	19459.23
770.836	19435.51
771.171	19482.74
771.507	19230.99
771.842	19215.4
772.178	19150.32
772.513	19131.33
772.849	19108.28
773.184	19014.95
773.519	19040.49
773.855	18974.73
774.19	18880.27
774.525	18775.18
774.86	18805.01
775.195	18758.69
775.53	18734.96
775.865	18649.09
776.2	18478.47
776.535	18365.03
776.87	18339.49
777.205	18329.77
777.539	18306.72
777.874	18203.9
778.209	18132.72
778.543	18176.78
778.878	18044.58
779.212	18108.31
779.547	17986.96
779.881	17998.71
780.215	17865.15
780.55	17866.73
780.884	17621.54
781.218	17731.6
781.552	17695.21
781.886	17566.85
782.22	17557.59
782.554	17541.54
782.888	17263.13
783.222	17220.65
783.556	17258.61
783.889	17165.28
784.223	17068.79
784.557	17019.07
784.89	17120.76
785.224	16882.13
785.557	16936.81
785.891	16904.5
786.224	16800.55
786.558	16821.56
786.891	16624.96
787.224	16603.94
787.557	16550.84
787.891	16541.8
788.224	16560.1
788.557	16494.11
788.89	16456.15
789.223	16413.89
789.556	16229.94
789.888	16295.48
790.221	16126.44
790.554	15978.87
790.887	16123.28
791.219	15951.76
791.552	15958.31
791.884	15929.84
792.217	15794.92
792.549	15827.24
792.882	15683.06
793.214	15653.91
793.546	15768.26
793.879	15596.28
794.211	15462.73
794.543	15546.12
794.875	15489.17
795.207	15496.4
795.539	15377.08
795.871	15419.79
796.203	15366.01
796.535	15178.89
796.867	15203.3
797.198	15189.29
797.53	15219.8
797.862	15099.35
798.193	15081.5
798.525	14987.26
798.856	15040.14
799.188	14882.63
799.519	14797.21
799.85	14750.66
800.182	14717.66
800.513	14700.04
800.844	14639.25
801.175	14648.06
801.506	14645.35
801.837	14527.16
802.168	14556.76
802.499	14522.19
802.83	14537.33
803.161	14458.46
803.491	14453.04
803.822	14396.09
804.153	14319.03
804.483	14170.79
804.814	14219.37
805.145	14223.21
805.475	14095.53
805.805	14104.12
806.136	14066.38
806.466	14130.11
806.796	13933.73
807.126	13956.33
807.457	13874.75
807.787	13914.07
808.117	13886.73
808.447	13760.4
808.777	13842.21
809.107	13772.6
809.436	13704.36
809.766	13681.08
810.096	13709.55
810.426	13673.4
810.755	13662.78
811.085	13620.52
811.414	13574.42
811.744	13419.39
812.073	13441.77
812.403	13470.24
812.732	13380.07
813.061	13376.23
813.39	13270.92
813.719	13247.65
814.049	13290.81
814.378	13275.22
814.707	13159.74
815.036	13203.35
815.365	13172.39
815.693	13056.69
816.022	13076.58
816.351	12958.84
816.68	13012.4
817.008	12939.41
817.337	12903.7
817.665	12894.66
817.994	12948.44
818.322	12857.83
818.651	12834.32
818.979	12730.6
819.307	12840.88
819.636	12765.85
819.964	12715.91
820.292	12782.8
820.62	12769.69
820.948	12733.99
821.276	12712.29
821.604	12672.29
821.932	12712.07
822.259	12739.18
822.587	12590.04
822.915	12656.25
823.243	12716.59
823.57	12712.52
823.898	12642.24
824.225	12647.44
824.553	12602.92
824.88	12656.02
825.207	12697.38
825.535	12662.35
825.862	12767.21
826.189	12590.71
826.516	12716.13
826.843	12704.84
827.17	12781.67
827.497	12674.55
827.824	12594.56
828.151	12671.62
828.478	12609.24
828.805	12697.15
829.131	12608.57
829.458	12660.09
829.785	12522.02
830.111	12665.06
830.438	12606.53
830.764	12700.09
831.09	12695.57
831.417	12625.52
831.743	12609.92
832.069	12609.92
832.395	12533.54
832.722	12659.64
833.048	12575.35
833.374	12611.05
833.7	12556.82
834.026	12545.97
834.351	12641.56
834.677	12631.39
835.003	12583.93
835.329	12529.47
835.654	12547.1
835.98	12423.49
836.306	12522.24
836.631	12492.86
836.956	12496.48
837.282	12534.22
837.607	12412.87
837.932	12432.98
838.258	12395.24
838.583	12420.78
838.908	12289.93
839.233	12357.27
839.558	12299.42
839.883	12230.95
840.208	12153.44
840.533	12272.3
840.858	12242.93
841.182	12245.86
841.507	12103.27
841.832	12164.51
842.156	12201.12
842.481	12197.5
842.805	12096.49
843.13	12085.87
843.454	12075.02
843.778	12073.67
844.103	12049.03
844.427	11966.32
844.751	12000.45
845.075	11940.56
845.399	11927.91
845.723	11844.75
846.047	11909.83
846.371	11681.36
846.695	11721.36
847.019	11653.11
847.343	11616.73
847.666	11551.65
847.99	11482.27
848.313	11493.12
848.637	11381.25
848.96	11334.02
849.284	11444.53
849.607	11252.22
849.931	11308.26
850.254	11254.25
850.577	11121.83
850.9	11061.94
851.223	11020.81
851.546	11061.94
851.869	10964.99
852.192	11047.25
852.515	10886.35
852.838	10816.98
853.161	10845.68
853.483	10857.65
853.806	10756.19
854.129	10837.99
854.451	10699.24
854.774	10744.66
855.096	10660.82
855.419	10605.91
855.741	10593.48
856.063	10513.03
856.385	10486.59
856.708	10466.25
857.03	10431.22
857.352	10406.36
857.674	10412.47
857.996	10372.02
858.318	10276.88
858.64	10265.58
858.961	10228.97
859.283	10254.73
859.605	10209.99
859.926	10251.57
860.248	10134.28
860.57	10127.28
860.891	10140.38
861.212	10134.73
861.534	10031.01
861.855	10037.79
862.176	10078.69
862.498	10083.89
862.819	10067.62
863.14	9964.34
863.461	9919.6
863.782	9969.99
864.103	9887.96
864.424	9901.75
864.745	9961.18
865.065	9907.85
865.386	9823.1
865.707	9908.3
866.027	9839.37
866.348	9841.86
866.668	9853.16
866.989	9761.86
867.309	9711.92
867.63	9738.36
867.95	9690
868.27	9647.97
868.59	9758.7
868.91	9661.07
869.23	9668.31
869.55	9638.02
869.87	9726.16
870.19	9653.39
870.51	9651.36
870.83	9680.06
871.15	9569.78
871.469	9533.85
871.789	9601.19
872.109	9540.85
872.428	9478.48
872.748	9556.67
873.067	9595.31
873.386	9561.42
873.706	9436.45
874.025	9412.72
874.344	9458.82
874.663	9468.54
874.982	9407.07
875.301	9393.28
875.62	9335.66
875.939	9403.45
876.258	9346.96
876.577	9350.57
876.896	9358.71
877.214	9367.3
877.533	9321.87
877.852	9278.71
878.17	9235.77
878.489	9310.35
878.807	9321.42
879.125	9268.32
879.444	9278.94
879.762	9177.24
880.08	9191.71
880.398	9133.86
880.716	9101.09
881.034	9116.46
881.352	9145.38
881.67	9072.16
881.988	9048.43
882.306	9057.7
882.624	9061.32
882.941	9087.08
883.259	8946.74
883.577	8958.72
883.894	8950.58
884.212	8946.52
884.529	8955.33
884.846	8829.46
885.164	8862
885.481	8866.29
885.798	8979.74
886.115	8770.7
886.432	8790.81
886.75	8813.64
887.067	8795.79
887.383	8772.51
887.7	8779.06
888.017	8698.16
888.334	8705.39
888.651	8673.53
888.967	8694.09
889.284	8629.24
889.6	8660.42
889.917	8534.1
890.233	8621.33
890.55	8569.58
890.866	8545.17
891.182	8493.87
891.498	8456.81
891.815	8483.7
892.131	8447.09
892.447	8402.8
892.763	8406.19
893.079	8279.87
893.395	8316.48
893.71	8308.57
894.026	8309.47
894.342	8311.28
894.657	8216.37
894.973	8240.09
895.289	8222.69
895.604	8151.73
895.92	8140.66
896.235	8029.7
896.55	8095.01
896.865	8019.08
897.181	8038.74
897.496	7997.84
897.811	8008.01
898.126	7961.23
898.441	7904.51
898.756	7937.73
899.071	7875.58
899.386	7947.9
899.7	7812.76
900.015	7736.6
900.33	7683.72
900.644	7711.29
900.959	7752.2
901.273	7682.14
901.588	7671.52
901.902	7672.65
902.216	7594.24
902.531	7543.62
902.845	7586.1
903.159	7493.45
903.473	7448.93
903.787	7474.01
904.101	7390.85
904.415	7360.57
904.729	7395.6
905.042	7340.46
905.356	7294.36
905.67	7283.51
905.984	7331.87
906.297	7314.47
906.611	7156.05
906.924	7224.75
907.237	7204.42
907.551	7123.51
907.864	7161.93
908.177	7084.19
908.491	7154.02
908.804	7117.86
909.117	7038.54
909.43	6969.17
909.743	6917.87
910.056	6945.21
910.368	6928.72
910.681	6862.96
910.994	6829.06
911.307	6850.98
911.619	6807.14
911.932	6797.65
912.244	6741.15
912.557	6740.47
912.869	6664.54
913.181	6702.28
913.494	6663.19
913.806	6638.33
914.118	6616.86
914.43	6559.23
914.742	6574.6
915.054	6513.13
915.366	6475.85
915.678	6447.37
915.99	6401.5
916.302	6352.23
916.613	6355.62
916.925	6346.13
917.236	6329.41
917.548	6308.17
917.859	6344.55
918.171	6269.98
918.482	6210.99
918.794	6196.08
919.105	6173.71
919.416	6175.74
919.727	6175.74
920.038	6068.4
920.349	6072.47
920.66	6048.97
920.971	6028.63
921.282	6002.86
921.593	5946.37
921.903	5955.63
922.214	5919.48
922.525	5908.63
922.835	5889.42
923.146	5857.11
923.456	5814.4
923.767	5751.35
924.077	5853.94
924.387	5756.54
924.697	5735.98
925.008	5777.56
925.318	5691.01
925.628	5689.43
925.938	5665.7
926.248	5573.05
926.558	5623.67
926.867	5591.12
927.177	5578.7
927.487	5531.24
927.796	5506.61
928.106	5538.24
928.416	5476.78
928.725	5477.45
929.034	5404.69
929.344	5417.8
929.653	5389.77
929.962	5319.04
930.271	5328.31
930.581	5256.44
930.89	5272.49
931.199	5174.41
931.508	5220.51
931.817	5207.41
932.125	5239.5
932.434	5155.43
932.743	5191.81
933.051	5106.62
933.36	5110.46
933.669	5031.59
933.977	5000.18
934.286	5034.08
934.594	4985.94
934.902	4976.23
935.21	4969.9
935.519	4964.47
935.827	4952.72
936.135	4874.98
936.443	4872.95
936.751	4832.5
937.059	4908.66
937.367	4902.78
937.674	4817.81
937.982	4789.11
938.29	4744.37
938.597	4715.67
938.905	4719.73
939.213	4685.39
939.52	4662.11
939.827	4653.3
940.135	4668.44
940.442	4644.93
940.749	4589.34
941.056	4639.28
941.363	4559.74
941.67	4553.86
941.977	4524.03
942.284	4516.12
942.591	4524.03
942.898	4497.82
943.205	4451.49
943.511	4444.94
943.818	4415.34
944.125	4414.66
944.431	4394.09
944.738	4375.56
945.044	4337.6
945.35	4323.36
945.657	4316.81
945.963	4286.98
946.269	4289.24
946.575	4256.92
946.881	4253.08
947.187	4213.99
947.493	4183.93
947.799	4205.62
948.105	4159.52
948.41	4133.31
948.716	4150.26
949.022	4126.08
949.327	4108.23
949.633	4085.63
949.938	4074.78
950.244	4081.56
950.549	4049.24
950.854	4025.29
951.16	3990.04
951.465	3983.48
951.77	3950.72
952.075	3954.78
952.38	3889.93
952.685	3915.69
952.99	3896.48
953.294	3863.49
953.599	3869.14
953.904	3846.31
954.209	3799.31
954.513	3832.98
954.818	3766.77
955.122	3794.11
955.426	3775.8
955.731	3721.34
956.035	3730.61
956.339	3714.11
956.643	3730.61
956.948	3697.84
957.252	3663.27
957.556	3638.41
957.86	3651.97
958.163	3611.74
958.467	3622.36
958.771	3551.4
959.075	3616.49
959.378	3585.08
959.682	3558.64
959.985	3544.4
960.289	3507.11
960.592	3530.16
960.896	3530.16
961.199	3490.84
961.502	3470.05
961.805	3441.35
962.108	3432.31
962.411	3453.1
962.714	3402.48
963.017	3377.62
963.32	3416.94
963.623	3411.97
963.926	3334.23
964.228	3357.96
964.531	3299.88
964.833	3321.35
965.136	3279.55
965.438	3267.8
965.741	3277.29
966.043	3200.45
966.345	3215.59
966.648	3232.54
966.95	3224.41
967.252	3209.27
967.554	3211.75
967.856	3162.71
968.158	3141.92
968.46	3161.13
968.761	3145.31
969.063	3101.02
969.365	3131.08
969.666	3116.16
969.968	3061.02
970.269	3038.42
970.571	3069.16
970.872	3044.52
971.174	2995.03
971.475	2992.55
971.776	2985.32
972.077	2960.23
972.378	2972.21
972.679	2980.57
972.98	2927.47
973.281	2921.82
973.582	2901.03
973.883	2907.8
974.183	2894.7
974.484	2862.38
974.785	2858.09
975.085	2819.22
975.386	2838.88
975.686	2811.76
975.986	2852.89
976.287	2832.1
976.587	2765.66
976.887	2804.76
977.187	2784.87
977.487	2795.04
977.787	2746.91
978.087	2751.65
978.387	2755.94
978.687	2714.82
978.987	2695.38
979.286	2690.18
979.586	2673.01
979.885	2698.32
980.185	2689.51
980.484	2671.65
980.784	2631.65
981.083	2649.51
981.382	2629.85
981.682	2583.29
981.981	2581.03
982.28	2606.12
982.579	2547.36
982.878	2534.03
983.177	2539.45
983.475	2552.33
983.774	2519.34
984.073	2554.37
984.372	2516.4
984.67	2495.84
984.969	2502.62
985.267	2401.6
985.566	2460.13
985.864	2481.38
986.162	2442.96
986.461	2409.06
986.759	2452.45
987.057	2393.47
987.355	2362.06
987.653	2396.86
987.951	2396.41
988.249	2354.15
988.547	2349.4
988.844	2315.96
989.142	2334.94
989.44	2344.66
989.737	2308.27
990.035	2277.76
990.332	2302.85
990.63	2285.45
990.927	2280.7
991.224	2277.31
991.521	2263.53
991.819	2245.22
992.116	2206.81
992.413	2206.35
992.71	2180.37
993.006	2193.7
993.303	2170.65
993.6	2181.27
993.897	2195.96
994.193	2149.41
994.49	2123.87
994.787	2106.7
995.083	2128.62
995.379	2114.15
995.676	2109.41
995.972	2080.48
996.268	2092.46
996.565	2078.22
996.861	2053.82
997.157	2049.3
997.453	2023.53
997.749	2047.94
998.044	2004.1
998.34	2044.78
998.636	2016.98
998.932	1990.99
999.227	1984.21
999.523	1960.03
999.818	1977.21
1000.114	1944.67
1000.409	1975.85
1000.704	1947.83
1001	1906.7
1001.295	1936.76
1001.59	1901.28
1001.885	1925.01
1002.18	1865.12
1002.475	1870.77
1002.77	1890.43
1003.065	1836.19
1003.359	1863.76
1003.654	1883.43
1003.949	1827.16
1004.243	1819.92
1004.538	1809.08
1004.832	1791.9
1005.127	1793.48
1005.421	1782.41
1005.715	1777.44
1006.009	1764.33
1006.304	1736.99
1006.598	1763.65
1006.892	1735.41
1007.186	1719.14
1007.48	1737.67
1007.773	1702.19
1008.067	1649.98
1008.361	1661.06
1008.655	1693.6
1008.948	1665.13
1009.242	1671.45
1009.535	1642.3
1009.829	1621.29
1010.122	1613.6
1010.415	1622.87
1010.708	1615.64
1011.001	1603.66
1011.295	1561.85
1011.588	1582.87
1011.881	1590.33
1012.173	1575.41
1012.466	1561.63
1012.759	1545.81
1013.052	1550.33
1013.344	1531.12
1013.637	1540.38
1013.93	1516.43
1014.222	1503.32
1014.514	1504
1014.807	1507.84
1015.099	1487.73
1015.391	1474.4
1015.683	1456.54
1015.976	1458.13
1016.268	1446.6
1016.56	1445.24
1016.851	1431.69
1017.143	1444.57
1017.435	1390.56
1017.727	1410.44
1018.018	1392.14
1018.31	1378.13
1018.602	1391.01
1018.893	1379.71
1019.185	1383.55
1019.476	1358.69
1019.767	1347.85
1020.058	1365.7
1020.35	1303.33
1020.641	1317.56
1020.932	1290.9
1021.223	1315.98
1021.514	1293.16
1021.804	1267.4
1022.095	1268.75
1022.386	1282.76
1022.677	1251.13
1022.967	1241.41
1023.258	1213.61
1023.548	1251.58
1023.839	1237.34
1024.129	1237.79
1024.419	1199.38
1024.709	1208.64
1025	1197.57
1025.29	1200.96
1025.58	1170.9
1025.87	1153.05
1026.16	1177
1026.449	1171.58
1026.739	1154.4
1027.029	1162.31
1027.319	1141.3
1027.608	1176.78
1027.898	1118.93
1028.187	1094.52
1028.477	1104.24
1028.766	1088.64
1029.055	1090.9
1029.344	1083.9
1029.634	1100.39
1029.923	1064.69
1030.212	1075.54
1030.501	1063.11
1030.79	1072.15
1031.078	1055.42
1031.367	1040.28
1031.656	1045.03
1031.945	1006.61
1032.233	1017.46
1032.522	1043.9
1032.81	1013.39
1033.099	983.79
1033.387	988.08
1033.675	982.88
1033.963	979.04
1034.251	991.02
1034.54	984.92
1034.828	974.52
1035.116	958.03
1035.403	967.97
1035.691	936.78
1035.979	934.98
1036.267	904.69
1036.554	926.16
1036.842	919.83
1037.129	931.13
1037.417	890
1037.704	896.33
1037.992	915.09
1038.279	869.44
1038.566	875.09
1038.853	875.09
1039.14	875.09
