Data from carpet_green_FLMS001491_00021.txt Node
Date: Wed Feb 08 10:35:07 GMT 2017
User: dcchb
Spectrometer: FLMS00149
Trigger mode: 0
Integration Time (sec): 2.000000E-2
Scans to average: 10
Electric dark correction enabled: true
Nonlinearity correction enabled: false
Boxcar width: 0
XAxis mode: Wavelengths
Number of Pixels in Spectrum: 2048
>>>>>Begin Spectral Data<<<<<
341.393	-12.34
341.776	-12.34
342.16	-12.34
342.543	-47.6
342.927	-59.35
343.31	-69.97
343.693	-94.83
344.077	-60.48
344.46	-61.38
344.843	-71.33
345.226	-33.59
345.61	-27.49
345.993	-22.74
346.376	3.02
346.759	16.36
347.142	29.24
347.525	60.65
347.908	58.16
348.291	52.74
348.674	106.3
349.057	115.34
349.44	130.7
349.823	135.67
350.206	161.66
350.588	163.24
350.971	189.68
351.354	213.86
351.737	224.71
352.119	213.41
352.502	226.52
352.884	243.92
353.267	225.84
353.65	239.17
354.032	267.87
354.414	268.1
354.797	289.12
355.179	287.31
355.562	287.76
355.944	297.48
356.326	306.97
356.709	313.52
357.091	313.07
357.473	299.29
357.855	316.46
358.238	320.75
358.62	322.34
359.002	325.73
359.384	313.3
359.766	302.9
360.148	316.69
360.53	307.42
360.912	304.48
361.294	281.66
361.676	308.33
362.057	310.36
362.439	315.33
362.821	283.92
363.203	293.86
363.584	306.74
363.966	286.63
364.348	292.51
364.729	298.38
365.111	279.63
365.493	282.11
365.874	285.95
366.256	278.5
366.637	285.5
367.019	306.29
367.4	280.76
367.781	278.04
368.163	275.56
368.544	268.33
368.925	272.39
369.306	269.91
369.688	288.44
370.069	270.13
370.45	260.64
370.831	278.5
371.212	267.42
371.593	278.5
371.974	290.02
372.355	276.46
372.736	260.19
373.117	276.69
373.498	272.62
373.879	266.52
374.26	280.76
374.641	289.79
375.021	264.94
375.402	290.92
375.783	279.17
376.163	292.51
376.544	276.46
376.925	270.36
377.305	297.03
377.686	302.9
378.066	296.57
378.447	298.16
378.827	297.48
379.208	284.6
379.588	288.21
379.968	264.48
380.349	281.21
380.729	297.7
381.109	294.77
381.489	312.84
381.87	294.77
382.25	290.47
382.63	283.24
383.01	306.29
383.39	294.77
383.77	287.53
384.15	304.71
384.53	282.79
384.91	274.2
385.29	297.03
385.67	296.35
386.049	296.12
386.429	301.77
386.809	297.93
387.189	304.48
387.568	296.57
387.948	304.03
388.328	318.04
388.707	287.53
389.087	309.46
389.466	299.96
389.846	281.89
390.225	298.83
390.605	316.01
390.984	291.6
391.363	300.64
391.743	318.27
392.122	308.78
392.501	303.81
392.881	312.84
393.26	319.17
393.639	330.25
394.018	296.35
394.397	294.31
394.776	311.49
395.155	307.87
395.534	320.08
395.913	311.04
396.292	302.9
396.671	303.58
397.05	312.62
397.429	294.99
397.808	327.08
398.186	302.45
398.565	321.88
398.944	316.91
399.323	310.13
399.701	313.07
400.08	321.21
400.458	323.92
400.837	296.8
401.215	302.22
401.594	324.82
401.972	319.17
402.351	342.67
402.729	316.23
403.107	327.76
403.486	322.34
403.864	324.82
404.242	323.47
404.62	332.96
404.999	326.86
405.377	320.53
405.755	347.19
406.133	325.27
406.511	315.56
406.889	349.45
407.267	331.83
407.645	304.94
408.023	323.69
408.401	329.57
408.779	309.68
409.156	324.82
409.534	318.49
409.912	313.97
410.29	330.02
410.667	316.01
411.045	323.47
411.422	327.53
411.8	316.69
412.178	342
412.555	334.54
412.933	344.03
413.31	355.78
413.687	338.61
414.065	349.45
414.442	339.96
414.819	339.28
415.197	317.59
415.574	345.84
415.951	348.1
416.328	363.69
416.705	342.45
417.082	366.18
417.46	335.44
417.837	344.03
418.214	351.71
418.591	346.29
418.967	339.96
419.344	335.67
419.721	366.63
420.098	330.92
420.475	344.71
420.852	354.88
421.228	340.87
421.605	367.08
421.982	354.2
422.358	349.68
422.735	360.98
423.111	376.57
423.488	367.98
423.864	366.85
424.241	371.6
424.617	352.39
424.994	362.11
425.37	368.21
425.746	367.53
426.123	369.34
426.499	356.46
426.875	345.16
427.251	370.47
427.627	371.15
428.003	377.25
428.379	372.28
428.756	344.71
429.132	358.72
429.507	370.02
429.883	386.06
430.259	401.88
430.635	368.89
431.011	383.35
431.387	391.94
431.763	405.95
432.138	388.1
432.514	394.42
432.89	394.65
433.265	392.84
433.641	400.53
434.016	392.39
434.392	393.97
434.767	407.53
435.143	397.81
435.518	377.02
435.894	386.97
436.269	410.7
436.644	400.3
437.02	393.29
437.395	424.25
437.77	389
438.145	412.73
438.52	429.9
438.895	399.62
439.271	393.07
439.646	396.23
440.021	436.01
440.395	424.03
440.77	430.81
441.145	405.27
441.52	403.24
441.895	430.81
442.27	423.35
442.645	412.73
443.019	414.99
443.394	438.72
443.769	439.85
444.143	443.01
444.518	444.37
444.892	434.88
445.267	448.21
445.641	426.06
446.016	442.33
446.39	437.81
446.764	440.75
447.139	442.56
447.513	428.55
447.887	448.43
448.262	436.68
448.636	463.8
449.01	446.63
449.384	453.18
449.758	459.96
450.132	457.7
450.506	471.26
450.88	453.63
451.254	420.19
451.628	454.99
452.002	453.18
452.376	445.5
452.75	483.69
453.123	456.8
453.497	477.36
453.871	471.03
454.244	486.85
454.618	480.3
454.992	483.69
455.365	484.14
455.739	475.55
456.112	481.2
456.486	510.58
456.859	492.05
457.232	522.33
457.606	512.16
457.979	509
458.352	524.82
458.725	509.68
459.099	494.31
459.472	504.25
459.845	530.92
460.218	526.85
460.591	523.23
460.964	529.34
461.337	526.4
461.71	534.31
462.083	537.7
462.456	539.73
462.829	537.47
463.201	564.36
463.574	558.04
463.947	553.29
464.32	541.09
464.692	556.91
465.065	550.58
465.438	565.27
465.81	580.41
466.183	595.78
466.555	566.4
466.928	607.07
467.3	578.6
467.672	587.64
468.045	586.51
468.417	574.31
468.789	619.96
469.161	623.8
469.534	614.53
469.906	619.28
470.278	607.07
470.65	633.29
471.022	639.39
471.394	657.02
471.766	657.24
472.138	644.36
472.51	668.54
472.882	676.68
473.253	653.4
473.625	668.09
473.997	687.75
474.369	701.31
474.74	693.4
475.112	695.89
475.484	716.22
475.855	712.61
476.227	738.6
476.598	740.86
476.97	734.98
477.341	775.66
477.713	796.67
478.084	804.58
478.455	794.87
478.827	768.43
479.198	830.35
479.569	814.98
479.94	860.4
480.311	837.8
480.682	840.74
481.053	855.43
481.424	862.66
481.795	858.59
482.166	865.6
482.537	903.79
482.908	905.15
483.279	937.24
483.65	941.3
484.021	955.09
484.391	950.12
484.762	987.63
485.133	969.1
485.503	988.76
485.874	1005.26
486.244	1010
486.615	977.69
486.985	1031.47
487.356	1036.22
487.726	1042.32
488.097	1073.95
488.467	1060.4
488.837	1099.94
489.207	1102.65
489.578	1108.53
489.948	1143.56
490.318	1139.94
490.688	1135.65
491.058	1190.34
491.428	1171.58
491.798	1182.65
492.168	1188.75
492.538	1188.75
492.908	1203.67
493.278	1231.46
493.648	1247.51
494.017	1234.63
494.387	1281.41
494.757	1251.13
495.126	1277.11
495.496	1291.12
495.866	1295.64
496.235	1297.9
496.605	1309.88
496.974	1314.4
497.344	1297.23
497.713	1332.03
498.082	1336.09
498.452	1358.69
498.821	1342.65
499.19	1364.57
499.559	1372.48
499.928	1348.52
500.298	1381.74
500.667	1364.34
501.036	1371.35
501.405	1398.92
501.774	1406.38
502.143	1398.01
502.512	1414.74
502.88	1411.35
503.249	1440.27
503.618	1457.67
503.987	1436.88
504.356	1457.45
504.724	1435.08
505.093	1479.37
505.462	1474.4
505.83	1472.36
506.199	1474.62
506.567	1467.39
506.936	1465.36
507.304	1501.29
507.672	1511.01
508.041	1486.83
508.409	1526.6
508.777	1496.77
509.145	1549.42
509.514	1532.02
509.882	1544.22
510.25	1528.86
510.618	1566.82
510.986	1562.3
511.354	1563.43
511.722	1560.04
512.09	1590.1
512.458	1569.08
512.826	1607.95
513.193	1615.18
513.561	1591.46
513.929	1596.43
514.297	1624
514.664	1590.1
515.032	1633.49
515.4	1614.73
515.767	1637.1
516.135	1634.39
516.502	1622.41
516.869	1633.49
517.237	1640.72
517.604	1645.01
517.972	1706.03
518.339	1689.08
518.706	1658.12
519.073	1684.79
519.44	1704.45
519.808	1696.09
520.175	1735.18
520.542	1689.08
520.909	1718.68
521.276	1701.73
521.643	1727.95
522.009	1735.63
522.376	1759.59
522.743	1746.25
523.11	1748.06
523.477	1766.37
523.843	1772.47
524.21	1819.47
524.577	1762.98
524.943	1783.77
525.31	1812.69
525.676	1792.35
526.043	1796.2
526.409	1808.62
526.776	1819.02
527.142	1825.35
527.508	1845.69
527.874	1845.23
528.241	1836.87
528.607	1860.15
528.973	1889.53
529.339	1863.76
529.705	1886.81
530.071	1888.4
530.437	1871.9
530.803	1896.53
531.169	1925.46
531.535	1894.95
531.901	1916.19
532.267	1893.14
532.632	1876.65
532.998	1864.67
533.364	1893.59
533.73	1922.52
534.095	1937.21
534.461	1919.81
534.826	1925.23
535.192	1937.66
535.557	1916.19
535.923	1902.18
536.288	1943.08
536.653	1942.86
537.019	1914.84
537.384	1959.36
537.749	1942.41
538.114	1926.36
538.479	1923.88
538.845	1920.49
539.21	1960.49
539.575	1916.19
539.94	1934.5
540.305	1915.97
540.67	1917.77
541.034	1958.23
541.399	1962.75
541.764	1958.9
542.129	1932.69
542.494	1948.28
542.858	1931.56
543.223	1926.59
543.587	1945.12
543.952	1961.39
544.316	1953.71
544.681	1928.85
545.045	1972.69
545.41	1946.02
545.774	1932.46
546.138	1943.99
546.503	1952.58
546.867	1992.8
547.231	1978.34
547.595	1950.54
547.959	1946.02
548.324	1958.9
548.688	1977.43
549.052	1970.2
549.416	2011.78
549.779	1940.15
550.143	1961.62
550.507	2001.61
550.871	1956.19
551.235	1976.98
551.599	1964.1
551.962	1984.44
552.326	1956.42
552.689	1993.93
553.053	1990.77
553.417	1993.03
553.78	2003.42
554.143	2000.94
554.507	1990.54
554.87	2012.24
555.234	2009.3
555.597	2001.84
555.96	2049.3
556.323	1950.09
556.686	2014.95
557.05	2070.54
557.413	2009.75
557.776	1998.22
558.139	2024.21
558.502	2017.21
558.865	2042.52
559.228	2049.97
559.59	2040.03
559.953	2019.47
560.316	2083.65
560.679	2049.07
561.041	2057.66
561.404	2077.54
561.767	2051.78
562.129	2045.23
562.492	2046.58
562.854	2075.51
563.217	2048.84
563.579	2071.22
563.941	2097.88
564.304	2069.41
564.666	2105.57
565.028	2069.86
565.39	2117.32
565.753	2094.72
566.115	2095.4
566.477	2122.06
566.839	2069.86
567.201	2152.57
567.563	2117.54
567.925	2148.05
568.287	2144.66
568.648	2153.02
569.01	2107.6
569.372	2129.29
569.734	2102.4
570.095	2112.12
570.457	2174.04
570.819	2126.13
571.18	2133.59
571.542	2141.05
571.903	2135.62
572.265	2143.31
572.626	2120.48
572.987	2179.69
573.349	2131.33
573.71	2177.43
574.071	2161.38
574.432	2156.86
574.794	2172.01
575.155	2167.26
575.516	2173.36
575.877	2149.41
576.238	2125.23
576.599	2141.95
576.96	2165
577.32	2115.96
577.681	2145.79
578.042	2147.15
578.403	2160.25
578.763	2147.82
579.124	2125.68
579.485	2140.37
579.845	2134.04
580.206	2124.77
580.566	2119.8
580.927	2136.53
581.287	2144.21
581.648	2138.11
582.008	2149.63
582.368	2112.57
582.728	2150.76
583.089	2107.83
583.449	2103.53
583.809	2097.43
584.169	2121.38
584.529	2118.45
584.889	2099.01
585.249	2068.73
585.609	2081.39
585.969	2076.41
586.329	2066.25
586.688	2102.63
587.048	2079.58
587.408	2061.27
587.768	2035.29
588.127	2054.49
588.487	2020.82
588.846	2044.32
589.206	2053.59
589.565	2019.01
589.925	2054.49
590.284	2021.95
590.643	2041.84
591.003	2012.69
591.362	2033.7
591.721	2040.94
592.08	2069.86
592.44	2049.97
592.799	2033.03
593.158	2037.55
593.517	2041.39
593.876	2011.11
594.235	1992.8
594.593	2035.96
594.952	2001.16
595.311	2019.24
595.67	2029.18
596.029	2019.01
596.387	1996.42
596.746	2030.99
597.104	1970.43
597.463	2024.66
597.822	2028.51
598.18	1998
598.538	1992.35
598.897	2028.96
599.255	1994.83
599.613	2051.78
599.972	2031.67
600.33	2026.02
600.688	2017.21
601.046	2025.79
601.404	2040.48
601.762	2063.31
602.12	2028.73
602.478	2064.44
602.836	2042.29
603.194	2038.45
603.552	2028.28
603.91	2039.81
604.268	2023.53
604.625	2016.53
604.983	2025.34
605.341	2027.15
605.698	2021.27
606.056	2062.18
606.413	2056.98
606.771	2059.47
607.128	2054.04
607.485	2047.94
607.843	2066.25
608.2	2042.29
608.557	2072.8
608.914	2071.67
609.272	2045.45
609.629	2107.83
609.986	2096.75
610.343	2077.54
610.7	2109.86
611.057	2095.85
611.414	2093.36
611.771	2110.76
612.127	2093.36
612.484	2104.66
612.841	2106.92
613.198	2097.88
613.554	2063.31
613.911	2085.91
614.267	2112.35
614.624	2098.56
614.98	2122.29
615.337	2098.33
615.693	2101.05
616.05	2093.82
616.406	2111.89
616.762	2093.82
617.118	2092.91
617.475	2106.24
617.831	2088.17
618.187	2097.43
618.543	2089.97
618.899	2129.97
619.255	2131.78
619.611	2118.22
619.967	2134.72
620.323	2131.78
620.678	2103.98
621.034	2133.14
621.39	2118
621.746	2143.76
622.101	2134.49
622.457	2118.67
622.812	2118.9
623.168	2120.48
623.523	2129.29
623.879	2146.24
624.234	2105.57
624.589	2102.4
624.945	2132.68
625.3	2099.01
625.655	2118
626.01	2081.61
626.365	2121.84
626.72	2109.41
627.075	2105.57
627.43	2109.86
627.785	2104.44
628.14	2096.98
628.495	2091.33
628.85	2111.67
629.205	2094.04
629.559	2132.68
629.914	2110.99
630.269	2092.69
630.623	2074.38
630.978	2098.33
631.332	2078.67
631.687	2138.33
632.041	2090.65
632.396	2087.26
632.75	2093.36
633.104	2088.62
633.459	2082.74
633.813	2095.62
634.167	2069.18
634.521	2038.22
634.875	2065.34
635.229	2091.78
635.583	2073.93
635.937	2070.76
636.291	2104.21
636.645	2099.69
636.999	2070.99
637.352	2071.44
637.706	2083.19
638.06	2100.14
638.413	2087.94
638.767	2074.38
639.121	2096.98
639.474	2094.49
639.828	2077.09
640.181	2090.2
640.534	2087.71
640.888	2106.24
641.241	2083.87
641.594	2079.8
641.947	2082.97
642.301	2079.58
642.654	2080.71
643.007	2116.41
643.36	2098.79
643.713	2115.51
644.066	2094.49
644.419	2063.08
644.771	2039.81
645.124	2057.88
645.477	2061.5
645.83	2047.94
646.182	2063.31
646.535	2044.78
646.888	2036.42
647.24	2064.66
647.593	2044.1
647.945	2059.47
648.298	2053.14
648.65	2077.32
649.002	2039.13
649.355	2061.05
649.707	2097.66
650.059	2104.44
650.411	2135.85
650.763	2108.73
651.115	2141.5
651.467	2172.91
651.819	2173.13
652.171	2196.86
652.523	2118.9
652.875	2167.03
653.227	2179.01
653.578	2158.45
653.93	2186.02
654.282	2194.6
654.633	2184.89
654.985	2209.07
655.337	2217.43
655.688	2218.11
656.039	2222.4
656.391	2247.71
656.742	2230.31
657.094	2225.11
657.445	2228.95
657.796	2257.65
658.147	2261.27
658.498	2279.35
658.849	2292.23
659.2	2291.32
659.551	2297.88
659.902	2261.27
660.253	2334.94
660.604	2329.52
660.955	2360.25
661.306	2341.27
661.656	2379.01
662.007	2387.37
662.358	2396.41
662.708	2366.35
663.059	2391.89
663.409	2417.65
663.76	2451.55
664.11	2481.15
664.461	2462.62
664.811	2488.38
665.161	2481.38
665.511	2522.05
665.862	2514.14
666.212	2559.11
666.562	2587.14
666.912	2598.43
667.262	2562.05
667.612	2568.6
667.962	2644.53
668.312	2635.27
668.662	2692.67
669.011	2659.68
669.361	2695.61
669.711	2678.66
670.06	2704.42
670.41	2720.69
670.76	2739.67
671.109	2760.92
671.459	2771.54
671.808	2808.6
672.157	2831.65
672.507	2831.2
672.856	2849.73
673.205	2865.09
673.554	2930.4
673.904	2951.65
674.253	2967.46
674.602	2946.9
674.951	2957.3
675.3	2949.84
675.649	3049.72
675.998	3035.71
676.346	3048.59
676.695	3099.21
677.044	3093.34
677.393	3104.86
677.741	3130.17
678.09	3161.13
678.438	3222.37
678.787	3183.5
679.135	3261.92
679.484	3278.64
679.832	3287.23
680.181	3320
680.529	3344.4
680.877	3371.52
681.225	3364.06
681.573	3430.95
681.922	3402.93
682.27	3438.64
682.618	3481.12
682.966	3518.86
683.314	3554.34
683.661	3527.22
684.009	3523.16
684.357	3538.97
684.705	3595.02
685.053	3597.73
685.4	3612.65
685.748	3672.53
686.095	3679.31
686.443	3698.74
686.79	3732.19
687.138	3755.92
687.485	3793.43
687.832	3785.3
688.18	3809.7
688.527	3801.11
688.874	3899.19
689.221	3842.7
689.568	3913.2
689.915	3941.9
690.262	3964.5
690.609	3960.66
690.956	4024.61
691.303	4027.78
691.65	4047.89
691.997	4088.79
692.344	4055.8
692.69	4107.77
693.037	4129.92
693.383	4132.86
693.73	4185.74
694.077	4187.55
694.423	4230.26
694.769	4237.26
695.116	4278.84
695.462	4324.49
695.808	4303.93
696.155	4326.98
696.501	4347.32
696.847	4340.54
697.193	4332.4
697.539	4357.94
697.885	4434.32
698.231	4410.14
698.577	4463.92
698.923	4477.48
699.269	4498.72
699.614	4506.41
699.96	4552.96
700.306	4617.82
700.651	4556.12
700.997	4611.94
701.342	4595.22
701.688	4588.89
702.033	4642.67
702.379	4688.55
702.724	4672.73
703.069	4754.31
703.415	4708.21
703.76	4729.9
704.105	4760.64
704.45	4778.04
704.795	4821.43
705.14	4806.74
705.485	4831.6
705.83	4842.22
706.175	4845.61
706.52	4863.23
706.865	4914.53
707.209	4849.45
707.554	4937.58
707.899	4939.62
708.243	4983.68
708.588	4962.21
708.932	4982.78
709.277	5026.39
709.621	5060.06
709.966	5048.54
710.31	5124.02
710.654	5030.23
710.998	5084.7
711.342	5125.37
711.687	5130.57
712.031	5097.8
712.375	5100.52
712.719	5191.13
713.063	5155.2
713.407	5201.53
713.75	5145.03
714.094	5206.5
714.438	5234.98
714.782	5266.84
715.125	5213.06
715.469	5274.97
715.812	5290.57
716.156	5246.5
716.499	5300.74
716.843	5296.22
717.186	5279.49
717.53	5315.2
717.873	5343.45
718.216	5329.44
718.559	5343
718.902	5329.89
719.246	5348.42
719.589	5409.89
719.932	5350.23
720.275	5386.84
720.617	5394.97
720.96	5372.15
721.303	5381.41
721.646	5467.96
721.989	5442.88
722.331	5432.71
722.674	5400.62
723.016	5441.75
723.359	5485.59
723.701	5491.24
724.044	5434.29
724.386	5507.74
724.729	5496.21
725.071	5465.93
725.413	5491.47
725.755	5480.62
726.097	5485.14
726.439	5454.18
726.782	5446.5
727.124	5533.27
727.465	5513.39
727.807	5512.48
728.149	5495.76
728.491	5549.77
728.833	5535.08
729.175	5560.16
729.516	5538.92
729.858	5538.02
730.199	5552.26
730.541	5484.23
730.882	5551.35
731.224	5598.13
731.565	5532.14
731.906	5566.27
732.248	5607.39
732.589	5548.64
732.93	5498.92
733.271	5570.11
733.612	5547.51
733.953	5559.71
734.294	5541.63
734.635	5550.67
734.976	5535.98
735.317	5484.46
735.658	5543.22
735.999	5585.47
736.339	5567.17
736.68	5596.77
737.021	5563.55
737.361	5491.92
737.702	5578.24
738.042	5567.62
738.383	5507.74
738.723	5570.11
739.063	5526.95
739.404	5555.87
739.744	5522.65
740.084	5523.56
740.424	5502.99
740.764	5542.54
741.104	5510.9
741.444	5525.82
741.784	5539.15
742.124	5478.58
742.464	5525.36
742.804	5527.17
743.143	5483.33
743.483	5461.64
743.823	5503.44
744.162	5466.61
744.502	5489.66
744.841	5462.54
745.181	5485.36
745.52	5472.26
745.86	5465.93
746.199	5489.43
746.538	5452.82
746.877	5505.93
747.216	5498.92
747.556	5482.88
747.895	5489.43
748.234	5461.86
748.573	5404.46
748.911	5402.43
749.25	5424.12
749.589	5404.24
749.928	5399.04
750.267	5377.12
750.605	5416.89
750.944	5389.1
751.283	5381.19
751.621	5356.55
751.96	5368.76
752.298	5409.21
752.636	5356.33
752.975	5293.96
753.313	5352.26
753.651	5403.11
753.989	5317.69
754.327	5307.97
754.666	5282.88
755.004	5307.06
755.342	5294.41
755.679	5271.13
756.017	5284.47
756.355	5261.42
756.693	5239.72
757.031	5242.43
757.368	5210.8
757.706	5206.5
758.044	5189.78
758.381	5163.11
758.719	5168.99
759.056	5170.12
759.394	5154.53
759.731	5123.34
760.068	5122.21
760.405	5079.73
760.743	5084.92
761.08	5110.01
761.417	5072.95
761.754	5071.82
762.091	5040.18
762.428	5012.38
762.765	5041.53
763.102	4989.11
763.438	5037.01
763.775	4944.36
764.112	4983.46
764.449	4972.84
764.785	4945.72
765.122	4928.32
765.458	4851.48
765.795	4875.89
766.131	4939.84
766.467	4895.78
766.804	4910.01
767.14	4855.78
767.476	4854.87
767.812	4802.67
768.148	4842.67
768.485	4801.54
768.821	4755.89
769.157	4771.26
769.492	4740.75
769.828	4744.59
770.164	4693.97
770.5	4697.14
770.836	4700.53
771.171	4678.61
771.507	4732.16
771.842	4633.86
772.178	4656.01
772.513	4610.36
772.849	4645.84
773.184	4592.05
773.519	4556.8
773.855	4568.33
774.19	4541.43
774.525	4560.19
774.86	4586.63
775.195	4563.58
775.53	4555.22
775.865	4494.66
776.2	4424.38
776.535	4434.54
776.87	4440.19
777.205	4430.02
777.539	4435.9
777.874	4389.57
778.209	4413.08
778.543	4375.79
778.878	4304.6
779.212	4351.16
779.547	4329.69
779.881	4328.56
780.215	4332.63
780.55	4331.72
780.884	4258.5
781.218	4272.51
781.552	4264.61
781.886	4229.58
782.22	4225.96
782.554	4198.17
782.888	4174.66
783.222	4189.81
783.556	4183.7
783.889	4190.48
784.223	4090.37
784.557	4115.68
784.89	4151.16
785.224	4100.54
785.557	4065.51
785.891	4067.1
786.224	4075.23
786.558	4057.15
786.891	4041.79
787.224	4031.39
787.557	4035.91
787.891	3969.25
788.224	3986.65
788.557	4015.12
788.89	3962.01
789.223	4012.86
789.556	3936.93
789.888	3927.89
790.221	3954.33
790.554	3887.67
790.887	3918.4
791.219	3937.38
791.552	3899.87
791.884	3833.2
792.217	3863.71
792.549	3850.83
792.882	3823.94
793.214	3854.67
793.546	3842.02
793.879	3746.88
794.211	3750.72
794.543	3813.09
794.875	3748.01
795.207	3813.32
795.539	3706.88
795.871	3741.68
796.203	3724.05
796.535	3677.5
796.867	3667.11
797.198	3684.06
797.53	3695.35
797.862	3710.04
798.193	3656.71
798.525	3603.61
798.856	3625.53
799.188	3634.79
799.519	3606.09
799.85	3608.58
800.182	3567.9
800.513	3599.76
800.844	3521.35
801.175	3553.44
801.506	3538.3
801.837	3517.51
802.168	3528.58
802.499	3570.16
802.83	3517.05
803.161	3496.72
803.491	3466.66
803.822	3475.47
804.153	3527
804.483	3444.97
804.814	3477.06
805.145	3437.51
805.475	3477.51
805.805	3414.46
806.136	3420.33
806.466	3448.58
806.796	3420.56
807.126	3439.54
807.457	3390.5
807.787	3362.48
808.117	3382.82
808.447	3347.12
808.777	3323.16
809.107	3379.43
809.436	3367.45
809.766	3318.42
810.096	3302.82
810.426	3359.09
810.755	3303.73
811.085	3323.16
811.414	3316.83
811.744	3255.82
812.073	3277.74
812.403	3303.27
812.732	3225.54
813.061	3268.7
813.39	3242.26
813.719	3267.57
814.049	3251.07
814.378	3228.93
814.707	3202.26
815.036	3191.87
815.365	3190.96
815.693	3164.97
816.022	3161.36
816.351	3199.55
816.68	3155.48
817.008	3161.13
817.337	3155.26
817.665	3107.35
817.994	3157.97
818.322	3126.56
818.651	3110.51
818.979	3099.89
819.307	3101.92
819.636	3102.15
819.964	3105.31
820.292	3056.05
820.62	3123.84
820.948	3126.1
821.276	3044.75
821.604	3077.52
821.932	3073.9
822.259	3112.09
822.587	3109.38
822.915	3087.91
823.243	3092.43
823.57	3077.74
823.898	3115.71
824.225	3052.66
824.553	3054.24
824.88	3063.51
825.207	3106.22
825.535	3073.45
825.862	3090.85
826.189	3089.72
826.516	3075.71
826.843	3115.03
827.17	3092.66
827.497	3096.05
827.824	3127.01
828.151	3097.18
828.478	3070.96
828.805	3114.58
829.131	3070.29
829.458	3106.22
829.785	3060.34
830.111	3101.25
830.438	3097.4
830.764	3116.16
831.09	3068.48
831.417	3061.47
831.743	3050.17
832.069	3050.85
832.395	3070.29
832.722	3078.42
833.048	3050.85
833.374	3080.23
833.7	3046.56
834.026	3050.4
834.351	3089.27
834.677	3040.23
835.003	3078.42
835.329	3080.46
835.654	3069.38
835.98	3042.26
836.306	3051.3
836.631	3031.19
836.956	3038.87
837.282	3011.53
837.607	3035.03
837.932	2992.1
838.258	3038.65
838.583	2983.06
838.908	3010.4
839.233	3007.69
839.558	3024.19
839.883	3008.37
840.208	2984.19
840.533	2979.67
840.858	2963.17
841.182	3015.82
841.507	2972.44
841.832	2934.92
842.156	2973.79
842.481	2962.72
842.805	2920.69
843.13	2982.83
843.454	2977.63
843.778	2951.42
844.103	2935.6
844.427	2906.9
844.751	2898.54
845.075	2899.9
845.399	2872.55
845.723	2863.06
846.047	2857.41
846.371	2822.16
846.695	2873.91
847.019	2838.43
847.343	2799.33
847.666	2861.03
847.99	2827.81
848.313	2816.51
848.637	2839.11
848.96	2786
849.284	2777.19
849.607	2745.78
849.931	2739.9
850.254	2786.68
850.577	2708.49
850.9	2743.29
851.223	2711.88
851.546	2695.16
851.869	2689.05
852.192	2703.52
852.515	2688.15
852.838	2717.75
853.161	2684.08
853.483	2640.47
853.806	2649.28
854.129	2681.37
854.451	2600.24
854.774	2613.35
855.096	2598.89
855.419	2604.99
855.741	2613.8
856.063	2583.52
856.385	2582.39
856.708	2571.77
857.03	2554.37
857.352	2583.75
857.674	2589.4
857.996	2550.53
858.318	2512.11
858.64	2538.32
858.961	2526.35
859.283	2522.5
859.605	2523.86
859.926	2540.13
860.248	2513.69
860.57	2504.43
860.891	2499.45
861.212	2498.32
861.534	2459.46
861.855	2508.49
862.176	2463.3
862.498	2492.67
862.819	2482.96
863.14	2471.66
863.461	2434.15
863.782	2461.71
864.103	2444.77
864.424	2462.17
864.745	2469.4
865.065	2448.38
865.386	2440.7
865.707	2451.77
866.027	2433.02
866.348	2419.68
866.668	2446.35
866.989	2416.29
867.309	2433.47
867.63	2394.82
867.95	2419.23
868.27	2387.14
868.59	2402.73
868.91	2421.94
869.23	2413.58
869.55	2378.33
869.87	2348.5
870.19	2372
870.51	2389.17
870.83	2392.11
871.15	2340.81
871.469	2360.93
871.789	2352.34
872.109	2370.42
872.428	2319.12
872.748	2373.13
873.067	2344.2
873.386	2351.21
873.706	2346.01
874.025	2333.36
874.344	2360.7
874.663	2309.85
874.982	2332.68
875.301	2343.07
875.62	2353.02
875.939	2360.47
876.258	2313.7
876.577	2325.22
876.896	2310.08
877.214	2287.71
877.533	2285
877.852	2271.21
878.17	2307.59
878.489	2324.54
878.807	2319.35
879.125	2303.3
879.444	2281.61
879.762	2311.21
880.08	2279.12
880.398	2275.51
880.716	2278.22
881.034	2293.58
881.352	2289.06
881.67	2240.25
881.988	2249.52
882.306	2252.45
882.624	2253.58
882.941	2243.64
883.259	2221.72
883.577	2234.6
883.894	2213.81
884.212	2218.78
884.529	2237.99
884.846	2199.57
885.164	2232.57
885.481	2198.45
885.798	2216.07
886.115	2226.01
886.432	2241.16
886.75	2185.56
887.067	2150.54
887.383	2208.39
887.7	2171.1
888.017	2182.4
888.334	2179.69
888.651	2179.69
888.967	2149.18
889.284	2157.99
889.6	2131.55
889.917	2149.86
890.233	2156.19
890.55	2148.95
890.866	2139.01
891.182	2127.03
891.498	2120.71
891.815	2123.42
892.131	2061.05
892.447	2126.58
892.763	2115.74
893.079	2078.22
893.395	2058.79
893.71	2046.13
894.026	2061.73
894.342	2073.25
894.657	2040.48
894.973	2037.09
895.289	2050.65
895.604	2032.8
895.92	2039.81
896.235	2035.06
896.55	2053.36
896.865	2060.14
897.181	2017.43
897.496	2030.31
897.811	2021.95
898.126	1999.13
898.441	2021.73
898.756	2011.33
899.071	2016.53
899.386	1975.4
899.7	1936.08
900.015	1969.07
900.33	1988.96
900.644	1966.36
900.959	1963.87
901.273	1960.03
901.588	1961.62
901.902	1933.14
902.216	1934.27
902.531	1940.6
902.845	1905.8
903.159	1904.22
903.473	1934.5
903.787	1885.91
904.101	1896.76
904.415	1870.54
904.729	1892.92
905.042	1888.85
905.356	1881.39
905.67	1869.87
905.984	1860.37
906.297	1853.14
906.611	1859.02
906.924	1852.47
907.237	1836.65
907.551	1824.44
907.864	1856.76
908.177	1807.27
908.491	1828.74
908.804	1802.75
909.117	1805.91
909.43	1798.91
909.743	1785.8
910.056	1802.52
910.368	1777.21
910.681	1775.63
910.994	1779.47
911.307	1754.61
911.619	1765.01
911.932	1761.39
912.244	1740.83
912.557	1737.21
912.869	1734.95
913.181	1702.64
913.494	1720.49
913.806	1710.32
914.118	1722.53
914.43	1699.48
914.742	1713.49
915.054	1674.84
915.366	1692.7
915.678	1689.53
915.99	1648.63
916.302	1654.5
916.613	1641.62
916.925	1656.09
917.236	1641.4
917.548	1628.52
917.859	1622.87
918.171	1629.19
918.482	1624.9
918.794	1598.01
919.105	1601.85
919.416	1594.62
919.727	1603.21
920.038	1584.68
920.349	1573.15
920.66	1554.39
920.971	1598.46
921.282	1591.46
921.593	1582.19
921.903	1545.35
922.214	1554.62
922.525	1532.47
922.835	1541.97
923.146	1535.41
923.456	1560.5
923.767	1529.99
924.077	1540.16
924.387	1535.64
924.697	1491.12
925.008	1518.46
925.318	1499.48
925.628	1502.19
925.938	1491.57
926.248	1485.02
926.558	1480.27
926.867	1468.75
927.177	1489.31
927.487	1487.73
927.796	1457.22
928.106	1461.29
928.416	1443.21
928.725	1475.75
929.034	1429.65
929.344	1426.26
929.653	1452.25
929.962	1461.29
930.271	1424.45
930.581	1435.08
930.89	1404.34
931.199	1417.67
931.508	1411.8
931.817	1402.31
932.125	1405.02
932.434	1384.46
932.743	1390.78
933.051	1380.16
933.36	1387.17
933.669	1385.81
933.977	1353.27
934.286	1350.56
934.594	1335.64
934.902	1348.07
935.21	1344.23
935.519	1352.14
935.827	1321.41
936.135	1325.7
936.443	1315.98
936.751	1326.38
937.059	1328.19
937.367	1325.47
937.674	1327.73
937.982	1281.63
938.29	1313.04
938.597	1287.28
938.905	1283.89
939.213	1273.27
939.52	1260.62
939.827	1276.66
940.135	1270.79
940.442	1277.57
940.749	1255.64
941.056	1274.4
941.363	1257.68
941.67	1290.45
941.977	1252.71
942.284	1234.85
942.591	1254.52
942.898	1236.44
943.205	1258.13
943.511	1232.37
943.818	1209.09
944.125	1235.53
944.431	1231.01
944.738	1233.72
945.044	1230.79
945.35	1203.67
945.657	1200.73
945.963	1191.69
946.269	1200.28
946.575	1179.49
946.881	1175.2
947.187	1158.47
947.493	1160.28
947.799	1161.41
948.105	1170.9
948.41	1173.16
948.716	1151.47
949.022	1163.9
949.327	1152.14
949.633	1147.4
949.938	1153.5
950.244	1160.96
950.549	1154.4
950.854	1138.36
951.16	1118.02
951.465	1125.03
951.77	1133.16
952.075	1146.72
952.38	1121.64
952.685	1129.55
952.99	1113.73
953.294	1091.36
953.599	1100.17
953.904	1094.75
954.209	1086.16
954.513	1080.73
954.818	1064.92
955.122	1088.42
955.426	1079.6
955.731	1075.31
956.035	1084.35
956.339	1085.48
956.643	1051.58
956.948	1069.89
957.252	1054.07
957.556	1057.23
957.86	1046.16
958.163	1080.06
958.467	1044.58
958.771	1035.99
959.075	1039.61
959.378	1029.89
959.682	1051.13
959.985	1021.75
960.289	1007.29
960.592	1035.31
960.896	1017.46
961.199	1009.1
961.502	1026.27
961.805	1026.72
962.108	992.6
962.411	1001.87
962.714	979.27
963.017	1003.22
963.32	992.15
963.623	1017.69
963.926	985.82
964.228	967.74
964.531	988.99
964.833	989.44
965.136	982.43
965.438	997.12
965.741	978.14
966.043	970.45
966.345	952.38
966.648	968.65
966.95	959.38
967.252	969.32
967.554	928.42
967.856	941.75
968.158	988.76
968.46	943.34
968.761	953.73
969.063	933.17
969.365	927.29
969.666	919.83
969.968	936.56
970.269	922.32
970.571	924.35
970.872	919.16
971.174	902.21
971.475	920.51
971.776	921.64
972.077	909.21
972.378	881.64
972.679	910.8
972.98	906.5
973.281	902.43
973.582	874.19
973.883	899.95
974.183	907.86
974.484	887.07
974.785	867.18
975.085	876.22
975.386	879.16
975.686	883.9
975.986	867.41
976.287	850.01
976.587	849.78
976.887	871.25
977.187	878.48
977.487	824.47
977.787	833.96
978.087	847.52
978.387	849.78
978.687	853.4
978.987	876.67
979.286	867.18
979.586	821.53
979.885	828.76
980.185	860.4
980.484	831.25
980.784	833.28
981.083	830.35
981.382	826.73
981.682	827.86
981.981	820.4
982.28	807.52
982.579	797.35
982.878	821.76
983.177	792.83
983.475	801.87
983.774	792.15
984.073	826.05
984.372	809.1
984.67	798.71
984.969	802.1
985.267	788.09
985.566	785.15
985.864	770.23
986.162	752.16
986.461	780.4
986.759	779.5
987.057	751.7
987.355	782.66
987.653	781.53
987.951	750.57
988.249	746.05
988.547	757.8
988.844	745.38
989.142	772.49
989.44	761.42
989.737	745.38
990.035	761.87
990.332	767.97
990.63	740.4
990.927	753.29
991.224	726.39
991.521	756
991.819	759.84
992.116	738.37
992.413	727.3
992.71	741.31
993.006	737.24
993.303	739.95
993.6	728.43
993.897	733.85
994.193	710.12
994.49	725.94
994.787	718.94
995.083	717.35
995.379	716
995.676	699.28
995.972	712.16
996.268	712.61
996.565	706.51
996.861	663.57
997.157	700.41
997.453	697.24
997.749	683.68
998.044	685.72
998.34	675.32
998.636	710.12
998.932	692.95
999.227	669.67
999.523	690.69
999.818	697.69
1000.114	663.57
1000.409	709.67
1000.704	680.07
1001	683
1001.295	665.15
1001.59	662.89
1001.885	654.76
1002.18	645.04
1002.475	664.02
1002.77	661.31
1003.065	652.05
1003.359	660.41
1003.654	666.06
1003.949	634.64
1004.243	632.84
1004.538	661.76
1004.832	644.59
1005.127	621.09
1005.421	630.35
1005.715	638.71
1006.009	643.46
1006.304	616.57
1006.598	640.07
1006.892	630.8
1007.186	600.97
1007.48	629.9
1007.773	620.63
1008.067	630.8
1008.361	611.59
1008.655	618.37
1008.948	617.47
1009.242	610.24
1009.535	604.36
1009.829	606.85
1010.122	601.65
1010.415	589.9
1010.708	598.26
1011.001	602.55
1011.295	591.03
1011.588	609.11
1011.881	585.83
1012.173	591.03
1012.466	585.38
1012.759	561.88
1013.052	589.22
1013.344	585.15
1013.637	592.61
1013.93	568.66
1014.222	588.09
1014.514	591.93
1014.807	574.08
1015.099	552.61
1015.391	590.8
1015.683	564.36
1015.976	555.32
1016.268	569.11
1016.56	573.4
1016.851	553.06
1017.143	535.44
1017.435	566.17
1017.727	569.11
1018.018	563.01
1018.31	554.42
1018.602	555.32
1018.893	542.9
1019.185	542.67
1019.476	526.85
1019.767	553.29
1020.058	558.49
1020.35	541.54
1020.641	544.25
1020.932	534.31
1021.223	512.84
1021.514	520.3
1021.804	520.3
1022.095	510.35
1022.386	545.38
1022.677	527.3
1022.967	548.54
1023.258	506.51
1023.548	512.16
1023.839	505.16
1024.129	501.31
1024.419	496.12
1024.709	497.02
1025	503.12
1025.29	526.62
1025.58	502.9
1025.87	501.09
1026.16	509.68
1026.449	503.35
1026.739	511.26
1027.029	479.39
1027.319	493.18
1027.608	490.92
1027.898	475.78
1028.187	508.32
1028.477	489.11
1028.766	473.29
1029.055	480.98
1029.344	470.58
1029.634	469.45
1029.923	486.4
1030.212	488.89
1030.501	467.87
1030.79	473.74
1031.078	473.07
1031.367	472.61
1031.656	461.54
1031.945	474.87
1032.233	462.45
1032.522	454.31
1032.81	474.42
1033.099	453.41
1033.387	457.25
1033.675	469.68
1033.963	471.26
1034.251	485.27
1034.54	441.66
1034.828	465.84
1035.116	469.68
1035.403	431.26
1035.691	445.5
1035.979	473.74
1036.267	450.47
1036.554	444.37
1036.842	450.24
1037.129	430.58
1037.417	443.69
1037.704	435.78
1037.992	423.35
1038.279	441.43
1038.566	433.97
1038.853	433.97
1039.14	433.97
