Data from carpet_green_FLMS001491_00049.txt Node
Date: Wed Feb 08 10:35:26 GMT 2017
User: dcchb
Spectrometer: FLMS00149
Trigger mode: 0
Integration Time (sec): 2.000000E-2
Scans to average: 10
Electric dark correction enabled: true
Nonlinearity correction enabled: false
Boxcar width: 0
XAxis mode: Wavelengths
Number of Pixels in Spectrum: 2048
>>>>>Begin Spectral Data<<<<<
341.393	-23.86
341.776	-23.86
342.16	-23.86
342.543	-57.3
342.927	-74.7
343.31	-92.1
343.693	-64.98
344.077	-74.93
344.46	-70.63
344.843	-41.03
345.226	-26.34
345.61	-30.86
345.993	-18.43
346.376	-1.71
346.759	4.62
347.142	35.13
347.525	22.25
347.908	74.9
348.291	71.28
348.674	96.59
349.057	116.25
349.44	114.9
349.823	120.55
350.206	135.91
350.588	165.29
350.971	163.94
351.354	177.5
351.737	197.61
352.119	207.33
352.502	220.66
352.884	213.88
353.267	245.74
353.65	265.85
354.032	286.87
354.414	297.27
354.797	281.22
355.179	268.11
355.562	289.36
355.944	284.61
356.326	299.3
356.709	311.73
357.091	289.36
357.473	308.34
357.855	292.07
358.238	290.03
358.62	292.07
359.002	301.56
359.384	299.98
359.766	302.69
360.148	297.04
360.53	302.24
360.912	301.56
361.294	285.06
361.676	292.75
362.057	299.07
362.439	313.31
362.821	314.89
363.203	281
363.584	285.74
363.966	279.87
364.348	311.05
364.729	285.97
365.111	274.44
365.493	288.9
365.874	276.48
366.256	257.72
366.637	279.41
367.019	287.77
367.4	271.5
367.781	272.86
368.163	278.51
368.544	273.31
368.925	281.45
369.306	268.11
369.688	286.19
370.069	282.35
370.45	272.63
370.831	282.58
371.212	255.23
371.593	287.32
371.974	290.03
372.355	286.65
372.736	273.09
373.117	266.76
373.498	282.8
373.879	272.86
374.26	252.07
374.641	268.34
375.021	276.02
375.402	276.48
375.783	267.66
376.163	278.96
376.544	286.19
376.925	281.45
377.305	266.08
377.686	266.53
378.066	266.76
378.447	272.86
378.827	282.8
379.208	272.86
379.588	279.19
379.968	267.66
380.349	272.63
380.729	277.61
381.109	292.52
381.489	264.5
381.87	263.59
382.25	294.78
382.63	285.74
383.01	279.64
383.39	298.17
383.77	283.26
384.15	283.48
384.53	290.26
384.91	297.04
385.29	301.56
385.67	301.11
386.049	277.61
386.429	282.13
386.809	294.1
387.189	285.52
387.568	284.39
387.948	312.18
388.328	296.59
388.707	306.08
389.087	298.85
389.466	285.52
389.846	285.06
390.225	286.87
390.605	289.58
390.984	282.8
391.363	288.9
391.743	289.81
392.122	281.22
392.501	284.39
392.881	297.94
393.26	298.4
393.639	290.94
394.018	285.06
394.397	297.72
394.776	287.77
395.155	290.26
395.534	307.44
395.913	285.52
396.292	302.24
396.671	281.67
397.05	318.06
397.429	305.18
397.808	297.94
398.186	312.41
398.565	306.08
398.944	312.63
399.323	322.12
399.701	292.07
400.08	302.01
400.458	321.45
400.837	313.08
401.215	298.62
401.594	313.99
401.972	309.24
402.351	285.74
402.729	326.87
403.107	307.66
403.486	300.66
403.864	297.49
404.242	303.59
404.62	302.92
404.999	326.64
405.377	310.83
405.755	299.3
406.133	290.49
406.511	302.92
406.889	304.5
407.267	302.92
407.645	329.58
408.023	304.95
408.401	314.21
408.779	298.85
409.156	330.03
409.534	325.51
409.912	311.05
410.29	325.06
410.667	314.67
411.045	337.72
411.422	319.64
411.8	316.25
412.178	296.36
412.555	308.11
412.933	349.24
413.31	313.31
413.687	315.8
414.065	332.07
414.442	318.51
414.819	331.39
415.197	330.94
415.574	347.21
415.951	315.34
416.328	318.96
416.705	323.03
417.082	343.37
417.46	325.51
417.837	320.77
418.214	337.94
418.591	323.03
418.967	325.29
419.344	322.58
419.721	323.93
420.098	315.12
420.475	315.12
420.852	321.45
421.228	316.7
421.605	330.03
421.982	336.59
422.358	342.01
422.735	330.94
423.111	328.68
423.488	320.54
423.864	323.25
424.241	344.5
424.617	351.28
424.994	349.47
425.37	327.1
425.746	333.65
426.123	342.46
426.499	357.38
426.875	351.73
427.251	336.14
427.627	360.99
428.003	351.95
428.379	329.58
428.756	348.11
429.132	353.99
429.507	353.08
429.883	358.73
430.259	344.5
430.635	356.93
431.011	335.68
431.387	344.5
431.763	346.76
432.138	370.03
432.514	353.76
432.89	351.95
433.265	360.99
433.641	355.34
434.016	351.95
434.392	376.13
434.767	381.33
435.143	337.94
435.518	358.73
435.894	359.19
436.269	380.65
436.644	374.33
437.02	354.89
437.395	386.98
437.77	348.79
438.145	377.04
438.52	392.63
438.895	362.58
439.271	369.13
439.646	356.93
440.021	368.9
440.395	382.69
440.77	366.19
441.145	350.37
441.52	386.3
441.895	379.3
442.27	360.54
442.645	379.3
443.019	359.86
443.394	387.21
443.769	377.04
444.143	377.72
444.518	379.3
444.892	384.72
445.267	392.4
445.641	372.74
446.016	375.68
446.39	377.72
446.764	404.16
447.139	386.08
447.513	401.44
447.887	403.93
448.262	388.56
448.636	390.37
449.01	392.4
449.384	390.37
449.758	400.77
450.132	398.96
450.506	388.79
450.88	382.01
451.254	409.35
451.628	400.77
452.002	397.15
452.376	427.21
452.75	403.25
453.123	411.61
453.497	404.16
453.871	396.02
454.244	399.41
454.618	401.44
454.992	419.07
455.365	406.64
455.739	400.09
456.112	405.96
456.486	423.14
456.859	414.55
457.232	443.93
457.606	429.69
457.979	431.95
458.352	425.85
458.725	425.85
459.099	412.74
459.472	419.75
459.845	443.03
460.218	455.68
460.591	448.9
460.964	446.64
461.337	443.25
461.71	452.74
462.083	449.13
462.456	423.82
462.829	460.88
463.201	460.43
463.574	457.71
463.947	467.21
464.32	485.28
464.692	477.37
465.065	451.84
465.438	465.85
465.81	475.11
466.183	482.35
466.555	494.78
466.928	460.2
467.3	478.28
467.672	478.28
468.045	486.19
468.417	513.76
468.789	488.22
469.161	491.16
469.534	495.45
469.906	481.44
470.278	501.33
470.65	504.27
471.022	520.99
471.394	528.22
471.766	510.14
472.138	523.7
472.51	524.15
472.882	525.28
473.253	524.6
473.625	529.58
473.997	541.33
474.369	540.65
474.74	534.1
475.112	558.95
475.484	550.82
475.855	544.27
476.227	575.45
476.598	580.87
476.97	549.46
477.341	568.45
477.713	597.6
478.084	603.7
478.455	584.04
478.827	611.61
479.198	617.94
479.569	603.92
479.94	624.49
480.311	624.94
480.682	599.63
481.053	640.99
481.424	649.35
481.795	637.14
482.166	663.13
482.537	641.89
482.908	665.62
483.279	674.66
483.65	656.8
484.021	686.63
484.391	670.36
484.762	691.61
485.133	679.86
485.503	706.07
485.874	706.29
486.244	700.87
486.615	713.75
486.985	724.37
487.356	729.12
487.726	763.24
488.097	744.94
488.467	742.23
488.837	739.51
489.207	774.77
489.578	792.17
489.948	786.29
490.318	793.98
490.688	787.42
491.058	806.63
491.428	806.41
491.798	789
492.168	844.37
492.538	808.67
492.908	853.64
493.278	867.65
493.648	838.72
494.017	838.49
494.387	863.35
494.757	869.91
495.126	845.95
495.496	873.3
495.866	882.34
496.235	877.36
496.605	865.39
496.974	887.31
497.344	887.53
497.713	859.74
498.082	883.69
498.452	883.24
498.821	912.62
499.19	907.87
499.559	911.71
499.928	909
500.298	918.49
500.667	919.17
501.036	907.42
501.405	937.02
501.774	926.63
502.143	939.28
502.512	926.18
502.88	934.54
503.249	946.97
503.618	961.2
503.987	949.23
504.356	947.87
504.724	973.63
505.093	953.97
505.462	981.32
505.83	963.69
506.199	959.85
506.567	971.82
506.936	979.28
507.304	975.44
507.672	977.02
508.041	1018.6
508.409	1007.98
508.777	976.8
509.145	998.94
509.514	987.87
509.882	1014.76
510.25	1001.2
510.618	1016.8
510.986	1025.16
511.354	1033.52
511.722	1026.96
512.09	1012.05
512.458	1033.97
512.826	1021.99
513.193	1052.73
513.561	1031.26
513.929	1045.27
514.297	1062.9
514.664	1061.99
515.032	1018.83
515.4	1020.19
515.767	1045.95
516.135	1067.42
516.502	1073.74
516.869	1097.02
517.237	1094.76
517.604	1061.31
517.972	1072.39
518.339	1082.33
518.706	1087.3
519.073	1069.68
519.44	1085.27
519.808	1094.76
520.175	1094.99
520.542	1102.67
520.909	1107.64
521.276	1107.19
521.643	1125.27
522.009	1121.43
522.376	1129.56
522.743	1102.67
523.11	1116
523.477	1136.79
523.843	1147.64
524.21	1128.2
524.577	1164.81
524.943	1152.38
525.31	1146.74
525.676	1153.06
526.043	1143.57
526.409	1174.31
526.776	1167.53
527.142	1162.78
527.508	1170.24
527.874	1201.88
528.241	1180.41
528.607	1199.62
528.973	1213.63
529.339	1182.21
529.705	1188.54
530.071	1200.52
530.437	1227.19
530.803	1224.7
531.169	1180.41
531.535	1198.03
531.901	1205.94
532.267	1198.94
532.632	1207.07
532.998	1199.16
533.364	1217.47
533.73	1217.92
534.095	1202.78
534.461	1215.66
534.826	1241.87
535.192	1209.56
535.557	1201.65
535.923	1219.73
536.288	1241.87
536.653	1228.32
537.019	1230.12
537.384	1230.57
537.749	1240.29
538.114	1252.27
538.479	1233.51
538.845	1222.44
539.21	1252.04
539.575	1229.45
539.94	1250.69
540.305	1232.83
540.67	1230.12
541.034	1217.92
541.399	1239.16
541.764	1221.54
542.129	1236.45
542.494	1213.4
542.858	1233.74
543.223	1231.93
543.587	1201.65
543.952	1231.93
544.316	1243.46
544.681	1251.82
545.045	1241.42
545.41	1247.75
545.774	1259.27
546.138	1242.33
546.503	1260.18
546.867	1240.29
547.231	1256.56
547.595	1252.27
547.959	1251.59
548.324	1219.95
548.688	1242.1
549.052	1245.72
549.416	1276.68
549.779	1253.17
550.143	1263.12
550.507	1223.8
550.871	1252.27
551.235	1259.5
551.599	1263.12
551.962	1277.13
552.326	1267.41
552.689	1258.6
553.053	1246.85
553.417	1254.76
553.78	1263.79
554.143	1237.81
554.507	1264.25
554.87	1287.52
555.234	1279.61
555.597	1257.01
555.96	1264.02
556.323	1288.88
556.686	1273.74
557.05	1286.62
557.413	1280.52
557.776	1297.24
558.139	1287.3
558.502	1303.34
558.865	1276.68
559.228	1304.25
559.59	1293.4
559.953	1287.52
560.316	1327.52
560.679	1305.6
561.041	1338.14
561.404	1317.35
561.767	1313.06
562.129	1322.78
562.492	1313.74
562.854	1294.98
563.217	1309.89
563.579	1311.93
563.941	1328.65
564.304	1301.31
564.666	1344.92
565.028	1316.9
565.39	1319.84
565.753	1338.59
566.115	1340.18
566.477	1351.93
566.839	1308.54
567.201	1347.86
567.563	1321.42
567.925	1348.09
568.287	1337.46
568.648	1344.92
569.01	1369.78
569.372	1347.41
569.734	1337.92
570.095	1357.13
570.457	1348.99
570.819	1334.98
571.18	1364.58
571.542	1353.06
571.903	1360.06
572.265	1367.97
572.626	1360.29
572.987	1334.53
573.349	1361.19
573.71	1339.05
574.071	1365.03
574.432	1367.52
574.794	1366.39
575.155	1330.01
575.516	1338.82
575.877	1364.58
576.238	1344.02
576.599	1362.1
576.96	1361.19
577.32	1354.87
577.681	1371.36
578.042	1338.59
578.403	1326.17
578.763	1329.78
579.124	1329.78
579.485	1358.03
579.845	1345.15
580.206	1374.53
580.566	1367.52
580.927	1342.44
581.287	1365.71
581.648	1353.51
582.008	1336.56
582.368	1326.39
582.728	1316.22
583.089	1350.57
583.449	1315.77
583.809	1348.99
584.169	1349.89
584.529	1304.47
584.889	1325.26
585.249	1334.53
585.609	1331.14
585.969	1344.47
586.329	1333.4
586.688	1362.1
587.048	1288.65
587.408	1333.4
587.768	1274.42
588.127	1337.69
588.487	1341.31
588.846	1315.09
589.206	1326.17
589.565	1317.8
589.925	1316.45
590.284	1319.61
590.643	1333.4
591.003	1319.61
591.362	1285.04
591.721	1307.64
592.08	1291.36
592.44	1307.86
592.799	1314.41
593.158	1301.53
593.517	1271.25
593.876	1280.52
594.235	1299.95
594.593	1298.14
594.952	1311.25
595.311	1292.95
595.67	1319.16
596.029	1309.89
596.387	1313.51
596.746	1280.74
597.104	1317.13
597.463	1326.39
597.822	1299.73
598.18	1302.66
598.538	1307.64
598.897	1336.79
599.255	1285.94
599.613	1294.75
599.972	1307.64
600.33	1300.86
600.688	1303.79
601.046	1289.56
601.404	1292.49
601.762	1299.27
602.12	1285.94
602.478	1319.84
602.836	1300.63
603.194	1324.81
603.552	1307.18
603.91	1309.67
604.268	1320.74
604.625	1330.91
604.983	1297.01
605.341	1299.05
605.698	1320.97
606.056	1315.09
606.413	1322.55
606.771	1343.11
607.128	1321.87
607.485	1309.44
607.843	1302.21
608.2	1327.75
608.557	1328.65
608.914	1325.04
609.272	1334.75
609.629	1325.49
609.986	1327.75
610.343	1323
610.7	1343.11
611.057	1336.33
611.414	1330.01
611.771	1315.54
612.127	1337.24
612.484	1350.57
612.841	1323.68
613.198	1339.05
613.554	1338.14
613.911	1337.69
614.267	1374.3
614.624	1350.8
614.98	1350.35
615.337	1359.39
615.693	1360.97
616.05	1373.4
616.406	1369.1
616.762	1367.29
617.118	1321.65
617.475	1362.55
617.831	1362.1
618.187	1375.2
618.543	1377.92
618.899	1367.07
619.255	1356.9
619.611	1344.47
619.967	1374.75
620.323	1365.94
620.678	1339.5
621.034	1372.49
621.39	1329.33
621.746	1359.39
622.101	1344.47
622.457	1371.14
622.812	1368.42
623.168	1343.11
623.523	1358.26
623.879	1348.99
624.234	1321.19
624.589	1359.84
624.945	1353.74
625.3	1380.4
625.655	1356.45
626.01	1373.17
626.365	1395.09
626.72	1342.21
627.075	1342.44
627.43	1334.98
627.785	1344.47
628.14	1345.83
628.495	1365.71
628.85	1356.67
629.205	1369.78
629.559	1365.71
629.914	1342.66
630.269	1350.12
630.623	1342.66
630.978	1369.33
631.332	1350.12
631.687	1332.72
632.041	1308.54
632.396	1330.69
632.75	1360.52
633.104	1356.67
633.459	1299.95
633.813	1297.92
634.167	1327.52
634.521	1313.96
634.875	1330.46
635.229	1316.45
635.583	1334.08
635.937	1363.23
636.291	1318.26
636.645	1319.16
636.999	1315.09
637.352	1319.61
637.706	1346.28
638.06	1346.05
638.413	1322.78
638.767	1337.69
639.121	1333.17
639.474	1304.7
639.828	1322.1
640.181	1319.61
640.534	1370.01
640.888	1335.21
641.241	1341.31
641.594	1330.23
641.947	1330.23
642.301	1304.25
642.654	1323.68
643.007	1324.36
643.36	1310.35
643.713	1333.4
644.066	1333.17
644.419	1366.16
644.771	1333.4
645.124	1285.71
645.477	1305.6
645.83	1322.55
646.182	1325.04
646.535	1331.82
646.888	1318.03
647.24	1325.04
647.593	1310.35
647.945	1337.69
648.298	1346.96
648.65	1344.92
649.002	1323.23
649.355	1335.88
649.707	1298.82
650.059	1348.99
650.411	1345.15
650.763	1354.87
651.115	1354.19
651.467	1345.6
651.819	1373.62
652.171	1376.33
652.523	1386.05
652.875	1380.18
653.227	1374.3
653.578	1379.27
653.93	1428.99
654.282	1403.23
654.633	1401.87
654.985	1392.83
655.337	1430.57
655.688	1407.52
656.039	1447.29
656.391	1418.37
656.742	1457.01
657.094	1447.29
657.445	1458.37
657.796	1461.53
658.147	1469.89
658.498	1451.13
658.849	1495.65
659.2	1482.77
659.551	1468.08
659.902	1480.51
660.253	1479.38
660.604	1489.33
660.955	1467.63
661.306	1488.65
661.656	1490.91
662.007	1517.57
662.358	1523.45
662.708	1527.97
663.059	1522.32
663.409	1550.34
663.76	1558.93
664.11	1552.83
664.461	1583.33
664.811	1566.39
665.161	1587.85
665.511	1563.67
665.862	1594.86
666.212	1597.12
666.562	1613.16
666.912	1640.28
667.262	1620.4
667.612	1658.81
667.962	1627.17
668.312	1659.94
668.662	1691.81
669.011	1681.41
669.361	1662.88
669.711	1685.93
670.06	1695.65
670.41	1720.05
670.76	1734.29
671.109	1755.08
671.459	1762.76
671.808	1728.42
672.157	1806.83
672.507	1757.34
672.856	1775.87
673.205	1837.79
673.554	1812.71
673.904	1831.46
674.253	1845.93
674.602	1857.68
674.951	1829.66
675.3	1865.59
675.649	1883.67
675.998	1920.5
676.346	1903.1
676.695	1931.57
677.044	1925.92
677.393	1969.54
677.741	1949.43
678.09	1970.67
678.438	1981.74
678.787	1969.76
679.135	2030.33
679.484	1998.01
679.832	2038.46
680.181	2079.37
680.529	2061.29
680.877	2062.42
681.225	2077.78
681.573	2108.29
681.922	2128.63
682.27	2142.42
682.618	2162.98
682.966	2173.15
683.314	2157.33
683.661	2212.24
684.009	2176.99
684.357	2158.46
684.705	2187.39
685.053	2223.09
685.4	2234.62
685.748	2248.85
686.095	2240.72
686.443	2287.27
686.79	2299.93
687.138	2290.43
687.485	2362.75
687.832	2304.67
688.18	2373.14
688.527	2365.46
688.874	2387.38
689.221	2379.47
689.568	2417.66
689.915	2402.07
690.262	2407.95
690.609	2453.82
690.956	2461.28
691.303	2487.94
691.65	2477.77
691.997	2526.13
692.344	2501.95
692.69	2463.08
693.037	2535.17
693.383	2553.03
693.73	2522.74
694.077	2593.48
694.423	2625.79
694.769	2563.87
695.116	2608.17
695.462	2662.63
695.808	2656.07
696.155	2666.02
696.501	2675.06
696.847	2659.24
697.193	2640.93
697.539	2674.38
697.885	2703.98
698.231	2709.41
698.577	2722.51
698.923	2752.34
699.269	2734.26
699.614	2733.13
699.96	2782.17
700.306	2827.6
700.651	2795.28
700.997	2793.47
701.342	2819.69
701.688	2825.56
702.033	2863.07
702.379	2857.2
702.724	2855.17
703.069	2915.28
703.415	2881.15
703.76	2903.75
704.105	2913.92
704.45	2943.07
704.795	2948.27
705.14	2941.04
705.485	2950.3
705.83	2926.58
706.175	2973.58
706.52	3004.99
706.865	3014.03
707.209	3029.17
707.554	3051.09
707.899	3026.46
708.243	3037.76
708.588	3041.6
708.932	3039.12
709.277	3064.65
709.621	3071.88
709.966	3102.62
710.31	3101.94
710.654	3108.27
710.998	3111.66
711.342	3124.99
711.687	3150.98
712.031	3122.5
712.375	3092.9
712.719	3188.04
713.063	3153.69
713.407	3173.12
713.75	3176.29
714.094	3207.47
714.438	3181.94
714.782	3197.98
715.125	3200.24
715.469	3256.51
715.812	3240.92
716.156	3252.67
716.499	3254.02
716.843	3239.34
717.186	3249.96
717.53	3300.8
717.873	3251.54
718.216	3286.34
718.559	3324.08
718.902	3290.18
719.246	3263.29
719.589	3326.79
719.932	3275.27
720.275	3299.67
720.617	3319.56
720.96	3298.54
721.303	3320.01
721.646	3370.63
721.989	3347.81
722.331	3373.8
722.674	3336.73
723.016	3331.76
723.359	3351.2
723.701	3426.68
724.044	3352.33
724.386	3386.22
724.729	3394.59
725.071	3414.7
725.413	3408.14
725.755	3379.9
726.097	3379.45
726.439	3382.61
726.782	3396.85
727.124	3419.9
727.465	3389.61
727.807	3399.33
728.149	3424.87
728.491	3393.91
728.833	3431.65
729.175	3409.95
729.516	3371.99
729.858	3419.9
730.199	3407.69
730.541	3386.22
730.882	3412.21
731.224	3428.03
731.565	3435.04
731.906	3470.29
732.248	3421.7
732.589	3405.89
732.93	3434.13
733.271	3434.13
733.612	3436.17
733.953	3466.22
734.294	3430.52
734.635	3449.05
734.976	3441.82
735.317	3448.14
735.658	3456.05
735.999	3426
736.339	3432.33
736.68	3443.4
737.021	3431.87
737.361	3413.12
737.702	3427.13
738.042	3460.35
738.383	3466.45
738.723	3451.99
739.063	3404.08
739.404	3408.37
739.744	3436.17
740.084	3426
740.424	3471.87
740.764	3429.61
741.104	3430.74
741.444	3428.48
741.784	3456.51
742.124	3436.39
742.464	3426.22
742.804	3430.29
743.143	3415.15
743.483	3450.63
743.823	3387.81
744.162	3429.84
744.502	3386
744.841	3393.46
745.181	3403.63
745.52	3385.09
745.86	3434.81
746.199	3441.14
746.538	3388.94
746.877	3421.48
747.216	3394.59
747.556	3386.68
747.895	3364.08
748.234	3363.17
748.573	3370.86
748.911	3400.01
749.25	3342.38
749.589	3381.7
749.928	3383.74
750.267	3369.73
750.605	3357.98
750.944	3371.08
751.283	3310.97
751.621	3353.68
751.96	3371.54
752.298	3360.91
752.636	3349.39
752.975	3291.09
753.313	3333.34
753.651	3321.37
753.989	3304.42
754.327	3287.7
754.666	3268.49
755.004	3284.31
755.342	3315.94
755.679	3289.96
756.017	3273.46
756.355	3300.35
756.693	3265.78
757.031	3265.78
757.368	3257.64
757.706	3263.74
758.044	3214.48
758.381	3244.53
758.719	3251.31
759.056	3219.9
759.394	3234.59
759.731	3180.13
760.068	3179.22
760.405	3169.96
760.743	3113.46
761.08	3160.47
761.417	3152.56
761.754	3186.68
762.091	3157.3
762.428	3156.17
762.765	3166.12
763.102	3108.27
763.438	3120.69
763.775	3119.11
764.112	3091.09
764.449	3144.2
764.785	3066.68
765.122	3081.6
765.458	3031.88
765.795	3064.65
766.131	3048.61
766.467	3050.64
766.804	3022.17
767.14	3016.97
767.476	3013.13
767.812	3039.34
768.148	3022.39
768.485	2964.99
768.821	2979
769.157	3001.38
769.492	3011.32
769.828	2959.34
770.164	2976.74
770.5	2979
770.836	2937.42
771.171	2951.21
771.507	2906.92
771.842	2908.27
772.178	2910.98
772.513	2889.74
772.849	2892.23
773.184	2908.05
773.519	2862.17
773.855	2870.98
774.19	2849.06
774.525	2870.31
774.86	2859.46
775.195	2807.48
775.53	2849.52
775.865	2826.69
776.2	2800.03
776.535	2800.48
776.87	2780.14
777.205	2784.66
777.539	2750.76
777.874	2767.94
778.209	2752.12
778.543	2738.11
778.878	2713.25
779.212	2737.65
779.547	2701.27
779.881	2729.29
780.215	2703.76
780.55	2702.4
780.884	2690.42
781.218	2668.73
781.552	2695.17
781.886	2642.97
782.22	2639.13
782.554	2669.18
782.888	2617.21
783.222	2591.22
783.556	2611.56
783.889	2607.04
784.223	2586.47
784.557	2605
784.89	2595.96
785.224	2572.46
785.557	2593.7
785.891	2581.05
786.224	2551.22
786.558	2527.26
786.891	2516.64
787.224	2531.11
787.557	2498.79
787.891	2536.08
788.224	2497.43
788.557	2491.33
788.89	2505.12
789.223	2504.21
789.556	2494.5
789.888	2444.33
790.221	2489.75
790.554	2464.44
790.887	2473.71
791.219	2420.83
791.552	2410.88
791.884	2450.66
792.217	2421.73
792.549	2429.19
792.882	2407.95
793.214	2404.33
793.546	2430.09
793.879	2375.86
794.211	2381.05
794.543	2378.79
794.875	2372.24
795.207	2408.4
795.539	2362.07
795.871	2340.83
796.203	2392.35
796.535	2320.26
796.867	2318.91
797.198	2334.95
797.53	2323.88
797.862	2331.79
798.193	2306.7
798.525	2294.28
798.856	2315.07
799.188	2296.76
799.519	2257.44
799.85	2269.42
800.182	2256.76
800.513	2273.94
800.844	2241.62
801.175	2251.11
801.506	2264.9
801.837	2245.92
802.168	2226.26
802.499	2221.96
802.83	2202.75
803.161	2207.5
803.491	2216.09
803.822	2219.25
804.153	2186.71
804.483	2192.81
804.814	2173.38
805.145	2148.74
805.475	2174.05
805.805	2166.82
806.136	2161.62
806.466	2151.68
806.796	2148.29
807.126	2140.83
807.457	2148.74
807.787	2151.45
808.117	2166.37
808.447	2150.1
808.777	2125.92
809.107	2096.31
809.436	2102.42
809.766	2114.17
810.096	2114.85
810.426	2081.85
810.755	2064.45
811.085	2092.7
811.414	2146.26
811.744	2080.04
812.073	2061.97
812.403	2069.87
812.732	2074.62
813.061	2061.51
813.39	2067.39
813.719	2047.05
814.049	2059.93
814.378	2073.94
814.707	2081.4
815.036	2043.66
815.365	2077.78
815.693	2000.27
816.022	2032.59
816.351	2011.57
816.68	2025.81
817.008	2017.45
817.337	2035.07
817.665	2005.92
817.994	2026.94
818.322	1984.45
818.651	1967.05
818.979	1989.65
819.307	1983.1
819.636	1979.48
819.964	1969.09
820.292	1971.35
820.62	1994.62
820.948	1958.24
821.276	1977
821.604	1958.92
821.932	1985.81
822.259	1941.06
822.587	1983.32
822.915	1987.84
823.243	2003.21
823.57	1962.99
823.898	1969.31
824.225	1974.74
824.553	1966.83
824.88	1972.25
825.207	1962.31
825.535	1974.96
825.862	1955.53
826.189	1986.94
826.516	1974.51
826.843	1941.74
827.17	1981.52
827.497	1937.45
827.824	1958.92
828.151	1958.69
828.478	1982.87
828.805	1953.27
829.131	1988.07
829.458	1972.02
829.785	1946.49
830.111	1993.27
830.438	1988.3
830.764	1965.92
831.09	1955.53
831.417	1931.12
831.743	1964.34
832.069	1929.09
832.395	1977.45
832.722	1941.06
833.048	1941.52
833.374	1940.84
833.7	1941.52
834.026	1944.45
834.351	1939.26
834.677	1953.72
835.003	1947.39
835.329	1932.7
835.654	1934.51
835.98	1927.73
836.306	1913.95
836.631	1922.08
836.956	1933.83
837.282	1934.96
837.607	1912.14
837.932	1884.12
838.258	1920.95
838.583	1917.34
838.908	1926.38
839.233	1900.16
839.558	1891.12
839.883	1885.25
840.208	1892.48
840.533	1885.47
840.858	1889.09
841.182	1890.67
841.507	1877.11
841.832	1883.21
842.156	1872.59
842.481	1885.7
842.805	1879.37
843.13	1887.51
843.454	1849.09
843.778	1878.02
844.103	1867.62
844.427	1863.55
844.751	1863.78
845.075	1856.1
845.399	1842.99
845.723	1817.9
846.047	1836.89
846.371	1820.84
846.695	1841.18
847.019	1842.54
847.343	1820.84
847.666	1793.95
847.99	1801.18
848.313	1789.2
848.637	1772.71
848.96	1767.51
849.284	1764.8
849.607	1767.51
849.931	1749.66
850.254	1725.93
850.577	1745.82
850.9	1718.7
851.223	1711.47
851.546	1706.49
851.869	1713.5
852.192	1754.18
852.515	1745.59
852.838	1749.66
853.161	1685.48
853.483	1733.16
853.806	1705.82
854.129	1696.78
854.451	1688.87
854.774	1691.81
855.096	1698.13
855.419	1694.29
855.741	1688.42
856.063	1661.52
856.385	1677.12
856.708	1671.02
857.03	1644.35
857.352	1651.35
857.674	1647.29
857.996	1657.46
858.318	1637.34
858.64	1617.91
858.961	1617.23
859.283	1617.68
859.605	1629.43
859.926	1598.93
860.248	1621.07
860.57	1595.54
860.891	1621.07
861.212	1604.8
861.534	1616.1
861.855	1590.34
862.176	1598.47
862.498	1618.36
862.819	1590.11
863.14	1616.1
863.461	1605.71
863.782	1580.62
864.103	1594.86
864.424	1578.14
864.745	1581.98
865.065	1561.87
865.386	1585.82
865.707	1551.92
866.027	1573.62
866.348	1558.48
866.668	1592.83
866.989	1573.84
867.309	1572.49
867.63	1600.28
867.95	1571.36
868.27	1593.05
868.59	1534.97
868.91	1577.68
869.23	1533.39
869.55	1525.71
869.87	1551.7
870.19	1505.82
870.51	1546.05
870.83	1537.46
871.15	1512.15
871.469	1557.35
871.789	1531.13
872.109	1514.41
872.428	1532.04
872.748	1545.82
873.067	1543.79
873.386	1519.61
873.706	1535.88
874.025	1485.71
874.344	1515.31
874.663	1530
874.982	1508.76
875.301	1506.95
875.62	1548.08
875.939	1508.99
876.258	1501.75
876.577	1498.36
876.896	1486.16
877.214	1498.14
877.533	1501.3
877.852	1480.74
878.17	1492.26
878.489	1508.99
878.807	1497.23
879.125	1466.05
879.444	1477.8
879.762	1473.51
880.08	1442.09
880.398	1468.99
880.716	1471.47
881.034	1473.96
881.352	1498.82
881.67	1459.27
881.988	1471.02
882.306	1440.96
882.624	1482.32
882.941	1444.13
883.259	1452.26
883.577	1432.6
883.894	1422.43
884.212	1444.35
884.529	1448.65
884.846	1464.24
885.164	1438.48
885.481	1416.78
885.798	1450.91
886.115	1422.21
886.432	1414.52
886.75	1439.61
887.067	1416.33
887.383	1412.04
887.7	1436.9
888.017	1390.34
888.334	1395.99
888.651	1387.41
888.967	1391.25
889.284	1375.2
889.6	1405.94
889.917	1406.62
890.233	1410.91
890.55	1395.99
890.866	1401.42
891.182	1373.17
891.498	1398.93
891.815	1374.98
892.131	1388.31
892.447	1376.33
892.763	1412.94
893.079	1390.57
893.395	1355.32
893.71	1371.14
894.026	1370.23
894.342	1337.92
894.657	1327.3
894.973	1342.44
895.289	1354.19
895.604	1343.79
895.92	1332.72
896.235	1318.26
896.55	1353.51
896.865	1338.59
897.181	1295.66
897.496	1339.5
897.811	1320.29
898.126	1302.21
898.441	1309.89
898.756	1299.05
899.071	1291.82
899.386	1299.27
899.7	1304.7
900.015	1282.55
900.33	1297.69
900.644	1299.5
900.959	1276.68
901.273	1279.61
901.588	1283.45
901.902	1253.4
902.216	1297.01
902.531	1256.56
902.845	1260.18
903.159	1243.46
903.473	1262.89
903.787	1222.44
904.101	1254.98
904.415	1244.13
904.729	1260.18
905.042	1229.9
905.356	1210.91
905.67	1225.6
905.984	1244.13
906.297	1234.42
906.611	1239.84
906.924	1221.31
907.237	1203.68
907.551	1186.51
907.864	1199.39
908.177	1204.36
908.491	1193.74
908.804	1207.3
909.117	1167.07
909.43	1181.54
909.743	1167.3
910.056	1196
910.368	1181.76
910.681	1182.89
910.994	1150.8
911.307	1177.47
911.619	1165.27
911.932	1162.1
912.244	1149.45
912.557	1159.39
912.869	1150.8
913.181	1146.96
913.494	1138.6
913.806	1134.08
914.118	1155.55
914.43	1113.52
914.742	1129.56
915.054	1128.66
915.366	1130.24
915.678	1118.26
915.99	1100.63
916.302	1101.31
916.613	1078.04
916.925	1098.6
917.236	1105.61
917.548	1100.63
917.859	1092.73
918.171	1097.47
918.482	1074.65
918.794	1068.77
919.105	1094.99
919.416	1083.23
919.727	1059.73
920.038	1070.81
920.349	1096.34
920.66	1040.3
920.971	1053.86
921.282	1070.81
921.593	1038.49
921.903	1040.07
922.214	1059.28
922.525	1040.75
922.835	1057.47
923.146	1045.27
923.456	1039.39
923.767	1004.82
924.077	1022.9
924.387	996.46
924.697	1003.69
925.008	1020.86
925.318	1032.84
925.628	1016.34
925.938	1009.79
926.248	996.46
926.558	1014.99
926.867	995.78
927.177	1001.88
927.487	986.51
927.796	973.18
928.106	983.58
928.416	973.86
928.725	975.44
929.034	987.19
929.344	965.27
929.653	984.48
929.962	956.23
930.271	953.52
930.581	965.5
930.89	966.85
931.199	943.12
931.508	948.32
931.817	953.75
932.125	940.19
932.434	956.68
932.743	937.48
933.051	931.6
933.36	921.88
933.669	942.22
933.977	944.48
934.286	916.91
934.594	912.39
934.902	929.34
935.21	926.85
935.519	948.55
935.827	951.71
936.135	926.4
936.443	908.32
936.751	875.1
937.059	896.57
937.367	903.8
937.674	911.71
937.982	894.31
938.29	885.27
938.597	907.42
938.905	893.18
939.213	896.35
939.52	876.23
939.827	893.86
940.135	899.28
940.442	873.75
940.749	899.51
941.056	888.44
941.363	874.88
941.67	846.63
941.977	863.58
942.284	862.68
942.591	881.88
942.898	848.66
943.205	853.64
943.511	841.21
943.818	856.35
944.125	847.31
944.431	845.05
944.738	860.42
945.044	839.17
945.35	824.03
945.657	815.9
945.963	838.04
946.269	832.85
946.575	842.11
946.881	833.98
947.187	866.97
947.493	840.75
947.799	838.72
948.105	828.55
948.41	813.86
948.716	815.22
949.022	815.67
949.327	826.97
949.633	808.44
949.938	808.44
950.244	789
950.549	787.2
950.854	832.85
951.16	805.05
951.465	784.94
951.77	787.2
952.075	790.13
952.38	766.63
952.685	764.37
952.99	759.4
953.294	776.8
953.599	785.39
953.904	776.58
954.209	773.19
954.513	759.4
954.818	784.49
955.122	774.32
955.426	767.31
955.731	767.08
956.035	769.57
956.339	751.94
956.643	747.88
956.948	779.51
957.252	758.72
957.556	769.57
957.86	735.45
958.163	752.4
958.467	741.55
958.771	741.55
959.075	752.62
959.378	728.67
959.682	764.15
959.985	745.84
960.289	749.91
960.592	756.46
960.896	723.92
961.199	733.19
961.502	706.07
961.805	725.5
962.108	737.25
962.411	710.59
962.714	701.1
963.017	729.8
963.32	711.49
963.623	707.2
963.926	695.45
964.228	695.9
964.531	706.52
964.833	696.35
965.136	704.04
965.438	709.23
965.741	706.07
966.043	703.36
966.345	697.26
966.648	703.58
966.95	701.32
967.252	693.19
967.554	696.13
967.856	665.17
968.158	679.4
968.46	682.11
968.761	665.62
969.063	680.53
969.365	657.48
969.666	673.98
969.968	644.38
970.269	652.74
970.571	662.45
970.872	674.88
971.174	669.01
971.475	653.87
971.776	635.79
972.077	676.01
972.378	669.91
972.679	643.7
972.98	668.56
973.281	674.88
973.582	664.04
973.883	652.96
974.183	637.37
974.484	656.13
974.785	658.16
975.085	653.87
975.386	627.65
975.686	654.09
975.986	638.27
976.287	647.31
976.587	632.17
976.887	631.49
977.187	625.62
977.487	647.77
977.787	622.68
978.087	613.64
978.387	630.59
978.687	641.89
978.987	636.01
979.286	619.74
979.586	617.48
979.885	628.56
980.185	636.24
980.484	603.02
980.784	606.86
981.083	628.33
981.382	607.99
981.682	612.06
981.981	611.83
982.28	606.41
982.579	602.57
982.878	607.09
983.177	601.21
983.475	588.33
983.774	593.76
984.073	589.91
984.372	599.41
984.67	596.69
984.969	591.95
985.267	584.49
985.566	592.63
985.864	591.04
986.162	586.52
986.461	588.56
986.759	582.68
987.057	586.07
987.355	590.59
987.653	575.45
987.951	597.37
988.249	572.74
988.547	569.12
988.844	572.29
989.142	582.46
989.44	572.29
989.737	580.42
990.035	558.73
990.332	565.51
990.63	562.57
990.927	565.06
991.224	563.7
991.521	556.47
991.819	571.16
992.116	556.24
992.413	575.22
992.71	568.67
993.006	558.95
993.303	543.81
993.6	551.72
993.897	550.59
994.193	543.14
994.49	554.43
994.787	572.29
995.083	554.43
995.379	535.68
995.676	554.66
995.972	544.49
996.268	548.56
996.565	533.42
996.861	537.26
997.157	551.95
997.453	536.81
997.749	533.19
998.044	536.58
998.34	535.68
998.636	542.91
998.932	520.76
999.227	511.27
999.523	548.11
999.818	505.85
1000.114	514.44
1000.409	512.18
1000.704	520.31
1001	492.97
1001.295	539.52
1001.59	511.5
1001.885	517.15
1002.18	514.21
1002.475	514.66
1002.77	486.41
1003.065	500.2
1003.359	505.17
1003.654	512.63
1003.949	532.06
1004.243	502.01
1004.538	514.66
1004.832	497.26
1005.127	495
1005.421	509.24
1005.715	507.43
1006.009	502.68
1006.304	498.84
1006.598	515.11
1006.892	498.62
1007.186	482.57
1007.48	504.04
1007.773	495.45
1008.067	469.69
1008.361	475.11
1008.655	490.71
1008.948	483.48
1009.242	478.96
1009.535	493.87
1009.829	497.49
1010.122	469.47
1010.415	471.5
1010.708	466.75
1011.001	479.18
1011.295	472.63
1011.588	479.18
1011.881	491.61
1012.173	471.5
1012.466	459.52
1012.759	464.95
1013.052	474.89
1013.344	462.69
1013.637	455
1013.93	467.88
1014.222	454.55
1014.514	467.88
1014.807	455
1015.099	462.46
1015.391	457.49
1015.683	464.72
1015.976	469.47
1016.268	457.26
1016.56	440.54
1016.851	447.09
1017.143	485.74
1017.435	449.35
1017.727	447.09
1018.018	457.94
1018.31	453.87
1018.602	444.38
1018.893	429.47
1019.185	427.88
1019.476	424.04
1019.767	436.02
1020.058	459.97
1020.35	438.51
1020.641	447.32
1020.932	438.96
1021.223	459.3
1021.514	435.79
1021.804	445.51
1022.095	437.15
1022.386	432.63
1022.677	418.17
1022.967	443.03
1023.258	435.79
1023.548	431.5
1023.839	421.33
1024.129	441.44
1024.419	440.31
1024.709	419.75
1025	424.27
1025.29	402.12
1025.58	411.84
1025.87	410.71
1026.16	406.87
1026.449	417.49
1026.739	415.23
1027.029	430.6
1027.319	407.77
1027.608	427.43
1027.898	406.87
1028.187	407.32
1028.477	409.35
1028.766	408.9
1029.055	428.11
1029.344	398.05
1029.634	403.03
1029.923	427.21
1030.212	410.71
1030.501	408.68
1030.79	398.28
1031.078	403.25
1031.367	406.19
1031.656	400.99
1031.945	387.43
1032.233	400.77
1032.522	409.13
1032.81	388.79
1033.099	398.05
1033.387	403.7
1033.675	393.31
1033.963	389.02
1034.251	406.42
1034.54	408.45
1034.828	395.79
1035.116	385.63
1035.403	367.32
1035.691	397.6
1035.979	416.59
1036.267	399.86
1036.554	397.6
1036.842	392.4
1037.129	378.62
1037.417	381.56
1037.704	385.63
1037.992	398.96
1038.279	410.26
1038.566	379.52
1038.853	379.52
1039.14	379.52
