Data from carpet_green_FLMS001491_00038.txt Node
Date: Wed Feb 08 10:35:17 GMT 2017
User: dcchb
Spectrometer: FLMS00149
Trigger mode: 0
Integration Time (sec): 2.000000E-2
Scans to average: 10
Electric dark correction enabled: true
Nonlinearity correction enabled: false
Boxcar width: 0
XAxis mode: Wavelengths
Number of Pixels in Spectrum: 2048
>>>>>Begin Spectral Data<<<<<
341.393	0.44
341.776	0.44
342.16	0.44
342.543	-51.09
342.927	-65.32
343.31	-59.45
343.693	-75.27
344.077	-76.17
344.46	-67.36
344.843	-49.05
345.226	-38.21
345.61	-17.87
345.993	-7.92
346.376	-20.35
346.759	-6.57
347.142	18.06
347.525	33.66
347.908	54
348.291	98.29
348.674	91.51
349.057	122.69
349.44	106.42
349.823	127.44
350.206	152.75
350.588	162.24
350.971	189.13
351.354	217.38
351.737	214.67
352.119	222.8
352.502	239.3
352.884	253.09
353.267	244.27
353.65	276.36
354.032	268.91
354.414	288.57
354.797	283.82
355.179	282.24
355.562	296.48
355.944	314.1
356.326	307.55
356.709	332.63
357.091	319.3
357.473	321.11
357.855	314.33
358.238	309.58
358.62	309.13
359.002	302.35
359.384	327.21
359.766	323.82
360.148	298.96
360.53	321.33
360.912	309.13
361.294	312.07
361.676	294.67
362.057	302.58
362.439	301.22
362.821	294.44
363.203	294.22
363.584	300.99
363.966	299.19
364.348	297.15
364.729	312.52
365.111	306.64
365.493	291.05
365.874	305.29
366.256	285.63
366.637	299.64
367.019	281.11
367.4	285.18
367.781	269.13
368.163	288.34
368.544	293.31
368.925	273.2
369.306	297.38
369.688	281.79
370.069	281.33
370.45	281.56
370.831	286.31
371.212	270.71
371.593	286.53
371.974	287.89
372.355	294.22
372.736	296.48
373.117	296.48
373.498	295.12
373.879	270.26
374.26	280.43
374.641	304.16
375.021	260.09
375.402	296.48
375.783	289.92
376.163	296.02
376.544	295.35
376.925	302.12
377.305	279.98
377.686	303.03
378.066	296.48
378.447	295.8
378.827	301.67
379.208	287.66
379.588	282.92
379.968	279.98
380.349	285.63
380.729	298.96
381.109	313.88
381.489	284.5
381.87	265.97
382.25	308
382.63	283.82
383.01	301.22
383.39	283.82
383.77	290.15
384.15	277.49
384.53	304.16
384.91	289.24
385.29	301.22
385.67	296.02
386.049	316.59
386.429	287.44
386.809	309.36
387.189	320.66
387.568	290.15
387.948	302.35
388.328	283.59
388.707	298.28
389.087	298.74
389.466	298.06
389.846	290.6
390.225	288.11
390.605	299.86
390.984	289.24
391.363	326.53
391.743	303.25
392.122	303.03
392.501	302.8
392.881	326.98
393.26	321.11
393.639	320.88
394.018	303.48
394.397	317.27
394.776	310.03
395.155	321.33
395.534	329.24
395.913	306.64
396.292	315.46
396.671	322.01
397.05	318.85
397.429	303.03
397.808	308.45
398.186	321.56
398.565	304.61
398.944	309.36
399.323	336.47
399.701	306.19
400.08	329.92
400.458	329.92
400.837	298.28
401.215	306.42
401.594	317.94
401.972	326.53
402.351	317.94
402.729	320.43
403.107	302.12
403.486	329.47
403.864	319.07
404.242	317.27
404.62	317.04
404.999	319.3
405.377	330.15
405.755	322.69
406.133	326.98
406.511	330.6
406.889	327.21
407.267	332.86
407.645	330.6
408.023	337.15
408.401	307.32
408.779	312.29
409.156	323.14
409.534	340.99
409.912	340.32
410.29	349.36
410.667	329.02
411.045	344.38
411.422	326.08
411.8	323.59
412.178	334.67
412.555	347.1
412.933	340.32
413.31	341.67
413.687	331.28
414.065	340.32
414.442	327.89
414.819	308.9
415.197	322.46
415.574	329.69
415.951	332.86
416.328	328.34
416.705	326.76
417.082	330.82
417.46	332.41
417.837	334.44
418.214	348.68
418.591	339.64
418.967	352.97
419.344	343.71
419.721	355.23
420.098	339.64
420.475	342.12
420.852	332.18
421.228	336.47
421.605	329.02
421.982	346.87
422.358	330.6
422.735	357.94
423.111	341.22
423.488	345.74
423.864	321.11
424.241	346.87
424.617	356.81
424.994	353.87
425.37	348.45
425.746	361.33
426.123	332.41
426.499	353.87
426.875	350.49
427.251	364.04
427.627	354.55
428.003	338.96
428.379	342.12
428.756	359.75
429.132	367.66
429.507	362.24
429.883	362.69
430.259	331.28
430.635	358.17
431.011	350.94
431.387	369.69
431.763	371.95
432.138	364.72
432.514	371.05
432.89	368.34
433.265	376.02
433.641	373.76
434.016	378.96
434.392	358.39
434.767	370.82
435.143	361.33
435.518	373.54
435.894	376.93
436.269	382.35
436.644	380.54
437.02	372.86
437.395	383.25
437.77	371.5
438.145	374.67
438.52	404.04
438.895	392.52
439.271	387.55
439.646	364.04
440.021	392.74
440.395	399.52
440.77	384.83
441.145	385.74
441.52	404.72
441.895	393.42
442.27	405.85
442.645	398.39
443.019	396.81
443.394	373.99
443.769	389.13
444.143	385.06
444.518	397.26
444.892	409.01
445.267	383.93
445.641	404.27
446.016	409.69
446.39	397.04
446.764	406.53
447.139	397.72
447.513	401.78
447.887	400.43
448.262	406.3
448.636	398.62
449.01	413.31
449.384	418.96
449.758	384.61
450.132	418.73
450.506	411.73
450.88	404.27
451.254	430.26
451.628	423.48
452.002	413.99
452.376	445.4
452.75	414.44
453.123	423.7
453.497	419.86
453.871	412.63
454.244	418.96
454.618	427.32
454.992	440.88
455.365	439.75
455.739	428.45
456.112	435.23
456.486	444.95
456.859	433.19
457.232	454.66
457.606	423.7
457.979	440.43
458.352	452.18
458.725	447.66
459.099	456.02
459.472	443.82
459.845	430.48
460.218	468.67
460.591	467.77
460.964	480.2
461.337	457.83
461.71	464.15
462.083	460.31
462.456	456.47
462.829	449.69
463.201	478.62
463.574	482.01
463.947	474.1
464.32	488.56
464.692	479.07
465.065	497.15
465.438	500.99
465.81	501.44
466.183	483.81
466.555	487.2
466.928	510.03
467.3	479.97
467.672	508
468.045	497.37
468.417	528.11
468.789	514.1
469.161	521.33
469.534	531.27
469.906	538.05
470.278	537.15
470.65	551.16
471.022	527.66
471.394	542.8
471.766	541.44
472.138	544.83
472.51	549.8
472.882	560.42
473.253	540.76
473.625	552.74
473.997	560.42
474.369	580.31
474.74	572.63
475.112	601.33
475.484	582.12
475.855	608.56
476.227	589.57
476.598	616.92
476.97	599.29
477.341	617.14
477.713	624.83
478.084	618.5
478.455	633.42
478.827	627.99
479.198	648.33
479.569	662.57
479.94	650.82
480.311	662.79
480.682	683.81
481.053	693.07
481.424	691.72
481.795	695.56
482.166	706.63
482.537	696.46
482.908	713.41
483.279	705.5
483.65	733.3
484.021	747.99
484.391	746.86
484.762	758.16
485.133	788.67
485.503	769.91
485.874	762.9
486.244	784.6
486.615	798.38
486.985	816.91
487.356	793.41
487.726	810.81
488.097	822.11
488.467	801.09
488.837	862.11
489.207	821.66
489.578	857.14
489.948	847.65
490.318	852.17
490.688	905.27
491.058	889
491.428	891.71
491.798	898.95
492.168	917.93
492.538	921.09
492.908	905.05
493.278	910.02
493.648	922.67
494.017	919.74
494.387	940.75
494.757	960.64
495.126	956.34
495.496	970.36
495.866	966.74
496.235	978.94
496.605	979.17
496.974	985.72
497.344	995.89
497.713	978.72
498.082	980.07
498.452	973.07
498.821	1003.35
499.19	1011.94
499.559	1002.9
499.928	1032.5
500.298	1037.92
500.667	1037.47
501.036	1033.63
501.405	1067.08
501.774	1014.2
502.143	1033.63
502.512	1044.25
502.88	1064.14
503.249	1054.2
503.618	1084.7
503.987	1072.95
504.356	1081.77
504.724	1082.9
505.093	1089.9
505.462	1091.93
505.83	1105.72
506.199	1092.39
506.567	1101.88
506.936	1097.81
507.304	1112.72
507.672	1117.47
508.041	1102.33
508.409	1105.04
508.777	1122.22
509.145	1111.82
509.514	1107.3
509.882	1159.28
510.25	1152.27
510.618	1138.49
510.986	1139.84
511.354	1138.94
511.722	1174.19
512.09	1148.88
512.458	1168.54
512.826	1211.48
513.193	1175.55
513.561	1173.74
513.929	1212.61
514.297	1185.49
514.664	1203.8
515.032	1194.08
515.4	1187.53
515.767	1209.9
516.135	1198.37
516.502	1213.74
516.869	1214.87
517.237	1230.01
517.604	1202.89
517.972	1223.68
518.339	1233.85
518.706	1239.95
519.073	1216.9
519.44	1224.36
519.808	1256.68
520.175	1256.22
520.542	1264.59
520.909	1257.35
521.276	1225.94
521.643	1287.18
522.009	1291.25
522.376	1270.23
522.743	1279.95
523.11	1287.41
523.477	1278.14
523.843	1282.21
524.21	1321.08
524.577	1320.86
524.943	1300.06
525.31	1314.08
525.676	1307.3
526.043	1304.81
526.409	1342.32
526.776	1324.47
527.142	1361.98
527.508	1367.41
527.874	1350.23
528.241	1347.97
528.607	1341.19
528.973	1343.23
529.339	1337.13
529.705	1355.66
530.071	1358.37
530.437	1375.54
530.803	1343.91
531.169	1406.05
531.535	1382.55
531.901	1380.06
532.267	1362.66
532.632	1416.45
532.998	1389.78
533.364	1400.18
533.73	1366.5
534.095	1387.52
534.461	1371.7
534.826	1385.94
535.192	1378.03
535.557	1407.41
535.923	1384.58
536.288	1387.75
536.653	1390.46
537.019	1387.07
537.384	1416.22
537.749	1385.03
538.114	1375.32
538.479	1370.57
538.845	1413.96
539.21	1400.63
539.575	1399.27
539.94	1390.91
540.305	1378.71
540.67	1399.5
541.034	1399.27
541.399	1412.15
541.764	1401.53
542.129	1415.32
542.494	1407.18
542.858	1409.44
543.223	1448.76
543.587	1431.59
543.952	1429.78
544.316	1430
544.681	1420.06
545.045	1404.24
545.41	1414.41
545.774	1412.6
546.138	1380.06
546.503	1437.46
546.867	1413.96
547.231	1432.94
547.595	1404.24
547.959	1411.25
548.324	1433.17
548.688	1437.24
549.052	1419.16
549.416	1401.76
549.779	1438.59
550.143	1415.09
550.507	1416.22
550.871	1451.7
551.235	1418.48
551.599	1457.8
551.962	1456.9
552.326	1434.52
552.689	1429.55
553.053	1411.47
553.417	1437.24
553.78	1458.03
554.143	1449.89
554.507	1446.05
554.87	1454.64
555.234	1473.17
555.597	1471.13
555.96	1483.11
556.323	1463
556.686	1472.26
557.05	1481.53
557.413	1486.5
557.776	1495.31
558.139	1451.02
558.502	1469.55
558.865	1469.1
559.228	1465.71
559.59	1459.61
559.953	1484.24
560.316	1518.14
560.679	1514.52
561.041	1526.73
561.404	1524.69
561.767	1521.98
562.129	1506.16
562.492	1518.59
562.854	1531.25
563.217	1517.23
563.579	1520.4
563.941	1531.47
564.304	1552.04
564.666	1512.26
565.028	1559.27
565.39	1523.34
565.753	1553.17
566.115	1555.2
566.477	1537.57
566.839	1535.99
567.201	1552.04
567.563	1557.23
567.925	1533.5
568.287	1566.72
568.648	1550.23
569.01	1536.89
569.372	1525.82
569.734	1543.9
570.095	1579.61
570.457	1561.07
570.819	1553.84
571.18	1557.01
571.542	1572.6
571.903	1568.76
572.265	1550
572.626	1569.89
572.987	1589.55
573.349	1597.23
573.71	1563.33
574.071	1568.53
574.432	1563.33
574.794	1600.17
575.155	1591.13
575.516	1573.73
575.877	1544.8
576.238	1567.85
576.599	1586.38
576.96	1548.87
577.32	1585.48
577.681	1559.94
578.042	1542.54
578.403	1553.62
578.763	1577.12
579.124	1562.2
579.485	1562.88
579.845	1550.91
580.206	1579.15
580.566	1566.72
580.927	1551.36
581.287	1548.42
581.648	1538.48
582.008	1548.42
582.368	1557.69
582.728	1544.8
583.089	1557.23
583.449	1527.4
583.809	1531.7
584.169	1534.41
584.529	1550.91
584.889	1579.38
585.249	1559.94
585.609	1543.45
585.969	1507.52
586.329	1521.75
586.688	1513.84
587.048	1534.86
587.408	1490.57
587.768	1527.4
588.127	1500.06
588.487	1519.95
588.846	1519.72
589.206	1498.48
589.565	1496.9
589.925	1557.46
590.284	1521.75
590.643	1516.1
591.003	1503.22
591.362	1509.32
591.721	1512.49
592.08	1493.73
592.44	1516.1
592.799	1476.56
593.158	1500.96
593.517	1492.83
593.876	1482.66
594.235	1497.35
594.593	1510
594.952	1487.86
595.311	1498.48
595.67	1516.56
596.029	1516.56
596.387	1463.22
596.746	1476.33
597.104	1502.77
597.463	1486.73
597.822	1499.16
598.18	1484.69
598.538	1483.79
598.897	1494.86
599.255	1476.56
599.613	1526.5
599.972	1485.82
600.33	1502.09
600.688	1490.12
601.046	1488.53
601.404	1524.92
601.762	1523.11
602.12	1493.51
602.478	1518.82
602.836	1493.73
603.194	1504.13
603.552	1515.88
603.91	1494.18
604.268	1498.48
604.625	1487.63
604.983	1506.84
605.341	1488.53
605.698	1514.97
606.056	1524.24
606.413	1502.32
606.771	1486.05
607.128	1504.81
607.485	1518.59
607.843	1518.82
608.2	1527.63
608.557	1522.66
608.914	1548.65
609.272	1503.68
609.629	1516.56
609.986	1523.79
610.343	1535.76
610.7	1543.67
611.057	1524.92
611.414	1553.39
611.771	1496.67
612.127	1547.52
612.484	1535.31
612.841	1574.41
613.198	1528.76
613.554	1544.35
613.911	1560.17
614.267	1552.94
614.624	1526.95
614.98	1539.15
615.337	1544.58
615.693	1565.59
616.05	1547.97
616.406	1546.84
616.762	1540.06
617.118	1548.19
617.475	1595.88
617.831	1563.56
618.187	1573.5
618.543	1559.04
618.899	1545.71
619.255	1558.59
619.611	1559.04
619.967	1564.92
620.323	1580.28
620.678	1535.99
621.034	1545.71
621.39	1556.33
621.746	1548.87
622.101	1577.35
622.457	1563.79
622.812	1533.96
623.168	1554.3
623.523	1550.23
623.879	1571.47
624.234	1564.92
624.589	1555.65
624.945	1570.57
625.3	1558.36
625.655	1583.45
626.01	1568.53
626.365	1583.67
626.72	1560.17
627.075	1556.78
627.43	1550.91
627.785	1599.04
628.14	1568.08
628.495	1578.93
628.85	1514.52
629.205	1569.44
629.559	1547.97
629.914	1536.89
630.269	1541.19
630.623	1554.97
630.978	1568.98
631.332	1535.99
631.687	1541.41
632.041	1547.06
632.396	1551.36
632.75	1546.84
633.104	1548.42
633.459	1551.58
633.813	1523.56
634.167	1541.41
634.521	1555.2
634.875	1563.11
635.229	1556.56
635.583	1530.12
635.937	1551.81
636.291	1538.25
636.645	1544.58
636.999	1525.14
637.352	1554.75
637.706	1530.79
638.06	1552.94
638.413	1538.02
638.767	1547.29
639.121	1538.02
639.474	1509.78
639.828	1524.01
640.181	1564.46
640.534	1540.51
640.888	1537.35
641.241	1533.96
641.594	1535.76
641.947	1540.74
642.301	1530.12
642.654	1547.06
643.007	1533.96
643.36	1536.67
643.713	1508.87
644.066	1538.02
644.419	1533.28
644.771	1523.79
645.124	1531.7
645.477	1515.43
645.83	1528.99
646.182	1533.28
646.535	1514.97
646.888	1525.14
647.24	1493.73
647.593	1526.27
647.945	1539.83
648.298	1548.65
648.65	1543.9
649.002	1526.27
649.355	1516.33
649.707	1519.49
650.059	1529.44
650.411	1563.11
650.763	1559.04
651.115	1557.01
651.467	1573.73
651.819	1575.31
652.171	1603.11
652.523	1599.27
652.875	1600.17
653.227	1578.25
653.578	1616.67
653.93	1598.59
654.282	1596.1
654.633	1625.71
654.985	1613.05
655.337	1631.81
655.688	1597.68
656.039	1647.85
656.391	1629.55
656.742	1653.95
657.094	1640.17
657.445	1620.51
657.796	1662.54
658.147	1678.13
658.498	1698.02
658.849	1684.69
659.2	1673.61
659.551	1706.83
659.902	1700.96
660.253	1728.75
660.604	1702.31
660.955	1701.86
661.306	1740.05
661.656	1736.89
662.007	1719.71
662.358	1762.43
662.708	1767.4
663.059	1789.09
663.409	1784.12
663.76	1770.56
664.11	1799.03
664.461	1792.48
664.811	1825.25
665.161	1854.17
665.511	1843.78
665.862	1832.48
666.212	1852.59
666.562	1862.31
666.912	1881.29
667.262	1918.58
667.612	1915.19
667.962	1909.31
668.312	1934.17
668.662	1919.26
669.011	1946.38
669.361	1975.53
669.711	1946.6
670.06	1993.15
670.41	1992.7
670.76	2007.62
671.109	1991.12
671.459	2022.31
671.808	2048.07
672.157	2075.41
672.507	2059.82
672.856	2069.31
673.205	2089.87
673.554	2108.63
673.904	2103.89
674.253	2122.19
674.602	2147.95
674.951	2123.09
675.3	2167.84
675.649	2175.97
675.998	2206.03
676.346	2199.93
676.695	2246.93
677.044	2240.83
677.393	2246.71
677.741	2278.34
678.09	2287.61
678.438	2299.81
678.787	2286.93
679.135	2396.76
679.484	2321.73
679.832	2396.31
680.181	2401.05
680.529	2395.63
680.877	2420.04
681.225	2458
681.573	2466.81
681.922	2516.08
682.27	2482.86
682.618	2502.07
682.966	2517.66
683.314	2560.14
683.661	2547.72
684.009	2595.85
684.357	2607.6
684.705	2573.25
685.053	2621.39
685.4	2668.39
685.748	2675.17
686.095	2686.02
686.443	2712.91
686.79	2707.71
687.138	2726.24
687.485	2764.88
687.832	2778.22
688.18	2813.47
688.527	2812.12
688.874	2830.87
689.221	2813.02
689.568	2829.74
689.915	2911.77
690.262	2939.8
690.609	2913.81
690.956	2967.82
691.303	2960.59
691.65	2976.4
691.997	2992.22
692.344	2984.31
692.69	3027.7
693.037	3068.38
693.383	3062.5
693.73	3083.97
694.077	3070.64
694.423	3102.05
694.769	3097.08
695.116	3122.39
695.462	3167.13
695.808	3179.79
696.155	3200.35
696.501	3161.94
696.847	3239.45
697.193	3226.79
697.539	3242.16
697.885	3245.55
698.231	3243.97
698.577	3284.65
698.923	3311.31
699.269	3315.6
699.614	3295.49
699.96	3354.47
700.306	3357.64
700.651	3353.57
700.997	3396.28
701.342	3389.28
701.688	3444.19
702.033	3452.1
702.379	3444.19
702.724	3475.6
703.069	3483.96
703.415	3505.66
703.76	3502.27
704.105	3543.4
704.45	3558.08
704.795	3580
705.14	3597.63
705.485	3585.88
705.83	3578.87
706.175	3612.77
706.52	3632.88
706.865	3623.85
707.209	3688.25
707.554	3661.36
707.899	3655.71
708.243	3682.6
708.588	3697.97
708.932	3675.14
709.277	3669.95
709.621	3724.63
709.966	3725.54
710.31	3739.55
710.654	3746.33
710.998	3796.72
711.342	3798.53
711.687	3772.54
712.031	3820.68
712.375	3868.13
712.719	3845.99
713.063	3854.35
713.407	3847.12
713.75	3856.16
714.094	3897.96
714.438	3850.73
714.782	3878.08
715.125	3895.25
715.469	3991.29
715.812	3929.83
716.156	3938.19
716.499	3910.17
716.843	3968.47
717.186	3964.85
717.53	3952.88
717.873	4013.21
718.216	3968.02
718.559	3972.76
718.902	4020.22
719.246	4012.31
719.589	3998.75
719.932	3981.12
720.275	4044.17
720.617	4020.67
720.96	4046.89
721.303	4024.74
721.646	4059.54
721.989	4053.44
722.331	4069.94
722.674	4064.74
723.016	4079.65
723.359	4135.92
723.701	4095.47
724.044	4129.59
724.386	4059.09
724.729	4120.78
725.071	4132.76
725.413	4141.12
725.755	4120.33
726.097	4150.61
726.439	4120.1
726.782	4156.49
727.124	4181.12
727.465	4144.96
727.807	4149.93
728.149	4157.62
728.491	4156.26
728.833	4203.94
729.175	4160.55
729.516	4147.67
729.858	4223.83
730.199	4196.49
730.541	4189.03
730.882	4209.82
731.224	4236.48
731.565	4207.33
731.906	4220.67
732.248	4222.93
732.589	4189.93
732.93	4227.67
733.271	4168.24
733.612	4219.54
733.953	4206.88
734.294	4177.73
734.635	4191.97
734.976	4212.53
735.317	4200.1
735.658	4231.06
735.999	4233.32
736.339	4226.32
736.68	4224.96
737.021	4179.09
737.361	4202.14
737.702	4205.07
738.042	4211.4
738.383	4197.62
738.723	4215.02
739.063	4205.98
739.404	4235.58
739.744	4216.15
740.084	4201.91
740.424	4200.55
740.764	4218.86
741.104	4221.8
741.444	4227.45
741.784	4166.43
742.124	4223.38
742.464	4196.49
742.804	4215.02
743.143	4199.2
743.483	4212.98
743.823	4172.31
744.162	4200.55
744.502	4183.6
744.841	4194.23
745.181	4187.22
745.52	4182.47
745.86	4169.59
746.199	4165.07
746.538	4158.75
746.877	4176.37
747.216	4158.97
747.556	4142.93
747.895	4189.71
748.234	4128.01
748.573	4153.32
748.911	4165.75
749.25	4128.92
749.589	4123.72
749.928	4086.66
750.267	4111.97
750.605	4098.86
750.944	4097.96
751.283	4074.46
751.621	4082.36
751.96	4092.31
752.298	4100.22
752.636	4091.18
752.975	4078.97
753.313	4082.14
753.651	4076.04
753.989	4046.89
754.327	4079.2
754.666	4017.06
755.004	4024.06
755.342	4027
755.679	4016.6
756.017	4003.72
756.355	3991.97
756.693	3994.68
757.031	4007.56
757.368	3973.89
757.706	3980.45
758.044	3963.5
758.381	3995.14
758.719	3972.99
759.056	3975.47
759.394	3973.21
759.731	3933.22
760.068	3936.61
760.405	3925.76
760.743	3874.91
761.08	3919.43
761.417	3872.2
761.754	3869.71
762.091	3881.47
762.428	3854.35
762.765	3870.62
763.102	3872.2
763.438	3844.18
763.775	3814.12
764.112	3824.97
764.449	3805.54
764.785	3773.67
765.122	3765.76
765.458	3818.64
765.795	3790.85
766.131	3759.89
766.467	3741.81
766.804	3719.21
767.14	3697.74
767.476	3716.72
767.812	3713.11
768.148	3704.07
768.485	3658.87
768.821	3664.52
769.157	3655.48
769.492	3633.56
769.828	3650.96
770.164	3614.58
770.5	3621.13
770.836	3618.87
771.171	3621.36
771.507	3560.12
771.842	3585.88
772.178	3590.4
772.513	3535.94
772.849	3558.08
773.184	3563.51
773.519	3563.51
773.855	3495.26
774.19	3517.18
774.525	3493.23
774.86	3516.73
775.195	3503.17
775.53	3471.76
775.865	3436.96
776.2	3437.18
776.535	3431.31
776.87	3433.34
777.205	3408.94
777.539	3400.12
777.874	3407.35
778.209	3393.57
778.543	3330.29
778.878	3342.95
779.212	3328.49
779.547	3352.21
779.881	3342.27
780.215	3307.92
780.55	3322.84
780.884	3301.82
781.218	3293.23
781.552	3301.14
781.886	3291.2
782.22	3268.6
782.554	3264.31
782.888	3227.02
783.222	3218.43
783.556	3230.41
783.889	3187.25
784.223	3186.12
784.557	3179.11
784.89	3163.07
785.224	3188.15
785.557	3155.38
785.891	3109.96
786.224	3134.82
786.558	3116.06
786.891	3105.44
787.224	3114.03
787.557	3084.65
787.891	3074.48
788.224	3076.06
788.557	3032.22
788.89	3091.2
789.223	3038.1
789.556	3046.69
789.888	3060.24
790.221	2994.94
790.554	3008.49
790.887	3005.78
791.219	2979.57
791.552	2990.19
791.884	2943.19
792.217	2937.31
792.549	2969.85
792.882	2959.46
793.214	2940.47
793.546	2925.78
793.879	2901.38
794.211	2881.94
794.543	2922.62
794.875	2889.85
795.207	2902.06
795.539	2873.81
795.871	2904.54
796.203	2855.28
796.535	2840.36
796.867	2835.84
797.198	2840.59
797.53	2843.3
797.862	2809.4
798.193	2824.77
798.525	2808.73
798.856	2826.58
799.188	2784.55
799.519	2754.26
799.85	2757.2
800.182	2762.63
800.513	2778.44
800.844	2703.64
801.175	2734.38
801.506	2735.28
801.837	2739.12
802.168	2721.27
802.499	2722.63
802.83	2742.29
803.161	2725.79
803.491	2687.82
803.822	2709.29
804.153	2721.5
804.483	2672.91
804.814	2649.41
805.145	2633.14
805.475	2659.12
805.805	2624.55
806.136	2660.93
806.466	2632.01
806.796	2647.15
807.126	2634.49
807.457	2610.54
807.787	2610.99
808.117	2617.77
808.447	2600.14
808.777	2648.96
809.107	2579.81
809.436	2571.9
809.766	2596.3
810.096	2580.03
810.426	2557.88
810.755	2546.13
811.085	2574.61
811.414	2534.16
811.744	2506.81
812.073	2543.65
812.403	2555.85
812.732	2546.81
813.061	2522.63
813.39	2495.29
813.719	2483.31
814.049	2537.55
814.378	2476.76
814.707	2459.13
815.036	2443.99
815.365	2433.59
815.693	2461.62
816.022	2466.14
816.351	2435.85
816.68	2456.42
817.008	2466.81
817.337	2464.1
817.665	2418.23
817.994	2437.21
818.322	2431.33
818.651	2405.35
818.979	2416.42
819.307	2432.01
819.636	2408.28
819.964	2398.11
820.292	2417.1
820.62	2404.22
820.948	2404.44
821.276	2403.76
821.604	2396.08
821.932	2413.03
822.259	2419.58
822.587	2361.96
822.915	2406.7
823.243	2397.89
823.57	2375.29
823.898	2399.47
824.225	2400.83
824.553	2380.94
824.88	2385.91
825.207	2395.4
825.535	2370.09
825.862	2405.8
826.189	2348.62
826.516	2375.52
826.843	2404.44
827.17	2397.66
827.497	2407.83
827.824	2384.33
828.151	2410.54
828.478	2377.78
828.805	2402.86
829.131	2375.74
829.458	2369.87
829.785	2365.12
830.111	2378
830.438	2364.9
830.764	2353.37
831.09	2366.25
831.417	2356.08
831.743	2382.75
832.069	2390.21
832.395	2397.44
832.722	2387.04
833.048	2373.03
833.374	2338.46
833.7	2350.88
834.026	2387.49
834.351	2350.21
834.677	2343.88
835.003	2352.01
835.329	2331.22
835.654	2382.3
835.98	2343.65
836.306	2371.67
836.631	2377.32
836.956	2383.2
837.282	2385.23
837.607	2317.44
837.932	2350.88
838.258	2311.11
838.583	2339.81
838.908	2329.64
839.233	2340.04
839.558	2303.65
839.883	2325.35
840.208	2276.31
840.533	2310.43
840.858	2336.42
841.182	2316.54
841.507	2318.34
841.832	2281.51
842.156	2279.25
842.481	2308.4
842.805	2268.63
843.13	2285.12
843.454	2280.15
843.778	2247.38
844.103	2237.22
844.427	2230.66
844.751	2265.24
845.075	2276.54
845.399	2233.37
845.723	2240.83
846.047	2229.76
846.371	2220.27
846.695	2207.61
847.019	2158.12
847.343	2182.75
847.666	2193.6
847.99	2157.22
848.313	2175.07
848.637	2174.39
848.96	2169.42
849.284	2150.44
849.607	2124
849.931	2161.28
850.254	2159.25
850.577	2110.66
850.9	2135.75
851.223	2100.04
851.546	2102.98
851.869	2104.79
852.192	2116.31
852.515	2095.07
852.838	2048.52
853.161	2069.54
853.483	2076.09
853.806	2030.67
854.129	2047.39
854.451	2042.64
854.774	2033.6
855.096	2005.58
855.419	2013.72
855.741	2058.24
856.063	2014.62
856.385	1994.06
856.708	1972.36
857.03	1999.71
857.352	2008.52
857.674	2013.49
857.996	2012.59
858.318	1975.3
858.64	1999.71
858.961	1969.65
859.283	1952.7
859.605	1952.02
859.926	1984.11
860.248	1956.09
860.57	1950.9
860.891	1957.45
861.212	1952.25
861.534	1949.54
861.855	1942.53
862.176	1940.73
862.498	1907.05
862.819	1916.32
863.14	1926.04
863.461	1942.08
863.782	1917.9
864.103	1922.87
864.424	1903.44
864.745	1929.2
865.065	1922.65
865.386	1883.33
865.707	1913.61
866.027	1911.12
866.348	1904.34
866.668	1880.61
866.989	1907.51
867.309	1894.17
867.63	1889.65
867.95	1884
868.27	1858.02
868.59	1851.91
868.91	1877.22
869.23	1883.78
869.55	1831.58
869.87	1862.76
870.19	1868.86
870.51	1865.7
870.83	1875.19
871.15	1841.07
871.469	1862.99
871.789	1835.19
872.109	1868.41
872.428	1864.34
872.748	1840.84
873.067	1847.17
873.386	1846.27
873.706	1845.14
874.025	1824.34
874.344	1837.68
874.663	1853.27
874.982	1827.51
875.301	1817.11
875.62	1818.24
875.939	1826.6
876.258	1816.21
876.577	1799.03
876.896	1809.88
877.214	1818.02
877.533	1794.29
877.852	1795.64
878.17	1816.89
878.489	1812.59
878.807	1787.51
879.125	1792.48
879.444	1808.07
879.762	1785.25
880.08	1812.59
880.398	1782.31
880.716	1779.37
881.034	1784.8
881.352	1785.48
881.67	1775.08
881.988	1790
882.306	1775.76
882.624	1773.5
882.941	1779.15
883.259	1771.01
883.577	1771.24
883.894	1761.52
884.212	1730.34
884.529	1745.93
884.846	1738.7
885.164	1749.54
885.481	1767.62
885.798	1745.7
886.115	1738.02
886.432	1715.42
886.75	1743.44
887.067	1714.29
887.383	1750.22
887.7	1742.99
888.017	1698.02
888.334	1717.68
888.651	1724.23
888.967	1704.35
889.284	1693.5
889.6	1700.28
889.917	1685.14
890.233	1670.45
890.55	1680.62
890.866	1696.44
891.182	1680.62
891.498	1691.92
891.815	1642.88
892.131	1651.92
892.447	1662.09
892.763	1665.48
893.079	1651.47
893.395	1641.52
893.71	1620.51
894.026	1612.15
894.342	1638.13
894.657	1613.73
894.973	1592.03
895.289	1594.75
895.604	1594.97
895.92	1620.96
896.235	1598.14
896.55	1596.55
896.865	1597.68
897.181	1587.06
897.496	1604.01
897.811	1581.64
898.126	1601.75
898.441	1591.58
898.756	1566.05
899.071	1581.87
899.386	1555.43
899.7	1586.61
900.015	1564.92
900.33	1539.38
900.644	1549.32
900.959	1509.32
901.273	1545.26
901.588	1516.1
901.902	1524.92
902.216	1501.19
902.531	1485.14
902.845	1496.67
903.159	1506.39
903.473	1499.16
903.787	1495.09
904.101	1507.29
904.415	1518.14
904.729	1490.57
905.042	1484.69
905.356	1462.55
905.67	1464.35
905.984	1498.03
906.297	1465.48
906.611	1478.37
906.924	1448.54
907.237	1485.6
907.551	1440.4
907.864	1452.38
908.177	1441.98
908.491	1419.16
908.804	1467.97
909.117	1424.58
909.43	1405.15
909.743	1409.21
910.056	1442.66
910.368	1406.73
910.681	1417.8
910.994	1416.67
911.307	1418.93
911.619	1399.95
911.932	1399.5
912.244	1391.36
912.557	1402.21
912.869	1361.76
913.181	1363.57
913.494	1361.98
913.806	1369.44
914.118	1326.96
914.43	1347.97
914.742	1377.12
915.054	1367.63
915.366	1329.44
915.678	1342.32
915.99	1328.76
916.302	1336.67
916.613	1337.58
916.925	1316.34
917.236	1328.31
917.548	1314.98
917.859	1308.43
918.171	1293.29
918.482	1309.78
918.794	1303.68
919.105	1286.05
919.416	1286.96
919.727	1274.53
920.038	1301.19
920.349	1266.17
920.66	1258.03
920.971	1272.49
921.282	1265.72
921.593	1236.34
921.903	1252.16
922.214	1244.02
922.525	1260.74
922.835	1254.42
923.146	1234.08
923.456	1246.51
923.767	1227.52
924.077	1215.32
924.387	1217.81
924.697	1221.2
925.008	1217.58
925.318	1203.57
925.628	1220.74
925.938	1204.7
926.248	1195.43
926.558	1208.09
926.867	1180.97
927.177	1181.2
927.487	1168.32
927.796	1180.07
928.106	1197.02
928.416	1147.3
928.725	1171.25
929.034	1163.57
929.344	1163.57
929.653	1181.2
929.962	1155.89
930.271	1151.14
930.581	1147.98
930.89	1125.38
931.199	1138.04
931.508	1121.99
931.817	1140.52
932.125	1122.22
932.434	1092.61
932.743	1106.85
933.051	1105.27
933.36	1103.01
933.669	1084.25
933.977	1095.1
934.286	1099.39
934.594	1100.75
934.902	1086.28
935.21	1090.13
935.519	1096.45
935.827	1087.19
936.135	1080.41
936.443	1069.56
936.751	1068.21
937.059	1074.76
937.367	1085.16
937.674	1058.94
937.982	1067.75
938.29	1057.13
938.597	1061.2
938.905	1048.32
939.213	1037.02
939.52	1054.42
939.827	1043.12
940.135	1047.42
940.442	1037.02
940.749	1034.99
941.056	1048.77
941.363	1019.17
941.67	1004.71
941.977	1025.5
942.284	1017.36
942.591	1010.81
942.898	1006.51
943.205	1030.02
943.511	1006.29
943.818	1008.32
944.125	1000.64
944.431	1008.77
944.738	991.15
945.044	993.18
945.35	975.55
945.657	977.36
945.963	983.91
946.269	978.27
946.575	980.3
946.881	943.46
947.187	958.6
947.493	944.82
947.799	973.75
948.105	954.09
948.41	957.47
948.716	949.57
949.022	952.05
949.327	957.25
949.633	943.46
949.938	964.25
950.244	938.94
950.549	928.1
950.854	925.39
951.16	924.71
951.465	939.85
951.77	918.38
952.075	931.49
952.38	916.12
952.685	906.63
952.99	909.11
953.294	896.69
953.599	905.72
953.904	902.11
954.209	879.96
954.513	896.91
954.818	919.06
955.122	890.13
955.426	894.88
955.731	847.42
956.035	879.96
956.339	893.52
956.643	863.01
956.948	864.6
957.252	868.44
957.556	884.26
957.86	892.17
958.163	883.8
958.467	892.17
958.771	857.14
959.075	847.87
959.378	879.74
959.682	851.04
959.985	872.05
960.289	853.07
960.592	837.48
960.896	846.74
961.199	859.62
961.502	838.83
961.805	837.03
962.108	818.95
962.411	832.51
962.714	832.05
963.017	825.95
963.32	797.25
963.623	800.19
963.926	809.91
964.228	806.52
964.531	813.3
964.833	799.74
965.136	802.68
965.438	807.2
965.741	806.29
966.043	769.23
966.345	773.3
966.648	790.93
966.95	791.15
967.252	802.9
967.554	793.86
967.856	784.15
968.158	779.4
968.46	781.89
968.761	808.33
969.063	802
969.365	769.46
969.666	789.57
969.968	768.55
970.269	788.21
970.571	752.96
970.872	775.11
971.174	751.38
971.475	755.22
971.776	738.05
972.077	732.17
972.378	737.14
972.679	761.77
972.98	759.06
973.281	762.23
973.582	737.14
973.883	750.7
974.183	734.88
974.484	735.79
974.785	737.37
975.085	725.84
975.386	733.07
975.686	736.92
975.986	737.59
976.287	738.5
976.587	709.8
976.887	725.84
977.187	718.39
977.487	692.85
977.787	724.94
978.087	700.31
978.387	711.61
978.687	740.76
978.987	707.99
979.286	691.95
979.586	710.48
979.885	685.17
980.185	693.3
980.484	715.9
980.784	695.56
981.083	712.06
981.382	709.57
981.682	685.39
981.981	701.21
982.28	692.62
982.579	709.8
982.878	695.79
983.177	679.06
983.475	682.23
983.774	685.62
984.073	674.77
984.372	676.35
984.67	680.87
984.969	669.35
985.267	672.28
985.566	687.65
985.864	677.03
986.162	678.61
986.461	673.87
986.759	673.19
987.057	674.09
987.355	654.66
987.653	660.31
987.951	660.53
988.249	677.93
988.547	637.94
988.844	659.86
989.142	639.29
989.44	661.89
989.737	668.22
990.035	638.39
990.332	667.09
990.63	638.16
990.927	646.97
991.224	638.16
991.521	641.1
991.819	649.23
992.116	640.65
992.413	645.62
992.71	638.39
993.006	620.99
993.303	635
993.6	646.97
993.897	634.55
994.193	614.21
994.49	597.26
994.787	621.89
995.083	612.4
995.379	629.12
995.676	619.63
995.972	599.07
996.268	595.22
996.565	597.26
996.861	606.98
997.157	619.18
997.453	600.42
997.749	608.56
998.044	620.99
998.34	619.86
998.636	596.58
998.932	601.33
999.227	585.06
999.523	580.31
999.818	588.9
1000.114	604.94
1000.409	593.19
1000.704	588.22
1001	585.51
1001.295	576.92
1001.59	576.02
1001.885	583.02
1002.18	581.44
1002.475	579.86
1002.77	595.9
1003.065	564.49
1003.359	578.05
1003.654	571.5
1003.949	572.85
1004.243	566.3
1004.538	556.58
1004.832	561.1
1005.127	555.45
1005.421	563.13
1005.715	540.31
1006.009	577.82
1006.304	569.91
1006.598	563.36
1006.892	561.33
1007.186	545.96
1007.48	543.02
1007.773	542.57
1008.067	539.86
1008.361	539.63
1008.655	542.57
1008.948	541.44
1009.242	540.08
1009.535	517.49
1009.829	529.46
1010.122	509.13
1010.415	511.61
1010.708	542.12
1011.001	531.27
1011.295	519.07
1011.588	501.44
1011.881	531.05
1012.173	507.77
1012.466	520.65
1012.759	522.23
1013.052	516.36
1013.344	533.31
1013.637	503.7
1013.93	509.13
1014.222	495.34
1014.514	506.19
1014.807	509.8
1015.099	516.36
1015.391	506.19
1015.683	502.8
1015.976	527.43
1016.268	498.96
1016.56	501.67
1016.851	486.07
1017.143	497.83
1017.435	492.85
1017.727	473.65
1018.018	494.66
1018.31	510.25
1018.602	496.47
1018.893	515.68
1019.185	486.75
1019.476	474.32
1019.767	500.99
1020.058	458.05
1020.35	472.06
1020.641	485.62
1020.932	505.28
1021.223	480.88
1021.514	467.77
1021.804	464.38
1022.095	489.46
1022.386	479.07
1022.677	463.93
1022.967	482.69
1023.258	467.32
1023.548	461.89
1023.839	461.44
1024.129	472.74
1024.419	474.78
1024.709	459.18
1025	446.53
1025.29	468.67
1025.58	457.6
1025.87	444.04
1026.16	447.43
1026.449	444.72
1026.739	458.96
1027.029	441.33
1027.319	443.82
1027.608	466.41
1027.898	432.52
1028.187	456.47
1028.477	462.57
1028.766	449.01
1029.055	435
1029.344	429.58
1029.634	419.18
1029.923	456.92
1030.212	445.85
1030.501	441.78
1030.79	426.19
1031.078	446.75
1031.367	436.81
1031.656	409.01
1031.945	440.65
1032.233	440.65
1032.522	423.25
1032.81	430.26
1033.099	458.05
1033.387	422.57
1033.675	419.18
1033.963	412.18
1034.251	428.9
1034.54	418.73
1034.828	429.35
1035.116	422.12
1035.403	409.47
1035.691	416.02
1035.979	418.73
1036.267	400.88
1036.554	416.92
1036.842	420.54
1037.129	429.13
1037.417	425.51
1037.704	421.9
1037.992	430.93
1038.279	422.12
1038.566	399.07
1038.853	399.07
1039.14	399.07
