Data from carpet_green_FLMS001491_00089.txt Node
Date: Wed Feb 08 10:35:59 GMT 2017
User: dcchb
Spectrometer: FLMS00149
Trigger mode: 0
Integration Time (sec): 2.000000E-2
Scans to average: 10
Electric dark correction enabled: true
Nonlinearity correction enabled: false
Boxcar width: 0
XAxis mode: Wavelengths
Number of Pixels in Spectrum: 2048
>>>>>Begin Spectral Data<<<<<
341.393	-25.2
341.776	-25.2
342.16	-25.2
342.543	-64.52
342.927	-69.26
343.31	-54.57
343.693	-74.24
344.077	-38.76
344.46	-84.86
344.843	-51.41
345.226	-37.85
345.61	-24.29
345.993	-22.94
346.376	-8.7
346.759	16.38
347.142	21.36
347.525	54.8
347.908	40.79
348.291	80.79
348.674	82.14
349.057	101.35
349.44	132.99
349.823	140.22
350.206	142.93
350.588	150.39
350.971	185.42
351.354	206.66
351.737	213.44
352.119	219.09
352.502	223.16
352.884	230.62
353.267	251.18
353.65	278.98
354.032	269.94
354.414	276.26
354.797	280.56
355.179	294.34
355.562	300.22
355.944	306.77
356.326	296.15
356.709	300.44
357.091	311.29
357.473	312.87
357.855	298.64
358.238	304.51
358.62	312.87
359.002	303.61
359.384	307.45
359.766	310.16
360.148	318.97
360.53	326.66
360.912	338.86
361.294	313.78
361.676	289.37
362.057	289.14
362.439	297.96
362.821	314
363.203	283.72
363.584	310.16
363.966	291.18
364.348	285.76
364.729	273.55
365.111	278.3
365.493	291.63
365.874	286.21
366.256	282.14
366.637	286.21
367.019	271.29
367.4	283.5
367.781	290.5
368.163	283.5
368.544	298.41
368.925	269.71
369.306	294.57
369.688	292.31
370.069	276.49
370.45	272.2
370.831	287.56
371.212	287.34
371.593	290.73
371.974	271.29
372.355	279.65
372.736	248.02
373.117	272.2
373.498	281.91
373.879	276.72
374.26	284.4
374.641	281.46
375.021	272.2
375.402	283.5
375.783	286.66
376.163	283.72
376.544	276.72
376.925	294.79
377.305	282.14
377.686	268.35
378.066	278.75
378.447	276.26
378.827	268.35
379.208	271.07
379.588	289.82
379.968	282.14
380.349	282.59
380.729	283.5
381.109	281.01
381.489	288.92
381.87	283.95
382.25	290.95
382.63	305.19
383.01	287.56
383.39	326.43
383.77	280.33
384.15	295.92
384.53	283.72
384.91	289.82
385.29	306.55
385.67	298.18
386.049	297.28
386.429	310.84
386.809	288.02
387.189	283.5
387.568	285.3
387.948	283.5
388.328	312.2
388.707	310.84
389.087	305.19
389.466	307.68
389.846	310.61
390.225	292.08
390.605	309.26
390.984	293.44
391.363	282.59
391.743	286.89
392.122	303.83
392.501	316.26
392.881	306.77
393.26	303.38
393.639	297.28
394.018	305.64
394.397	288.69
394.776	292.31
395.155	285.08
395.534	313.55
395.913	311.74
396.292	306.55
396.671	308.58
397.05	316.71
397.429	302.93
397.808	314.68
398.186	297.73
398.565	303.38
398.944	311.29
399.323	292.53
399.701	306.55
400.08	297.28
400.458	323.27
400.837	310.84
401.215	311.07
401.594	311.52
401.972	320.1
402.351	313.55
402.729	319.88
403.107	321.91
403.486	285.98
403.864	331.4
404.242	312.87
404.62	320.78
404.999	330.5
405.377	320.1
405.755	313.33
406.133	316.71
406.511	304.74
406.889	308.35
407.267	337.51
407.645	320.33
408.023	340.44
408.401	325.08
408.779	327.34
409.156	324.85
409.534	328.47
409.912	317.39
410.29	330.27
410.667	324.4
411.045	323.49
411.422	338.64
411.8	323.72
412.178	319.88
412.555	329.14
412.933	332.31
413.31	319.65
413.687	326.88
414.065	322.14
414.442	327.11
414.819	313.33
415.197	325.08
415.574	330.95
415.951	324.85
416.328	345.87
416.705	322.14
417.082	347.9
417.46	323.95
417.837	340.22
418.214	335.47
418.591	343.15
418.967	344.06
419.344	329.37
419.721	338.41
420.098	337.05
420.475	331.4
420.852	342.25
421.228	340.89
421.605	348.35
421.982	333.66
422.358	340.67
422.735	345.64
423.111	320.1
423.488	330.73
423.864	319.43
424.241	316.26
424.617	337.73
424.994	341.12
425.37	342.7
425.746	336.6
426.123	339.99
426.499	339.31
426.875	350.16
427.251	361.91
427.627	360.1
428.003	342.93
428.379	358.3
428.756	351.06
429.132	355.13
429.507	356.04
429.883	348.8
430.259	372.53
430.635	363.27
431.011	382.02
431.387	342.25
431.763	353.55
432.138	351.74
432.514	341.12
432.89	359.65
433.265	347.22
433.641	368.24
434.016	384.51
434.392	358.3
434.767	350.61
435.143	377.05
435.518	370.05
435.894	372.08
436.269	370.27
436.644	369.37
437.02	345.87
437.395	377.05
437.77	367.56
438.145	364.85
438.52	384.51
438.895	394.68
439.271	380.89
439.646	391.52
440.021	389.48
440.395	368.92
440.77	389.03
441.145	378.63
441.52	384.74
441.895	359.88
442.27	383.38
442.645	401.68
443.019	363.95
443.394	370.95
443.769	381.12
444.143	387.22
444.518	382.93
444.892	394.9
445.267	396.49
445.641	388.35
446.016	379.76
446.39	383.38
446.764	408.01
447.139	397.39
447.513	401.68
447.887	418.86
448.262	403.04
448.636	396.71
449.01	399.42
449.384	374.79
449.758	391.06
450.132	412.53
450.506	396.71
450.88	402.14
451.254	406.43
451.628	409.82
452.002	408.46
452.376	436.94
452.75	422.02
453.123	403.94
453.497	396.71
453.871	420.44
454.244	414.79
454.618	424.51
454.992	402.59
455.365	421.8
455.739	442.36
456.112	450.72
456.486	411.18
456.859	437.16
457.232	439.88
457.606	419.76
457.979	426.99
458.352	447.56
458.725	428.35
459.099	448.69
459.472	453.66
459.845	451.17
460.218	444.4
460.591	459.99
460.964	431.29
461.337	437.16
461.71	460.67
462.083	440.55
462.456	444.4
462.829	465.41
463.201	457.73
463.574	466.32
463.947	473.09
464.32	473.55
464.692	490.27
465.065	464.06
465.438	470.16
465.81	460.21
466.183	489.37
466.555	486.43
466.928	491.85
467.3	509.03
467.672	494.34
468.045	474.9
468.417	494.34
468.789	482.36
469.161	500.44
469.534	509.03
469.906	506.99
470.278	512.87
470.65	515.35
471.022	519.2
471.394	532.08
471.766	507.44
472.138	526.2
472.51	549.25
472.882	545.18
473.253	542.02
473.625	517.39
473.997	544.05
474.369	553.77
474.74	558.74
475.112	562.81
475.484	586.09
475.855	554.9
476.227	593.77
476.598	581.11
476.97	599.65
477.341	600.1
477.713	583.37
478.084	599.65
478.455	609.59
478.827	615.69
479.198	600.32
479.569	614.56
479.94	639.42
480.311	641.23
480.682	623.83
481.053	674.67
481.424	678.51
481.795	673.77
482.166	651.62
482.537	676.25
482.908	679.19
483.279	688.68
483.65	685.52
484.021	690.49
484.391	706.76
484.762	721.45
485.133	723.71
485.503	739.08
485.874	709.25
486.244	731.39
486.615	733.2
486.985	766.42
487.356	745.18
487.726	783.82
488.097	775.01
488.467	777.27
488.837	784.95
489.207	805.97
489.578	799.41
489.948	787.66
490.318	816.81
490.688	816.36
491.058	843.03
491.428	828.11
491.798	830.6
492.168	849.81
492.538	856.14
492.908	854.55
493.278	872.18
493.648	873.99
494.017	881.45
494.387	885.51
494.757	900.88
495.126	903.37
495.496	895.23
495.866	934.33
496.235	923.93
496.605	922.12
496.974	917.83
497.344	910.15
497.713	932.52
498.082	923.03
498.452	945.17
498.821	954.89
499.19	962.57
499.559	951.95
499.928	956.7
500.298	959.64
500.667	961.9
501.036	958.73
501.405	986.98
501.774	971.16
502.143	969.35
502.512	962.12
502.88	989.69
503.249	978.39
503.618	996.02
503.987	996.7
504.356	977.04
504.724	978.39
505.093	977.94
505.462	1009.58
505.83	1012.52
506.199	1026.75
506.567	1026.75
506.936	1015
507.304	1012.74
507.672	1017.49
508.041	1067.2
508.409	1042.57
508.777	1029.69
509.145	1046.64
509.514	1056.13
509.882	1046.64
510.25	1048.9
510.618	1072.63
510.986	1071.27
511.354	1075.34
511.722	1068.56
512.09	1048.45
512.458	1097.03
512.826	1075.79
513.193	1091.84
513.561	1097.94
513.929	1102.68
514.297	1132.74
514.664	1118.73
515.032	1094.55
515.4	1104.72
515.767	1115.79
516.135	1153.75
516.502	1124.15
516.869	1141.78
517.237	1147.88
517.604	1105.62
517.972	1131.61
518.339	1147.2
518.706	1173.19
519.073	1157.82
519.44	1170.03
519.808	1172.96
520.175	1150.14
520.542	1153.08
520.909	1174.32
521.276	1196.01
521.643	1154.43
522.009	1181.32
522.376	1213.41
522.743	1200.08
523.11	1208.67
523.477	1195.11
523.843	1197.6
524.21	1233.98
524.577	1218.16
524.943	1250.02
525.31	1230.36
525.676	1238.05
526.043	1273.53
526.409	1260.42
526.776	1237.37
527.142	1268.78
527.508	1268.1
527.874	1235.56
528.241	1256.58
528.607	1270.36
528.973	1271.04
529.339	1262.68
529.705	1276.92
530.071	1287.99
530.437	1270.81
530.803	1282.79
531.169	1296.12
531.535	1280.76
531.901	1293.86
532.267	1287.76
532.632	1287.31
532.998	1287.31
533.364	1308.1
533.73	1305.84
534.095	1351.49
534.461	1321.43
534.826	1287.54
535.192	1294.32
535.557	1301.77
535.923	1310.81
536.288	1324.82
536.653	1297.71
537.019	1317.82
537.384	1304.71
537.749	1308.78
538.114	1311.49
538.479	1330.25
538.845	1296.8
539.21	1330.25
539.575	1329.34
539.94	1306.52
540.305	1335.45
540.67	1356.24
541.034	1315.56
541.399	1304.03
541.764	1325.73
542.129	1359.63
542.494	1348.1
542.858	1318.72
543.223	1344.48
543.587	1349.91
543.952	1345.84
544.316	1331.83
544.681	1332.06
545.045	1329.12
545.41	1341.32
545.774	1339.51
546.138	1317.14
546.503	1328.21
546.867	1322.79
547.231	1330.93
547.595	1373.18
547.959	1357.14
548.324	1326.41
548.688	1345.84
549.052	1296.8
549.416	1366.63
549.779	1344.94
550.143	1350.81
550.507	1370.25
550.871	1352.62
551.235	1346.29
551.599	1362.79
551.962	1373.64
552.326	1365.05
552.689	1346.74
553.053	1357.82
553.417	1356.01
553.78	1372.51
554.143	1371.6
554.507	1364.6
554.87	1352.85
555.234	1363.92
555.597	1393.75
555.96	1379.06
556.323	1401.66
556.686	1377.93
557.05	1377.03
557.413	1370.02
557.776	1393.97
558.139	1387.42
558.502	1389.45
558.865	1382.68
559.228	1389.45
559.59	1400.98
559.953	1390.58
560.316	1419.51
560.679	1426.29
561.041	1418.38
561.404	1431.49
561.767	1433.3
562.129	1413.64
562.492	1430.13
562.854	1446.63
563.217	1407.08
563.579	1424.03
563.941	1404.37
564.304	1413.18
564.666	1440.53
565.028	1462.9
565.39	1440.53
565.753	1460.19
566.115	1480.3
566.477	1426.97
566.839	1452.73
567.201	1453.41
567.563	1469.23
567.925	1449.79
568.287	1467.87
568.648	1428.78
569.01	1480.53
569.372	1477.81
569.734	1456.12
570.095	1438.95
570.457	1488.89
570.819	1482.79
571.18	1491.37
571.542	1486.4
571.903	1463.8
572.265	1476.46
572.626	1445.27
572.987	1467.87
573.349	1445.72
573.71	1485.5
574.071	1480.53
574.432	1464.48
574.794	1454.31
575.155	1485.05
575.516	1472.84
575.877	1479.17
576.238	1480.75
576.599	1458.83
576.96	1485.27
577.32	1494.31
577.681	1472.84
578.042	1491.15
578.403	1485.05
578.763	1483.92
579.124	1502.9
579.485	1439.4
579.845	1465.84
580.206	1479.4
580.566	1482.56
580.927	1477.14
581.287	1489.34
581.648	1477.14
582.008	1487.08
582.368	1445.72
582.728	1478.04
583.089	1461.32
583.449	1457.02
583.809	1462.22
584.169	1451.15
584.529	1450.92
584.889	1479.17
585.249	1453.18
585.609	1457.7
585.969	1442.79
586.329	1429.45
586.688	1449.34
587.048	1422.45
587.408	1420.19
587.768	1426.97
588.127	1428.78
588.487	1454.76
588.846	1430.58
589.206	1440.98
589.565	1410.7
589.925	1417.02
590.284	1380.19
590.643	1428.78
591.003	1416.12
591.362	1449.57
591.721	1420.19
592.08	1425.84
592.44	1434.88
592.799	1433.52
593.158	1376.57
593.517	1418.38
593.876	1418.61
594.235	1433.52
594.593	1441.21
594.952	1432.39
595.311	1408.66
595.67	1415.44
596.029	1417.48
596.387	1398.72
596.746	1403.01
597.104	1415.22
597.463	1420.41
597.822	1429.68
598.18	1398.72
598.538	1407.53
598.897	1415.22
599.255	1410.92
599.613	1438.27
599.972	1419.96
600.33	1422.22
600.688	1421.77
601.046	1448.66
601.404	1435.78
601.762	1421.09
602.12	1418.38
602.478	1409.12
602.836	1415.44
603.194	1418.83
603.552	1420.19
603.91	1417.93
604.268	1397.14
604.625	1421.32
604.983	1422.45
605.341	1427.87
605.698	1429.68
606.056	1446.63
606.413	1451.15
606.771	1420.64
607.128	1440.98
607.485	1450.92
607.843	1440.3
608.2	1467.65
608.557	1452.96
608.914	1436.69
609.272	1441.43
609.629	1443.92
609.986	1456.35
610.343	1449.57
610.7	1459.28
611.057	1422.9
611.414	1448.89
611.771	1464.71
612.127	1433.3
612.484	1474.65
612.841	1483.92
613.198	1455.44
613.554	1461.09
613.911	1442.56
614.267	1457.02
614.624	1462.67
614.98	1496.34
615.337	1484.59
615.693	1465.61
616.05	1493.41
616.406	1459.74
616.762	1493.41
617.118	1471.26
617.475	1464.03
617.831	1494.09
618.187	1480.75
618.543	1483.46
618.899	1470.36
619.255	1471.49
619.611	1504.71
619.967	1473.52
620.323	1473.52
620.678	1470.58
621.034	1473.52
621.39	1501.54
621.746	1473.29
622.101	1470.58
622.457	1456.12
622.812	1466.74
623.168	1474.42
623.523	1492.73
623.879	1485.5
624.234	1488.44
624.589	1450.24
624.945	1480.3
625.3	1500.41
625.655	1490.02
626.01	1481.66
626.365	1470.36
626.72	1482.33
627.075	1466.52
627.43	1471.71
627.785	1465.84
628.14	1488.66
628.495	1475.55
628.85	1481.66
629.205	1473.97
629.559	1493.86
629.914	1467.87
630.269	1467.42
630.623	1480.07
630.978	1485.05
631.332	1470.36
631.687	1484.14
632.041	1451.83
632.396	1490.7
632.75	1457.02
633.104	1440.3
633.459	1445.05
633.813	1452.73
634.167	1447.08
634.521	1451.83
634.875	1466.06
635.229	1459.06
635.583	1455.22
635.937	1459.51
636.291	1467.87
636.645	1490.7
636.999	1462
637.352	1459.74
637.706	1483.24
638.06	1464.26
638.413	1469.23
638.767	1458.15
639.121	1466.97
639.474	1416.57
639.828	1448.89
640.181	1454.54
640.534	1465.39
640.888	1462
641.241	1441.43
641.594	1453.86
641.947	1468.55
642.301	1470.81
642.654	1473.29
643.007	1453.41
643.36	1468.32
643.713	1459.28
644.066	1463.35
644.419	1470.58
644.771	1428.55
645.124	1448.21
645.477	1441.21
645.83	1430.13
646.182	1442.79
646.535	1436.23
646.888	1443.24
647.24	1452.96
647.593	1466.97
647.945	1427.65
648.298	1463.13
648.65	1458.61
649.002	1457.7
649.355	1461.54
649.707	1444.37
650.059	1465.39
650.411	1511.03
650.763	1489.57
651.115	1517.59
651.467	1478.04
651.819	1496.57
652.171	1517.36
652.523	1520.98
652.875	1512.16
653.227	1518.27
653.578	1528.89
653.93	1497.93
654.282	1527.3
654.633	1553.97
654.985	1541.99
655.337	1538.15
655.688	1528.43
656.039	1548.32
656.391	1549.22
656.742	1564.14
657.094	1581.77
657.445	1535.21
657.796	1563.01
658.147	1552.84
658.498	1578.83
658.849	1627.87
659.2	1619.96
659.551	1591.71
659.902	1616.12
660.253	1627.19
660.604	1633.29
660.955	1637.58
661.306	1649.11
661.656	1621.09
662.007	1666.06
662.358	1660.86
662.708	1649.11
663.059	1691.37
663.409	1642.33
663.76	1685.49
664.11	1715.1
664.461	1700.86
664.811	1728.43
665.161	1701.31
665.511	1748.54
665.862	1729.79
666.212	1765.72
666.562	1763
666.912	1756.23
667.262	1759.39
667.612	1769.11
667.962	1793.51
668.312	1809.78
668.662	1816.34
669.011	1829.44
669.361	1853.17
669.711	1858.6
670.06	1881.19
670.41	1900.18
670.76	1876.67
671.109	1918.25
671.459	1883.68
671.808	1913.06
672.157	1932.04
672.507	1960.74
672.856	1911.7
673.205	1952.38
673.554	1995.99
673.904	1989.89
674.253	2003.68
674.602	1977.69
674.951	1991.47
675.3	2003
675.649	2047.74
675.998	2066.73
676.346	2096.56
676.695	2091.58
677.044	2077.35
677.393	2141.75
677.741	2117.35
678.09	2153.28
678.438	2166.38
678.787	2212.03
679.135	2176.55
679.484	2185.59
679.832	2242.99
680.181	2228.53
680.529	2264.46
680.877	2279.83
681.225	2295.19
681.573	2259.04
681.922	2310.33
682.27	2334.29
682.618	2367.73
682.966	2334.29
683.314	2346.72
683.661	2386.26
684.009	2382.42
684.357	2413.61
684.705	2412.48
685.053	2442.53
685.4	2452.03
685.748	2466.49
686.095	2462.2
686.443	2509.2
686.79	2536.32
687.138	2530.44
687.485	2566.15
687.832	2516.21
688.18	2565.7
688.527	2581.51
688.874	2605.02
689.221	2604.79
689.568	2660.16
689.915	2649.31
690.262	2685.92
690.609	2693.83
690.956	2724.34
691.303	2714.17
691.65	2758.23
691.997	2776.54
692.344	2792.81
692.69	2792.81
693.037	2806.37
693.383	2776.31
693.73	2846.82
694.077	2832.35
694.423	2840.49
694.769	2877.33
695.116	2880.04
695.462	2911
695.808	2913.03
696.155	2933.37
696.501	2959.36
696.847	2953.93
697.193	2932.92
697.539	2994.84
697.885	2994.16
698.231	3020.37
698.577	3008.4
698.923	3027.15
699.269	3055.63
699.614	3030.32
699.96	3047.72
700.306	3135.62
700.651	3105.57
700.997	3131.56
701.342	3160.03
701.688	3134.72
702.033	3163.42
702.379	3180.82
702.724	3195.74
703.069	3233.93
703.415	3236.64
703.76	3253.36
704.105	3280.48
704.45	3274.38
704.795	3280.03
705.14	3326.81
705.485	3279.57
705.83	3326.81
706.175	3349.18
706.52	3341.49
706.865	3349.63
707.209	3385.11
707.554	3389.63
707.899	3377.2
708.243	3419.46
708.588	3420.36
708.932	3435.95
709.277	3409.97
709.621	3483.64
709.966	3424.66
710.31	3468.95
710.654	3484.32
710.998	3483.64
711.342	3524.77
711.687	3512.79
712.031	3500.81
712.375	3511.43
712.719	3555.05
713.063	3564.54
713.407	3587.59
713.75	3606.57
714.094	3604.54
714.438	3577.19
714.782	3610.19
715.125	3601.6
715.469	3599.11
715.812	3628.04
716.156	3619.45
716.499	3642.96
716.843	3676.4
717.186	3675.04
717.53	3705.78
717.873	3676.17
718.216	3660.81
718.559	3685.67
718.902	3685.67
719.246	3714.82
719.589	3724.76
719.932	3702.84
720.275	3743.52
720.617	3738.32
720.96	3747.59
721.303	3747.36
721.646	3774.7
721.989	3731.09
722.331	3766.79
722.674	3790.07
723.016	3775.15
723.359	3841.14
723.701	3792.33
724.044	3812.44
724.386	3783.52
724.729	3812.89
725.071	3793.46
725.413	3814.48
725.755	3790.52
726.097	3821.26
726.439	3805.21
726.782	3771.99
727.124	3862.84
727.465	3873.46
727.807	3847.92
728.149	3867.13
728.491	3845.44
728.833	3828.94
729.175	3857.86
729.516	3832.55
729.858	3868.49
730.199	3892.44
730.541	3922.5
730.882	3915.26
731.224	3864.87
731.565	3847.47
731.906	3872.33
732.248	3899.45
732.589	3885.21
732.93	3885.89
733.271	3877.75
733.612	3936.05
733.953	3931.08
734.294	3929.95
734.635	3903.74
734.976	3950.29
735.317	3871.2
735.658	3893.57
735.999	3900.12
736.339	3899.67
736.68	3902.61
737.021	3922.04
737.361	3871.88
737.702	3889.95
738.042	3874.36
738.383	3853.35
738.723	3907.35
739.063	3929.95
739.404	3907.81
739.744	3932.44
740.084	3885.89
740.424	3902.84
740.764	3898.77
741.104	3880.91
741.444	3876.17
741.784	3893.12
742.124	3883.63
742.464	3893.57
742.804	3924.08
743.143	3867.36
743.483	3841.82
743.823	3869.39
744.162	3850.41
744.502	3889.5
744.841	3894.47
745.181	3867.58
745.52	3841.14
745.86	3838.66
746.199	3843.4
746.538	3829.16
746.877	3869.62
747.216	3856.06
747.556	3834.81
747.895	3860.35
748.234	3852.89
748.573	3833.23
748.911	3834.14
749.25	3839.33
749.589	3844.53
749.928	3829.84
750.267	3826.68
750.605	3809.28
750.944	3795.49
751.283	3786.68
751.621	3784.19
751.96	3746.23
752.298	3776.51
752.636	3753.23
752.975	3786.68
753.313	3762.5
753.651	3788.26
753.989	3763.86
754.327	3767.92
754.666	3739.22
755.004	3747.59
755.342	3753.01
755.679	3705.78
756.017	3730.41
756.355	3748.26
756.693	3702.16
757.031	3727.92
757.368	3701.48
757.706	3708.04
758.044	3674.59
758.381	3699
758.719	3647.7
759.056	3677.08
759.394	3655.61
759.731	3622.39
760.068	3619.23
760.405	3649.06
760.743	3592.79
761.08	3609.28
761.417	3604.76
761.754	3592.79
762.091	3597.98
762.428	3590.98
762.765	3548.04
763.102	3565.22
763.438	3585.56
763.775	3569.06
764.112	3513.69
764.449	3512.11
764.785	3523.86
765.122	3509.63
765.458	3481.6
765.795	3531.09
766.131	3514.82
766.467	3514.37
766.804	3458.1
767.14	3464.88
767.476	3463.07
767.812	3449.29
768.148	3429.85
768.485	3426.46
768.821	3366.35
769.157	3393.47
769.492	3385.79
769.828	3404.09
770.164	3368.61
770.5	3356.63
770.836	3356.41
771.171	3335.84
771.507	3332.45
771.842	3309.18
772.178	3313.92
772.513	3373.13
772.849	3313.7
773.184	3288.16
773.519	3295.62
773.855	3307.82
774.19	3272.57
774.525	3243.19
774.86	3247.26
775.195	3240.93
775.53	3253.13
775.865	3228.5
776.2	3184.44
776.535	3206.58
776.87	3207.71
777.205	3170.43
777.539	3162.52
777.874	3152.35
778.209	3127.94
778.543	3166.81
778.878	3149.18
779.212	3095.85
779.547	3061.95
779.881	3090.2
780.215	3076.64
780.55	3096.08
780.884	3080.48
781.218	3098.79
781.552	3073.25
781.886	3047.72
782.22	3037.77
782.554	3035.06
782.888	2975.85
783.222	3031.22
783.556	2971.79
783.889	2974.05
784.223	2959.13
784.557	2948.28
784.89	2949.41
785.224	2958.45
785.557	2928.85
785.891	2943.99
786.224	2915.29
786.558	2886.82
786.891	2880.04
787.224	2915.52
787.557	2901.51
787.891	2868.96
788.224	2850.89
788.557	2876.42
788.89	2862.18
789.223	2850.89
789.556	2822.64
789.888	2815.18
790.221	2792.36
790.554	2776.31
790.887	2801.85
791.219	2819.93
791.552	2782.64
791.884	2712.81
792.217	2786.25
792.549	2762.3
792.882	2722.75
793.214	2760.72
793.546	2743.32
793.879	2731.34
794.211	2693.6
794.543	2740.15
794.875	2751.45
795.207	2723.43
795.539	2693.38
795.871	2721.17
796.203	2676.65
796.535	2637.78
796.867	2662.64
797.198	2676.65
797.53	2656.99
797.862	2630.78
798.193	2621.29
798.525	2654.51
798.856	2649.08
799.188	2602.08
799.519	2569.76
799.85	2578.58
800.182	2560.95
800.513	2606.37
800.844	2589.42
801.175	2608.86
801.506	2594.17
801.837	2554.17
802.168	2594.17
802.499	2495.41
802.83	2544
803.161	2530.67
803.491	2497
803.822	2526.15
804.153	2489.77
804.483	2512.14
804.814	2486.15
805.145	2473.04
805.475	2477.56
805.805	2472.14
806.136	2469.43
806.466	2480.27
806.796	2505.13
807.126	2444.79
807.457	2436.66
807.787	2468.75
808.117	2432.14
808.447	2433.95
808.777	2450.67
809.107	2434.85
809.436	2407.51
809.766	2466.26
810.096	2432.82
810.426	2371.8
810.755	2409.32
811.085	2400.28
811.414	2411.58
811.744	2377.68
812.073	2395.3
812.403	2346.72
812.732	2354.18
813.061	2371.58
813.39	2327.74
813.719	2361.63
814.049	2352.14
814.378	2323.44
814.707	2354.63
815.036	2371.8
815.365	2343.1
815.693	2321.41
816.022	2294.29
816.351	2298.81
816.68	2305.82
817.008	2304.01
817.337	2296.32
817.665	2310.11
817.994	2307.85
818.322	2282.99
818.651	2287.51
818.979	2276.66
819.307	2272.14
819.636	2259.26
819.964	2245.03
820.292	2264.69
820.62	2247.74
820.948	2229.88
821.276	2250.45
821.604	2251.58
821.932	2259.71
822.259	2280.51
822.587	2266.95
822.915	2247.06
823.243	2250.22
823.57	2230.11
823.898	2279.15
824.225	2269.66
824.553	2238.47
824.88	2232.14
825.207	2252.94
825.535	2253.84
825.862	2230.11
826.189	2248.64
826.516	2226.95
826.843	2220.39
827.17	2243.67
827.497	2257
827.824	2247.96
828.151	2252.48
828.478	2224.46
828.805	2263.78
829.131	2243.22
829.458	2273.27
829.785	2223.78
830.111	2216.1
830.438	2290.67
830.764	2224.46
831.09	2217.91
831.417	2245.48
831.743	2216.33
832.069	2215.2
832.395	2246.38
832.722	2223.78
833.048	2223.56
833.374	2235.31
833.7	2210
834.026	2226.27
834.351	2228.75
834.677	2214.07
835.003	2210.22
835.329	2198.25
835.654	2205.7
835.98	2171.81
836.306	2219.04
836.631	2219.72
836.956	2217.23
837.282	2205.25
837.607	2198.7
837.932	2168.42
838.258	2190.34
838.583	2196.21
838.908	2196.21
839.233	2202.99
839.558	2172.26
839.883	2175.2
840.208	2169.77
840.533	2171.58
840.858	2148.98
841.182	2159.6
841.507	2158.02
841.832	2155.99
842.156	2186.04
842.481	2148.08
842.805	2157.12
843.13	2118.93
843.454	2146.95
843.778	2145.59
844.103	2127.74
844.427	2130.9
844.751	2133.16
845.075	2129.32
845.399	2090
845.723	2105.14
846.047	2090.23
846.371	2080.06
846.695	2080.51
847.019	2112.37
847.343	2083.45
847.666	2044.58
847.99	2060.17
848.313	2069.89
848.637	2071.02
848.96	2064.47
849.284	2029.66
849.607	2026.27
849.931	2035.54
850.254	2006.16
850.577	2002.09
850.9	1991.25
851.223	2015.2
851.546	2000.29
851.869	1953.73
852.192	2003.45
852.515	1942.89
852.838	1968.42
853.161	1954.19
853.483	1933.62
853.806	1922.1
854.129	1962.55
854.451	1928.88
854.774	1927.52
855.096	1943.34
855.419	1915.54
855.741	1914.86
856.063	1919.38
856.385	1887.07
856.708	1889.33
857.03	1867.63
857.352	1897.92
857.674	1862.44
857.996	1894.75
858.318	1844.58
858.64	1867.18
858.961	1873.96
859.283	1883.91
859.605	1858.6
859.926	1857.47
860.248	1857.24
860.57	1818.14
860.891	1862.89
861.212	1828.99
861.534	1833.51
861.855	1825.6
862.176	1856.56
862.498	1838.48
862.819	1843.68
863.14	1826.05
863.461	1789.9
863.782	1792.38
864.103	1842.1
864.424	1798.48
864.745	1832.16
865.065	1797.13
865.386	1793.96
865.707	1782.89
866.027	1815.66
866.348	1814.3
866.668	1821.08
866.989	1807.3
867.309	1754.64
867.63	1793.29
867.95	1779.05
868.27	1777.47
868.59	1788.99
868.91	1768.88
869.23	1779.05
869.55	1783.57
869.87	1781.31
870.19	1766.17
870.51	1757.13
870.83	1737.69
871.15	1735.89
871.469	1754.19
871.789	1752.38
872.109	1772.95
872.428	1755.1
872.748	1748.77
873.067	1751.93
873.386	1730.24
873.706	1731.82
874.025	1731.82
874.344	1751.03
874.663	1721.42
874.982	1726.4
875.301	1739.5
875.62	1729.56
875.939	1727.75
876.258	1732.27
876.577	1718.94
876.896	1683.46
877.214	1716
877.533	1688.43
877.852	1744.02
878.17	1703.57
878.489	1706.96
878.807	1723.23
879.125	1694.08
879.444	1711.71
879.762	1697.24
880.08	1701.09
880.398	1692.72
880.716	1699.73
881.034	1674.42
881.352	1691.37
881.67	1681.42
881.988	1694.08
882.306	1669.9
882.624	1662.89
882.941	1656.11
883.259	1639.84
883.577	1645.95
883.894	1652.05
884.212	1648.43
884.529	1671.71
884.846	1659.28
885.164	1632.84
885.481	1593.29
885.798	1627.64
886.115	1657.92
886.432	1652.27
886.75	1614.76
887.067	1631.48
887.383	1619.51
887.7	1603.91
888.017	1619.05
888.334	1611.37
888.651	1608.43
888.967	1618.83
889.284	1607.98
889.6	1624.03
889.917	1591.48
890.233	1608.88
890.55	1591.26
890.866	1564.82
891.182	1577.92
891.498	1576.57
891.815	1571.6
892.131	1570.92
892.447	1579.51
892.763	1554.87
893.079	1547.87
893.395	1533.86
893.71	1537.47
894.026	1544.25
894.342	1544.71
894.657	1544.03
894.973	1517.59
895.289	1527.76
895.604	1543.12
895.92	1538.83
896.235	1524.37
896.55	1509.9
896.865	1520.3
897.181	1459.51
897.496	1490.02
897.811	1491.15
898.126	1514.42
898.441	1490.92
898.756	1501.54
899.071	1482.79
899.386	1479.17
899.7	1477.14
900.015	1464.03
900.33	1459.06
900.644	1459.74
900.959	1487.08
901.273	1456.35
901.588	1438.49
901.902	1440.98
902.216	1453.86
902.531	1421.54
902.845	1430.58
903.159	1429.91
903.473	1427.65
903.787	1432.39
904.101	1404.6
904.415	1431.49
904.729	1412.73
905.042	1411.83
905.356	1413.86
905.67	1414.77
905.984	1376.8
906.297	1375.44
906.611	1415.67
906.924	1383.81
907.237	1377.93
907.551	1371.6
907.864	1367.76
908.177	1356.46
908.491	1362.34
908.804	1329.8
909.117	1374.31
909.43	1355.33
909.743	1360.53
910.056	1377.7
910.368	1342.68
910.681	1316.24
910.994	1334.77
911.307	1324.6
911.619	1309.23
911.932	1317.14
912.244	1297.71
912.557	1300.19
912.869	1309.68
913.181	1331.6
913.494	1295.45
913.806	1309.68
914.118	1285.73
914.43	1282.11
914.742	1281.21
915.054	1266.75
915.366	1279.85
915.678	1280.53
915.99	1222
916.302	1261.32
916.613	1259.29
916.925	1251.38
917.236	1248.44
917.548	1237.14
917.859	1247.99
918.171	1240.31
918.482	1247.76
918.794	1248.89
919.105	1228.33
919.416	1226.3
919.727	1223.81
920.038	1219.06
920.349	1194.88
920.66	1176.58
920.971	1198.95
921.282	1202.12
921.593	1205.96
921.903	1194.21
922.214	1186.52
922.525	1179.52
922.835	1183.81
923.146	1161.21
923.456	1167.09
923.767	1172.96
924.077	1177.71
924.387	1162.12
924.697	1144.72
925.008	1160.76
925.318	1151.5
925.628	1144.49
925.938	1118.05
926.248	1110.82
926.558	1096.81
926.867	1138.39
927.177	1135.68
927.487	1123.47
927.796	1159.18
928.106	1107.43
928.416	1108.78
928.725	1098.16
929.034	1088.22
929.344	1101.33
929.653	1083.47
929.962	1110.59
930.271	1106.3
930.581	1091.61
930.89	1078.73
931.199	1078.05
931.508	1063.36
931.817	1095.9
932.125	1072.85
932.434	1065.62
932.743	1068.33
933.051	1069.01
933.36	1084.15
933.669	1035.11
933.977	1048.22
934.286	1043.25
934.594	1049.58
934.902	1065.17
935.21	1044.38
935.519	1045.06
935.827	1041.67
936.135	1035.79
936.443	1013.19
936.751	983.82
937.059	1018.84
937.367	1031.05
937.674	1019.52
937.982	1008.67
938.29	1014.1
938.597	1006.19
938.905	1015.45
939.213	1001.67
939.52	979.97
939.827	979.3
940.135	994.44
940.442	968
940.749	986.3
941.056	986.98
941.363	970.03
941.67	984.72
941.977	953.53
942.284	958.28
942.591	979.52
942.898	965.06
943.205	955.79
943.511	933.87
943.818	963.03
944.125	968.45
944.431	946.08
944.738	945.4
945.044	943.59
945.35	973.87
945.657	952.4
945.963	945.85
946.269	942.01
946.575	953.31
946.881	905.4
947.187	923.25
947.493	925.51
947.799	908.79
948.105	890.71
948.41	926.87
948.716	903.14
949.022	913.08
949.327	917.83
949.633	922.35
949.938	903.37
950.244	901.78
950.549	888.9
950.854	886.87
951.16	890.49
951.465	888.68
951.77	891.84
952.075	892.52
952.38	879.41
952.685	890.49
952.99	875.8
953.294	875.57
953.599	883.03
953.904	853.2
954.209	859.07
954.513	873.08
954.818	857.94
955.122	877.38
955.426	873.54
955.731	853.2
956.035	850.26
956.339	845.97
956.643	838.74
956.948	836.02
957.252	856.59
957.556	820.2
957.86	839.86
958.163	828.79
958.467	829.92
958.771	814.33
959.075	834.67
959.378	806.42
959.682	832.18
959.985	804.84
960.289	831.5
960.592	791.96
960.896	808.45
961.199	815.46
961.502	792.18
961.805	799.87
962.108	802.8
962.411	820.66
962.714	787.44
963.017	772.52
963.32	796.93
963.623	785.4
963.926	779.08
964.228	789.24
964.531	774.1
964.833	771.84
965.136	796.7
965.438	761.9
965.741	776.14
966.043	780.66
966.345	780.88
966.648	768.45
966.95	759.64
967.252	757.61
967.554	747.21
967.856	761
968.158	750.6
968.46	747.21
968.761	751.28
969.063	749.92
969.365	763.71
969.666	737.27
969.968	733.43
970.269	759.64
970.571	743.37
970.872	749.47
971.174	735.91
971.475	758.06
971.776	711.73
972.077	735.01
972.378	707.21
972.679	727.1
972.98	725.52
973.281	702.02
973.582	715.35
973.883	707.21
974.183	738.17
974.484	709.7
974.785	737.95
975.085	702.02
975.386	711.28
975.686	686.87
975.986	702.24
976.287	700.66
976.587	682.35
976.887	691.17
977.187	681.9
977.487	716.25
977.787	695.91
978.087	695.91
978.387	693.2
978.687	680.77
978.987	649.36
979.286	690.72
979.586	700.66
979.885	706.31
980.185	679.87
980.484	676.03
980.784	663.6
981.083	687.33
981.382	659.98
981.682	672.19
981.981	677.84
982.28	659.98
982.579	659.76
982.878	664.73
983.177	631.51
983.475	661.11
983.774	645.75
984.073	651.85
984.372	654.33
984.67	632.41
984.969	654.11
985.267	634.9
985.566	639.19
985.864	650.27
986.162	631.96
986.461	652.75
986.759	625.63
987.057	646.2
987.355	638.51
987.653	645.75
987.951	657.5
988.249	646.88
988.547	646.88
988.844	631.51
989.142	632.64
989.44	629.7
989.737	612.98
990.035	619.76
990.332	608.91
990.63	628.35
990.927	598.97
991.224	625.86
991.521	616.14
991.819	631.96
992.116	601.23
992.413	599.65
992.71	596.48
993.006	598.52
993.303	593.77
993.6	597.39
993.897	611.4
994.193	595.13
994.49	604.84
994.787	614.11
995.083	581.57
995.379	605.07
995.676	602.81
995.972	602.58
996.268	608.46
996.565	590.15
996.861	577.72
997.157	589.02
997.453	602.13
997.749	589.7
998.044	556.03
998.34	578.18
998.636	589.7
998.932	581.11
999.227	578.85
999.523	569.14
999.818	571.85
1000.114	565.07
1000.409	571.62
1000.704	577.27
1001	521.91
1001.295	545.64
1001.59	540.21
1001.885	567.56
1002.18	552.41
1002.475	541.79
1002.77	553.09
1003.065	560.55
1003.359	582.24
1003.654	550.16
1003.949	548.12
1004.243	572.98
1004.538	541.12
1004.832	550.16
1005.127	542.47
1005.421	533.66
1005.715	535.47
1006.009	516.03
1006.304	526.43
1006.598	532.3
1006.892	541.34
1007.186	530.72
1007.48	521
1007.773	520.55
1008.067	511.74
1008.361	535.24
1008.655	535.24
1008.948	535.01
1009.242	509.48
1009.535	515.81
1009.829	530.49
1010.122	507.44
1010.415	512.42
1010.708	499.31
1011.001	516.26
1011.295	515.13
1011.588	517.84
1011.881	502.92
1012.173	500.66
1012.466	502.92
1012.759	521.68
1013.052	496.82
1013.344	513.09
1013.637	515.58
1013.93	478.74
1014.222	499.08
1014.514	499.08
1014.807	472.64
1015.099	498.4
1015.391	498.86
1015.683	496.82
1015.976	505.86
1016.268	496.82
1016.56	483.49
1016.851	486.2
1017.143	487.78
1017.435	488.91
1017.727	494.11
1018.018	480.1
1018.31	488.91
1018.602	475.13
1018.893	459.31
1019.185	473.09
1019.476	455.47
1019.767	469.48
1020.058	472.19
1020.35	479.2
1020.641	480.55
1020.932	479.42
1021.223	474.9
1021.514	464.96
1021.804	455.02
1022.095	450.5
1022.386	453.21
1022.677	455.92
1022.967	452.3
1023.258	466.32
1023.548	442.14
1023.839	462.02
1024.129	474
1024.419	447.11
1024.709	442.59
1025	447.11
1025.29	447.56
1025.58	477.39
1025.87	433.77
1026.16	457.28
1026.449	468.35
1026.739	430.61
1027.029	445.98
1027.319	451.17
1027.608	454.56
1027.898	444.62
1028.187	448.46
1028.477	440.33
1028.766	451.63
1029.055	417.73
1029.344	437.62
1029.634	416.37
1029.923	444.17
1030.212	423.83
1030.501	442.14
1030.79	429.48
1031.078	430.84
1031.367	408.46
1031.656	410.05
1031.945	430.84
1032.233	425.64
1032.522	422.02
1032.81	421.34
1033.099	425.86
1033.387	419.99
1033.675	412.76
1033.963	425.86
1034.251	413.21
1034.54	415.02
1034.828	408.01
1035.116	412.98
1035.403	414.11
1035.691	406.88
1035.979	419.54
1036.267	408.92
1036.554	399.42
1036.842	385.19
1037.129	386.32
1037.417	398.07
1037.704	407.56
1037.992	397.39
1038.279	423.6
1038.566	388.8
1038.853	388.8
1039.14	388.8
