Data from carpet_green_FLMS001491_00006.txt Node
Date: Wed Feb 08 10:34:48 GMT 2017
User: dcchb
Spectrometer: FLMS00149
Trigger mode: 0
Integration Time (sec): 2.000000E-2
Scans to average: 10
Electric dark correction enabled: true
Nonlinearity correction enabled: false
Boxcar width: 0
XAxis mode: Wavelengths
Number of Pixels in Spectrum: 2048
>>>>>Begin Spectral Data<<<<<
341.393	6.13
341.776	6.13
342.16	6.13
342.543	-58.73
342.927	-75.45
343.31	-64.15
343.693	-66.86
344.077	-60.76
344.46	-61.67
344.843	-60.76
345.226	-42.68
345.61	-27.99
345.993	-23.7
346.376	0.25
346.759	-4.49
347.142	26.02
347.525	53.81
347.908	61.72
348.291	66.24
348.674	82.96
349.057	122.06
349.44	131.55
349.823	132
350.206	153.92
350.588	161.61
350.971	168.16
351.354	203.41
351.737	206.35
352.119	218.55
352.502	241.38
352.884	263.98
353.267	248.61
353.65	280.47
354.032	256.29
354.414	263.75
354.797	278.66
355.179	286.8
355.562	289.06
355.944	300.13
356.326	307.36
356.709	318.44
357.091	297.87
357.473	313.24
357.855	317.76
358.238	286.57
358.62	320.92
359.002	331.32
359.384	311.21
359.766	326.35
360.148	313.92
360.53	312.34
360.912	304.43
361.294	322.28
361.676	310.98
362.057	315.05
362.439	299.46
362.821	284.77
363.203	300.81
363.584	299.23
363.966	305.33
364.348	276.63
364.729	299.23
365.111	288.16
365.493	271.43
365.874	289.96
366.256	295.61
366.637	295.84
367.019	272.34
367.4	302.62
367.781	288.83
368.163	302.17
368.544	282.96
368.925	301.94
369.306	296.97
369.688	272.11
370.069	262.85
370.45	274.82
370.831	287.03
371.212	280.02
371.593	292.9
371.974	269.85
372.355	272.11
372.736	286.12
373.117	275.95
373.498	267.82
373.879	280.25
374.26	272.11
374.641	252.68
375.021	275.95
375.402	304.43
375.783	292.45
376.163	296.97
376.544	311.66
376.925	299.68
377.305	293.13
377.686	286.12
378.066	281.83
378.447	278.44
378.827	268.72
379.208	289.51
379.588	283.64
379.968	305.33
380.349	297.65
380.729	293.81
381.109	311.21
381.489	290.64
381.87	290.19
382.25	294.48
382.63	282.96
383.01	307.36
383.39	304.2
383.77	282.96
384.15	298.1
384.53	301.04
384.91	308.04
385.29	309.85
385.67	309.17
386.049	302.85
386.429	310.08
386.809	298.78
387.189	289.29
387.568	308.49
387.948	296.07
388.328	305.78
388.707	303.52
389.087	315.95
389.466	309.85
389.846	316.4
390.225	288.16
390.605	295.39
390.984	308.95
391.363	299.46
391.743	302.85
392.122	312.11
392.501	332.22
392.881	299.46
393.26	301.94
393.639	315.27
394.018	308.95
394.397	318.21
394.776	310.08
395.155	306.23
395.534	312.56
395.913	314.14
396.292	297.65
396.671	314.14
397.05	312.11
397.429	304.43
397.808	284.54
398.186	295.61
398.565	309.17
398.944	323.41
399.323	303.3
399.701	315.27
400.08	320.02
400.458	306.23
400.837	307.36
401.215	317.76
401.594	324.09
401.972	299.68
402.351	316.63
402.729	313.01
403.107	313.69
403.486	330.64
403.864	302.85
404.242	300.81
404.62	310.3
404.999	321.38
405.377	334.48
405.755	317.99
406.133	316.4
406.511	322.73
406.889	339.91
407.267	330.64
407.645	322.51
408.023	324.09
408.401	316.86
408.779	329.51
409.156	331.77
409.534	327.93
409.912	319.57
410.29	322.05
410.667	318.21
411.045	328.61
411.422	308.49
411.8	308.95
412.178	321.83
412.555	319.12
412.933	320.25
413.31	326.12
413.687	309.17
414.065	326.12
414.442	347.82
414.819	327.48
415.197	321.38
415.574	321.38
415.951	350.75
416.328	332.45
416.705	322.28
417.082	336.29
417.46	336.97
417.837	329.51
418.214	327.48
418.591	332.67
418.967	331.77
419.344	341.04
419.721	355.05
420.098	339.45
420.475	334.26
420.852	330.42
421.228	345.56
421.605	346.69
421.982	363.18
422.358	333.35
422.735	344.2
423.111	350.3
423.488	334.03
423.864	347.14
424.241	353.92
424.617	339.45
424.994	344.2
425.37	357.31
425.746	325.67
426.123	321.6
426.499	347.59
426.875	333.58
427.251	321.15
427.627	358.21
428.003	354.37
428.379	363.63
428.756	332
429.132	339
429.507	357.08
429.883	350.75
430.259	359.79
430.635	349.17
431.011	368.38
431.387	361.15
431.763	353.47
432.138	359.34
432.514	350.08
432.89	364.99
433.265	369.28
433.641	353.92
434.016	359.79
434.392	376.74
434.767	351.66
435.143	380.58
435.518	369.06
435.894	371.54
436.269	381.26
436.644	372.67
437.02	356.4
437.395	350.98
437.77	362.96
438.145	380.13
438.52	375.84
438.895	371.09
439.271	378.1
439.646	393.01
440.021	388.72
440.395	377.65
440.77	378.78
441.145	375.16
441.52	369.51
441.895	381.04
442.27	395.95
442.645	373.35
443.019	387.14
443.394	394.82
443.769	386.23
444.143	405.22
444.518	375.61
444.892	385.33
445.267	390.53
445.641	412.9
446.016	390.98
446.39	394.14
446.764	380.36
447.139	379.45
447.513	391.43
447.887	384.42
448.262	384.88
448.636	395.27
449.01	415.38
449.384	411.99
449.758	417.42
450.132	401.6
450.506	384.42
450.88	413.58
451.254	416.29
451.628	404.99
452.002	397.31
452.376	407.93
452.75	403.63
453.123	405.67
453.497	420.36
453.871	450.19
454.244	419.45
454.618	412.9
454.992	421.94
455.365	435.72
455.739	402.5
456.112	434.59
456.486	426.01
456.859	422.16
457.232	431.2
457.606	416.51
457.979	448.15
458.352	440.24
458.725	437.76
459.099	452.9
459.472	446.12
459.845	449.28
460.218	442.73
460.591	446.12
460.964	441.37
461.337	437.98
461.71	464.2
462.083	468.04
462.456	450.64
462.829	437.08
463.201	470.07
463.574	467.59
463.947	472.11
464.32	470.3
464.692	479.11
465.065	449.73
465.438	471.88
465.81	465.33
466.183	488.15
466.555	494.7
466.928	489.28
467.3	495.83
467.672	493.8
468.045	496.74
468.417	499
468.789	501.48
469.161	522.05
469.534	498.09
469.906	514.14
470.278	509.17
470.65	523.63
471.022	524.99
471.394	497.64
471.766	538.77
472.138	534.7
472.51	514.82
472.882	548.71
473.253	553.23
473.625	531.54
473.997	564.53
474.369	556.62
474.74	546
475.112	557.08
475.484	568.37
475.855	573.35
476.227	577.19
476.598	573.8
476.97	588.71
477.341	599.56
477.713	594.14
478.084	613.12
478.455	606.11
478.827	634.14
479.198	632.55
479.569	625.55
479.94	643.63
480.311	646.34
480.682	622.16
481.053	647.47
481.424	679.56
481.795	652.89
482.166	679.56
482.537	674.81
482.908	678.2
483.279	684.76
483.65	675.94
484.021	691.08
484.391	694.7
484.762	702.16
485.133	708.48
485.503	708.26
485.874	721.59
486.244	719.78
486.615	737.64
486.985	734.02
487.356	743.74
487.726	756.39
488.097	744.64
488.467	772.44
488.837	796.84
489.207	778.76
489.578	788.71
489.948	795.26
490.318	813.34
490.688	789.16
491.058	792.55
491.428	783.28
491.798	816.28
492.168	820.8
492.538	834.58
492.908	850.85
493.278	853.34
493.648	826.9
494.017	844.98
494.387	843.17
494.757	848.14
495.126	868.25
495.496	862.6
495.866	879.55
496.235	872.32
496.605	882.26
496.974	888.14
497.344	858.31
497.713	880.23
498.082	908.03
498.452	891.3
498.821	899.67
499.19	916.39
499.559	900.34
499.928	907.35
500.298	915.71
500.667	947.8
501.036	943.73
501.405	944.41
501.774	955.26
502.143	938.99
502.512	971.75
502.88	958.42
503.249	945.99
503.618	944.41
503.987	955.94
504.356	970.62
504.724	985.77
505.093	953.45
505.462	968.82
505.83	979.44
506.199	968.82
506.567	986.44
506.936	1004.52
507.304	1010.17
507.672	991.41
508.041	1001.36
508.409	1006.1
508.777	1015.37
509.145	1031.87
509.514	1035.93
509.882	1021.47
510.25	993
510.618	1013.33
510.986	1005.43
511.354	1043.16
511.722	1035.48
512.09	1039.55
512.458	1044.52
512.826	1023.73
513.193	1047.23
513.561	1045.65
513.929	1052.43
514.297	1055.59
514.664	1045.65
515.032	1052.2
515.4	1089.72
515.767	1067.8
516.135	1106.21
516.502	1077.74
516.869	1084.97
517.237	1093.78
517.604	1071.86
517.972	1104.63
518.339	1103.05
518.706	1113.45
519.073	1095.14
519.44	1095.37
519.808	1110.28
520.175	1112.77
520.542	1100.79
520.909	1103.05
521.276	1144.63
521.643	1129.04
522.009	1152.99
522.376	1155.25
522.743	1152.77
523.11	1156.16
523.477	1163.84
523.843	1140.11
524.21	1152.54
524.577	1163.84
524.943	1169.49
525.31	1158.42
525.676	1160.9
526.043	1167.91
526.409	1179.21
526.776	1184.86
527.142	1206.55
527.508	1195.25
527.874	1182.6
528.241	1173.56
528.607	1192.99
528.973	1188.02
529.339	1203.61
529.705	1218.98
530.071	1211.75
530.437	1203.16
530.803	1176.04
531.169	1213.78
531.535	1203.84
531.901	1205.65
532.267	1232.31
532.632	1244.06
532.998	1234.12
533.364	1232.31
533.73	1228.02
534.095	1237.06
534.461	1218.3
534.826	1241.8
535.192	1237.96
535.557	1230.73
535.923	1223.27
536.288	1221.47
536.653	1235.02
537.019	1220.11
537.384	1221.24
537.749	1248.36
538.114	1223.95
538.479	1227.79
538.845	1232.31
539.21	1235.7
539.575	1232.09
539.94	1258.75
540.305	1254.46
540.67	1224.18
541.034	1236.83
541.399	1252.2
541.764	1251.97
542.129	1230.28
542.494	1238.19
542.858	1232.54
543.223	1253.1
543.587	1256.49
543.952	1273.44
544.316	1237.96
544.681	1225.31
545.045	1256.72
545.41	1240.67
545.774	1258.3
546.138	1273.67
546.503	1250.62
546.867	1257.4
547.231	1271.63
547.595	1261.46
547.959	1254.23
548.324	1238.41
548.688	1274.57
549.052	1261.92
549.416	1251.75
549.779	1281.35
550.143	1244.74
550.507	1259.43
550.871	1281.12
551.235	1234.35
551.599	1259.66
551.962	1235.7
552.326	1299.43
552.689	1263.95
553.053	1249.03
553.417	1269.83
553.78	1278.41
554.143	1289.49
554.507	1258.98
554.87	1281.58
555.234	1298.53
555.597	1295.14
555.96	1289.26
556.323	1263.72
556.686	1291.52
557.05	1274.8
557.413	1267.34
557.776	1301.01
558.139	1299.66
558.502	1308.24
558.865	1313.89
559.228	1300.56
559.59	1328.81
559.953	1299.43
560.316	1282.48
560.679	1299.88
561.041	1312.99
561.404	1333.33
561.767	1333.55
562.129	1331.52
562.492	1353.44
562.854	1334
563.217	1308.24
563.579	1334.91
563.941	1336.26
564.304	1351.18
564.666	1347.11
565.028	1361.12
565.39	1355.7
565.753	1343.04
566.115	1347.11
566.477	1356.83
566.839	1335.59
567.201	1361.57
567.563	1350.05
567.925	1341.24
568.287	1361.12
568.648	1351.63
569.01	1352.99
569.372	1395.7
569.734	1362.7
570.095	1368.35
570.457	1350.95
570.819	1382.36
571.18	1379.43
571.542	1355.25
571.903	1388.69
572.265	1376.49
572.626	1391.4
572.987	1367.9
573.349	1370.61
573.71	1371.97
574.071	1373.33
574.432	1385.75
574.794	1381.23
575.155	1399.09
575.516	1367.9
575.877	1373.55
576.238	1367.45
576.599	1392.99
576.96	1373.78
577.32	1379.88
577.681	1406.54
578.042	1369.71
578.403	1352.08
578.763	1366.32
579.124	1361.8
579.485	1355.02
579.845	1376.04
580.206	1395.25
580.566	1372.87
580.927	1365.64
581.287	1354.79
581.648	1347.56
582.008	1353.89
582.368	1368.13
582.728	1378.52
583.089	1349.37
583.449	1342.37
583.809	1363.83
584.169	1376.49
584.529	1362.25
584.889	1361.35
585.249	1355.47
585.609	1343.95
585.969	1346.21
586.329	1363.16
586.688	1338.07
587.048	1322.03
587.408	1363.16
587.768	1333.78
588.127	1344.85
588.487	1373.1
588.846	1318.64
589.206	1321.12
589.565	1344.4
589.925	1345.3
590.284	1330.16
590.643	1358.64
591.003	1339.43
591.362	1324.51
591.721	1378.07
592.08	1332.65
592.44	1340.78
592.799	1329.71
593.158	1336.94
593.517	1336.04
593.876	1345.53
594.235	1310.5
594.593	1325.42
594.952	1331.52
595.311	1333.1
595.67	1331.07
596.029	1331.07
596.387	1364.74
596.746	1317.51
597.104	1306.21
597.463	1340.56
597.822	1327.68
598.18	1341.24
598.538	1317.06
598.897	1374.68
599.255	1324.29
599.613	1344.85
599.972	1352.54
600.33	1328.58
600.688	1331.74
601.046	1306.66
601.404	1318.86
601.762	1301.01
602.12	1349.6
602.478	1336.94
602.836	1317.28
603.194	1348.47
603.552	1338.3
603.91	1356.6
604.268	1334.46
604.625	1352.99
604.983	1331.29
605.341	1359.54
605.698	1348.24
606.056	1329.26
606.413	1342.14
606.771	1338.52
607.128	1345.98
607.485	1341.01
607.843	1358.41
608.2	1389.82
608.557	1346.66
608.914	1353.66
609.272	1330.61
609.629	1355.7
609.986	1370.61
610.343	1375.59
610.7	1377.85
611.057	1368.58
611.414	1351.63
611.771	1373.78
612.127	1365.19
612.484	1364.06
612.841	1406.77
613.198	1366.32
613.554	1364.96
613.911	1369.03
614.267	1359.54
614.624	1367.68
614.98	1385.98
615.337	1369.03
615.693	1358.41
616.05	1360.22
616.406	1407
616.762	1380.78
617.118	1374.23
617.475	1407.22
617.831	1398.86
618.187	1395.25
618.543	1408.58
618.899	1375.36
619.255	1395.02
619.611	1385.53
619.967	1404.74
620.323	1392.99
620.678	1394.12
621.034	1378.07
621.39	1366.09
621.746	1391.18
622.101	1395.47
622.457	1385.98
622.812	1351.86
623.168	1397.28
623.523	1385.75
623.879	1374.23
624.234	1337.62
624.589	1363.16
624.945	1382.36
625.3	1361.35
625.655	1393.21
626.01	1367.22
626.365	1379.65
626.72	1387.34
627.075	1389.37
627.43	1367.9
627.785	1401.35
628.14	1376.26
628.495	1375.13
628.85	1383.72
629.205	1382.14
629.559	1415.58
629.914	1370.84
630.269	1385.08
630.623	1387.79
630.978	1362.48
631.332	1378.98
631.687	1369.48
632.041	1368.81
632.396	1373.78
632.75	1364.74
633.104	1372.65
633.459	1341.01
633.813	1360.44
634.167	1347.34
634.521	1349.82
634.875	1390.5
635.229	1378.3
635.583	1362.48
635.937	1345.3
636.291	1361.12
636.645	1355.7
636.999	1360.67
637.352	1348.24
637.706	1349.6
638.06	1350.95
638.413	1365.42
638.767	1311.18
639.121	1332.87
639.474	1349.15
639.828	1360.67
640.181	1363.16
640.534	1367.68
640.888	1370.39
641.241	1378.52
641.594	1396.15
641.947	1392.76
642.301	1360.9
642.654	1354.57
643.007	1375.81
643.36	1362.93
643.713	1363.38
644.066	1386.88
644.419	1365.64
644.771	1349.82
645.124	1369.03
645.477	1352.31
645.83	1350.05
646.182	1318.64
646.535	1311.86
646.888	1361.12
647.24	1351.63
647.593	1348.24
647.945	1360.22
648.298	1392.31
648.65	1365.87
649.002	1371.97
649.355	1376.04
649.707	1387.56
650.059	1356.6
650.411	1403.61
650.763	1408.8
651.115	1386.21
651.467	1404.74
651.819	1399.31
652.171	1434.34
652.523	1401.35
652.875	1409.26
653.227	1404.74
653.578	1413.78
653.93	1427.79
654.282	1413.78
654.633	1428.24
654.985	1429.37
655.337	1461.23
655.688	1479.09
656.039	1455.13
656.391	1437.96
656.742	1455.58
657.094	1471.85
657.445	1458.75
657.796	1478.18
658.147	1509.82
658.498	1472.31
658.849	1510.95
659.2	1500.1
659.551	1492.64
659.902	1515.02
660.253	1504.17
660.604	1550.04
660.955	1500.55
661.306	1523.15
661.656	1518.41
662.007	1554.11
662.358	1541
662.708	1589.59
663.059	1571.74
663.409	1564.28
663.76	1558.18
664.11	1596.82
664.461	1604.73
664.811	1613.77
665.161	1628.23
665.511	1612.87
665.862	1619.65
666.212	1659.87
666.562	1679.53
666.912	1651.51
667.262	1666.65
667.612	1682.47
667.962	1713.2
668.312	1714.56
668.662	1740.77
669.011	1743.03
669.361	1742.58
669.711	1764.5
670.06	1773.54
670.41	1785.29
670.76	1783.71
671.109	1799.3
671.459	1802.47
671.808	1833.2
672.157	1824.61
672.507	1841.56
672.856	1822.35
673.205	1885.85
673.554	1918.85
673.904	1908
674.253	1933.99
674.602	1936.7
674.951	1932.41
675.3	1907.77
675.649	1960.2
675.998	1993.42
676.346	1973.99
676.695	1986.64
677.044	2020.54
677.393	2009.01
677.741	2071.39
678.09	2082.69
678.438	2102.12
678.787	2069.8
679.135	2091.95
679.484	2156.36
679.832	2172.4
680.181	2154.1
680.529	2143.93
680.877	2202.91
681.225	2204.94
681.573	2233.64
681.922	2265.28
682.27	2253.98
682.618	2266.86
682.966	2280.42
683.314	2333.75
683.661	2335.11
684.009	2332.17
684.357	2368.78
684.705	2369.91
685.053	2418.04
685.4	2427.08
685.748	2410.81
686.095	2408.33
686.443	2453.75
686.79	2505.27
687.138	2514.54
687.485	2519.51
687.832	2546.4
688.18	2554.54
688.527	2591.6
688.874	2625.04
689.221	2597.93
689.568	2664.59
689.915	2638.15
690.262	2648.55
690.609	2707.75
690.956	2692.39
691.303	2740.97
691.65	2708.21
691.997	2745.72
692.344	2723.35
692.69	2787.98
693.037	2817.81
693.383	2828.88
693.73	2879.5
694.077	2895.09
694.423	2894.19
694.769	2922.66
695.116	2917.47
695.462	2965.15
695.808	2939.16
696.155	2988.42
696.501	3007.18
696.847	3027.07
697.193	3025.03
697.539	3078.14
697.885	3079.04
698.231	3075.65
698.577	3119.72
698.923	3130.34
699.269	3143.22
699.614	3141.41
699.96	3166.72
700.306	3207.18
700.651	3217.57
700.997	3208.08
701.342	3266.84
701.688	3312.26
702.033	3291.24
702.379	3309.77
702.724	3341.86
703.069	3315.42
703.415	3354.52
703.76	3381.41
704.105	3377.34
704.45	3442.65
704.795	3441.97
705.14	3460.05
705.485	3457.34
705.83	3501.63
706.175	3493.04
706.52	3505.02
706.865	3539.82
707.209	3545.47
707.554	3555.19
707.899	3594.51
708.243	3610.33
708.588	3652.81
708.932	3644.45
709.277	3648.75
709.621	3673.38
709.966	3656.2
710.31	3683.55
710.654	3711.57
710.998	3736.65
711.342	3815.07
711.687	3776.43
712.031	3747.5
712.375	3785.92
712.719	3813.49
713.063	3837.22
713.407	3847.38
713.75	3855.97
714.094	3870.66
714.438	3905.01
714.782	3912.47
715.125	3900.72
715.469	3915.63
715.812	3980.94
716.156	3961.28
716.499	3936.65
716.843	3962.18
717.186	3966.93
717.53	4025.91
717.873	4057.55
718.216	4040.6
718.559	4034.95
718.902	3996.08
719.246	4048.28
719.589	4037.66
719.932	4093.48
720.275	4109.07
720.617	4156.76
720.96	4083.31
721.303	4134.38
721.646	4138.45
721.989	4160.82
722.331	4185.91
722.674	4178
723.016	4174.83
723.359	4206.92
723.701	4228.39
724.044	4201.5
724.386	4232.69
724.729	4220.48
725.071	4223.19
725.413	4251.44
725.755	4279.01
726.097	4224.32
726.439	4285.34
726.782	4248.73
727.124	4287.15
727.465	4249.41
727.807	4277.88
728.149	4290.54
728.491	4311.33
728.833	4307.03
729.175	4305
729.516	4305
729.858	4307.03
730.199	4349.29
730.541	4330.54
730.882	4351.55
731.224	4328.95
731.565	4297.54
731.906	4363.53
732.248	4338.9
732.589	4306.58
732.93	4320.82
733.271	4305.45
733.612	4360.59
733.953	4333.25
734.294	4359.46
734.635	4328.73
734.976	4405.34
735.317	4354.26
735.658	4363.76
735.999	4377.99
736.339	4405.34
736.68	4389.74
737.021	4407.37
737.361	4357.65
737.702	4409.18
738.042	4375.05
738.383	4346.13
738.723	4372.12
739.063	4387.94
739.404	4380.03
739.744	4381.61
740.084	4402.4
740.424	4395.84
740.764	4398.78
741.104	4389.52
741.444	4337.99
741.784	4335.28
742.124	4362.85
742.464	4372.79
742.804	4383.19
743.143	4370.99
743.483	4361.04
743.823	4345.45
744.162	4357.43
744.502	4375.28
744.841	4337.99
745.181	4393.81
745.52	4372.79
745.86	4352.91
746.199	4351.78
746.538	4365.11
746.877	4386.58
747.216	4353.13
747.556	4352.23
747.895	4308.39
748.234	4312.46
748.573	4342.96
748.911	4323.76
749.25	4334.83
749.589	4326.02
749.928	4327.82
750.267	4361.27
750.605	4314.72
750.944	4330.54
751.283	4313.14
751.621	4287.15
751.96	4297.77
752.298	4322.17
752.636	4239.92
752.975	4274.72
753.313	4266.81
753.651	4276.3
753.989	4251.89
754.327	4220.48
754.666	4189.52
755.004	4217.32
755.342	4230.65
755.679	4249.63
756.017	4195.62
756.355	4194.04
756.693	4191.56
757.031	4193.36
757.368	4200.82
757.706	4163.99
758.044	4139.35
758.381	4144.78
758.719	4129.64
759.056	4141.16
759.394	4149.98
759.731	4116.3
760.068	4107.94
760.405	4074.27
760.743	4084.44
761.08	4086.7
761.417	4084.44
761.754	4071.33
762.091	4036.76
762.428	4036.53
762.765	4008.06
763.102	4053.03
763.438	4018.23
763.775	4005.57
764.112	4014.39
764.449	3951.79
764.785	3987.04
765.122	3946.37
765.458	3908.63
765.795	3960.38
766.131	3936.87
766.467	3907.04
766.804	3885.12
767.14	3928.06
767.476	3887.38
767.812	3847.16
768.148	3883.32
768.485	3887.61
768.821	3838.12
769.157	3818.91
769.492	3844.9
769.828	3815.75
770.164	3789.08
770.5	3770.55
770.836	3761.29
771.171	3723.77
771.507	3722.42
771.842	3748.86
772.178	3738.46
772.513	3763.09
772.849	3727.84
773.184	3743.43
773.519	3715.41
773.855	3666.82
774.19	3695.3
774.525	3657.33
774.86	3627.5
775.195	3626.37
775.53	3621.4
775.865	3632.48
776.2	3546.38
776.535	3616.66
776.87	3614.85
777.205	3594.06
777.539	3545.92
777.874	3585.92
778.209	3519.94
778.543	3506.83
778.878	3462.08
779.212	3493.27
779.547	3463.89
779.881	3461.41
780.215	3486.94
780.55	3466.38
780.884	3462.54
781.218	3451.01
781.552	3462.54
781.886	3372.59
782.22	3409.43
782.554	3382.99
782.888	3364.91
783.222	3383.22
783.556	3372.37
783.889	3319.26
784.223	3309.55
784.557	3326.04
784.89	3311.13
785.224	3307.29
785.557	3309.55
785.891	3298.02
786.224	3253.05
786.558	3278.36
786.891	3206.05
787.224	3208.53
787.557	3187.97
787.891	3204.46
788.224	3230.23
788.557	3232.49
788.89	3255.08
789.223	3179.83
789.556	3176.22
789.888	3190.68
790.221	3154.52
790.554	3117.01
790.887	3106.39
791.219	3113.39
791.552	3133.28
791.884	3087.4
792.217	3083.56
792.549	3057.35
792.882	3032.26
793.214	3104.81
793.546	3052.38
793.879	3038.82
794.211	3031.81
794.543	3065.26
794.875	3030.68
795.207	3011.47
795.539	3013.96
795.871	3016.9
796.203	3037.46
796.535	3006.5
796.867	2950.91
797.198	2966.28
797.53	2976.9
797.862	2935.77
798.193	2940.06
798.525	2924.47
798.856	2921.76
799.188	2919.05
799.519	2900.97
799.85	2904.13
800.182	2891.03
800.513	2903.68
800.844	2864.81
801.175	2839.28
801.506	2880.4
801.837	2857.81
802.168	2874.3
802.499	2825.49
802.83	2846.51
803.161	2819.84
803.491	2791.37
803.822	2790.92
804.153	2801.54
804.483	2809.45
804.814	2762.89
805.145	2755.66
805.475	2765.38
805.805	2773.06
806.136	2785.72
806.466	2747.98
806.796	2757.24
807.126	2734.19
807.457	2743.23
807.787	2751.37
808.117	2693.52
808.447	2734.87
808.777	2750.24
809.107	2708.21
809.436	2672.95
809.766	2681.54
810.096	2675.89
810.426	2684.7
810.755	2645.38
811.085	2733.74
811.414	2646.74
811.744	2643.35
812.073	2657.81
812.403	2648.55
812.732	2608.77
813.061	2618.72
813.39	2599.73
813.719	2583.46
814.049	2623.46
814.378	2585.95
814.707	2555.44
815.036	2569.23
815.365	2599.96
815.693	2565.38
816.022	2585.72
816.351	2583.92
816.68	2563.35
817.008	2509.57
817.337	2518.83
817.665	2547.98
817.994	2529
818.322	2519.06
818.651	2537.14
818.979	2488.1
819.307	2509.57
819.636	2514.54
819.964	2495.78
820.292	2510.24
820.62	2467.08
820.948	2528.1
821.276	2526.52
821.604	2512.5
821.932	2502.34
822.259	2512.73
822.587	2480.19
822.915	2472.96
823.243	2518.38
823.57	2482.67
823.898	2490.36
824.225	2488.55
824.553	2462.56
824.88	2467.99
825.207	2468.89
825.535	2498.49
825.862	2475.67
826.189	2494.88
826.516	2505.95
826.843	2478.38
827.17	2499.62
827.497	2506.18
827.824	2467.08
828.151	2463.69
828.478	2500.98
828.805	2474.99
829.131	2506.85
829.458	2522
829.785	2473.64
830.111	2471.15
830.438	2498.95
830.764	2487.19
831.09	2472.28
831.417	2472.96
831.743	2471.38
832.069	2457.82
832.395	2477.25
832.722	2441.55
833.048	2470.25
833.374	2491.26
833.7	2437.03
834.026	2473.86
834.351	2499.85
834.677	2429.34
835.003	2469.79
835.329	2459.62
835.654	2449.23
835.98	2444.26
836.306	2478.61
836.631	2410.36
836.956	2444.03
837.282	2444.94
837.607	2436.8
837.932	2420.98
838.258	2415.33
838.583	2421.21
838.908	2386.18
839.233	2425.95
839.558	2415.78
839.883	2377.14
840.208	2373.75
840.533	2397.48
840.858	2383.02
841.182	2393.41
841.507	2402.9
841.832	2357.71
842.156	2400.19
842.481	2372.62
842.805	2393.86
843.13	2401.32
843.454	2376.69
843.778	2343.24
844.103	2373.3
844.427	2355.22
844.751	2351.6
845.075	2323.81
845.399	2347.99
845.723	2343.02
846.047	2301.21
846.371	2337.14
846.695	2296.69
847.019	2287.2
847.343	2273.87
847.666	2284.26
847.99	2263.7
848.313	2249.91
848.637	2221.21
848.96	2254.66
849.284	2271.38
849.607	2262.79
849.931	2204.49
850.254	2199.29
850.577	2190.93
850.9	2209.01
851.223	2227.54
851.546	2221.89
851.869	2177.6
852.192	2175.79
852.515	2160.65
852.838	2157.94
853.161	2152.06
853.483	2105.51
853.806	2138.73
854.129	2129.92
854.451	2123.14
854.774	2139.63
855.096	2082.91
855.419	2081.56
855.741	2098.05
856.063	2120.88
856.385	2076.81
856.708	2061.22
857.03	2079.3
857.352	2084.49
857.674	2085.62
857.996	2072.97
858.318	2086.3
858.64	2039.3
858.961	2081.33
859.283	2064.61
859.605	2052.86
859.926	2076.81
860.248	2075.91
860.57	1998.85
860.891	2021.22
861.212	2044.95
861.534	2032.29
861.855	2014.66
862.176	2043.59
862.498	2016.02
862.819	2035.45
863.14	2028.68
863.461	2051.5
863.782	2010.82
864.103	1987.55
864.424	1986.64
864.745	1986.64
865.065	1999.75
865.386	1992.97
865.707	1994.1
866.027	1961.56
866.348	1967.66
866.668	1981.67
866.989	1950.94
867.309	1977.6
867.63	1976.93
867.95	1975.8
868.27	1963.82
868.59	1955.46
868.91	1966.53
869.23	1931.5
869.55	1932.41
869.87	1956.36
870.19	1922.46
870.51	1938.51
870.83	1927.66
871.15	1942.8
871.469	1929.47
871.789	1946.64
872.109	1926.53
872.428	1902.58
872.748	1938.06
873.067	1907.32
873.386	1915.68
873.706	1929.47
874.025	1896.48
874.344	1931.95
874.663	1900.09
874.982	1892.63
875.301	1920.43
875.62	1900.09
875.939	1904.61
876.258	1901.45
876.577	1898.96
876.896	1899.64
877.214	1882.24
877.533	1887.44
877.852	1868.91
878.17	1866.87
878.489	1891.73
878.807	1887.21
879.125	1893.54
879.444	1866.19
879.762	1877.72
880.08	1873.88
880.398	1838.4
880.716	1873.2
881.034	1836.14
881.352	1864.16
881.67	1870.04
881.988	1853.99
882.306	1832.3
882.624	1828
882.941	1849.47
883.259	1849.25
883.577	1823.26
883.894	1821.22
884.212	1776.25
884.529	1824.61
884.846	1809.47
885.164	1808.12
885.481	1829.58
885.798	1775.8
886.115	1808.57
886.432	1798.85
886.75	1799.08
887.067	1782.13
887.383	1786.2
887.7	1774.67
888.017	1780.77
888.334	1786.87
888.651	1786.87
888.967	1792.98
889.284	1772.19
889.6	1760.21
889.917	1734.45
890.233	1739.64
890.55	1754.56
890.866	1733.77
891.182	1729.25
891.498	1752.98
891.815	1695.12
892.131	1721.11
892.447	1735.8
892.763	1761.79
893.079	1718.18
893.395	1699.19
893.71	1718.85
894.026	1717.05
894.342	1692.87
894.657	1710.94
894.973	1699.64
895.289	1656.48
895.604	1678.85
895.92	1667.1
896.235	1690.38
896.55	1670.72
896.865	1669.59
897.181	1624.62
897.496	1672.75
897.811	1634.79
898.126	1644.05
898.441	1660.1
898.756	1635.69
899.071	1626.88
899.386	1608.8
899.7	1621.68
900.015	1611.29
900.33	1611.51
900.644	1611.06
900.959	1580.1
901.273	1623.71
901.588	1574.22
901.902	1564.28
902.216	1562.47
902.531	1561.34
902.845	1559.99
903.159	1555.02
903.473	1546.88
903.787	1554.79
904.101	1601.34
904.415	1543.94
904.729	1550.95
905.042	1539.65
905.356	1556.37
905.67	1491.74
905.984	1575.35
906.297	1509.59
906.611	1512.98
906.924	1515.47
907.237	1547.78
907.551	1508.69
907.864	1497.16
908.177	1507.56
908.491	1518.63
908.804	1502.59
909.117	1450.84
909.43	1459.88
909.743	1498.75
910.056	1457.62
910.368	1445.19
910.681	1457.17
910.994	1455.81
911.307	1448.58
911.619	1441.8
911.932	1452.19
912.244	1426.43
912.557	1423.04
912.869	1440.67
913.181	1420.56
913.494	1413.55
913.806	1391.18
914.118	1375.81
914.43	1397.51
914.742	1375.36
915.054	1387.79
915.366	1360.22
915.678	1360.67
915.99	1349.6
916.302	1348.47
916.613	1353.21
916.925	1341.24
917.236	1372.65
917.548	1356.6
917.859	1338.07
918.171	1328.35
918.482	1328.13
918.794	1345.3
919.105	1321.8
919.416	1312.54
919.727	1345.08
920.038	1305.08
920.349	1323.16
920.66	1306.66
920.971	1300.11
921.282	1289.49
921.593	1307.34
921.903	1272.76
922.214	1300.79
922.525	1274.12
922.835	1254.68
923.146	1251.75
923.456	1260.11
923.767	1266.44
924.077	1259.66
924.387	1273.67
924.697	1249.03
925.008	1237.28
925.318	1237.74
925.628	1232.76
925.938	1234.8
926.248	1248.81
926.558	1257.4
926.867	1221.01
927.177	1232.09
927.487	1207
927.796	1214.23
928.106	1194.57
928.416	1215.36
928.725	1214.91
929.034	1223.72
929.344	1189.15
929.653	1171.75
929.962	1215.82
930.271	1196.15
930.581	1167.68
930.89	1195.03
931.199	1183.05
931.508	1160.68
931.817	1197.28
932.125	1157.06
932.434	1153.22
932.743	1167.91
933.051	1148.47
933.36	1139.89
933.669	1146.21
933.977	1135.14
934.286	1162.94
934.594	1144.18
934.902	1127
935.21	1135.37
935.519	1105.54
935.827	1135.82
936.135	1140.11
936.443	1102.37
936.751	1110.51
937.059	1099.66
937.367	1106.21
937.674	1099.43
937.982	1094.46
938.29	1087.46
938.597	1094.91
938.905	1065.31
939.213	1036.84
939.52	1089.94
939.827	1083.16
940.135	1065.76
940.442	1072.77
940.749	1065.31
941.056	1085.88
941.363	1035.93
941.67	1063.28
941.977	1059.66
942.284	1055.37
942.591	1031.41
942.898	1035.48
943.205	1036.61
943.511	1023.5
943.818	1056.72
944.125	1021.02
944.431	1033.67
944.738	1040.45
945.044	1012.43
945.35	999.1
945.657	1021.47
945.963	999.1
946.269	1009.49
946.575	1025.54
946.881	1021.24
947.187	999.1
947.493	1005.2
947.799	983.05
948.105	993
948.41	1011.98
948.716	958.42
949.022	963.39
949.327	969.04
949.633	958.2
949.938	935.14
950.244	978.99
950.549	948.48
950.854	957.29
951.16	961.36
951.465	932.21
951.77	982.38
952.075	935.6
952.38	919.55
952.685	948.25
952.99	950.29
953.294	953
953.599	940.79
953.904	926.78
954.209	932.66
954.513	911.19
954.818	916.16
955.122	921.36
955.426	937.4
955.731	933.34
956.035	899.67
956.339	903.06
956.643	884.52
956.948	920
957.252	898.08
957.556	905.54
957.86	887.91
958.163	887.46
958.467	880.91
958.771	873.9
959.075	881.59
959.378	896.73
959.682	895.37
959.985	867.12
960.289	883.17
960.592	872.55
960.896	862.15
961.199	867.8
961.502	862.83
961.805	870.74
962.108	886.56
962.411	858.08
962.714	858.08
963.017	856.73
963.32	846.33
963.623	855.37
963.926	835.03
964.228	831.64
964.531	872.1
964.833	834.36
965.136	828.03
965.438	816.5
965.741	840.46
966.043	787.13
966.345	840.23
966.648	817.86
966.95	811.98
967.252	787.35
967.554	814.7
967.856	816.05
968.158	789.16
968.46	818.76
968.761	797.3
969.063	812.66
969.365	801.14
969.666	802.04
969.968	767.69
970.269	787.13
970.571	778.09
970.872	774.7
971.174	800.23
971.475	781.02
971.776	759.1
972.077	779.44
972.378	772.44
972.679	780.12
972.98	790.97
973.281	785.77
973.582	730.63
973.883	763.62
974.183	751.42
974.484	785.77
974.785	755.94
975.085	769.05
975.386	753.45
975.686	761.82
975.986	757.3
976.287	745.77
976.587	754.36
976.887	755.49
977.187	743.29
977.487	756.17
977.787	729.27
978.087	736.73
978.387	753
978.687	732.44
978.987	731.53
979.286	708.26
979.586	719.56
979.885	735.83
980.185	709.16
980.484	708.71
980.784	729.27
981.083	719.78
981.382	722.04
981.682	717.52
981.981	720.46
982.28	710.29
982.579	701.25
982.878	712.55
983.177	692.44
983.475	713.91
983.774	695.6
984.073	702.61
984.372	716.62
984.67	687.92
984.969	698.99
985.267	677.75
985.566	719.11
985.864	690.41
986.162	680.24
986.461	701.93
986.759	691.31
987.057	667.36
987.355	684.76
987.653	682.5
987.951	686.11
988.249	694.47
988.547	667.13
988.844	683.63
989.142	667.36
989.44	683.85
989.737	663.51
990.035	647.92
990.332	656.28
990.63	646.34
990.927	651.08
991.224	640.24
991.521	655.6
991.819	645.21
992.116	651.99
992.413	637.98
992.71	642.72
993.006	630.29
993.303	643.85
993.6	640.01
993.897	640.69
994.193	649.5
994.49	635.94
994.787	612.89
995.083	633.46
995.379	639.11
995.676	625.32
995.972	615.38
996.268	612.89
996.565	611.31
996.861	619
997.157	633.91
997.453	595.04
997.749	618.32
998.044	607.92
998.34	608.15
998.636	628.49
998.932	607.7
999.227	608.83
999.523	594.14
999.818	606.34
1000.114	594.14
1000.409	592.33
1000.704	602.05
1001	598.2
1001.295	582.16
1001.59	597.07
1001.885	593.23
1002.18	581.26
1002.475	592.33
1002.77	589.17
1003.065	568.37
1003.359	582.39
1003.654	564.08
1003.949	572.44
1004.243	570.86
1004.538	579.9
1004.832	582.84
1005.127	570.86
1005.421	548.71
1005.715	574.48
1006.009	549.39
1006.304	554.36
1006.598	565.44
1006.892	557.53
1007.186	546.45
1007.48	548.04
1007.773	560.01
1008.067	550.75
1008.361	536.74
1008.655	556.62
1008.948	552.33
1009.242	527.7
1009.535	544.65
1009.829	512.78
1010.122	531.99
1010.415	543.97
1010.708	541.03
1011.001	526.34
1011.295	536.74
1011.588	529.05
1011.881	527.25
1012.173	528.38
1012.466	543.74
1012.759	546.45
1013.052	520.47
1013.344	522.73
1013.637	522.05
1013.93	530.64
1014.222	502.61
1014.514	513.91
1014.807	509.62
1015.099	503.52
1015.391	509.39
1015.683	521.37
1015.976	530.18
1016.268	498.09
1016.56	509.39
1016.851	496.74
1017.143	510.75
1017.435	498.55
1017.727	519.56
1018.018	513.01
1018.31	510.98
1018.602	514.82
1018.893	513.91
1019.185	495.38
1019.476	489.51
1019.767	511.65
1020.058	493.8
1020.35	479.56
1020.641	478.66
1020.932	491.54
1021.223	481.37
1021.514	486.57
1021.804	477.98
1022.095	497.42
1022.386	488.83
1022.677	486.12
1022.967	479.11
1023.258	487.02
1023.548	486.12
1023.839	480.24
1024.129	479.11
1024.419	470.3
1024.709	471.43
1025	491.77
1025.29	467.59
1025.58	468.72
1025.87	459
1026.16	450.41
1026.449	484.54
1026.739	452.22
1027.029	463.97
1027.319	445.44
1027.608	462.61
1027.898	451.54
1028.187	436.4
1028.477	456.51
1028.766	454.93
1029.055	468.94
1029.344	459.23
1029.634	455.38
1029.923	454.93
1030.212	439.79
1030.501	450.19
1030.79	440.47
1031.078	428.49
1031.367	439.11
1031.656	426.91
1031.945	447.7
1032.233	456.97
1032.522	433.69
1032.81	440.02
1033.099	449.06
1033.387	424.2
1033.675	436.63
1033.963	433.24
1034.251	437.98
1034.54	426.46
1034.828	436.17
1035.116	411.32
1035.403	433.69
1035.691	426.01
1035.979	411.09
1036.267	416.06
1036.554	423.29
1036.842	430.3
1037.129	425.1
1037.417	421.49
1037.704	410.86
1037.992	399.79
1038.279	413.58
1038.566	424.42
1038.853	424.42
1039.14	424.42
