Data from carpet_green_FLMS001491_00017.txt Node
Date: Wed Feb 08 10:34:59 GMT 2017
User: dcchb
Spectrometer: FLMS00149
Trigger mode: 0
Integration Time (sec): 2.000000E-2
Scans to average: 10
Electric dark correction enabled: true
Nonlinearity correction enabled: false
Boxcar width: 0
XAxis mode: Wavelengths
Number of Pixels in Spectrum: 2048
>>>>>Begin Spectral Data<<<<<
341.393	-13.5
341.776	-13.5
342.16	-13.5
342.543	-58.02
342.927	-82.43
343.31	-56.44
343.693	-82.2
344.077	-66.38
344.46	-54.86
344.843	-61.18
345.226	-23.22
345.61	-40.62
345.993	-27.74
346.376	9.32
346.759	17.01
347.142	21.07
347.525	37.8
347.908	56.78
348.291	89.55
348.674	70.56
349.057	110.56
349.44	136.1
349.823	152.37
350.206	161.63
350.588	168.64
350.971	182.2
351.354	201.63
351.737	194.4
352.119	219.26
352.502	254.06
352.884	246.83
353.267	259.48
353.65	269.43
354.032	280.73
354.414	275.53
354.797	281.86
355.179	313.27
355.562	283.21
355.944	304
356.326	295.87
356.709	313.72
357.091	301.97
357.473	315.75
357.855	304.91
358.238	289.54
358.62	314.85
359.002	317.56
359.384	317.56
359.766	306.94
360.148	300.39
360.53	301.74
360.912	308.07
361.294	294.06
361.676	310.78
362.057	302.2
362.439	310.33
362.821	300.16
363.203	308.75
363.584	311.69
363.966	278.69
364.348	294.06
364.729	290.22
365.111	303.33
365.493	293.38
365.874	275.08
366.256	291.12
366.637	293.83
367.019	282.76
367.4	242.08
367.781	288.18
368.163	298.81
368.544	261.07
368.925	276.89
369.306	290.67
369.688	289.54
370.069	278.24
370.45	267.39
370.831	278.69
371.212	271.24
371.593	286.15
371.974	290.44
372.355	288.86
372.736	281.18
373.117	274.85
373.498	289.31
373.879	281.63
374.26	274.85
374.641	283.21
375.021	285.47
375.402	248.41
375.783	273.5
376.163	269.88
376.544	288.41
376.925	292.25
377.305	286.38
377.686	276.89
378.066	284.57
378.447	273.72
378.827	288.86
379.208	291.35
379.588	278.92
379.968	276.21
380.349	301.29
380.729	280.5
381.109	264.23
381.489	297
381.87	287.28
382.25	294.06
382.63	281.86
383.01	292.48
383.39	281.63
383.77	303.78
384.15	308.75
384.53	309.65
384.91	295.64
385.29	297
385.67	272.59
386.049	289.31
386.429	305.36
386.809	293.16
387.189	306.04
387.568	264.68
387.948	298.81
388.328	307.17
388.707	287.73
389.087	280.73
389.466	320.05
389.846	297.45
390.225	309.88
390.605	298.58
390.984	280.73
391.363	301.97
391.743	295.19
392.122	303.78
392.501	280.5
392.881	295.87
393.26	284.12
393.639	315.75
394.018	301.29
394.397	307.17
394.776	291.57
395.155	302.87
395.534	312.14
395.913	285.02
396.292	293.38
396.671	297
397.05	305.36
397.429	300.39
397.808	286.6
398.186	309.2
398.565	303.33
398.944	298.81
399.323	287.28
399.701	299.26
400.08	305.13
400.458	313.95
400.837	304.23
401.215	306.04
401.594	314.62
401.972	311.23
402.351	306.26
402.729	329.31
403.107	300.16
403.486	306.49
403.864	321.18
404.242	327.28
404.62	319.37
404.999	300.16
405.377	302.2
405.755	306.49
406.133	321.63
406.511	307.85
406.889	317.34
407.267	308.07
407.645	311.91
408.023	294.06
408.401	313.04
408.779	319.82
409.156	293.16
409.534	324.34
409.912	306.49
410.29	324.57
410.667	329.99
411.045	312.36
411.422	332.7
411.8	322.31
412.178	320.73
412.555	330.22
412.933	336.32
413.31	320.05
413.687	321.4
414.065	329.09
414.442	321.4
414.819	332.7
415.197	322.99
415.574	321.18
415.951	332.93
416.328	321.86
416.705	343.32
417.082	310.1
417.46	316.66
417.837	332.93
418.214	334.96
418.591	296.55
418.967	335.87
419.344	339.26
419.721	340.61
420.098	330.22
420.475	326.83
420.852	344
421.228	341.06
421.605	326.83
421.982	334.96
422.358	325.7
422.735	324.34
423.111	332.93
423.488	324.12
423.864	359.82
424.241	327.73
424.617	334.06
424.994	339.26
425.37	325.02
425.746	334.06
426.123	334.74
426.499	349.65
426.875	353.04
427.251	335.41
427.627	358.47
428.003	343.55
428.379	346.26
428.756	340.39
429.132	352.14
429.507	332.03
429.883	344.68
430.259	343.78
430.635	355.08
431.011	353.49
431.387	366.6
431.763	358.47
432.138	351.69
432.514	346.26
432.89	351.46
433.265	360.27
433.641	377.67
434.016	350.1
434.392	368.63
434.767	370.67
435.143	373.15
435.518	355.75
435.894	359.82
436.269	370.44
436.644	364.11
437.02	378.13
437.395	387.16
437.77	357.56
438.145	362.53
438.52	372.02
438.895	375.41
439.271	372.93
439.646	372.02
440.021	372.48
440.395	360.5
440.77	384.45
441.145	366.6
441.52	377.67
441.895	386.94
442.27	355.98
442.645	379.71
443.019	382.87
443.394	372.25
443.769	385.13
444.143	372.25
444.518	368.18
444.892	379.71
445.267	389.65
445.641	389.88
446.016	390.1
446.39	390.55
446.764	393.27
447.139	390.1
447.513	390.78
447.887	379.48
448.262	405.47
448.636	388.75
449.01	370.67
449.384	422.87
449.758	392.59
450.132	387.39
450.506	400.5
450.88	399.59
451.254	385.36
451.628	386.26
452.002	408.41
452.376	411.35
452.75	395.75
453.123	397.11
453.497	429.88
453.871	426.94
454.244	429.65
454.618	413.38
454.992	436.66
455.365	410.67
455.739	428.07
456.112	409.54
456.486	432.36
456.859	434.85
457.232	425.81
457.606	434.85
457.979	444.79
458.352	432.81
458.725	430.33
459.099	446.15
459.472	422.64
459.845	432.59
460.218	444.79
460.591	440.27
460.964	447.73
461.337	464
461.71	480.27
462.083	454.06
462.456	448.18
462.829	449.76
463.201	460.16
463.574	476.65
463.947	473.72
464.32	488.41
464.692	476.65
465.065	461.29
465.438	469.42
465.81	480.5
466.183	490.67
466.555	462.42
466.928	482.53
467.3	490.67
467.672	498.12
468.045	501.51
468.417	488.86
468.789	504.68
469.161	500.38
469.534	507.16
469.906	515.3
470.278	505.58
470.65	519.14
471.022	513.94
471.394	517.56
471.766	546.26
472.138	514.62
472.51	518.46
472.882	540.38
473.253	580.38
473.625	567.05
473.997	561.85
474.369	540.83
474.74	562.3
475.112	575.86
475.484	572.02
475.855	561.62
476.227	562.53
476.598	605.01
476.97	574.05
477.341	580.38
477.713	588.06
478.084	608.85
478.455	618.8
478.827	619.7
479.198	604.11
479.569	624.22
479.94	614.05
480.311	616.54
480.682	628.97
481.053	649.3
481.424	647.27
481.795	648.18
482.166	677.1
482.537	659.47
482.908	658.12
483.279	676.87
483.65	683.65
484.021	716.42
484.391	711.45
484.762	705.35
485.133	723.2
485.503	736.31
485.874	727.72
486.244	738.34
486.615	738.34
486.985	746.03
487.356	768.4
487.726	778.57
488.097	777.44
488.467	768.85
488.837	786.93
489.207	801.17
489.578	793.03
489.948	805.01
490.318	809.07
490.688	835.51
491.058	807.94
491.428	841.62
491.798	851.56
492.168	847.72
492.538	862.41
492.908	882.97
493.278	862.63
493.648	868.51
494.017	870.99
494.387	873.25
494.757	905.8
495.126	901.28
495.496	908.06
495.866	923.2
496.235	889.07
496.605	909.64
496.974	916.19
497.344	894.95
497.713	942.4
498.082	955.29
498.452	925.68
498.821	941.73
499.19	927.94
499.559	963.87
499.928	947.83
500.298	953.48
500.667	928.62
501.036	944.66
501.405	963.87
501.774	981.27
502.143	962.29
502.512	985.79
502.88	995.74
503.249	979.69
503.618	955.29
503.987	978.11
504.356	1003.19
504.724	981.27
505.093	1009.3
505.462	1017.2
505.83	998
506.199	1021.05
506.567	1021.27
506.936	1021.5
507.304	1050.88
507.672	1028.28
508.041	1035.96
508.409	1041.84
508.777	1062.4
509.145	1038
509.514	1022.63
509.882	1063.08
510.25	1045.68
510.618	1042.74
510.986	1082.29
511.354	1070.31
511.722	1065.79
512.09	1087.71
512.458	1073.7
512.826	1079.35
513.193	1110.31
513.561	1088.62
513.929	1080.93
514.297	1114.38
514.664	1110.76
515.032	1101.72
515.4	1126.13
515.767	1117.32
516.135	1115.73
516.502	1108.95
516.869	1113.7
517.237	1135.85
517.604	1103.3
517.972	1153.47
518.339	1132.46
518.706	1148.95
519.073	1132.68
519.44	1145.79
519.808	1152.34
520.175	1137.88
520.542	1142.63
520.909	1187.14
521.276	1156.86
521.643	1182.17
522.009	1170.65
522.376	1179.01
522.743	1181.27
523.11	1208.84
523.477	1205.22
523.843	1204.09
524.21	1193.47
524.577	1223.3
524.943	1234.6
525.31	1235.73
525.676	1192.34
526.043	1205.22
526.409	1250.19
526.776	1242.74
527.142	1216.07
527.508	1254.26
527.874	1243.87
528.241	1271.89
528.607	1258.55
528.973	1276.18
529.339	1257.2
529.705	1269.63
530.071	1268.72
530.437	1254.49
530.803	1258.1
531.169	1289.97
531.535	1273.02
531.901	1285.9
532.267	1251.77
532.632	1282.96
532.998	1267.37
533.364	1281.83
533.73	1308.04
534.095	1278.44
534.461	1292.9
534.826	1281.38
535.192	1272.57
535.557	1321.83
535.923	1282.73
536.288	1310.3
536.653	1279.57
537.019	1283.64
537.384	1312.11
537.749	1306.24
538.114	1308.5
538.479	1296.52
538.845	1299.01
539.21	1288.84
539.575	1316.41
539.94	1312.11
540.305	1290.87
540.67	1297.42
541.034	1312.79
541.399	1327.93
541.764	1317.08
542.129	1323.86
542.494	1309.85
542.858	1314.6
543.223	1302.4
543.587	1322.73
543.952	1322.28
544.316	1329.74
544.681	1323.41
545.045	1338.1
545.41	1330.42
545.774	1342.62
546.138	1311.89
546.503	1338.33
546.867	1314.15
547.231	1294.49
547.595	1336.74
547.959	1332.22
548.324	1327.03
548.688	1333.58
549.052	1335.16
549.416	1299.23
549.779	1324.32
550.143	1347.37
550.507	1332.68
550.871	1354.15
551.235	1343.75
551.599	1341.04
551.962	1343.98
552.326	1345.11
552.689	1341.04
553.053	1337.65
553.417	1330.19
553.78	1352.34
554.143	1342.17
554.507	1357.76
554.87	1356.18
555.234	1354.6
555.597	1366.35
555.96	1345.33
556.323	1359.34
556.686	1374.71
557.05	1382.62
557.413	1343.75
557.776	1348.27
558.139	1369.74
558.502	1371.55
558.865	1362.05
559.228	1392.79
559.59	1365.9
559.953	1378.1
560.316	1364.31
560.679	1370.19
561.041	1387.36
561.404	1401.83
561.767	1395.95
562.129	1376.97
562.492	1383.3
562.854	1406.57
563.217	1389.85
563.579	1406.8
563.941	1389.17
564.304	1411.09
564.666	1426.91
565.028	1417.87
565.39	1402.05
565.753	1404.77
566.115	1455.84
566.477	1426.46
566.839	1435.95
567.201	1432.56
567.563	1458.55
567.925	1452.67
568.287	1419
568.648	1446.35
569.01	1445.44
569.372	1438.44
569.734	1441.15
570.095	1414.03
570.457	1424.88
570.819	1458.55
571.18	1421.94
571.542	1451.54
571.903	1428.27
572.265	1428.04
572.626	1422.84
572.987	1423.3
573.349	1427.59
573.71	1475.05
574.071	1432.56
574.432	1414.03
574.794	1459.68
575.155	1453.58
575.516	1455.61
575.877	1466.46
576.238	1459.23
576.599	1466.91
576.96	1442.05
577.32	1429.4
577.681	1444.99
578.042	1462.16
578.403	1462.39
578.763	1427.36
579.124	1442.73
579.485	1438.89
579.845	1469.62
580.206	1445.44
580.566	1436.85
580.927	1429.4
581.287	1417.19
581.648	1447.25
582.008	1450.87
582.368	1436.63
582.728	1447.48
583.089	1449.96
583.449	1444.76
583.809	1433.47
584.169	1409.28
584.529	1428.49
584.889	1424.43
585.249	1415.84
585.609	1409.28
585.969	1413.8
586.329	1362.96
586.688	1386.46
587.048	1419
587.408	1430.75
587.768	1382.17
588.127	1402.73
588.487	1410.19
588.846	1389.62
589.206	1397.53
589.565	1396.4
589.925	1423.75
590.284	1391.43
590.643	1388.95
591.003	1391.43
591.362	1418.55
591.721	1374.26
592.08	1381.04
592.44	1395.05
592.799	1378.78
593.158	1369.51
593.517	1386.69
593.876	1405.67
594.235	1398.66
594.593	1403.41
594.952	1420.13
595.311	1365.22
595.67	1390.3
596.029	1377.42
596.387	1392.56
596.746	1376.29
597.104	1397.08
597.463	1391.21
597.822	1390.3
598.18	1394.82
598.538	1384.43
598.897	1400.25
599.255	1361.6
599.613	1397.53
599.972	1383.75
600.33	1395.05
600.688	1368.38
601.046	1408.83
601.404	1417.42
601.762	1408.83
602.12	1421.94
602.478	1407.7
602.836	1404.99
603.194	1408.61
603.552	1402.73
603.91	1379.46
604.268	1389.85
604.625	1398.21
604.983	1394.37
605.341	1389.17
605.698	1390.08
606.056	1431.21
606.413	1402.28
606.771	1420.81
607.128	1467.59
607.485	1411.32
607.843	1425.56
608.2	1462.84
608.557	1441.83
608.914	1400.25
609.272	1421.94
609.629	1422.84
609.986	1428.49
610.343	1438.21
610.7	1440.92
611.057	1425.56
611.414	1431.21
611.771	1433.69
612.127	1441.83
612.484	1465.1
612.841	1466.01
613.198	1435.05
613.554	1436.63
613.911	1456.29
614.267	1416.29
614.624	1446.57
614.98	1426.46
615.337	1484.54
615.693	1460.36
616.05	1428.27
616.406	1439.11
616.762	1428.49
617.118	1448.15
617.475	1451.09
617.831	1454.03
618.187	1436.18
618.543	1459.23
618.899	1447.25
619.255	1473.46
619.611	1454.26
619.967	1442.05
620.323	1487.7
620.678	1438.66
621.034	1459.23
621.39	1485.89
621.746	1441.37
622.101	1447.7
622.457	1467.81
622.812	1465.55
623.168	1472.33
623.523	1459.91
623.879	1481.83
624.234	1441.83
624.589	1426.91
624.945	1448.38
625.3	1481.15
625.655	1437.76
626.01	1480.24
626.365	1451.54
626.72	1449.74
627.075	1444.54
627.43	1468.27
627.785	1461.26
628.14	1429.62
628.495	1461.71
628.85	1473.24
629.205	1427.14
629.559	1462.84
629.914	1454.93
630.269	1430.3
630.623	1472.11
630.978	1460.36
631.332	1453.13
631.687	1439.34
632.041	1438.66
632.396	1434.37
632.75	1430.3
633.104	1454.71
633.459	1451.09
633.813	1437.31
634.167	1423.75
634.521	1430.08
634.875	1411.32
635.229	1442.96
635.583	1415.16
635.937	1423.07
636.291	1427.82
636.645	1418.78
636.999	1418.78
637.352	1458.55
637.706	1407.93
638.06	1425.33
638.413	1458.1
638.767	1418.1
639.121	1404.31
639.474	1428.27
639.828	1442.96
640.181	1449.06
640.534	1422.17
640.888	1421.94
641.241	1404.09
641.594	1425.1
641.947	1409.74
642.301	1426.91
642.654	1411.09
643.007	1432.34
643.36	1426.23
643.713	1462.84
644.066	1435.95
644.419	1450.64
644.771	1419.23
645.124	1420.81
645.477	1431.21
645.83	1431.88
646.182	1423.97
646.535	1424.65
646.888	1432.79
647.24	1413.13
647.593	1398.21
647.945	1409.51
648.298	1462.62
648.65	1429.17
649.002	1420.13
649.355	1412.45
649.707	1429.85
650.059	1427.82
650.411	1475.5
650.763	1470.07
651.115	1488.38
651.467	1483.41
651.819	1480.92
652.171	1509.4
652.523	1523.18
652.875	1492.9
653.227	1513.91
653.578	1527.02
653.93	1508.94
654.282	1536.74
654.633	1518.89
654.985	1507.14
655.337	1506.46
655.688	1502.84
656.039	1544.87
656.391	1551.2
656.742	1568.83
657.094	1574.03
657.445	1560.69
657.796	1564.99
658.147	1550.75
658.498	1570.86
658.849	1580.81
659.2	1604.99
659.551	1562.28
659.902	1612.22
660.253	1608.83
660.604	1600.92
660.955	1627.81
661.306	1629.39
661.656	1628.04
662.007	1658.77
662.358	1678.43
662.708	1660.8
663.059	1685.21
663.409	1664.19
663.76	1692.22
664.11	1715.49
664.461	1720.01
664.811	1699.45
665.161	1741.25
665.511	1761.37
665.862	1712.1
666.212	1781.7
666.562	1790.97
666.912	1791.87
667.262	1809.05
667.612	1781.25
667.962	1808.82
668.312	1822.83
668.662	1815.6
669.011	1837.75
669.361	1832.1
669.711	1869.84
670.06	1874.81
670.41	1862.61
670.76	1863.06
671.109	1902.83
671.459	1919.1
671.808	1928.37
672.157	1909.61
672.507	1961.81
672.856	1955.03
673.205	1962.49
673.554	1974.47
673.904	1979.67
674.253	1982.83
674.602	2021.7
674.951	2000.91
675.3	2056.5
675.649	2023.51
675.998	2031.64
676.346	2073.45
676.695	2078.42
677.044	2121.58
677.393	2157.97
677.741	2138.53
678.09	2156.38
678.438	2162.94
678.787	2132.2
679.135	2154.35
679.484	2177.17
679.832	2210.85
680.181	2202.94
680.529	2267.34
680.877	2204.52
681.225	2254.69
681.573	2257.17
681.922	2312.09
682.27	2276.15
682.618	2293.56
682.966	2316.61
683.314	2325.19
683.661	2348.24
684.009	2380.11
684.357	2333.1
684.705	2378.98
685.053	2389.82
685.4	2402.48
685.748	2395.7
686.095	2418.3
686.443	2422.82
686.79	2472.31
687.138	2494.91
687.485	2498.3
687.832	2482.25
688.18	2512.98
688.527	2496.49
688.874	2541.46
689.221	2558.18
689.568	2590.04
689.915	2542.81
690.262	2590.72
690.609	2620.33
690.956	2598.41
691.303	2647.44
691.65	2645.41
691.997	2661.23
692.344	2696.71
692.69	2666.65
693.037	2715.01
693.383	2696.26
693.73	2706.2
694.077	2740.55
694.423	2765.63
694.769	2760.21
695.116	2738.74
695.462	2766.31
695.808	2758.63
696.155	2798.4
696.501	2802.92
696.847	2821
697.193	2814.22
697.539	2839.53
697.885	2831.39
698.231	2858.96
698.577	2862.13
698.923	2889.02
699.269	2926.08
699.614	2877.49
699.96	2896.48
700.306	2918.17
700.651	2886.08
700.997	2949.36
701.342	2964.05
701.688	2978.96
702.033	2988.45
702.379	2964.95
702.724	3000.88
703.069	3019.19
703.415	3011.95
703.76	3012.18
704.105	3022.58
704.45	3055.57
704.795	3044.27
705.14	3031.16
705.485	3089.47
705.83	3091.73
706.175	3098.96
706.52	3092.4
706.865	3086.08
707.209	3105.29
707.554	3105.51
707.899	3154.32
708.243	3147.32
708.588	3136.02
708.932	3161.1
709.277	3155.68
709.621	3211.27
709.966	3186.19
710.31	3198.62
710.654	3204.27
710.998	3214.21
711.342	3229.58
711.687	3224.38
712.031	3212.18
712.375	3220.54
712.719	3231.84
713.063	3239.07
713.407	3281.1
713.75	3267.54
714.094	3280.87
714.438	3270.03
714.782	3276.58
715.125	3302.34
715.469	3312.29
715.812	3292.85
716.156	3313.42
716.499	3312.29
716.843	3335.56
717.186	3313.87
717.53	3320.65
717.873	3352.96
718.216	3380.31
718.559	3358.39
718.902	3355.9
719.246	3355.45
719.589	3395.67
719.932	3351.15
720.275	3353.64
720.617	3336.92
720.96	3419.85
721.303	3385.5
721.646	3380.31
721.989	3369.01
722.331	3402.23
722.674	3410.14
723.016	3407.88
723.359	3440.64
723.701	3432.73
724.044	3432.06
724.386	3403.36
724.729	3444.26
725.071	3401.1
725.413	3417.37
725.755	3467.76
726.097	3426.41
726.439	3437.71
726.782	3399.06
727.124	3441.32
727.465	3449.46
727.807	3452.4
728.149	3430.7
728.491	3435.67
728.833	3414.2
729.175	3465.05
729.516	3430.47
729.858	3454.2
730.199	3454.65
730.541	3439.29
730.882	3441.55
731.224	3456.91
731.565	3453.07
731.906	3471.6
732.248	3457.59
732.589	3435.9
732.93	3465.5
733.271	3417.14
733.612	3475.45
733.953	3417.59
734.294	3491.26
734.635	3437.93
734.976	3449.23
735.317	3446.52
735.658	3462.56
735.999	3474.77
736.339	3477.93
736.68	3493.98
737.021	3426.86
737.361	3447.65
737.702	3454.2
738.042	3462.11
738.383	3465.05
738.723	3443.81
739.063	3469.8
739.404	3453.98
739.744	3421.44
740.084	3445.16
740.424	3425.5
740.764	3450.36
741.104	3439.97
741.444	3400.42
741.784	3439.29
742.124	3437.48
742.464	3402.68
742.804	3448.78
743.143	3455.78
743.483	3464.82
743.823	3378.95
744.162	3424.6
744.502	3404.49
744.841	3420.31
745.181	3423.02
745.52	3420.76
745.86	3407.88
746.199	3398.61
746.538	3366.97
746.877	3411.49
747.216	3415.56
747.556	3375.79
747.895	3399.97
748.234	3391.38
748.573	3387.99
748.911	3326.52
749.25	3383.47
749.589	3391.61
749.928	3370.59
750.267	3376.46
750.605	3379.85
750.944	3374.43
751.283	3400.19
751.621	3331.72
751.96	3370.36
752.298	3351.83
752.636	3350.93
752.975	3305.51
753.313	3326.07
753.651	3326.75
753.989	3277.48
754.327	3299.18
754.666	3292.63
755.004	3277.26
755.342	3276.81
755.679	3258.28
756.017	3288.78
756.355	3256.47
756.693	3317.94
757.031	3321.33
757.368	3283.59
757.706	3261.44
758.044	3207.88
758.381	3258.28
758.719	3194.1
759.056	3223.02
759.394	3208.33
759.731	3164.95
760.068	3190.48
760.405	3184.61
760.743	3172.18
761.08	3190.48
761.417	3139.18
761.754	3164.27
762.091	3143.02
762.428	3179.18
762.765	3151.61
763.102	3136.47
763.438	3135.34
763.775	3118.39
764.112	3065.51
764.449	3078.62
764.785	3085.85
765.122	3070.94
765.458	3034.33
765.795	3080.88
766.131	3093.08
766.467	3035.91
766.804	3044.04
767.14	3016.47
767.476	3076.81
767.812	3025.51
768.148	3047.89
768.485	3004.05
768.821	3011.05
769.157	2994.78
769.492	2985.06
769.828	3026.42
770.164	2935.35
770.5	2941.9
770.836	2955.68
771.171	2953.2
771.507	2953.43
771.842	2936.93
772.178	2891.96
772.513	2935.8
772.849	2917.72
773.184	2919.98
773.519	2859.42
773.855	2865.52
774.19	2891.28
774.525	2845.18
774.86	2843.37
775.195	2856.25
775.53	2844.28
775.865	2808.34
776.2	2800.21
776.535	2792.75
776.87	2810.6
777.205	2810.15
777.539	2790.94
777.874	2767.44
778.209	2739.42
778.543	2752.53
778.878	2734.45
779.212	2708.23
779.547	2734.9
779.881	2712.53
780.215	2690.16
780.55	2712.53
780.884	2673.66
781.218	2696.03
781.552	2686.54
781.886	2658.97
782.22	2642.47
782.554	2654
782.888	2621.23
783.222	2607.45
783.556	2625.3
783.889	2622.59
784.223	2572.87
784.557	2599.54
784.89	2614.9
785.224	2598.86
785.557	2540.55
785.891	2577.39
786.224	2540.33
786.558	2543.49
786.891	2538.97
787.224	2510.72
787.557	2518.63
787.891	2525.64
788.224	2521.35
788.557	2519.09
788.89	2490.39
789.223	2486.32
789.556	2498.07
789.888	2483.38
790.221	2461.46
790.554	2455.59
790.887	2466.88
791.219	2452.2
791.552	2413.55
791.884	2427.79
792.217	2396.6
792.549	2435.7
792.882	2415.81
793.214	2433.66
793.546	2401.8
793.879	2380.56
794.211	2355.93
794.543	2374.68
794.875	2343.27
795.207	2347.11
795.539	2348.92
795.871	2364.06
796.203	2343.72
796.535	2329.03
796.867	2370.16
797.198	2312.76
797.53	2322.03
797.862	2287.23
798.193	2299.21
798.525	2301.92
798.856	2309.83
799.188	2284.74
799.519	2275.48
799.85	2268.7
800.182	2257.17
800.513	2277.28
800.844	2240.22
801.175	2246.55
801.506	2252.43
801.837	2223.05
802.168	2240.45
802.499	2235.03
802.83	2228.47
803.161	2211.3
803.491	2196.61
803.822	2191.86
804.153	2198.42
804.483	2212.43
804.814	2149.6
805.145	2185.76
805.475	2169.26
805.805	2182.15
806.136	2162.94
806.466	2177.85
806.796	2156.38
807.126	2166.55
807.457	2128.59
807.787	2188.7
808.117	2124.97
808.447	2137.4
808.777	2135.82
809.107	2120.9
809.436	2144.63
809.766	2104.86
810.096	2093.33
810.426	2108.02
810.755	2111.87
811.085	2095.59
811.414	2091.3
811.744	2089.72
812.073	2121.13
812.403	2088.82
812.732	2078.65
813.061	2053.11
813.39	2038.87
813.719	2059.89
814.049	2082.49
814.378	2056.73
814.707	2038.65
815.036	2050.62
815.365	2017.4
815.693	2037.97
816.022	2013.34
816.351	2007.46
816.68	2016.05
817.008	2000.46
817.337	1997.52
817.665	2010.17
817.994	1966.56
818.322	1969.5
818.651	1984.86
818.979	1980.8
819.307	2011.3
819.636	1979.67
819.964	1986.44
820.292	1976.95
820.62	1986.9
820.948	1993.68
821.276	1963.17
821.604	1933.56
821.932	2020.12
822.259	1997.74
822.587	1976.28
822.915	1960.68
823.243	1950.29
823.57	1957.75
823.898	1927.24
824.225	1954.36
824.553	1976.28
824.88	1950.06
825.207	1973.11
825.535	1978.08
825.862	1967.24
826.189	1948.93
826.516	1989.16
826.843	1956.62
827.17	1958.88
827.497	1977.18
827.824	1959.1
828.151	1944.19
828.478	1969.72
828.805	1962.26
829.131	1971.53
829.458	1931.31
829.785	1958.88
830.111	1953
830.438	1947.8
830.764	1942.38
831.09	1940.57
831.417	1967.69
831.743	1972.21
832.069	1949.84
832.395	1940.8
832.722	1970.4
833.048	1957.29
833.374	1949.38
833.7	1943.06
834.026	1936.28
834.351	1907.12
834.677	1953.45
835.003	1956.16
835.329	1944.86
835.654	1951.64
835.98	1913.45
836.306	1945.32
836.631	1917.52
836.956	1936.28
837.282	1943.73
837.607	1929.5
837.932	1952.1
838.258	1886.11
838.583	1906.22
838.908	1922.94
839.233	1884.3
839.558	1896.96
839.883	1865.54
840.208	1888.82
840.533	1901.7
840.858	1891.98
841.182	1866.67
841.507	1887.46
841.832	1877.3
842.156	1891.31
842.481	1875.26
842.805	1864.19
843.13	1891.08
843.454	1861.93
843.778	1848.14
844.103	1888.37
844.427	1872.1
844.751	1845.43
845.075	1837.07
845.399	1843.62
845.723	1835.04
846.047	1840.91
846.371	1835.71
846.695	1830.52
847.019	1815.38
847.343	1788.26
847.666	1800.24
847.99	1778.09
848.313	1789.16
848.637	1790.29
848.96	1769.5
849.284	1771.76
849.607	1781.03
849.931	1753.46
850.254	1795.72
850.577	1759.11
850.9	1725.21
851.223	1756.62
851.546	1721.14
851.869	1709.62
852.192	1741.93
852.515	1740.35
852.838	1731.31
853.161	1681.82
853.483	1702.61
853.806	1706.9
854.129	1717.98
854.451	1686.57
854.774	1684.76
855.096	1690.86
855.419	1670.75
855.741	1676.17
856.063	1684.76
856.385	1684.98
856.708	1638.88
857.03	1666.91
857.352	1672.1
857.674	1638.88
857.996	1649.28
858.318	1633.46
858.64	1641.37
858.961	1677.3
859.283	1611.31
859.605	1622.16
859.926	1651.76
860.248	1646.79
860.57	1621.71
860.891	1593.46
861.212	1621.48
861.534	1610.86
861.855	1593.01
862.176	1596.62
862.498	1628.26
862.819	1597.98
863.14	1599.11
863.461	1605.89
863.782	1601.37
864.103	1569.28
864.424	1601.82
864.745	1573.12
865.065	1576.74
865.386	1583.29
865.707	1597.3
866.027	1573.12
866.348	1571.77
866.668	1556.17
866.989	1567.92
867.309	1572.44
867.63	1570.41
867.95	1568.6
868.27	1519.79
868.59	1536.06
868.91	1568.15
869.23	1550.07
869.55	1558.89
869.87	1560.02
870.19	1555.27
870.51	1530.86
870.83	1535.38
871.15	1522.5
871.469	1541.03
871.789	1557.08
872.109	1529.51
872.428	1521.6
872.748	1529.96
873.067	1572.67
873.386	1567.02
873.706	1519.79
874.025	1535.38
874.344	1520.92
874.663	1524.99
874.982	1528.6
875.301	1531.32
875.62	1495.38
875.939	1525.67
876.258	1500.81
876.577	1519.11
876.896	1498.55
877.214	1502.84
877.533	1500.36
877.852	1476.63
878.17	1520.02
878.489	1506.01
878.807	1508.49
879.125	1472.11
879.444	1484.54
879.762	1502.16
880.08	1475.72
880.398	1478.89
880.716	1493.8
881.034	1482.05
881.352	1474.14
881.67	1478.89
881.988	1484.54
882.306	1497.19
882.624	1462.62
882.941	1461.71
883.259	1451.77
883.577	1451.32
883.894	1448.38
884.212	1415.61
884.529	1445.89
884.846	1448.61
885.164	1441.6
885.481	1456.74
885.798	1461.26
886.115	1439.34
886.432	1455.39
886.75	1411.77
887.067	1447.93
887.383	1444.09
887.7	1426.01
888.017	1435.27
888.334	1408.83
888.651	1425.78
888.967	1434.14
889.284	1439.34
889.6	1388.27
889.917	1388.04
890.233	1416.06
890.55	1412.22
890.866	1397.53
891.182	1396.4
891.498	1404.09
891.815	1416.06
892.131	1395.73
892.447	1378.33
892.763	1396.4
893.079	1345.33
893.395	1361.15
893.71	1380.36
894.026	1340.81
894.342	1373.35
894.657	1363.18
894.973	1332.68
895.289	1346.69
895.604	1343.3
895.92	1346.01
896.235	1357.76
896.55	1346.69
896.865	1339.46
897.181	1302.62
897.496	1315.5
897.811	1324.99
898.126	1337.87
898.441	1322.73
898.756	1319.57
899.071	1315.28
899.386	1315.95
899.7	1301.72
900.015	1305.33
900.33	1283.86
900.644	1286.35
900.959	1265.79
901.273	1292.9
901.588	1286.58
901.902	1275.73
902.216	1274.37
902.531	1246.35
902.845	1255.16
903.159	1235.28
903.473	1223.53
903.787	1253.36
904.101	1255.84
904.415	1216.07
904.729	1215.62
905.042	1238.22
905.356	1238.67
905.67	1234.15
905.984	1233.7
906.297	1228.72
906.611	1214.49
906.924	1226.46
907.237	1234.15
907.551	1222.85
907.864	1209.52
908.177	1212.91
908.491	1204.54
908.804	1185.34
909.117	1187.14
909.43	1192.12
909.743	1181.49
910.056	1200.48
910.368	1173.36
910.681	1176.3
910.994	1193.7
911.307	1172.91
911.619	1176.97
911.932	1179.01
912.244	1156.86
912.557	1138.33
912.869	1181.72
913.181	1121.16
913.494	1161.16
913.806	1121.16
914.118	1148.27
914.43	1120.48
914.742	1127.71
915.054	1114.83
915.366	1128.16
915.678	1124.09
915.99	1125.22
916.302	1102.85
916.613	1110.99
916.925	1119.12
917.236	1117.32
917.548	1097.43
917.859	1099.91
918.171	1118.45
918.482	1093.81
918.794	1073.47
919.105	1088.39
919.416	1069.86
919.727	1069.63
920.038	1069.63
920.349	1065.34
920.66	1052.46
920.971	1078.22
921.282	1077.77
921.593	1083.87
921.903	1040.26
922.214	1047.49
922.525	1024.89
922.835	1057.43
923.146	1040.71
923.456	1033.02
923.767	1057.2
924.077	1011.33
924.387	1016.75
924.697	1029.63
925.008	1021.05
925.318	1005.91
925.628	1019.24
925.938	1011.1
926.248	1016.3
926.558	1015.62
926.867	1003.42
927.177	981.95
927.487	1016.3
927.796	992.8
928.106	990.76
928.416	994.83
928.725	980.14
929.034	999.13
929.344	973.14
929.653	968.84
929.962	970.65
930.271	965.23
930.581	949.18
930.89	980.14
931.199	971.1
931.508	959.81
931.817	932.01
932.125	983.76
932.434	959.81
932.743	945.79
933.051	968.84
933.36	943.99
933.669	940.82
933.977	925.46
934.286	927.04
934.594	928.39
934.902	928.85
935.21	933.82
935.519	923.2
935.827	925.23
936.135	906.93
936.443	926.36
936.751	916.87
937.059	887.72
937.367	894.04
937.674	923.65
937.982	915.51
938.29	883.2
938.597	893.14
938.905	887.04
939.213	889.3
939.52	891.33
939.827	870.32
940.135	888.85
940.442	892.01
940.749	882.52
941.056	886.36
941.363	889.52
941.67	895.4
941.977	858.11
942.284	880.03
942.591	863.99
942.898	887.72
943.205	868.06
943.511	875.06
943.818	855.18
944.125	853.82
944.431	862.18
944.738	847.49
945.044	848.17
945.35	835.74
945.657	847.72
945.963	847.04
946.269	838.68
946.575	823.76
946.881	848.17
947.187	843.42
947.493	833.71
947.799	840.71
948.105	805.01
948.41	839.81
948.716	815.85
949.022	832.35
949.327	796.87
949.633	814.95
949.938	789.19
950.244	809.07
950.549	800.26
950.854	801.39
951.16	799.58
951.465	795.29
951.77	817.21
952.075	809.98
952.38	780.15
952.685	791.9
952.99	760.26
953.294	802.07
953.599	772.01
953.904	778.79
954.209	754.61
954.513	787.83
954.818	770.88
955.122	769.75
955.426	766.82
955.731	753.48
956.035	758.68
956.339	736.99
956.643	774.27
956.948	750.09
957.252	744.9
957.556	752.35
957.86	742.86
958.163	758.23
958.467	748.74
958.771	766.36
959.075	740.83
959.378	753.71
959.682	714.39
959.985	716.42
960.289	718.46
960.592	719.81
960.896	750.09
961.199	740.6
961.502	743.09
961.805	733.6
962.108	726.37
962.411	727.27
962.714	701.96
963.017	717.55
963.32	727.95
963.623	745.57
963.926	714.16
964.228	717.78
964.531	726.14
964.833	685.24
965.136	708.51
965.438	732.47
965.741	704.67
966.043	676.87
966.345	702.64
966.648	712.58
966.95	713.94
967.252	701.73
967.554	686.59
967.856	695.86
968.158	709.64
968.46	696.08
968.761	692.47
969.063	690.43
969.365	676.42
969.666	675.74
969.968	674.39
970.269	656.31
970.571	658.57
970.872	675.74
971.174	652.02
971.475	661.06
971.776	646.37
972.077	666.03
972.378	675.07
972.679	652.92
972.98	664.22
973.281	636.42
973.582	664.22
973.883	638.91
974.183	654.5
974.484	654.28
974.785	645.46
975.085	641.17
975.386	637.33
975.686	659.02
975.986	652.24
976.287	636.65
976.587	628.29
976.887	657.67
977.187	636.2
977.487	647.95
977.787	640.04
978.087	620.15
978.387	617.22
978.687	627.16
978.987	625.35
979.286	651.34
979.586	656.08
979.885	607.95
980.185	615.41
980.484	609.53
980.784	619.93
981.083	622.64
981.382	623.32
981.682	596.65
981.981	622.41
982.28	617.22
982.579	624.67
982.878	631.45
983.177	617.67
983.475	621.28
983.774	612.24
984.073	611.11
984.372	605.46
984.67	612.47
984.969	619.48
985.267	588.52
985.566	599.81
985.864	592.58
986.162	591
986.461	593.94
986.759	595.3
987.057	609.98
987.355	596.2
987.653	588.74
987.951	598.46
988.249	581.28
988.547	572.24
988.844	588.52
989.142	544.45
989.44	558.91
989.737	578.8
990.035	560.49
990.332	575.41
990.63	583.09
990.927	569.76
991.224	556.43
991.521	557.78
991.819	560.49
992.116	593.71
992.413	580.83
992.71	522.98
993.006	573.83
993.303	553.49
993.6	559.36
993.897	576.54
994.193	548.29
994.49	534.28
994.787	573.83
995.083	565.01
995.379	562.53
995.676	563.21
995.972	559.59
996.268	543.32
996.565	539.7
996.861	544.22
997.157	549.65
997.453	544.67
997.749	518.69
998.044	530.89
998.34	547.39
998.636	555.52
998.932	534.05
999.227	541.29
999.523	514.17
999.818	527.05
1000.114	515.75
1000.409	515.52
1000.704	522.08
1001	523.88
1001.295	534.05
1001.59	506.03
1001.885	518.01
1002.18	514.39
1002.475	519.59
1002.77	518.46
1003.065	511.91
1003.359	526.82
1003.654	524.11
1003.949	502.42
1004.243	511.68
1004.538	498.12
1004.832	504.68
1005.127	497.22
1005.421	518.69
1005.715	497.22
1006.009	491.34
1006.304	518.46
1006.598	508.52
1006.892	504.22
1007.186	510.1
1007.48	488.86
1007.773	494.73
1008.067	491.79
1008.361	481.63
1008.655	478.24
1008.948	501.96
1009.242	477.56
1009.535	502.64
1009.829	482.08
1010.122	488.18
1010.415	482.98
1010.708	489.54
1011.001	487.28
1011.295	475.3
1011.588	465.81
1011.881	477.78
1012.173	469.2
1012.466	468.97
1012.759	483.21
1013.052	484.34
1013.344	483.21
1013.637	479.59
1013.93	470.55
1014.222	444.56
1014.514	456.09
1014.807	460.38
1015.099	480.95
1015.391	458.35
1015.683	477.11
1015.976	469.87
1016.268	451.8
1016.56	462.42
1016.851	456.09
1017.143	445.69
1017.435	471.23
1017.727	469.87
1018.018	485.02
1018.31	448.18
1018.602	438.92
1018.893	438.69
1019.185	464
1019.476	451.57
1019.767	445.69
1020.058	473.49
1020.35	467.39
1020.641	443.89
1020.932	447.28
1021.223	441.17
1021.514	427.62
1021.804	444.56
1022.095	435.98
1022.386	431.23
1022.677	449.31
1022.967	424
1023.258	422.64
1023.548	433.04
1023.839	412.7
1024.129	455.64
1024.419	415.64
1024.709	417.9
1025	426.26
1025.29	424.9
1025.58	428.29
1025.87	435.53
1026.16	421.74
1026.449	424.23
1026.739	423.77
1027.029	424.23
1027.319	425.13
1027.608	409.31
1027.898	420.61
1028.187	437.33
1028.477	411.8
1028.766	403.44
1029.055	411.8
1029.344	426.71
1029.634	419.25
1029.923	389.42
1030.212	400.27
1030.501	422.87
1030.79	407.28
1031.078	423.55
1031.367	402.98
1031.656	401.4
1031.945	410.67
1032.233	413.15
1032.522	407.96
1032.81	400.72
1033.099	409.76
1033.387	406.83
1033.675	386.71
1033.963	393.94
1034.251	417.45
1034.54	407.05
1034.828	405.02
1035.116	398.92
1035.403	391.01
1035.691	395.75
1035.979	414.28
1036.267	387.84
1036.554	374.28
1036.842	382.19
1037.129	385.58
1037.417	378.35
1037.704	405.24
1037.992	396.66
1038.279	372.02
1038.566	377.45
1038.853	377.45
1039.14	377.45
