Data from carpet_green_FLMS001491_00094.txt Node
Date: Wed Feb 08 10:36:07 GMT 2017
User: dcchb
Spectrometer: FLMS00149
Trigger mode: 0
Integration Time (sec): 2.000000E-2
Scans to average: 10
Electric dark correction enabled: true
Nonlinearity correction enabled: false
Boxcar width: 0
XAxis mode: Wavelengths
Number of Pixels in Spectrum: 2048
>>>>>Begin Spectral Data<<<<<
341.393	-29.93
341.776	-29.93
342.16	-29.93
342.543	-51.4
342.927	-60.21
343.31	-43.49
343.693	-73.09
344.077	-68.57
344.46	-38.52
344.843	-73.09
345.226	-55.69
345.61	-30.61
345.993	-25.18
346.376	-7.78
346.759	-1.68
347.142	25.44
347.525	49.39
347.908	43.29
348.291	93.46
348.674	90.97
349.057	115.15
349.44	126.68
349.823	120.8
350.206	139.56
350.588	191.76
350.971	168.94
351.354	206
351.737	199.67
352.119	226.11
352.502	221.82
352.884	277.18
353.267	264.98
353.65	264.75
354.032	255.71
354.414	278.09
354.797	294.36
355.179	283.51
355.562	301.14
355.944	283.74
356.326	292.32
356.709	322.15
357.091	302.94
357.473	318.76
357.855	297.75
358.238	317.41
358.62	312.89
359.002	310.18
359.384	301.36
359.766	297.97
360.148	314.47
360.53	293.23
360.912	293
361.294	277.86
361.676	302.94
362.057	283.51
362.439	285.09
362.821	293
363.203	313.57
363.584	294.13
363.966	284.41
364.348	284.19
364.729	311.31
365.111	277.41
365.493	282.83
365.874	302.72
366.256	298.42
366.637	275.83
367.019	281.7
367.4	286.9
367.781	271.08
368.163	278.09
368.544	282.83
368.925	290.74
369.306	288.93
369.688	274.47
370.069	278.31
370.45	257.75
370.831	272.21
371.212	273.57
371.593	276.05
371.974	291.19
372.355	276.73
372.736	287.13
373.117	281.25
373.498	272.44
373.879	295.26
374.26	260.91
374.641	284.19
375.021	274.7
375.402	284.64
375.783	274.24
376.163	279.22
376.544	275.37
376.925	269.95
377.305	295.94
377.686	278.99
378.066	254.36
378.447	276.05
378.827	288.93
379.208	290.74
379.588	290.97
379.968	281.93
380.349	282.61
380.729	310.63
381.109	290.97
381.489	288.03
381.87	293.68
382.25	265.43
382.63	293.9
383.01	302.94
383.39	279.22
383.77	298.65
384.15	284.41
384.53	306.56
384.91	295.49
385.29	295.94
385.67	290.74
386.049	297.52
386.429	296.39
386.809	320.57
387.189	306.56
387.568	300.91
387.948	299.33
388.328	286.45
388.707	289.39
389.087	289.16
389.466	307.01
389.846	287.13
390.225	297.75
390.605	309.05
390.984	328.25
391.363	291.87
391.743	310.4
392.122	330.29
392.501	314.24
392.881	316.28
393.26	323.73
393.639	326.22
394.018	309.72
394.397	295.94
394.776	320.12
395.155	312.44
395.534	311.98
395.913	307.46
396.292	315.6
396.671	288.26
397.05	312.66
397.429	317.63
397.808	315.83
398.186	293
398.565	288.93
398.944	307.69
399.323	331.87
399.701	297.97
400.08	314.24
400.458	325.32
400.837	321.25
401.215	306.11
401.594	290.06
401.972	316.73
402.351	326.67
402.729	318.08
403.107	311.31
403.486	313.34
403.864	300.01
404.242	310.18
404.62	320.12
404.999	314.02
405.377	323.51
405.755	318.08
406.133	334.58
406.511	309.95
406.889	323.51
407.267	305.66
407.645	337.75
408.023	342.72
408.401	322.6
408.779	325.77
409.156	344.3
409.534	327.35
409.912	325.99
410.29	328.25
410.667	312.66
411.045	312.44
411.422	320.12
411.8	347.46
412.178	329.16
412.555	327.58
412.933	349.04
413.31	345.88
413.687	338.42
414.065	327.12
414.442	344.75
414.819	337.29
415.197	351.76
415.574	344.07
415.951	342.04
416.328	311.31
416.705	360.12
417.082	348.82
417.46	335.26
417.837	352.89
418.214	333.45
418.591	327.58
418.967	341.59
419.344	364.86
419.721	355.82
420.098	359.44
420.475	365.77
420.852	335.71
421.228	361.93
421.605	345.88
421.982	358.54
422.358	377.29
422.735	375.48
423.111	357.86
423.488	357.86
423.864	366.9
424.241	354.24
424.617	362.38
424.994	356.95
425.37	363.51
425.746	372.55
426.123	348.14
426.499	377.97
426.875	368.93
427.251	368.93
427.627	357.86
428.003	397.63
428.379	402.6
428.756	360.34
429.132	368.25
429.507	391.3
429.883	393.34
430.259	380.91
430.635	380.68
431.011	378.2
431.387	393.56
431.763	394.69
432.138	373
432.514	391.98
432.89	385.2
433.265	411.42
433.641	398.53
434.016	383.17
434.392	379.1
434.767	388.82
435.143	414.58
435.518	400.12
435.894	406.22
436.269	406.22
436.644	422.94
437.02	384.52
437.395	418.2
437.77	413.22
438.145	438.53
438.52	413.68
438.895	432.43
439.271	425.2
439.646	415.48
440.021	435.37
440.395	443.73
440.77	427.46
441.145	436.27
441.52	441.7
441.895	425.65
442.27	415.26
442.645	425.2
443.019	446.44
443.394	434.24
443.769	444.18
444.143	460.45
444.518	417.07
444.892	454.13
445.267	446.22
445.641	427.46
446.016	465.88
446.39	445.09
446.764	444.86
447.139	445.09
447.513	462.26
447.887	459.32
448.262	440.57
448.636	461.58
449.01	450.96
449.384	466.1
449.758	467.23
450.132	458.42
450.506	462.71
450.88	483.5
451.254	448.48
451.628	497.74
452.002	484.18
452.376	483.28
452.75	509.04
453.123	486.44
453.497	486.22
453.871	488.7
454.244	485.99
454.618	492.54
454.992	493.9
455.365	512.2
455.739	490.06
456.112	522.6
456.486	506.33
456.859	521.92
457.232	534.12
457.606	533.22
457.979	513.79
458.352	551.75
458.725	537.74
459.099	545.65
459.472	529.83
459.845	546.33
460.218	544.52
460.591	549.72
460.964	547.46
461.337	532.99
461.71	545.88
462.083	557.85
462.456	575.48
462.829	578.64
463.201	586.55
463.574	578.64
463.947	591.52
464.32	589.26
464.692	573.67
465.065	582.48
465.438	597.4
465.81	597.4
466.183	629.26
466.555	620.68
466.928	627.91
467.3	627.68
467.672	626.33
468.045	620.68
468.417	634.91
468.789	661.8
469.161	642.6
469.534	653.44
469.906	669.26
470.278	654.57
470.65	675.36
471.022	678.3
471.394	678.75
471.766	678.98
472.138	700
472.51	733.67
472.882	700.67
473.253	718.75
473.625	714.23
473.997	735.7
474.369	743.84
474.74	723.5
475.112	743.84
475.484	763.27
475.855	773.67
476.227	777.96
476.598	794.23
476.97	809.37
477.341	826.09
477.713	826.77
478.084	831.52
478.455	825.19
478.827	841.01
479.198	864.74
479.569	869.03
479.94	900.89
480.311	881.91
480.682	890.73
481.053	945.64
481.424	928.69
481.795	928.01
482.166	910.61
482.537	947.67
482.908	951.29
483.279	996.26
483.65	992.64
484.021	1022.02
484.391	1034
484.762	1031.74
485.133	1034.22
485.503	1055.24
485.874	1063.15
486.244	1071.29
486.615	1100.66
486.985	1100.44
487.356	1120.78
487.726	1135.92
488.097	1136.14
488.467	1134.11
488.837	1162.13
489.207	1177.05
489.578	1192.19
489.948	1206.65
490.318	1213.43
490.688	1224.5
491.058	1243.71
491.428	1239.64
491.798	1254.56
492.168	1283.94
492.538	1279.87
492.908	1325.97
493.278	1299.08
493.648	1311.73
494.017	1313.76
494.387	1326.65
494.757	1335.46
495.126	1381.56
495.496	1377.49
495.866	1351.5
496.235	1379.07
496.605	1430.82
496.974	1400.32
497.344	1408.23
497.713	1404.16
498.082	1421.78
498.452	1428.11
498.821	1449.81
499.19	1440.54
499.559	1448.22
499.928	1469.24
500.298	1476.7
500.667	1537.26
501.036	1468.56
501.405	1492.74
501.774	1500.43
502.143	1523.7
502.512	1513.31
502.88	1530.26
503.249	1536.36
503.618	1541.1
503.987	1536.13
504.356	1550.59
504.724	1572.97
505.093	1597.83
505.462	1593.98
505.83	1586.98
506.199	1592.18
506.567	1603.7
506.936	1645.73
507.304	1641.89
507.672	1636.02
508.041	1639.86
508.409	1653.42
508.777	1679.63
509.145	1662.68
509.514	1660.87
509.882	1680.31
510.25	1694.55
510.618	1702
510.986	1689.57
511.354	1708.1
511.722	1707.43
512.09	1752.4
512.458	1746.3
512.826	1726.86
513.193	1746.3
513.561	1775.45
513.929	1750.14
514.297	1766.63
514.664	1771.61
515.032	1810.7
515.4	1798.5
515.767	1771.15
516.135	1808.44
516.502	1787.88
516.869	1807.31
517.237	1826.29
517.604	1838.95
517.972	1840.3
518.339	1862.9
518.706	1864.48
519.073	1854.77
519.44	1879.85
519.808	1862.68
520.175	1876.24
520.542	1896.8
520.909	1916.01
521.276	1911.72
521.643	1921.66
522.009	1946.97
522.376	1925.5
522.743	1954.65
523.11	1983.8
523.477	1971.83
523.843	1986.97
524.21	2008.21
524.577	2014.76
524.943	2019.96
525.31	2037.36
525.676	2061.99
526.043	2049.79
526.409	2043.01
526.776	2053.63
527.142	2073.74
527.508	2087.08
527.874	2076.46
528.241	2074.42
528.607	2069.45
528.973	2106.29
529.339	2104.7
529.705	2137.92
530.071	2160.75
530.437	2119.62
530.803	2130.69
531.169	2184.25
531.535	2114.65
531.901	2121.88
532.267	2188.09
532.632	2168.21
532.998	2187.64
533.364	2174.76
533.73	2184.25
534.095	2184.02
534.461	2191.93
534.826	2228.09
535.192	2168.21
535.557	2200.07
535.923	2202.33
536.288	2218.15
536.653	2184.02
537.019	2192.61
537.384	2183.12
537.749	2213.18
538.114	2205.49
538.479	2225.61
538.845	2228.32
539.21	2207.07
539.575	2208.43
539.94	2231.25
540.305	2209.56
540.67	2195.55
541.034	2239.84
541.399	2252.5
541.764	2211.82
542.129	2273.97
542.494	2220.18
542.858	2216.11
543.223	2257.69
543.587	2246.4
543.952	2229.22
544.316	2276
544.681	2252.5
545.045	2307.19
545.41	2264.7
545.774	2248.88
546.138	2269.22
546.503	2267.64
546.867	2309.44
547.231	2263.34
547.595	2257.24
547.959	2267.86
548.324	2266.06
548.688	2287.75
549.052	2313.29
549.416	2298.37
549.779	2314.64
550.143	2291.37
550.507	2303.57
550.871	2322.1
551.235	2318.71
551.599	2335.88
551.962	2302.89
552.326	2302.67
552.689	2320.74
553.053	2330.24
553.417	2352.16
553.78	2313.29
554.143	2349.44
554.507	2347.86
554.87	2314.64
555.234	2348.09
555.597	2363.91
555.96	2346.73
556.323	2345.83
556.686	2354.19
557.05	2354.19
557.413	2351.03
557.776	2386.28
558.139	2360.52
558.502	2415.66
558.865	2382.21
559.228	2371.82
559.59	2388.09
559.953	2395.77
560.316	2422.44
560.679	2430.12
561.041	2420.18
561.404	2452.72
561.767	2427.86
562.129	2414.3
562.492	2442.77
562.854	2434.41
563.217	2432.15
563.579	2434.64
563.941	2438.48
564.304	2456.56
564.666	2452.27
565.028	2458.59
565.39	2468.08
565.753	2482.32
566.115	2485.49
566.477	2505.82
566.839	2483.68
567.201	2499.5
567.563	2498.14
567.925	2512.15
568.287	2530.23
568.648	2515.32
569.01	2503.11
569.372	2535.2
569.734	2545.14
570.095	2548.31
570.457	2542.43
570.819	2569.78
571.18	2534.52
571.542	2551.92
571.903	2536.11
572.265	2553.73
572.626	2547.4
572.987	2587.86
573.349	2553.96
573.71	2588.31
574.071	2549.89
574.432	2575.2
574.794	2563.68
575.155	2559.16
575.516	2536.56
575.877	2554.64
576.238	2541.53
576.599	2591.7
576.96	2596.22
577.32	2549.21
577.681	2561.87
578.042	2558.25
578.403	2570.46
578.763	2618.59
579.124	2556.22
579.485	2578.59
579.845	2572.94
580.206	2578.36
580.566	2582.21
580.927	2565.71
581.287	2569.78
581.648	2550.34
582.008	2570
582.368	2564.13
582.728	2558.48
583.089	2544.47
583.449	2530.91
583.809	2569.1
584.169	2532.49
584.529	2533.85
584.889	2510.8
585.249	2514.86
585.609	2487.75
585.969	2528.87
586.329	2513.96
586.688	2499.27
587.048	2520.51
587.408	2446.16
587.768	2487.75
588.127	2514.86
588.487	2489.55
588.846	2546.95
589.206	2490.91
589.565	2477.12
589.925	2493.39
590.284	2482.1
590.643	2462.89
591.003	2489.78
591.362	2455.88
591.721	2505.6
592.08	2500.63
592.44	2483
592.799	2473.28
593.158	2523
593.517	2460.63
593.876	2477.8
594.235	2497.69
594.593	2483.9
594.952	2486.16
595.311	2454.75
595.67	2503.79
596.029	2466.73
596.387	2486.39
596.746	2473.28
597.104	2489.1
597.463	2459.5
597.822	2479.84
598.18	2474.86
598.538	2484.81
598.897	2494.52
599.255	2513.51
599.613	2495.2
599.972	2541.98
600.33	2465.6
600.688	2508.76
601.046	2487.97
601.404	2525.48
601.762	2538.37
602.12	2530.68
602.478	2525.48
602.836	2524.58
603.194	2503.11
603.552	2519.38
603.91	2521.19
604.268	2531.59
604.625	2506.5
604.983	2493.85
605.341	2511.47
605.698	2537.69
606.056	2519.16
606.413	2548.31
606.771	2512.38
607.128	2577.01
607.485	2566.39
607.843	2565.94
608.2	2557.8
608.557	2571.36
608.914	2588.31
609.272	2586.5
609.629	2541.76
609.986	2586.5
610.343	2551.47
610.7	2594.18
611.057	2556.44
611.414	2570.68
611.771	2554.41
612.127	2570.46
612.484	2579.72
612.841	2588.76
613.198	2547.18
613.554	2582.21
613.911	2590.79
614.267	2606.39
614.624	2568.65
614.98	2616.1
615.337	2617.01
615.693	2613.62
616.05	2624.01
616.406	2649.1
616.762	2668.76
617.118	2622.66
617.475	2592.38
617.831	2642.77
618.187	2652.03
618.543	2621.08
618.899	2650.23
619.255	2641.64
619.611	2618.36
619.967	2629.66
620.323	2635.99
620.678	2635.09
621.034	2596.89
621.39	2632.6
621.746	2629.89
622.101	2624.24
622.457	2631.92
622.812	2621.08
623.168	2646.61
623.523	2628.98
623.879	2642.09
624.234	2593.51
624.589	2626.5
624.945	2654.97
625.3	2651.13
625.655	2627.18
626.01	2607.52
626.365	2647.97
626.72	2635.76
627.075	2640.06
627.43	2626.05
627.785	2592.38
628.14	2627.63
628.495	2623.79
628.85	2625.82
629.205	2624.92
629.559	2633.96
629.914	2605.93
630.269	2589.21
630.623	2588.31
630.978	2610
631.332	2648.42
631.687	2610
632.041	2606.84
632.396	2611.81
632.75	2637.12
633.104	2596.44
633.459	2587.4
633.813	2599.38
634.167	2598.48
634.521	2607.52
634.875	2617.01
635.229	2565.26
635.583	2561.87
635.937	2604.58
636.291	2587.18
636.645	2558.7
636.999	2554.64
637.352	2596.44
637.706	2547.86
638.06	2577.23
638.413	2586.73
638.767	2597.57
639.121	2580.85
639.474	2573.62
639.828	2531.59
640.181	2564.13
640.534	2570.91
640.888	2561.42
641.241	2577.69
641.594	2582.88
641.947	2588.76
642.301	2596.89
642.654	2562.77
643.007	2575.2
643.36	2582.21
643.713	2619.04
644.066	2581.53
644.419	2585.82
644.771	2600.06
645.124	2545.37
645.477	2559.16
645.83	2551.92
646.182	2513.28
646.535	2553.73
646.888	2558.25
647.24	2541.53
647.593	2537.46
647.945	2539.27
648.298	2555.54
648.65	2524.81
649.002	2565.03
649.355	2544.47
649.707	2568.87
650.059	2594.18
650.411	2643.45
650.763	2652.71
651.115	2696.33
651.467	2621.75
651.819	2662.66
652.171	2680.28
652.523	2692.03
652.875	2679.38
653.227	2696.1
653.578	2727.96
653.93	2705.14
654.282	2685.71
654.633	2690.68
654.985	2696.78
655.337	2720.06
655.688	2747.63
656.039	2768.87
656.391	2752.15
656.742	2746.72
657.094	2757.34
657.445	2815.65
657.796	2769.55
658.147	2824.91
658.498	2796.66
658.849	2828.08
659.2	2828.53
659.551	2844.8
659.902	2872.14
660.253	2882.99
660.604	2900.39
660.955	2883.22
661.306	2904.23
661.656	2929.32
662.007	2949.2
662.358	2942.65
662.708	2958.02
663.059	2987.17
663.409	2959.15
663.76	2986.49
664.11	3012.93
664.461	3004.34
664.811	3044.79
665.161	3055.19
665.511	3081.4
665.862	3123.89
666.212	3134.51
666.562	3149.2
666.912	3122.3
667.262	3170.89
667.612	3205.69
667.962	3197.11
668.312	3214.51
668.662	3253.15
669.011	3255.63
669.361	3247.5
669.711	3272.36
670.06	3275.52
670.41	3296.99
670.76	3341.51
671.109	3359.81
671.459	3351.45
671.808	3362.75
672.157	3425.57
672.507	3403.88
672.856	3401.39
673.205	3441.62
673.554	3449.08
673.904	3464.67
674.253	3481.17
674.602	3513.03
674.951	3485.91
675.3	3523.65
675.649	3595.29
675.998	3596.64
676.346	3634.83
676.695	3680.26
677.044	3667.83
677.393	3716.41
677.741	3726.58
678.09	3744.44
678.438	3739.24
678.787	3800.03
679.135	3830.31
679.484	3787.15
679.832	3856.07
680.181	3873.47
680.529	3918.89
680.877	3930.19
681.225	3931.78
681.573	3965.22
681.922	3980.81
682.27	3968.16
682.618	4014.03
682.966	4035.28
683.314	4084.99
683.661	4081.83
684.009	4063.3
684.357	4111.21
684.705	4137.19
685.053	4172.9
685.4	4209.51
685.748	4181.94
686.095	4247.93
686.443	4269.17
686.79	4240.02
687.138	4297.42
687.485	4287.92
687.832	4308.04
688.18	4341.48
688.527	4373.8
688.874	4407.24
689.221	4395.72
689.568	4425.32
689.915	4468.03
690.262	4456.06
690.609	4506.45
690.956	4476.17
691.303	4540.12
691.65	4553.23
691.997	4546
692.344	4565.2
692.69	4572.89
693.037	4620.8
693.383	4644.98
693.73	4649.04
694.077	4674.81
694.423	4736.5
694.769	4717.97
695.116	4741.47
695.462	4739.66
695.808	4777.18
696.155	4801.81
696.501	4780.34
696.847	4826.21
697.193	4872.77
697.539	4877.96
697.885	4837.74
698.231	4878.87
698.577	4929.26
698.923	4907.57
699.269	4942.6
699.614	4911.86
699.96	4924.07
700.306	4979.21
700.651	5022.59
700.997	5059.2
701.342	4998.64
701.688	5024.4
702.033	5053.33
702.379	5056.49
702.724	5055.14
703.069	5043.16
703.415	5072.54
703.76	5123.83
704.105	5099.2
704.45	5123.38
704.795	5123.16
705.14	5140.33
705.485	5178.52
705.83	5169.03
706.175	5175.81
706.52	5244.51
706.865	5204.06
707.209	5239.09
707.554	5194.34
707.899	5245.64
708.243	5294.45
708.588	5252.42
708.932	5223.49
709.277	5277.73
709.621	5322.93
709.966	5269.59
710.31	5343.72
710.654	5302.36
710.998	5294.68
711.342	5336.94
711.687	5321.12
712.031	5379.65
712.375	5376.93
712.719	5390.27
713.063	5356.82
713.407	5417.61
713.75	5405.86
714.094	5462.13
714.438	5382.81
714.782	5425.07
715.125	5461.68
715.469	5415.13
715.812	5429.81
716.156	5453.32
716.499	5450.38
716.843	5426.43
717.186	5421.91
717.53	5507.78
717.873	5464.39
718.216	5511.62
718.559	5473.66
718.902	5503.71
719.246	5492.19
719.589	5546.2
719.932	5478.63
720.275	5491.96
720.617	5509.81
720.96	5489.7
721.303	5529.25
721.646	5511.39
721.989	5510.94
722.331	5528.34
722.674	5524.5
723.016	5487.21
723.359	5544.61
723.701	5569.02
724.044	5526.31
724.386	5522.02
724.729	5541.45
725.071	5547.1
725.413	5585.07
725.755	5544.61
726.097	5547.33
726.439	5499.64
726.782	5566.99
727.124	5566.76
727.465	5583.94
727.807	5508.91
728.149	5517.5
728.491	5575.35
728.833	5566.76
729.175	5560.88
729.516	5542.58
729.858	5559.75
730.199	5556.14
730.541	5541.9
730.882	5593.65
731.224	5590.71
731.565	5525.63
731.906	5587.78
732.248	5606.31
732.589	5557.04
732.93	5558.17
733.271	5576.93
733.612	5578.06
733.953	5568.79
734.294	5530.15
734.635	5557.5
734.976	5578.06
735.317	5522.47
735.658	5578.29
735.999	5547.1
736.339	5561.11
736.68	5585.97
737.021	5526.99
737.361	5544.61
737.702	5526.08
738.042	5501.68
738.383	5470.72
738.723	5532.86
739.063	5520.89
739.404	5548.46
739.744	5583.94
740.084	5472.75
740.424	5517.95
740.764	5507.33
741.104	5516.59
741.444	5509.81
741.784	5417.16
742.124	5461.45
742.464	5453.77
742.804	5408.8
743.143	5438.63
743.483	5420.78
743.823	5432.98
744.162	5440.89
744.502	5467.33
744.841	5409.48
745.181	5417.16
745.52	5438.18
745.86	5465.97
746.199	5408.8
746.538	5391.85
746.877	5459.87
747.216	5422.36
747.556	5417.16
747.895	5377.84
748.234	5371.51
748.573	5433.2
748.911	5366.77
749.25	5342.59
749.589	5329.7
749.928	5338.29
750.267	5348.91
750.605	5305.98
750.944	5328.35
751.283	5335.35
751.621	5356.82
751.96	5320.21
752.298	5272.76
752.636	5282.93
752.975	5268.46
753.313	5287.67
753.651	5280.21
753.989	5206.54
754.327	5257.16
754.666	5182.82
755.004	5223.49
755.342	5236.37
755.679	5194.79
756.017	5180.33
756.355	5204.28
756.693	5135.36
757.031	5215.81
757.368	5164.29
757.706	5138.52
758.044	5118.41
758.381	5143.04
758.719	5123.61
759.056	5117.96
759.394	5119.09
759.731	5047
760.068	5070.05
760.405	5051.97
760.743	5011.52
761.08	5015.14
761.417	5043.16
761.754	4940.79
762.091	5018.53
762.428	4980.11
762.765	4927
763.102	4992.31
763.438	4924.52
763.775	4926.55
764.112	4929.04
764.449	4910.51
764.785	4861.24
765.122	4862.82
765.458	4868.02
765.795	4842.03
766.131	4809.49
766.467	4784.18
766.804	4794.13
767.14	4742.38
767.476	4787.8
767.812	4776.27
768.148	4778.08
768.485	4750.51
768.821	4724.3
769.157	4727.46
769.492	4697.63
769.828	4686.33
770.164	4596.84
770.5	4677.97
770.836	4654.02
771.171	4633.23
771.507	4602.04
771.842	4568.59
772.178	4587.35
772.513	4590.97
772.849	4598.42
773.184	4515.04
773.519	4555.04
773.855	4520.46
774.19	4500.35
774.525	4487.47
774.86	4501.7
775.195	4461.7
775.53	4456.51
775.865	4451.76
776.2	4418.99
776.535	4366.57
776.87	4358.43
777.205	4375.15
777.539	4386
777.874	4371.31
778.209	4307.58
778.543	4319.34
778.878	4300.13
779.212	4302.84
779.547	4273.24
779.881	4275.04
780.215	4224.2
780.55	4281.6
780.884	4233.46
781.218	4225.33
781.552	4200.02
781.886	4157.98
782.22	4148.04
782.554	4227.59
782.888	4165.22
783.222	4104.2
783.556	4052.68
783.889	4109.85
784.223	4079.34
784.557	4059.68
784.89	4052
785.224	4026.91
785.557	4050.42
785.891	4002.51
786.224	4052.22
786.558	4000.7
786.891	3970.64
787.224	3954.6
787.557	3945.33
787.891	3939.68
788.224	3898.78
788.557	3908.5
788.89	3934.26
789.223	3935.84
789.556	3899.69
789.888	3874.83
790.221	3870.31
790.554	3840.48
790.887	3802.96
791.219	3796.86
791.552	3808.39
791.884	3793.7
792.217	3762.74
792.549	3751.89
792.882	3761.16
793.214	3757.09
793.546	3742.4
793.879	3708.05
794.211	3712.35
794.543	3715.74
794.875	3728.16
795.207	3655.4
795.539	3675.28
795.871	3665.79
796.203	3669.18
796.535	3660.6
796.867	3612.46
797.198	3631.9
797.53	3592.8
797.862	3585.12
798.193	3609.52
798.525	3591.67
798.856	3576.08
799.188	3568.17
799.519	3542.86
799.85	3531.33
800.182	3478.91
800.513	3503.09
800.844	3496.98
801.175	3540.6
801.506	3510.09
801.837	3523.2
802.168	3480.49
802.499	3477.1
802.83	3473.26
803.161	3447.27
803.491	3432.13
803.822	3435.74
804.153	3440.94
804.483	3423.54
804.814	3388.51
805.145	3348.97
805.475	3373.37
805.805	3375.63
806.136	3374.5
806.466	3343.09
806.796	3376.31
807.126	3355.07
807.457	3325.92
807.787	3341.51
808.117	3316.2
808.447	3316.42
808.777	3292.92
809.107	3302.19
809.436	3257.89
809.766	3303.54
810.096	3260.83
810.426	3293.37
810.755	3254.5
811.085	3234.39
811.414	3246.14
811.744	3180.61
812.073	3227.84
812.403	3192.59
812.732	3189.2
813.061	3213.83
813.39	3187.16
813.719	3157.56
814.049	3183.09
814.378	3189.2
814.707	3152.13
815.036	3135.86
815.365	3177.44
815.693	3076.66
816.022	3140.61
816.351	3139.03
816.68	3094.51
817.008	3102.64
817.337	3097.67
817.665	3080.5
817.994	3109.42
818.322	3082.31
818.651	3087.28
818.979	3099.48
819.307	3089.09
819.636	3035.3
819.964	3026.04
820.292	3054.06
820.62	3046.37
820.948	3036.88
821.276	3036.88
821.604	3008.64
821.932	3057.67
822.259	3076.43
822.587	3017.9
822.915	3029.2
823.243	3048.41
823.57	3015.19
823.898	2995.98
824.225	3041.4
824.553	3024.45
824.88	3012.48
825.207	3020.61
825.535	3041.4
825.862	3024.68
826.189	2989.88
826.516	3042.76
826.843	3015.64
827.17	3066.94
827.497	3021.74
827.824	3047.05
828.151	3045.47
828.478	3005.25
828.805	3066.49
829.131	3034.62
829.458	2991.91
829.785	2983.78
830.111	3011.57
830.438	3018.8
830.764	3045.02
831.09	3024
831.417	3010.9
831.743	3027.17
832.069	2981.07
832.395	2972.25
832.722	3033.04
833.048	3004.34
833.374	2996.21
833.7	3002.08
834.026	2993.49
834.351	2989.2
834.677	3030.78
835.003	3068.3
835.329	2976.09
835.654	3003.21
835.98	2989.43
836.306	2991.23
836.631	2960.28
836.956	2966.38
837.282	2982.65
837.607	2971.57
837.932	2938.58
838.258	2945.81
838.583	2956.21
838.908	2939.48
839.233	2949.65
839.558	2953.95
839.883	2932.48
840.208	2895.19
840.533	2913.95
840.858	2915.98
841.182	2909.88
841.507	2898.36
841.832	2884.35
842.156	2912.37
842.481	2886.83
842.805	2908.07
843.13	2895.19
843.454	2836.89
843.778	2833.05
844.103	2843.44
844.427	2822.65
844.751	2866.94
845.075	2872.59
845.399	2843.22
845.723	2857.91
846.047	2828.08
846.371	2816.55
846.695	2810.9
847.019	2763.22
847.343	2797.57
847.666	2784.46
847.99	2755.53
848.313	2771.35
848.637	2772.26
848.96	2707.85
849.284	2727.06
849.607	2705.37
849.931	2707.17
850.254	2718.7
850.577	2684.12
850.9	2642.32
851.223	2654.75
851.546	2624.92
851.869	2603.9
852.192	2649.32
852.515	2641.19
852.838	2629.66
853.161	2594.64
853.483	2622.88
853.806	2601.64
854.129	2591.92
854.451	2573.17
854.774	2581.53
855.096	2578.14
855.419	2552.83
855.741	2539.72
856.063	2539.04
856.385	2568.2
856.708	2513.51
857.03	2546.27
857.352	2508.76
857.674	2528.42
857.996	2531.81
858.318	2478.93
858.64	2494.52
858.961	2492.26
859.283	2462.44
859.605	2437.58
859.926	2477.35
860.248	2474.64
860.57	2455.88
860.891	2436.22
861.212	2443.9
861.534	2434.41
861.855	2456.79
862.176	2433.74
862.498	2426.28
862.819	2440.06
863.14	2434.19
863.461	2464.24
863.782	2410.91
864.103	2419.95
864.424	2413.85
864.745	2417.69
865.065	2384.7
865.386	2431.25
865.707	2393.74
866.027	2369.1
866.348	2355.55
866.668	2374.75
866.989	2346.73
867.309	2379.73
867.63	2384.47
867.95	2394.19
868.27	2360.74
868.59	2351.93
868.91	2360.52
869.23	2357.81
869.55	2335.43
869.87	2352.16
870.19	2386.05
870.51	2335.88
870.83	2362.78
871.15	2333.85
871.469	2323.46
871.789	2355.77
872.109	2330.46
872.428	2308.09
872.748	2298.82
873.067	2322.1
873.386	2304.93
873.706	2258.6
874.025	2326.62
874.344	2305.38
874.663	2294.53
874.982	2297.02
875.301	2271.25
875.62	2283.91
875.939	2286.85
876.258	2282.78
876.577	2294.08
876.896	2285.49
877.214	2312.16
877.533	2277.13
877.852	2257.47
878.17	2263.34
878.489	2274.64
878.807	2273.29
879.125	2251.59
879.444	2242.78
879.762	2267.19
880.08	2230.8
880.398	2241.88
880.716	2225.15
881.034	2251.82
881.352	2230.58
881.67	2239.39
881.988	2207.3
882.306	2195.55
882.624	2210.01
882.941	2198.71
883.259	2179.73
883.577	2197.36
883.894	2166.85
884.212	2213.4
884.529	2190.58
884.846	2201.65
885.164	2210.24
885.481	2177.92
885.798	2209.33
886.115	2197.58
886.432	2176.12
886.75	2162.56
887.067	2151.93
887.383	2145.16
887.7	2113.97
888.017	2138.6
888.334	2152.84
888.651	2142.22
888.967	2119.17
889.284	2129.56
889.6	2120.75
889.917	2118.94
890.233	2126.62
890.55	2071.94
890.866	2137.25
891.182	2088.43
891.498	2095.89
891.815	2078.26
892.131	2094.54
892.447	2084.14
892.763	2055.67
893.079	2045.27
893.395	2037.59
893.71	2037.81
894.026	2015.44
894.342	2037.81
894.657	2040.07
894.973	2024.71
895.289	2011.37
895.604	2043.24
895.92	2003.24
896.235	2031.94
896.55	1985.84
896.865	1988.1
897.181	1993.97
897.496	1997.36
897.811	1973.63
898.126	1963.24
898.441	1985.61
898.756	1979.06
899.071	1929.79
899.386	1950.81
899.7	1963.92
900.015	1954.88
900.33	1957.59
900.644	1909.46
900.959	1920.53
901.273	1915.78
901.588	1925.05
901.902	1884.15
902.216	1901.77
902.531	1875.78
902.845	1872.39
903.159	1858.84
903.473	1892.51
903.787	1870.59
904.101	1859.51
904.415	1860.19
904.729	1838.72
905.042	1845.05
905.356	1832.85
905.67	1840.08
905.984	1831.94
906.297	1807.54
906.611	1808.67
906.924	1823.58
907.237	1779.52
907.551	1795.56
907.864	1793.98
908.177	1789.68
908.491	1782.91
908.804	1785.62
909.117	1754.21
909.43	1776.35
909.743	1778.16
910.056	1723.92
910.368	1758.27
910.681	1757.82
910.994	1722.34
911.307	1740.42
911.619	1719.63
911.932	1699.52
912.244	1688.9
912.557	1721.21
912.869	1706.75
913.181	1706.3
913.494	1679.4
913.806	1655.45
914.118	1669.69
914.43	1668.78
914.742	1669.91
915.054	1651.84
915.366	1632.17
915.678	1632.85
915.99	1642.8
916.302	1620.2
916.613	1621.1
916.925	1615
917.236	1630.82
917.548	1632.17
917.859	1628.78
918.171	1613.42
918.482	1607.99
918.794	1586.75
919.105	1586.53
919.416	1598.5
919.727	1587.43
920.038	1584.94
920.349	1557.83
920.66	1580.88
920.971	1568
921.282	1537.04
921.593	1534.1
921.903	1564.61
922.214	1533.65
922.525	1532.29
922.835	1504.72
923.146	1498.62
923.456	1538.17
923.767	1516.25
924.077	1509.47
924.387	1516.25
924.697	1478.28
925.008	1492.29
925.318	1489.13
925.628	1499.75
925.938	1465.63
926.248	1487.09
926.558	1482.35
926.867	1459.3
927.177	1464.5
927.487	1479.64
927.796	1458.85
928.106	1455.46
928.416	1470.14
928.725	1424.5
929.034	1415.01
929.344	1449.13
929.653	1452.97
929.962	1441.22
930.271	1386.76
930.581	1439.86
930.89	1388.11
931.199	1374.78
931.508	1375.91
931.817	1399.41
932.125	1371.39
932.434	1377.49
932.743	1361.9
933.051	1402.35
933.36	1364.39
933.669	1384.95
933.977	1346.98
934.286	1360.09
934.594	1350.6
934.902	1344.27
935.21	1325.29
935.519	1323.93
935.827	1313.76
936.135	1350.83
936.443	1304.05
936.751	1297.72
937.059	1304.95
937.367	1295.91
937.674	1301.56
937.982	1296.14
938.29	1272.18
938.597	1281.9
938.905	1278.51
939.213	1289.81
939.52	1267.89
939.827	1265.4
940.135	1268.34
940.442	1285.97
940.749	1242.81
941.056	1262.69
941.363	1238.06
941.67	1256.59
941.977	1267.89
942.284	1264.27
942.591	1233.77
942.898	1215.24
943.205	1213.65
943.511	1219.76
943.818	1237.38
944.125	1201.9
944.431	1215.24
944.738	1205.75
945.044	1222.02
945.35	1205.75
945.657	1195.58
945.963	1172.07
946.269	1176.14
946.575	1195.58
946.881	1190.38
947.187	1190.15
947.493	1164.39
947.799	1169.14
948.105	1132.3
948.41	1173.2
948.716	1154.67
949.022	1143.15
949.327	1134.33
949.633	1166.88
949.938	1140.89
950.244	1138.18
950.549	1121.45
950.854	1094.34
951.16	1111.51
951.465	1099.31
951.77	1097.27
952.075	1110.61
952.38	1107.67
952.685	1120.32
952.99	1147.44
953.294	1102.47
953.599	1091.4
953.904	1085.75
954.209	1077.16
954.513	1088.01
954.818	1084.39
955.122	1097.73
955.426	1081.68
955.731	1066.31
956.035	1088.01
956.339	1075.35
956.643	1059.08
956.948	1055.24
957.252	1043.49
957.556	1052.3
957.86	1055.01
958.163	1050.04
958.467	1036.26
958.771	1008.01
959.075	1029.93
959.378	1016.6
959.682	1027.22
959.985	1022.25
960.289	1022.02
960.592	1001
960.896	1015.69
961.199	996.03
961.502	1011.63
961.805	1006.43
962.108	1009.37
962.411	1010.27
962.714	971.63
963.017	963.27
963.32	980.89
963.623	988.35
963.926	955.36
964.228	979.08
964.531	978.41
964.833	965.3
965.136	974.34
965.438	961.46
965.741	989.25
966.043	969.82
966.345	962.14
966.648	960.1
966.95	970.5
967.252	941.57
967.554	947.22
967.856	943.15
968.158	939.54
968.46	943.61
968.761	911.52
969.063	940.22
969.365	937.96
969.666	911.74
969.968	928.01
970.269	908.13
970.571	921.46
970.872	892.31
971.174	893.66
971.475	909.93
971.776	903.83
972.077	904.74
972.378	908.58
972.679	907.67
972.98	845.08
973.281	892.08
973.582	899.31
973.883	877.17
974.183	892.98
974.484	863.61
974.785	893.89
975.085	874.23
975.386	851.63
975.686	867.22
975.986	855.02
976.287	869.93
976.587	860.67
976.887	856.15
977.187	864.51
977.487	847.11
977.787	854.79
978.087	855.02
978.387	825.64
978.687	862.7
978.987	844.85
979.286	838.3
979.586	815.47
979.885	841.91
980.185	817.96
980.484	806.89
980.784	824.06
981.083	824.96
981.382	824.06
981.682	816.15
981.981	790.84
982.28	812.31
982.579	821.57
982.878	812.08
983.177	807.11
983.475	781.8
983.774	794.68
984.073	807.79
984.372	780.22
984.67	792.87
984.969	788.13
985.267	792.2
985.566	803.95
985.864	781.12
986.162	809.37
986.461	770.05
986.759	797.39
987.057	763.95
987.355	745.64
987.653	765.53
987.951	766.66
988.249	763.27
988.547	747
988.844	756.27
989.142	748.13
989.44	756.72
989.737	744.74
990.035	770.28
990.332	739.77
990.63	753.33
990.927	763.27
991.224	739.54
991.521	740.67
991.819	739.32
992.116	746.1
992.413	738.41
992.71	725.53
993.006	721.92
993.303	713.78
993.6	720.79
993.897	719.2
994.193	722.14
994.49	705.65
994.787	713.78
995.083	711.97
995.379	710.62
995.676	704.06
995.972	705.42
996.268	699.09
996.565	704.74
996.861	711.29
997.157	689.83
997.453	690.5
997.749	682.82
998.044	683.95
998.34	687.11
998.636	687.34
998.932	702.93
999.227	686.89
999.523	701.8
999.818	669.26
1000.114	673.33
1000.409	674.01
1000.704	666.1
1001	670.17
1001.295	648.7
1001.59	679.66
1001.885	668.58
1002.18	664.29
1002.475	657.51
1002.77	665.19
1003.065	648.02
1003.359	627.91
1003.654	646.21
1003.949	654.35
1004.243	625.65
1004.538	634.69
1004.832	633.56
1005.127	631.97
1005.421	624.29
1005.715	640.79
1006.009	641.47
1006.304	638.53
1006.598	616.61
1006.892	624.52
1007.186	618.87
1007.48	627
1007.773	627.91
1008.067	604.41
1008.361	599.21
1008.655	624.07
1008.948	604.41
1009.242	620
1009.535	612.09
1009.829	602.82
1010.122	596.27
1010.415	612.54
1010.708	612.99
1011.001	599.66
1011.295	606.21
1011.588	590.85
1011.881	589.04
1012.173	584.07
1012.466	608.92
1012.759	597.85
1013.052	592.43
1013.344	571.64
1013.637	584.29
1013.93	569.6
1014.222	559.43
1014.514	584.07
1014.807	572.09
1015.099	559.89
1015.391	573.67
1015.683	578.19
1015.976	562.6
1016.268	574.8
1016.56	570.73
1016.851	556.04
1017.143	577.97
1017.435	548.14
1017.727	570.96
1018.018	554.24
1018.31	577.51
1018.602	552.88
1018.893	545.2
1019.185	541.36
1019.476	551.75
1019.767	546.78
1020.058	546.1
1020.35	544.52
1020.641	530.28
1020.932	521.47
1021.223	523.73
1021.514	514.46
1021.804	540.23
1022.095	517.4
1022.386	518.08
1022.677	546.33
1022.967	504.75
1023.258	513.33
1023.548	520.79
1023.839	513.56
1024.129	513.56
1024.419	511.98
1024.709	502.26
1025	509.04
1025.29	507.68
1025.58	481.02
1025.87	500.68
1026.16	477.63
1026.449	496.61
1026.739	502.71
1027.029	480.34
1027.319	474.46
1027.608	509.94
1027.898	485.09
1028.187	468.59
1028.477	475.14
1028.766	492.77
1029.055	500.23
1029.344	474.24
1029.634	509.72
1029.923	469.95
1030.212	491.64
1030.501	474.92
1030.79	473.11
1031.078	476.95
1031.367	480.57
1031.656	476.72
1031.945	443.96
1032.233	461.81
1032.522	456.84
1032.81	460.91
1033.099	461.81
1033.387	461.13
1033.675	454.8
1033.963	468.82
1034.251	455.03
1034.54	449.83
1034.828	449.38
1035.116	441.25
1035.403	453.9
1035.691	446.22
1035.979	463.62
1036.267	464.3
1036.554	465.88
1036.842	447.12
1037.129	431.75
1037.417	440.12
1037.704	458.65
1037.992	434.01
1038.279	431.3
1038.566	428.36
1038.853	428.36
1039.14	428.36
