Data from carpet_green_FLMS001491_00028.txt Node
Date: Wed Feb 08 10:35:08 GMT 2017
User: dcchb
Spectrometer: FLMS00149
Trigger mode: 0
Integration Time (sec): 2.000000E-2
Scans to average: 10
Electric dark correction enabled: true
Nonlinearity correction enabled: false
Boxcar width: 0
XAxis mode: Wavelengths
Number of Pixels in Spectrum: 2048
>>>>>Begin Spectral Data<<<<<
341.393	-18.59
341.776	-18.59
342.16	-18.59
342.543	-61.3
342.927	-60.85
343.31	-66.95
343.693	-55.42
344.077	-66.04
344.46	-58.36
344.843	-33.05
345.226	-42.77
345.61	-21.3
345.993	-10
346.376	-1.64
346.759	8.3
347.142	25.03
347.525	31.36
347.908	59.38
348.291	69.77
348.674	68.19
349.057	93.5
349.44	124.01
349.823	142.76
350.206	142.54
350.588	171.24
350.971	183.67
351.354	216.43
351.737	203.33
352.119	225.93
352.502	224.34
352.884	273.83
353.267	244.68
353.65	273.16
354.032	266.6
354.414	284.23
354.797	278.81
355.179	294.85
355.562	297.11
355.944	297.79
356.326	303.66
356.709	299.14
357.091	327.84
357.473	307.51
357.855	312.25
358.238	307.28
358.62	316.09
359.002	309.31
359.384	312.93
359.766	326.04
360.148	332.59
360.53	311.57
360.912	287.17
361.294	289.65
361.676	298.92
362.057	291.46
362.439	299.14
362.821	309.77
363.203	290.78
363.584	281.74
363.966	309.31
364.348	306.83
364.729	281.74
365.111	281.74
365.493	301.18
365.874	276.77
366.256	272.48
366.637	283.1
367.019	274.29
367.4	310.67
367.781	281.29
368.163	272.93
368.544	287.62
368.925	288.75
369.306	285.59
369.688	278.81
370.069	280.61
370.45	292.59
370.831	290.11
371.212	282.87
371.593	286.72
371.974	287.62
372.355	288.3
372.736	279.03
373.117	275.64
373.498	295.08
373.879	284.91
374.26	287.85
374.641	275.87
375.021	278.35
375.402	300.27
375.783	279.48
376.163	300.95
376.544	261.18
376.925	281.07
377.305	306.6
377.686	276.09
378.066	273.16
378.447	289.65
378.827	277.68
379.208	303.21
379.588	271.57
379.968	290.11
380.349	294.4
380.729	292.82
381.109	283.33
381.489	291.69
381.87	270.67
382.25	302.31
382.63	296.43
383.01	294.4
383.39	281.74
383.77	307.96
384.15	303.21
384.53	291.46
384.91	300.73
385.29	309.31
385.67	299.82
386.049	293.72
386.429	274.51
386.809	297.56
387.189	302.99
387.568	280.84
387.948	301.4
388.328	298.92
388.707	290.33
389.087	297.34
389.466	316.32
389.846	313.16
390.225	301.86
390.605	320.84
390.984	302.53
391.363	301.63
391.743	306.6
392.122	299.82
392.501	314.74
392.881	302.53
393.26	302.31
393.639	317.9
394.018	331.01
394.397	306.6
394.776	300.95
395.155	320.84
395.534	306.6
395.913	338.01
396.292	307.05
396.671	296.43
397.05	301.4
397.429	319.48
397.808	305.7
398.186	312.48
398.565	309.54
398.944	310.9
399.323	308.41
399.701	321.97
400.08	304.34
400.458	316.77
400.837	325.36
401.215	338.92
401.594	324.23
401.972	324
402.351	335.3
402.729	326.94
403.107	314.74
403.486	317.45
403.864	313.16
404.242	313.61
404.62	319.71
404.999	325.13
405.377	328.07
405.755	314.29
406.133	331.46
406.511	326.94
406.889	317.68
407.267	324.23
407.645	336.66
408.023	340.5
408.401	329.2
408.779	330.56
409.156	348.63
409.534	338.69
409.912	302.08
410.29	326.71
410.667	353.83
411.045	328.97
411.422	337.79
411.8	337.79
412.178	349.09
412.555	357.67
412.933	332.14
413.31	337.79
413.687	350.22
414.065	353.83
414.442	355.19
414.819	337.34
415.197	353.15
415.574	347.05
415.951	318.35
416.328	335.98
416.705	346.15
417.082	352.7
417.46	343.89
417.837	340.73
418.214	352.93
418.591	360.39
418.967	346.83
419.344	346.38
419.721	351.8
420.098	363.55
420.475	340.95
420.852	359.26
421.228	354.06
421.605	361.52
421.982	357.22
422.358	355.64
422.735	360.84
423.111	357.22
423.488	359.03
423.864	351.57
424.241	368.75
424.617	374.62
424.994	362.87
425.37	372.36
425.746	359.03
426.123	375.53
426.499	384.79
426.875	347.28
427.251	373.94
427.627	362.65
428.003	349.31
428.379	365.58
428.756	368.3
429.132	373.04
429.507	368.3
429.883	399.71
430.259	380.72
430.635	367.17
431.011	358.58
431.387	363.32
431.763	388.41
432.138	373.04
432.514	394.28
432.89	400.61
433.265	409.88
433.641	390.44
434.016	398.35
434.392	401.29
434.767	372.59
435.143	415.3
435.518	401.97
435.894	400.84
436.269	418.24
436.644	397.45
437.02	407.84
437.395	434.51
437.77	416.2
438.145	416.43
438.52	404.45
438.895	415.07
439.271	411.68
439.646	410.1
440.021	411.23
440.395	422.53
440.77	404.68
441.145	400.38
441.52	439.93
441.895	422.76
442.27	422.08
442.645	424.34
443.019	433.15
443.394	430.44
443.769	433.6
444.143	442.64
444.518	446.71
444.892	434.28
445.267	438.12
445.641	435.64
446.016	458.01
446.39	434.28
446.764	421.85
447.139	443.1
447.513	446.26
447.887	429.08
448.262	433.15
448.636	432.02
449.01	460.95
449.384	417.56
449.758	454.39
450.132	463.21
450.506	451.46
450.88	451.23
451.254	459.14
451.628	462.08
452.002	472.02
452.376	479.93
452.75	480.38
453.123	472.93
453.497	464.11
453.871	490.55
454.244	492.36
454.618	490.1
454.992	498.69
455.365	498.01
455.739	480.61
456.112	513.83
456.486	500.72
456.859	492.81
457.232	495.98
457.606	483.77
457.979	509.99
458.352	500.72
458.725	496.65
459.099	520.16
459.472	507.95
459.845	512.25
460.218	524.22
460.591	542.75
460.964	532.58
461.337	526.03
461.71	532.81
462.083	525.81
462.456	536.88
462.829	542.08
463.201	550.89
463.574	540.72
463.947	559.48
464.32	573.26
464.692	555.86
465.065	563.54
465.438	570.55
465.81	572.36
466.183	599.25
466.555	572.81
466.928	584.11
467.3	597.67
467.672	583.43
468.045	601.28
468.417	596.54
468.789	610.55
469.161	630.89
469.534	602.87
469.906	624.11
470.278	634.05
470.65	625.01
471.022	631.57
471.394	650.55
471.766	640.6
472.138	654.16
472.51	660.49
472.882	671.34
473.253	664.78
473.625	679.25
473.997	681.73
474.369	710.89
474.74	718.57
475.112	719.47
475.484	732.81
475.855	745.91
476.227	745.23
476.598	741.39
476.97	750.21
477.341	770.77
477.713	759.25
478.084	778.23
478.455	789.53
478.827	789.53
479.198	819.58
479.569	816.42
479.94	827.27
480.311	849.19
480.682	830.2
481.053	859.13
481.424	842.18
481.795	875.63
482.166	863.65
482.537	915.63
482.908	930.99
483.279	947.94
483.65	956.53
484.021	955.17
484.391	970.77
484.762	968.05
485.133	973.7
485.503	977.32
485.874	980.93
486.244	1025.91
486.615	1008.96
486.985	1028.17
487.356	1033.36
487.726	1062.74
488.097	1066.81
488.467	1085.34
488.837	1090.31
489.207	1100.71
489.578	1137.31
489.948	1133.25
490.318	1144.77
490.688	1118.78
491.058	1166.69
491.428	1168.05
491.798	1207.37
492.168	1191.1
492.538	1215.05
492.908	1191.55
493.278	1232
493.648	1243.07
494.017	1228.61
494.387	1256.18
494.757	1264.99
495.126	1291.43
495.496	1285.11
495.866	1277.65
496.235	1294.15
496.605	1311.1
496.974	1307.48
497.344	1325.11
497.713	1312.9
498.082	1317.87
498.452	1352.9
498.821	1346.35
499.19	1366.69
499.559	1367.82
499.928	1365.78
500.298	1370.75
500.667	1395.16
501.036	1395.16
501.405	1377.76
501.774	1391.55
502.143	1409.62
502.512	1406.69
502.88	1445.1
503.249	1420.02
503.618	1420.47
503.987	1446.69
504.356	1434.93
504.724	1471.32
505.093	1447.14
505.462	1436.97
505.83	1483.75
506.199	1441.71
506.567	1506.12
506.936	1487.81
507.304	1518.55
507.672	1523.52
508.041	1505.44
508.409	1493.69
508.777	1528.72
509.145	1517.19
509.514	1532.33
509.882	1562.39
510.25	1536.63
510.618	1561.94
510.986	1546.34
511.354	1582.73
511.722	1561.71
512.09	1550.41
512.458	1595.38
512.826	1584.31
513.193	1570.98
513.561	1575.27
513.929	1607.81
514.297	1623.4
514.664	1622.5
515.032	1642.39
515.4	1642.39
515.767	1656.17
516.135	1648.26
516.502	1631.99
516.869	1685.55
517.237	1668.6
517.604	1671.99
517.972	1676.51
518.339	1674.48
518.706	1670.63
519.073	1667.47
519.44	1672.67
519.808	1673.35
520.175	1694.81
520.542	1732.33
520.909	1714.7
521.276	1728.03
521.643	1760.58
522.009	1730.97
522.376	1735.49
522.743	1756.96
523.11	1738.88
523.477	1744.98
523.843	1773.68
524.21	1777.98
524.577	1775.26
524.943	1784.76
525.31	1819.56
525.676	1797.18
526.043	1810.97
526.409	1844.41
526.776	1853.45
527.142	1846.22
527.508	1822.72
527.874	1864.75
528.241	1833.79
528.607	1859.78
528.973	1875.37
529.339	1863.62
529.705	1884.41
530.071	1883.74
530.437	1873.11
530.803	1929.84
531.169	1885.32
531.535	1916.28
531.901	1900.46
532.267	1943.62
532.632	1902.72
532.998	1926.9
533.364	1911.76
533.73	1924.19
534.095	1904.53
534.461	1899.1
534.826	1935.94
535.192	1884.19
535.557	1950.63
535.923	1944.3
536.288	1920.57
536.653	1956.05
537.019	1900.68
537.384	1901.81
537.749	1942.72
538.114	1917.41
538.479	1928.93
538.845	1946.33
539.21	1930.51
539.575	1934.58
539.94	1910.85
540.305	1928.93
540.67	1976.84
541.034	1942.27
541.399	1950.85
541.764	1918.31
542.129	1946.78
542.494	1927.58
542.858	1949.27
543.223	1941.59
543.587	1923.96
543.952	1951.76
544.316	1940.01
544.681	1937.97
545.045	1944.98
545.41	1943.17
545.774	1957.18
546.138	1952.43
546.503	1941.59
546.867	1944.3
547.231	1952.89
547.595	1957.63
547.959	1968.03
548.324	1991.53
548.688	1945.88
549.052	1961.7
549.416	1999.66
549.779	1953.11
550.143	1991.3
550.507	2000.12
550.871	1977.97
551.235	1985.2
551.599	1975.48
551.962	1984.3
552.326	1996.05
552.689	1976.84
553.053	1980
553.417	1992.66
553.78	2021.36
554.143	2016.84
554.507	1979.33
554.87	1998.76
555.234	2032.88
555.597	2001.92
555.96	1986.56
556.323	2033.56
556.686	2032.43
557.05	2045.54
557.413	2038.31
557.776	2054.58
558.139	2022.72
558.502	2024.3
558.865	2053.67
559.228	2045.77
559.59	2046.22
559.953	2022.94
560.316	2066.33
560.679	2053.22
561.041	2050.74
561.404	2047.57
561.767	2062.94
562.129	2067.01
562.492	2091.41
562.854	2077.18
563.217	2073.79
563.579	2083.5
563.941	2088.48
564.304	2110.85
564.666	2096.84
565.028	2109.04
565.39	2086.44
565.753	2102.94
566.115	2089.15
566.477	2101.13
566.839	2108.81
567.201	2122.83
567.563	2102.26
567.925	2157.63
568.287	2102.26
568.648	2126.22
569.01	2150.17
569.372	2100.91
569.734	2144.29
570.095	2127.8
570.457	2146.33
570.819	2166.44
571.18	2138.19
571.542	2164.18
571.903	2152.2
572.265	2119.66
572.626	2175.93
572.987	2146.55
573.349	2150.4
573.71	2155.14
574.071	2118.76
574.432	2141.13
574.794	2167.12
575.155	2163.73
575.516	2149.72
575.877	2157.63
576.238	2182.26
576.599	2155.82
576.96	2145.2
577.32	2158.98
577.681	2124.63
578.042	2146.1
578.403	2120.79
578.763	2149.94
579.124	2145.88
579.485	2150.62
579.845	2137.97
580.206	2153.56
580.566	2121.47
580.927	2138.87
581.287	2142.26
581.648	2126.89
582.008	2131.19
582.368	2118.08
582.728	2139.32
583.089	2121.24
583.449	2125.54
583.809	2122.37
584.169	2123.28
584.529	2134.35
584.889	2124.86
585.249	2075.14
585.609	2078.08
585.969	2071.75
586.329	2082.83
586.688	2058.19
587.048	2057.06
587.408	2029.27
587.768	2053.9
588.127	2053.67
588.487	2035.82
588.846	2061.81
589.206	2062.71
589.565	2037.4
589.925	2042.38
590.284	2007.35
590.643	2048.03
591.003	2082.6
591.362	2072.43
591.721	2049.38
592.08	2015.03
592.44	2034.01
592.799	2041.7
593.158	2046.22
593.517	2023.17
593.876	2018.2
594.235	2027.01
594.593	2033.34
594.952	2024.07
595.311	2027.23
595.67	2028.14
596.029	2056.61
596.387	1982.94
596.746	1995.6
597.104	2000.34
597.463	2010.51
597.822	2011.19
598.18	2024.52
598.538	1996.5
598.897	2031.08
599.255	2050.06
599.613	2061.36
599.972	2020.46
600.33	2004.86
600.688	2010.29
601.046	2026.56
601.404	2058.65
601.762	2032.43
602.12	2035.82
602.478	2038.99
602.836	2036.5
603.194	2032.66
603.552	1994.69
603.91	2012.55
604.268	2023.85
604.625	2024.75
604.983	2012.32
605.341	2026.1
605.698	2058.87
606.056	2055.26
606.413	2033.34
606.771	2054.58
607.128	2056.16
607.485	2032.21
607.843	2075.14
608.2	2057.29
608.557	2063.17
608.914	2064.3
609.272	2069.49
609.629	2068.14
609.986	2095.93
610.343	2078.76
610.7	2115.14
611.057	2079.44
611.414	2100.68
611.771	2113.33
612.127	2062.04
612.484	2107.23
612.841	2113.11
613.198	2095.26
613.554	2075.6
613.911	2103.84
614.267	2114.24
614.624	2100.91
614.98	2082.6
615.337	2107.23
615.693	2091.87
616.05	2101.81
616.406	2138.87
616.762	2132.77
617.118	2074.47
617.475	2105.2
617.831	2104.75
618.187	2100
618.543	2118.76
618.899	2126.67
619.255	2105.42
619.611	2136.38
619.967	2131.64
620.323	2141.58
620.678	2122.6
621.034	2145.65
621.39	2135.93
621.746	2116.27
622.101	2132.32
622.457	2119.21
622.812	2120.11
623.168	2131.19
623.523	2136.38
623.879	2156.5
624.234	2129.61
624.589	2150.62
624.945	2134.35
625.3	2115.82
625.655	2101.13
626.01	2114.92
626.365	2121.02
626.72	2127.57
627.075	2102.49
627.43	2090.28
627.785	2076.73
628.14	2103.39
628.495	2084.63
628.85	2136.38
629.205	2103.62
629.559	2128.7
629.914	2123.05
630.269	2092.54
630.623	2108.59
630.978	2135.71
631.332	2086.22
631.687	2114.92
632.041	2093.67
632.396	2088.7
632.75	2107.46
633.104	2065.2
633.459	2077.85
633.813	2050.96
634.167	2080.57
634.521	2109.94
634.875	2075.14
635.229	2103.84
635.583	2120.34
635.937	2073.56
636.291	2065.2
636.645	2045.99
636.999	2091.41
637.352	2068.36
637.706	2106.78
638.06	2046.22
638.413	2090.06
638.767	2071.75
639.121	2059.55
639.474	2085.31
639.828	2111.53
640.181	2096.84
640.534	2081.02
640.888	2085.76
641.241	2083.96
641.594	2069.49
641.947	2091.19
642.301	2067.69
642.654	2089.15
643.007	2082.37
643.36	2070.4
643.713	2063.84
644.066	2075.6
644.419	2096.84
644.771	2099.1
645.124	2038.31
645.477	2099.1
645.83	2070.4
646.182	2044.64
646.535	2038.53
646.888	2073.79
647.24	2046.67
647.593	2087.12
647.945	2067.01
648.298	2084.18
648.65	2085.31
649.002	2053.9
649.355	2095.93
649.707	2073.11
650.059	2087.57
650.411	2157.85
650.763	2140.68
651.115	2119.21
651.467	2128.7
651.819	2160.79
652.171	2189.49
652.523	2146.33
652.875	2134.8
653.227	2161.24
653.578	2195.82
653.93	2192.88
654.282	2194.24
654.633	2179.1
654.985	2219.77
655.337	2229.72
655.688	2235.36
656.039	2224.07
656.391	2175.25
656.742	2229.94
657.094	2245.76
657.445	2265.65
657.796	2266.78
658.147	2263.39
658.498	2283.05
658.849	2298.64
659.2	2255.93
659.551	2285.76
659.902	2299.32
660.253	2298.19
660.604	2305.19
660.955	2344.97
661.306	2363.05
661.656	2390.16
662.007	2369.6
662.358	2412.08
662.708	2412.76
663.059	2457.51
663.409	2413.21
663.76	2456.6
664.11	2453.44
664.461	2469.48
664.811	2503.38
665.161	2496.6
665.511	2525.75
665.862	2515.58
666.212	2551.51
666.562	2575.47
666.912	2588.12
667.262	2599.2
667.612	2623.83
667.962	2598.52
668.312	2612.76
668.662	2655.24
669.011	2678.52
669.361	2682.36
669.711	2734.56
670.06	2739.53
670.41	2742.92
670.76	2745.41
671.109	2781.57
671.459	2822.92
671.808	2796.25
672.157	2840.32
672.507	2824.05
672.856	2859.76
673.205	2885.52
673.554	2916.03
673.904	2914.44
674.253	2959.87
674.602	2993.54
674.951	2964.16
675.3	2989.7
675.649	3032.18
675.998	3044.84
676.346	3078.51
676.695	3084.61
677.044	3122.57
677.393	3150.37
677.741	3157.83
678.09	3162.35
678.438	3185.85
678.787	3208.45
679.135	3258.61
679.484	3214.55
679.832	3282.12
680.181	3324.38
680.529	3337.03
680.877	3346.75
681.225	3375
681.573	3422.23
681.922	3404.37
682.27	3422
682.618	3459.74
682.966	3529.79
683.314	3537.25
683.661	3535.9
684.009	3564.82
684.357	3528.89
684.705	3619.74
685.053	3626.06
685.4	3626.51
685.748	3642.33
686.095	3677.81
686.443	3726.4
686.79	3733.18
687.138	3754.65
687.485	3831.26
687.832	3823.8
688.18	3847.53
688.527	3829.45
688.874	3883.68
689.221	3861.31
689.568	3924.59
689.915	3955.09
690.262	3974.08
690.609	3990.57
690.956	4008.88
691.303	4034.87
691.65	4057.46
691.997	4100.4
692.344	4103.11
692.69	4097.24
693.037	4146.28
693.383	4138.59
693.73	4179.04
694.077	4217.69
694.423	4247.52
694.769	4249.78
695.116	4265.59
695.462	4266.72
695.808	4306.95
696.155	4378.59
696.501	4311.47
696.847	4358.92
697.193	4361.18
697.539	4418.36
697.885	4428.53
698.231	4419.71
698.577	4480.73
698.923	4450.22
699.269	4506.94
699.614	4544.68
699.96	4559.37
700.306	4579.71
700.651	4545.59
700.997	4607.96
701.342	4613.61
701.688	4611.35
702.033	4694.06
702.379	4650.44
702.724	4680.95
703.069	4725.02
703.415	4751.68
703.76	4724.79
704.105	4764.11
704.45	4820.61
704.795	4779.7
705.14	4797.78
705.485	4879.36
705.83	4822.19
706.175	4878.46
706.52	4872.58
706.865	4903.77
707.209	4947.38
707.554	4927.95
707.899	4944.45
708.243	4955.75
708.588	5015.18
708.932	4991.45
709.277	5001.62
709.621	5079.81
709.966	5044.56
710.31	5027.61
710.654	5057.66
710.998	5131.56
711.342	5130.66
711.687	5117.32
712.031	5096.08
712.375	5129.07
712.719	5191.9
713.063	5181.28
713.407	5239.13
713.75	5215.4
714.094	5188.51
714.438	5215.4
714.782	5234.83
715.125	5224.44
715.469	5300.14
715.812	5240.26
716.156	5263.99
716.499	5297.43
716.843	5285.91
717.186	5249.97
717.53	5364.55
717.873	5379.46
718.216	5357.99
718.559	5341.05
718.902	5315.96
719.246	5353.02
719.589	5375.4
719.932	5384.43
720.275	5369.75
720.617	5379.92
720.96	5371.33
721.303	5447.94
721.646	5386.02
721.989	5414.72
722.331	5427.15
722.674	5469.86
723.016	5445.45
723.359	5475.51
723.701	5499.23
724.044	5485.9
724.386	5461.49
724.729	5490.87
725.071	5486.58
725.413	5415.85
725.755	5460.14
726.097	5467.82
726.439	5492
726.782	5516.63
727.124	5550.08
727.465	5479.35
727.807	5494.49
728.149	5505.79
728.491	5494.49
728.833	5513.92
729.175	5504.21
729.516	5535.17
729.858	5517.09
730.199	5574.71
730.541	5547.37
730.882	5565.9
731.224	5515.73
731.565	5539.46
731.906	5504.43
732.248	5576.52
732.589	5571.1
732.93	5508.05
733.271	5536.97
733.612	5572
733.953	5580.14
734.294	5508.05
734.635	5548.72
734.976	5560.93
735.317	5539.68
735.658	5554.6
735.999	5551.66
736.339	5536.52
736.68	5525.9
737.021	5550.98
737.361	5515.28
737.702	5585.33
738.042	5555.05
738.383	5540.59
738.723	5515.05
739.063	5524.09
739.404	5558.22
739.744	5536.3
740.084	5554.15
740.424	5523.41
740.764	5482.06
741.104	5565.9
741.444	5532.23
741.784	5484.09
742.124	5496.07
742.464	5584.66
742.804	5511.21
743.143	5505.34
743.483	5496.07
743.823	5453.81
744.162	5459.01
744.502	5480.25
744.841	5512.57
745.181	5508.73
745.52	5474.6
745.86	5484.09
746.199	5445.45
746.538	5503.75
746.877	5498.1
747.216	5475.05
747.556	5445
747.895	5485
748.234	5427.6
748.573	5448.39
748.911	5385.34
749.25	5389.41
749.589	5368.62
749.928	5409.52
750.267	5426.69
750.605	5392.57
750.944	5406.81
751.283	5377.88
751.621	5369.07
751.96	5352.57
752.298	5391.89
752.636	5308.73
752.975	5338.33
753.313	5364.32
753.651	5347.15
753.989	5341.05
754.327	5351.22
754.666	5226.25
755.004	5321.39
755.342	5296.98
755.679	5268.05
756.017	5243.87
756.355	5237.09
756.693	5271.44
757.031	5252.91
757.368	5208.62
757.706	5206.81
758.044	5178.11
758.381	5239.13
758.719	5193.03
759.056	5189.41
759.394	5174.95
759.731	5147.83
760.068	5143.09
760.405	5094.27
760.743	5099.02
761.08	5098.11
761.417	5120.26
761.754	5080.94
762.091	5051.34
762.428	5040.04
762.765	5008.17
763.102	5036.87
763.438	4984.9
763.775	4973.6
764.112	4969.08
764.449	4986.48
764.785	4937.21
765.122	4931.34
765.458	4896.76
765.795	4936.99
766.131	4910.32
766.467	4882.98
766.804	4877.1
767.14	4878.01
767.476	4847.95
767.812	4799.59
768.148	4834.17
768.485	4808.18
768.821	4791
769.157	4780.38
769.492	4771.57
769.828	4763.89
770.164	4698.13
770.5	4709.88
770.836	4704.9
771.171	4729.54
771.507	4670.1
771.842	4630.1
772.178	4671.69
772.513	4623.32
772.849	4612.48
773.184	4594.85
773.519	4618.81
773.855	4575.87
774.19	4555.08
774.525	4499.49
774.86	4499.03
775.195	4567.73
775.53	4520.05
775.865	4505.14
776.2	4464.91
776.535	4433.73
776.87	4456.32
777.205	4435.53
777.539	4418.81
777.874	4407.29
778.209	4388.3
778.543	4374.29
778.878	4374.52
779.212	4341.3
779.547	4308.98
779.881	4341.75
780.215	4328.42
780.55	4282.32
780.884	4312.15
781.218	4258.81
781.552	4290.9
781.886	4228.08
782.22	4212.26
782.554	4224.47
782.888	4202.54
783.222	4183.56
783.556	4128.87
783.889	4153.05
784.223	4115.99
784.557	4134.98
784.89	4121.42
785.224	4151.02
785.557	4094.53
785.891	4117.12
786.224	4085.03
786.558	4081.64
786.891	4043.9
787.224	4019.5
787.557	4042.1
787.891	3998.03
788.224	3979.27
788.557	3984.02
788.89	3977.24
789.223	3970.91
789.556	3926.17
789.888	3932.5
790.221	3952.16
790.554	3884.36
790.887	3887.07
791.219	3877.58
791.552	3873.51
791.884	3825.61
792.217	3904.47
792.549	3849.11
792.882	3799.84
793.214	3824.7
793.546	3807.3
793.879	3814.76
794.211	3769.34
794.543	3745.38
794.875	3784.48
795.207	3700.86
795.539	3766.17
795.871	3789
796.203	3721.88
796.535	3649.79
796.867	3654.08
797.198	3680.3
797.53	3704.03
797.862	3672.84
798.193	3619.51
798.525	3663.58
798.856	3621.54
799.188	3589.91
799.519	3584.71
799.85	3590.81
800.182	3558.27
800.513	3607.31
800.844	3554.88
801.175	3630.58
801.506	3598.72
801.837	3551.04
802.168	3527.53
802.499	3526.4
802.83	3513.98
803.161	3508.55
803.491	3502
803.822	3524.14
804.153	3508.78
804.483	3434.88
804.814	3470.13
805.145	3446.86
805.475	3429.68
805.805	3423.36
806.136	3390.81
806.466	3406.63
806.796	3429.23
807.126	3391.04
807.457	3408.67
807.787	3406.41
808.117	3370.02
808.447	3340.87
808.777	3370.25
809.107	3365.5
809.436	3329.57
809.766	3347.2
810.096	3309.69
810.426	3301.1
810.755	3303.81
811.085	3306.75
811.414	3327.99
811.744	3292.29
812.073	3253.42
812.403	3266.75
812.732	3284.6
813.061	3267.88
813.39	3226.07
813.719	3248.22
814.049	3268.11
814.378	3235.34
814.707	3234.89
815.036	3221.33
815.365	3198.73
815.693	3179.52
816.022	3180.88
816.351	3170.03
816.68	3151.95
817.008	3132.97
817.337	3137.26
817.665	3136.13
817.994	3177.71
818.322	3169.8
818.651	3130.48
818.979	3079.86
819.307	3108.11
819.636	3153.53
819.964	3089.13
820.292	3080.54
820.62	3120.31
820.948	3096.59
821.276	3114.21
821.604	3097.49
821.932	3068.11
822.259	3113.31
822.587	3090.48
822.915	3084.38
823.243	3065.85
823.57	3071.28
823.898	3078.28
824.225	3061.56
824.553	3069.92
824.88	3080.99
825.207	3104.04
825.535	3083.25
825.862	3109.69
826.189	3089.35
826.516	3058.62
826.843	3048
827.17	3071.73
827.497	3049.35
827.824	3081.67
828.151	3086.64
828.478	3089.81
828.805	3078.05
829.131	3079.18
829.458	3096.36
829.785	3071.28
830.111	3080.09
830.438	3099.52
830.764	3111.05
831.09	3116.47
831.417	3078.05
831.743	3086.42
832.069	3109.01
832.395	3073.76
832.722	3059.07
833.048	3056.36
833.374	3042.35
833.7	3014.78
834.026	3083.03
834.351	3088.68
834.677	3083.93
835.003	3056.36
835.329	3067.43
835.654	3030.15
835.98	3007.77
836.306	3060.88
836.631	3010.26
836.956	3041.67
837.282	3057.94
837.607	3037.6
837.932	3018.62
838.258	3021.56
838.583	3011.16
838.908	2989.02
839.233	2987.66
839.558	2958.28
839.883	2948.79
840.208	2988.11
840.533	3000.77
840.858	2985.63
841.182	2990.6
841.507	2967.32
841.832	2973.88
842.156	2972.97
842.481	2978.85
842.805	2914.67
843.13	2942.92
843.454	2943.82
843.778	2941.79
844.103	2903.37
844.427	2912.18
844.751	2932.52
845.075	2933.65
845.399	2909.02
845.723	2884.16
846.047	2862.92
846.371	2873.09
846.695	2837.83
847.019	2878.96
847.343	2868.57
847.666	2826.99
847.99	2847.1
848.313	2835.8
848.637	2779.53
848.96	2768.68
849.284	2788.12
849.607	2775.24
849.931	2747.44
850.254	2734.56
850.577	2781.57
850.9	2709.93
851.223	2732.75
851.546	2664.28
851.869	2690.72
852.192	2685.07
852.515	2679.2
852.838	2663.38
853.161	2617.5
853.483	2663.6
853.806	2625.64
854.129	2616.15
854.451	2632.64
854.774	2613.21
855.096	2624.28
855.419	2598.07
855.741	2572.53
856.063	2590.38
856.385	2599.42
856.708	2608.46
857.03	2569.37
857.352	2560.55
857.674	2551.74
857.996	2547.22
858.318	2588.35
858.64	2532.08
858.961	2534.79
859.283	2495.47
859.605	2518.3
859.926	2524.4
860.248	2509.93
860.57	2488.69
860.891	2518.52
861.212	2490.27
861.534	2490.5
861.855	2486.88
862.176	2512.42
862.498	2471.06
862.819	2489.37
863.14	2464.06
863.461	2463.61
863.782	2480.1
864.103	2474.68
864.424	2470.39
864.745	2434.46
865.065	2439.65
865.386	2444.85
865.707	2442.59
866.027	2457.96
866.348	2458.86
866.668	2414.12
866.989	2393.1
867.309	2399.88
867.63	2388.81
867.95	2419.77
868.27	2378.41
868.59	2378.19
868.91	2378.64
869.23	2379.09
869.55	2378.64
869.87	2365.76
870.19	2391.29
870.51	2397.39
870.83	2381.12
871.15	2346.32
871.469	2360.56
871.789	2409.37
872.109	2401.46
872.428	2353.55
872.748	2343.84
873.067	2353.1
873.386	2371.41
873.706	2309.94
874.025	2343.61
874.344	2334.12
874.663	2341.58
874.982	2358.3
875.301	2320.11
875.62	2328.7
875.939	2326.21
876.258	2286.21
876.577	2335.7
876.896	2289.83
877.214	2337.06
877.533	2312.88
877.852	2337.96
878.17	2307.91
878.489	2320.11
878.807	2257.29
879.125	2286.89
879.444	2298.41
879.762	2293.67
880.08	2299.09
880.398	2275.82
880.716	2295.48
881.034	2274.23
881.352	2297.51
881.67	2277.4
881.988	2229.26
882.306	2274.69
882.624	2225.65
882.941	2243.5
883.259	2262.03
883.577	2236.95
883.894	2235.59
884.212	2202.6
884.529	2237.85
884.846	2227.91
885.164	2224.74
885.481	2221.81
885.798	2249.6
886.115	2205.31
886.432	2178.87
886.75	2198.53
887.067	2169.83
887.383	2179.32
887.7	2149.94
888.017	2148.59
888.334	2194.24
888.651	2176.16
888.967	2161.92
889.284	2147.01
889.6	2143.39
889.917	2109.94
890.233	2140.9
890.55	2152.66
890.866	2134.35
891.182	2126.22
891.498	2127.35
891.815	2128.25
892.131	2088.93
892.447	2116.27
892.763	2081.7
893.079	2106.55
893.395	2076.27
893.71	2044.64
894.026	2079.21
894.342	2096.61
894.657	2034.92
894.973	2072.66
895.289	2056.39
895.604	2045.99
895.92	2031.3
896.235	2029.04
896.55	2032.66
896.865	2048.25
897.181	2031.75
897.496	2046.22
897.811	2010.74
898.126	2014.13
898.441	2020.23
898.756	2012.77
899.071	2003.28
899.386	1964.86
899.7	1939.78
900.015	1967.8
900.33	1946.33
900.644	1945.66
900.959	1984.75
901.273	1938.88
901.588	1935.94
901.902	1919.67
902.216	1911.31
902.531	1914.24
902.845	1909.72
903.159	1911.98
903.473	1923.28
903.787	1883.96
904.101	1897.29
904.415	1909.5
904.729	1881.02
905.042	1848.03
905.356	1859.56
905.67	1866.79
905.984	1886.45
906.297	1854.13
906.611	1846.45
906.924	1822.04
907.237	1843.96
907.551	1863.4
907.864	1836.05
908.177	1819.78
908.491	1814.36
908.804	1794.25
909.117	1773
909.43	1810.52
909.743	1781.14
910.056	1810.29
910.368	1791.08
910.681	1745.43
910.994	1768.71
911.307	1754.25
911.619	1736.62
911.932	1749.5
912.244	1747.47
912.557	1752.89
912.869	1733.23
913.181	1718.32
913.494	1715.6
913.806	1703.18
914.118	1710.41
914.43	1716.28
914.742	1693.01
915.054	1697.75
915.366	1662.95
915.678	1674.7
915.99	1662.05
916.302	1660.24
916.613	1630.18
916.925	1641.26
917.236	1653.23
917.548	1646.91
917.859	1640.58
918.171	1636.74
918.482	1638.54
918.794	1621.82
919.105	1644.19
919.416	1580.47
919.727	1570.52
920.038	1577.08
920.349	1553.12
920.66	1591.99
920.971	1588.83
921.282	1541.37
921.593	1609.62
921.903	1554.25
922.214	1567.81
922.525	1566.68
922.835	1537.08
923.146	1541.15
923.456	1555.83
923.767	1525.33
924.077	1523.75
924.387	1500.02
924.697	1526.91
925.008	1507.93
925.318	1513.35
925.628	1523.75
925.938	1483.97
926.248	1521.03
926.558	1462.73
926.867	1464.09
927.177	1484.42
927.487	1450.98
927.796	1457.53
928.106	1463.86
928.416	1439.91
928.725	1465.89
929.034	1432
929.344	1441.71
929.653	1450.3
929.962	1447.59
930.271	1402.84
930.581	1423.18
930.89	1402.62
931.199	1450.53
931.508	1412.56
931.817	1407.82
932.125	1355.61
932.434	1373.47
932.743	1349.06
933.051	1401.04
933.36	1387.03
933.669	1363.07
933.977	1361.72
934.286	1359
934.594	1367.82
934.902	1333.02
935.21	1341.6
935.519	1354.26
935.827	1337.54
936.135	1313.36
936.443	1318.55
936.751	1320.36
937.059	1339.12
937.367	1298.44
937.674	1332.56
937.982	1290.08
938.29	1310.42
938.597	1324.88
938.905	1287.14
939.213	1281.04
939.52	1290.31
939.827	1289.18
940.135	1268.16
940.442	1282.17
940.749	1279.91
941.056	1274.03
941.363	1270.64
941.67	1272.45
941.977	1253.92
942.284	1277.2
942.591	1217.99
942.898	1236.75
943.205	1224.77
943.511	1246.01
943.818	1222.96
944.125	1223.19
944.431	1253.7
944.738	1205.11
945.044	1191.55
945.35	1195.84
945.657	1213.24
945.963	1183.19
946.269	1188.84
946.575	1168.05
946.881	1204.66
947.187	1169.18
947.493	1158.56
947.799	1165.11
948.105	1158.56
948.41	1158.11
948.716	1166.24
949.022	1155.85
949.327	1165.34
949.633	1133.92
949.938	1147.94
950.244	1154.26
950.549	1136.86
950.854	1135.51
951.16	1108.16
951.465	1141.38
951.77	1128.95
952.075	1119.01
952.38	1104.55
952.685	1115.62
952.99	1120.59
953.294	1125.34
953.599	1083.53
953.904	1115.17
954.209	1107.71
954.513	1096.64
954.818	1078.56
955.122	1064.32
955.426	1109.74
955.731	1067.94
956.035	1073.81
956.339	1062.74
956.643	1060.93
956.948	1042.4
957.252	1067.26
957.556	1046.92
957.86	1043.08
958.163	1034.04
958.467	1048.28
958.771	1041.72
959.075	1043.76
959.378	1039.69
959.682	1031.55
959.985	1033.59
960.289	1031.33
960.592	1021.39
960.896	1020.93
961.199	1046.7
961.502	1025.45
961.805	1015.51
962.108	1002.85
962.411	994.95
962.714	994.72
963.017	1008.73
963.32	996.3
963.623	993.59
963.926	1003.76
964.228	1009.18
964.531	982.74
964.833	994.49
965.136	965.79
965.438	983.87
965.741	985
966.043	980.26
966.345	977.77
966.648	975.51
966.95	962.86
967.252	951.56
967.554	962.18
967.856	945
968.158	954.49
968.46	934.61
968.761	949.07
969.063	936.64
969.365	930.54
969.666	921.5
969.968	917.43
970.269	938.9
970.571	932.35
970.872	914.04
971.174	942.29
971.475	920.82
971.776	892.58
972.077	902.29
972.378	932.8
972.679	894.38
972.98	901.84
973.281	893.93
973.582	893.25
973.883	884.89
974.183	892.35
974.484	904.1
974.785	890.09
975.085	890.32
975.386	849.64
975.686	864.33
975.986	877.21
976.287	871.33
976.587	872.46
976.887	865.23
977.187	864.1
977.487	864.78
977.787	867.49
978.087	857.1
978.387	872.01
978.687	850.77
978.987	843.09
979.286	831.56
979.586	837.44
979.885	813.03
980.185	822.75
980.484	828.62
980.784	859.36
981.083	826.14
981.382	844.89
981.682	834.05
981.981	830.43
982.28	824.33
982.579	800.83
982.878	820.26
983.177	812.58
983.475	810.54
983.774	811.67
984.073	791.79
984.372	795.4
984.67	816.42
984.969	781.39
985.267	784.1
985.566	781.39
985.864	771.67
986.162	783.43
986.461	775.29
986.759	765.8
987.057	780.71
987.355	751.79
987.653	772.13
987.951	774.61
988.249	779.13
988.547	749.53
988.844	767.61
989.142	770.32
989.44	763.99
989.737	745.69
990.035	763.99
990.332	747.95
990.63	745.23
990.927	749.98
991.224	755.4
991.521	762.41
991.819	753.37
992.116	749.98
992.413	736.87
992.71	723.31
993.006	740.04
993.303	716.31
993.6	734.39
993.897	746.14
994.193	705.91
994.49	722.86
994.787	727.38
995.083	710.89
995.379	720.15
995.676	712.02
995.972	691
996.268	688.96
996.565	700.49
996.861	715.63
997.157	685.12
997.453	693.26
997.749	688.06
998.044	676.54
998.34	674.95
998.636	699.13
998.932	670.43
999.227	680.38
999.523	687.84
999.818	686.25
1000.114	676.76
1000.409	675.41
1000.704	680.15
1001	691.68
1001.295	694.84
1001.59	675.63
1001.885	667.95
1002.18	653.94
1002.475	684.67
1002.77	636.31
1003.065	660.49
1003.359	661.4
1003.654	667.27
1003.949	641.28
1004.243	658.01
1004.538	639.93
1004.832	630.66
1005.127	627.5
1005.421	624.79
1005.715	650.32
1006.009	623.2
1006.304	636.76
1006.598	621.85
1006.892	617.1
1007.186	620.27
1007.48	601.96
1007.773	625.46
1008.067	613.71
1008.361	599.93
1008.655	618.46
1008.948	624.56
1009.242	610.55
1009.535	599.48
1009.829	604
1010.122	601.28
1010.415	596.31
1010.708	594.96
1011.001	614.84
1011.295	585.46
1011.588	609.87
1011.881	580.95
1012.173	574.17
1012.466	576.88
1012.759	590.44
1013.052	569.42
1013.344	575.07
1013.637	584.56
1013.93	609.64
1014.222	589.53
1014.514	562.87
1014.807	559.7
1015.099	570.1
1015.391	581.62
1015.683	573.71
1015.976	559.48
1016.268	589.53
1016.56	550.66
1016.851	552.7
1017.143	542.3
1017.435	574.39
1017.727	546.37
1018.018	559.02
1018.31	564
1018.602	567.61
1018.893	536.88
1019.185	549.53
1019.476	540.72
1019.767	549.53
1020.058	545.01
1020.35	564.45
1020.641	557.22
1020.932	546.37
1021.223	525.81
1021.514	521.51
1021.804	529.42
1022.095	517.9
1022.386	516.31
1022.677	518.12
1022.967	495.75
1023.258	523.32
1023.548	509.08
1023.839	499.14
1024.129	516.99
1024.419	516.54
1024.709	508.4
1025	507.5
1025.29	501.17
1025.58	510.21
1025.87	513.15
1026.16	518.35
1026.449	498.46
1026.739	502.3
1027.029	494.85
1027.319	496.65
1027.608	486.48
1027.898	519.25
1028.187	480.61
1028.477	481.96
1028.766	473.38
1029.055	478.57
1029.344	510.21
1029.634	457.56
1029.923	489.87
1030.212	472.02
1030.501	486.26
1030.79	486.03
1031.078	463.43
1031.367	471.34
1031.656	474.06
1031.945	478.12
1032.233	464.34
1032.522	479.03
1032.81	468.63
1033.099	469.99
1033.387	464.11
1033.675	477.22
1033.963	459.59
1034.251	453.26
1034.54	434.51
1034.828	437.45
1035.116	475.64
1035.403	463.89
1035.691	458.01
1035.979	447.39
1036.267	453.72
1036.554	452.14
1036.842	445.36
1037.129	453.49
1037.417	439.25
1037.704	439.25
1037.992	437.22
1038.279	442.64
1038.566	436.32
1038.853	436.32
1039.14	436.32
