Data from carpet_green_FLMS001491_00073.txt Node
Date: Wed Feb 08 10:35:49 GMT 2017
User: dcchb
Spectrometer: FLMS00149
Trigger mode: 0
Integration Time (sec): 2.000000E-2
Scans to average: 10
Electric dark correction enabled: true
Nonlinearity correction enabled: false
Boxcar width: 0
XAxis mode: Wavelengths
Number of Pixels in Spectrum: 2048
>>>>>Begin Spectral Data<<<<<
341.393	-25.62
341.776	-25.62
342.16	-25.62
342.543	-63.36
342.927	-83.02
343.31	-62.23
343.693	-55
344.077	-59.07
344.46	-48.67
344.843	-71.04
345.226	-48.22
345.61	-21.55
345.993	-21.1
346.376	1.5
346.759	4.66
347.142	12.57
347.525	48.28
347.908	59.57
348.291	59.8
348.674	101.83
349.057	98.67
349.44	121.27
349.823	134.15
350.206	161.04
350.588	161.72
350.971	189.51
351.354	192.45
351.737	201.49
352.119	250.08
352.502	234.49
352.884	228.16
353.267	248.27
353.65	274.26
354.032	272.9
354.414	280.81
354.797	289.63
355.179	295.05
355.562	311.09
355.944	299.79
356.326	302.05
356.709	317.42
357.091	326.46
357.473	296.18
357.855	332.56
358.238	320.58
358.62	322.62
359.002	294.82
359.384	299.79
359.766	315.16
360.148	311.32
360.53	325.33
360.912	283.75
361.294	310.42
361.676	310.87
362.057	297.76
362.439	301.83
362.821	306.35
363.203	299.57
363.584	299.12
363.966	307.25
364.348	312
364.729	285.78
365.111	285.56
365.493	280.59
365.874	286.46
366.256	289.85
366.637	286.01
367.019	294.82
367.4	272.68
367.781	292.34
368.163	271.77
368.544	292.11
368.925	287.59
369.306	288.5
369.688	277.42
370.069	248.5
370.45	277.42
370.831	291.43
371.212	297.76
371.593	277.42
371.974	276.97
372.355	286.46
372.736	275.84
373.117	256.86
373.498	273.81
373.879	269.51
374.26	300.25
374.641	301.6
375.021	289.17
375.402	292.11
375.783	289.17
376.163	282.39
376.544	275.16
376.925	274.71
377.305	318.32
377.686	291.88
378.066	279.91
378.447	281.26
378.827	297.08
379.208	302.28
379.588	290.53
379.968	286.91
380.349	291.43
380.729	303.18
381.109	286.69
381.489	302.05
381.87	293.69
382.25	314.03
382.63	301.38
383.01	297.08
383.39	307.93
383.77	303.18
384.15	287.59
384.53	307.7
384.91	316.07
385.29	313.58
385.67	306.12
386.049	314.48
386.429	307.93
386.809	299.57
387.189	312
387.568	295.27
387.948	317.87
388.328	286.69
388.707	318.55
389.087	317.2
389.466	307.48
389.846	305.67
390.225	310.87
390.605	299.34
390.984	310.64
391.363	303.86
391.743	320.13
392.122	296.86
392.501	307.25
392.881	316.07
393.26	306.12
393.639	311.09
394.018	306.12
394.397	307.48
394.776	308.83
395.155	318.78
395.534	301.15
395.913	306.8
396.292	316.52
396.671	295.05
397.05	312.45
397.429	321.94
397.808	320.81
398.186	313.81
398.565	327.14
398.944	302.28
399.323	328.49
399.701	322.84
400.08	305.44
400.458	307.93
400.837	323.75
401.215	309.96
401.594	343.18
401.972	331.88
402.351	352.45
402.729	318.55
403.107	325.33
403.486	310.42
403.864	319
404.242	338.21
404.62	326.23
404.999	322.84
405.377	326.91
405.755	329.4
406.133	342.96
406.511	330.75
406.889	326.01
407.267	350.64
407.645	328.72
408.023	324.2
408.401	331.21
408.779	344.09
409.156	317.65
409.534	353.8
409.912	337.99
410.29	351.54
410.667	354.71
411.045	342.28
411.422	332.79
411.8	330.3
412.178	336.18
412.555	339.57
412.933	343.41
413.31	336.4
413.687	336.18
414.065	341.6
414.442	348.15
414.819	337.31
415.197	336.4
415.574	344.31
415.951	332.79
416.328	354.26
416.705	341.6
417.082	367.36
417.46	345.44
417.837	373.69
418.214	345.89
418.591	355.61
418.967	348.83
419.344	348.15
419.721	359.91
420.098	347.93
420.475	381.6
420.852	375.95
421.228	359.23
421.605	372.56
421.982	358.1
422.358	346.57
422.735	368.72
423.111	356.74
423.488	366.69
423.864	369.4
424.241	372.79
424.617	374.37
424.994	356.06
425.37	368.49
425.746	383.86
426.123	391.32
426.499	397.42
426.875	363.07
427.251	359.68
427.627	389.96
428.003	397.42
428.379	401.71
428.756	372.33
429.132	369.85
429.507	411.2
429.883	387.7
430.259	393.8
430.635	389.51
431.011	385.67
431.387	386.35
431.763	389.74
432.138	401.49
432.514	416.4
432.89	396.74
433.265	423.18
433.641	404.2
434.016	405.78
434.392	426.57
434.767	394.48
435.143	417.08
435.518	429.28
435.894	423.63
436.269	438.32
436.644	417.08
437.02	422.5
437.395	408.94
437.77	434.25
438.145	410.3
438.52	421.6
438.895	442.84
439.271	438.1
439.646	432.67
440.021	420.92
440.395	455.04
440.77	420.02
441.145	445.78
441.52	445.1
441.895	454.59
442.27	464.99
442.645	480.13
443.019	459.34
443.394	459.56
443.769	440.58
444.143	452.56
444.518	457.3
444.892	449.17
445.267	453.46
445.641	460.92
446.016	470.41
446.39	458.21
446.764	457.76
447.139	459.56
447.513	469.28
447.887	475.16
448.262	474.25
448.636	481.03
449.01	475.83
449.384	473.58
449.758	486.68
450.132	500.02
450.506	489.62
450.88	482.84
451.254	500.47
451.628	496.17
452.002	500.92
452.376	511.54
452.75	494.37
453.123	505.21
453.497	506.12
453.871	514.7
454.244	510.64
454.618	509.96
454.992	506.57
455.365	524.65
455.739	517.19
456.112	511.31
456.486	509.51
456.859	524.2
457.232	528.94
457.606	551.54
457.979	528.49
458.352	546.57
458.725	539.34
459.099	545.66
459.472	554.93
459.845	551.09
460.218	557.19
460.591	564.19
460.964	567.58
461.337	586.34
461.71	575.72
462.083	608.71
462.456	592.44
462.829	586.79
463.201	599.67
463.574	594.25
463.947	595.15
464.32	597.19
464.692	634.7
465.065	600.8
465.438	620.92
465.81	615.04
466.183	626.57
466.555	619.56
466.928	645.77
467.3	652.55
467.672	653.23
468.045	641.71
468.417	641.48
468.789	669.95
469.161	652.78
469.534	660.01
469.906	689.84
470.278	687.81
470.65	670.86
471.022	713.34
471.394	675.6
471.766	728.03
472.138	731.42
472.51	730.07
472.882	723.74
473.253	738.65
473.625	748.14
473.997	769.84
474.369	779.1
474.74	780.91
475.112	766
475.484	781.14
475.855	811.42
476.227	810.29
476.598	824.07
476.97	820.68
477.341	841.25
477.713	833.34
478.084	845.54
478.455	880.57
478.827	870.4
479.198	889.84
479.569	900.68
479.94	926.22
480.311	927.35
480.682	937.97
481.053	933
481.424	957.18
481.795	964.41
482.166	954.47
482.537	965.99
482.908	1026.55
483.279	1004.41
483.65	989.04
484.021	1075.37
484.391	1023.62
484.762	1056.16
485.133	1057.74
485.503	1091.19
485.874	1097.97
486.244	1109.94
486.615	1127.57
486.985	1136.16
487.356	1151.07
487.726	1144.07
488.097	1169.83
488.467	1177.74
488.837	1217.28
489.207	1201.69
489.578	1221.58
489.948	1208.25
490.318	1225.87
490.688	1260.22
491.058	1278.75
491.428	1293.67
491.798	1283.95
492.168	1309.71
492.538	1327.56
492.908	1332.08
493.278	1351.29
493.648	1333.89
494.017	1376.83
494.387	1351.52
494.757	1416.15
495.126	1407.11
495.496	1383.38
495.866	1410.73
496.235	1417.51
496.605	1423.15
496.974	1423.61
497.344	1440.56
497.713	1451.63
498.082	1466.54
498.452	1481.68
498.821	1488.46
499.19	1480.55
499.559	1495.92
499.928	1494.79
500.298	1531.4
500.667	1516.71
501.036	1547.67
501.405	1522.59
501.774	1545.64
502.143	1569.59
502.512	1552.64
502.88	1565.98
503.249	1594.9
503.618	1561.68
503.987	1588.12
504.356	1603.94
504.724	1592.64
505.093	1589.7
505.462	1619.76
505.83	1634.67
506.199	1650.49
506.567	1665.41
506.936	1669.25
507.304	1663.15
507.672	1681.45
508.041	1705.63
508.409	1678.74
508.777	1728.68
509.145	1699.31
509.514	1715.8
509.882	1702.47
510.25	1726.65
510.618	1731.62
510.986	1740.89
511.354	1766.2
511.722	1776.59
512.09	1773.88
512.458	1774.33
512.826	1774.11
513.193	1800.32
513.561	1772.98
513.929	1826.31
514.297	1820.66
514.664	1794.67
515.032	1826.99
515.4	1818.17
515.767	1852.75
516.135	1852.75
516.502	1847.78
516.869	1873.54
517.237	1874.67
517.604	1872.41
517.972	1907.66
518.339	1867.21
518.706	1921.22
519.073	1942.46
519.44	1922.8
519.808	1944.95
520.175	1914.89
520.542	1933.88
520.909	1963.93
521.276	1975.23
521.643	1989.92
522.009	1979.3
522.376	1993.99
522.743	1980.43
523.11	1993.76
523.477	2034.89
523.843	2048
524.21	2063.14
524.577	2060.65
524.943	2058.62
525.31	2064.72
525.676	2137.49
526.043	2110.82
526.409	2108.11
526.776	2114.21
527.142	2130.03
527.508	2161.21
527.874	2148.79
528.241	2155.34
528.607	2164.15
528.973	2156.24
529.339	2175.45
529.705	2174.77
530.071	2181.1
530.437	2192.17
530.803	2225.39
531.169	2205.96
531.535	2191.27
531.901	2239.18
532.267	2224.72
532.632	2257.03
532.998	2202.57
533.364	2207.99
533.73	2210.03
534.095	2248.22
534.461	2257.48
534.826	2248.67
535.192	2259.97
535.557	2251.83
535.923	2264.49
536.288	2247.54
536.653	2302
537.019	2261.32
537.384	2280.76
537.749	2281.66
538.114	2287.76
538.479	2313.07
538.845	2291.83
539.21	2296.35
539.575	2280.53
539.94	2338.61
540.305	2291.61
540.67	2306.07
541.034	2321.21
541.399	2293.64
541.764	2315.79
542.129	2328.89
542.494	2322.79
542.858	2294.77
543.223	2332.96
543.587	2324.6
543.952	2350.59
544.316	2356.24
544.681	2339.29
545.045	2315.33
545.41	2313.3
545.774	2343.36
546.138	2362.11
546.503	2350.36
546.867	2323.24
547.231	2350.59
547.595	2351.94
547.959	2378.38
548.324	2367.54
548.688	2344.49
549.052	2380.19
549.416	2370.25
549.779	2348.55
550.143	2355.56
550.507	2377.48
550.871	2387.88
551.235	2380.42
551.599	2390.36
551.962	2410.93
552.326	2378.38
552.689	2403.24
553.053	2401.21
553.417	2380.42
553.78	2424.71
554.143	2427.2
554.507	2440.53
554.87	2462
555.234	2424.03
555.597	2409.57
555.96	2422
556.323	2444.37
556.686	2431.26
557.05	2437.82
557.413	2435.56
557.776	2436.01
558.139	2436.24
558.502	2457.25
558.865	2476.69
559.228	2463.58
559.59	2507.65
559.953	2470.36
560.316	2493.63
560.679	2494.54
561.041	2504.03
561.404	2506.29
561.767	2528.89
562.129	2516.69
562.492	2543.13
562.854	2535.67
563.217	2539.06
563.579	2573.18
563.941	2569.11
564.304	2595.55
564.666	2582.45
565.028	2552.62
565.39	2578.15
565.753	2562.33
566.115	2631.03
566.477	2634.87
566.839	2579.73
567.201	2628.32
567.563	2604.82
567.925	2660.64
568.287	2649.56
568.648	2631.71
569.01	2619.28
569.372	2656.12
569.734	2648.89
570.095	2631.26
570.457	2676.23
570.819	2643.46
571.18	2664.03
571.542	2656.79
571.903	2654.76
572.265	2639.39
572.626	2670.81
572.987	2680.3
573.349	2675.78
573.71	2710.13
574.071	2727.75
574.432	2633.74
574.794	2688.43
575.155	2691.82
575.516	2659.05
575.877	2690.92
576.238	2686.4
576.599	2677.13
576.96	2663.57
577.32	2659.96
577.681	2653.4
578.042	2682.56
578.403	2680.75
578.763	2685.04
579.124	2671.26
579.485	2664.25
579.845	2669.22
580.206	2667.64
580.566	2638.94
580.927	2701.99
581.287	2717.36
581.648	2662.9
582.008	2677.36
582.368	2637.59
582.728	2651.6
583.089	2685.27
583.449	2594.65
583.809	2651.37
584.169	2660.18
584.529	2629.45
584.889	2653.63
585.249	2638.26
585.609	2638.26
585.969	2653.86
586.329	2620.41
586.688	2640.3
587.048	2633.07
587.408	2577.7
587.768	2614.54
588.127	2640.75
588.487	2617.25
588.846	2628.32
589.206	2611.37
589.565	2617.7
589.925	2606.63
590.284	2626.51
590.643	2621.77
591.003	2586.74
591.362	2600.98
591.721	2600.75
592.08	2582.22
592.44	2594.2
592.799	2616.34
593.158	2584.03
593.517	2577.25
593.876	2589.45
594.235	2605.27
594.593	2586.29
594.952	2589.23
595.311	2600.3
595.67	2569.79
596.029	2605.5
596.387	2603.01
596.746	2590.81
597.104	2624.03
597.463	2589.68
597.822	2585.61
598.18	2568.21
598.538	2608.21
598.897	2612.73
599.255	2571.83
599.613	2607.98
599.972	2629
600.33	2598.72
600.688	2603.01
601.046	2625.83
601.404	2625.61
601.762	2617.02
602.12	2641.2
602.478	2608.21
602.836	2634.2
603.194	2610.92
603.552	2599.39
603.91	2627.64
604.268	2624.93
604.625	2607.98
604.983	2611.82
605.341	2617.93
605.698	2616.12
606.056	2634.65
606.413	2634.42
606.771	2597.36
607.128	2677.81
607.485	2657.7
607.843	2631.71
608.2	2635.1
608.557	2665.61
608.914	2633.52
609.272	2683.46
609.629	2651.6
609.986	2680.97
610.343	2670.81
610.7	2684.14
611.057	2687.3
611.414	2664.93
611.771	2711.48
612.127	2686.4
612.484	2699.51
612.841	2694.53
613.198	2699.28
613.554	2714.42
613.911	2744.48
614.267	2716
614.624	2692.95
614.98	2650.02
615.337	2730.92
615.693	2750.58
616.05	2740.86
616.406	2746.28
616.762	2725.72
617.118	2721.2
617.475	2718.94
617.831	2709
618.187	2709
618.543	2723.91
618.899	2748.77
619.255	2745.61
619.611	2723.23
619.967	2751.93
620.323	2712.39
620.678	2738.15
621.034	2749
621.39	2707.64
621.746	2726.4
622.101	2740.63
622.457	2722.33
622.812	2743.8
623.168	2738.37
623.523	2744.02
623.879	2743.8
624.234	2723.91
624.589	2709.45
624.945	2727.3
625.3	2748.54
625.655	2759.16
626.01	2765.94
626.365	2733.85
626.72	2722.56
627.075	2735.66
627.43	2728.66
627.785	2736.11
628.14	2704.7
628.495	2711.71
628.85	2684.36
629.205	2722.33
629.559	2738.83
629.914	2687.08
630.269	2689.79
630.623	2706.06
630.978	2726.62
631.332	2714.42
631.687	2707.19
632.041	2759.62
632.396	2689.34
632.75	2728.66
633.104	2706.96
633.459	2705.83
633.813	2706.96
634.167	2690.24
634.521	2670.13
634.875	2687.3
635.229	2671.71
635.583	2660.18
635.937	2669.45
636.291	2666.74
636.645	2664.93
636.999	2683.23
637.352	2676
637.706	2670.13
638.06	2644.82
638.413	2673.97
638.767	2668.09
639.121	2682.56
639.474	2639.62
639.828	2671.03
640.181	2692.5
640.534	2677.58
640.888	2674.42
641.241	2663.57
641.594	2686.85
641.947	2700.86
642.301	2671.94
642.654	2679.84
643.007	2704.93
643.36	2683.23
643.713	2686.17
644.066	2681.43
644.419	2700.18
644.771	2664.03
645.124	2634.2
645.477	2681.65
645.83	2666.06
646.182	2643.69
646.535	2654.53
646.888	2667.64
647.24	2649.79
647.593	2658.15
647.945	2676.46
648.298	2663.8
648.65	2658.6
649.002	2631.71
649.355	2707.41
649.707	2677.58
650.059	2678.04
650.411	2681.65
650.763	2758.26
651.115	2753.29
651.467	2739.73
651.819	2750.13
652.171	2782.89
652.523	2780.41
652.875	2800.52
653.227	2789.9
653.578	2857.02
653.93	2840.07
654.282	2832.38
654.633	2822.67
654.985	2812.72
655.337	2807.07
655.688	2847.98
656.039	2843.68
656.391	2841.87
656.742	2882.55
657.094	2872.38
657.445	2884.36
657.796	2919.84
658.147	2909.22
658.498	2892.27
658.849	2947.86
659.2	2954.64
659.551	2946.28
659.902	2988.54
660.253	2994.19
660.604	2970.46
660.955	3008.42
661.306	3049.55
661.656	2996.67
662.007	3046.16
662.358	3091.81
662.708	3129.55
663.059	3079.61
663.409	3053.85
663.76	3106.05
664.11	3130.68
664.461	3138.59
664.811	3152.6
665.161	3138.82
665.511	3176.55
665.862	3191.02
666.212	3191.47
666.562	3186.27
666.912	3275.54
667.262	3200.06
667.612	3244.58
667.962	3274.18
668.312	3341.07
668.662	3301.07
669.011	3321.18
669.361	3330
669.711	3392.59
670.06	3387.62
670.41	3372.48
670.76	3410.9
671.109	3465.59
671.459	3418.58
671.808	3473.72
672.157	3497.9
672.507	3502.2
672.856	3493.61
673.205	3527.05
673.554	3574.51
673.904	3552.14
674.253	3628.52
674.602	3625.58
674.951	3602.08
675.3	3616.54
675.649	3675.75
675.998	3692.47
676.346	3702.87
676.695	3753.04
677.044	3724.34
677.393	3792.13
677.741	3831.68
678.09	3807.27
678.438	3851.79
678.787	3884.78
679.135	3900.38
679.484	3901.73
679.832	3922.3
680.181	3948.29
680.529	3984.44
680.877	4000.04
681.225	4012.01
681.573	4020.83
681.922	4073.25
682.27	4027.38
682.618	4062.41
682.966	4123.42
683.314	4122.29
683.661	4154.38
684.009	4162.97
684.357	4148.51
684.705	4253.14
685.053	4259.01
685.4	4221.73
685.748	4237.77
686.095	4281.38
686.443	4273.02
686.79	4345.11
687.138	4369.29
687.485	4400.7
687.832	4378.11
688.18	4426.01
688.527	4434.6
688.874	4463.53
689.221	4494.49
689.568	4454.49
689.915	4486.58
690.262	4535.39
690.609	4551.21
690.956	4592.34
691.303	4548.27
691.65	4600.7
691.997	4671.43
692.344	4609.29
692.69	4642.28
693.037	4699.45
693.383	4672.79
693.73	4686.57
694.077	4709.17
694.423	4768.83
694.769	4768.83
695.116	4784.65
695.462	4852.22
695.808	4799.11
696.155	4882.05
696.501	4868.94
696.847	4847.02
697.193	4891.99
697.539	4903.29
697.885	4887.24
698.231	4928.6
698.577	4942.61
698.923	4980.8
699.269	4988.03
699.614	4967.92
699.96	5038.88
700.306	5064.64
700.651	5004.53
700.997	5096.96
701.342	5094.47
701.688	5091.53
702.033	5134.92
702.379	5154.58
702.724	5130.63
703.069	5189.61
703.415	5164.53
703.76	5172.43
704.105	5244.52
704.45	5179.44
704.795	5241.36
705.14	5221.47
705.485	5203.39
705.83	5257.63
706.175	5296.05
706.52	5322.71
706.865	5324.3
707.209	5376.95
707.554	5318.87
707.899	5385.76
708.243	5349.83
708.588	5362.26
708.932	5398.19
709.277	5407.91
709.621	5487.23
709.966	5447.46
710.31	5415.59
710.654	5474.57
710.998	5472.77
711.342	5510.5
711.687	5504.18
712.031	5489.04
712.375	5524.52
712.719	5532.88
713.063	5532.43
713.407	5581.69
713.75	5557.74
714.094	5635.02
714.438	5573.33
714.782	5604.29
715.125	5604.97
715.469	5658.52
715.812	5665.75
716.156	5612.88
716.499	5634.8
716.843	5665.08
717.186	5661.91
717.53	5702.82
717.873	5710.95
718.216	5700.56
718.559	5701.01
718.902	5683.38
719.246	5726.09
719.589	5721.8
719.932	5702.82
720.275	5758.63
720.617	5684.29
720.96	5719.76
721.303	5805.41
721.646	5765.19
721.989	5702.59
722.331	5849.7
722.674	5754.11
723.016	5705.75
723.359	5781.91
723.701	5815.13
724.044	5845.86
724.386	5797.5
724.729	5778.52
725.071	5811.51
725.413	5830.95
725.755	5799.31
726.097	5801.34
726.439	5784.17
726.782	5848.12
727.124	5870.04
727.465	5808.12
727.807	5826.2
728.149	5871.4
728.491	5860.78
728.833	5855.81
729.175	5872.76
729.516	5846.54
729.858	5804.96
730.199	5877.5
730.541	5869.59
730.882	5861.91
731.224	5873.21
731.565	5843.38
731.906	5838.18
732.248	5846.99
732.589	5896.26
732.93	5861.46
733.271	5846.54
733.612	5912.3
733.953	5878.86
734.294	5831.17
734.635	5850.61
734.976	5890.83
735.317	5863.04
735.658	5831.17
735.999	5858.52
736.339	5878.4
736.68	5866.43
737.021	5825.52
737.361	5832.76
737.702	5835.92
738.042	5784.17
738.383	5857.39
738.723	5896.03
739.063	5809.93
739.404	5853.09
739.744	5873.66
740.084	5839.31
740.424	5803.83
740.764	5851.51
741.104	5767.67
741.444	5844.06
741.784	5788.24
742.124	5811.97
742.464	5786.66
742.804	5795.7
743.143	5824.85
743.483	5863.94
743.823	5739.43
744.162	5740.33
744.502	5823.49
744.841	5764.74
745.181	5753.21
745.52	5745.07
745.86	5757.28
746.199	5784.17
746.538	5719.54
746.877	5741.46
747.216	5756.37
747.556	5763.38
747.895	5740.33
748.234	5689.26
748.573	5663.27
748.911	5760.67
749.25	5703.72
749.589	5681.12
749.928	5705.53
750.267	5702.14
750.605	5698.07
750.944	5625.98
751.283	5644.74
751.621	5638.19
751.96	5628.92
752.298	5646.77
752.636	5665.53
752.975	5616.26
753.313	5588.69
753.651	5591.86
753.989	5547.57
754.327	5576.72
754.666	5525.87
755.004	5601.58
755.342	5538.53
755.679	5577.85
756.017	5514.12
756.355	5541.01
756.693	5484.52
757.031	5468.47
757.368	5498.98
757.706	5479.32
758.044	5414.24
758.381	5428.47
758.719	5418.08
759.056	5476.16
759.394	5431.86
759.731	5392.54
760.068	5422.37
760.405	5367.91
760.743	5338.31
761.08	5379.66
761.417	5326.78
761.754	5325.65
762.091	5279.78
762.428	5328.36
762.765	5257.4
763.102	5309.15
763.438	5215.37
763.775	5230.29
764.112	5258.31
764.449	5231.42
764.785	5172.66
765.122	5142.15
765.458	5133.79
765.795	5156.39
766.131	5162.94
766.467	5122.04
766.804	5122.27
767.14	5097.41
767.476	5068.71
767.812	5036.39
768.148	5052.44
768.485	5042.72
768.821	5002.72
769.157	5022.16
769.492	5004.98
769.828	4988.94
770.164	4952.1
770.5	4912.33
770.836	4919.11
771.171	4931.76
771.507	4912.55
771.842	4830.3
772.178	4835.72
772.513	4843.18
772.849	4857.19
773.184	4770.41
773.519	4811.99
773.855	4808.83
774.19	4812.22
774.525	4809.28
774.86	4739.23
775.195	4773.12
775.53	4797.76
775.865	4721.82
776.2	4739.45
776.535	4633.92
776.87	4635.5
777.205	4636.4
777.539	4620.36
777.874	4604.99
778.209	4597.08
778.543	4556.63
778.878	4559.12
779.212	4573.58
779.547	4531.1
779.881	4502.17
780.215	4535.16
780.55	4501.72
780.884	4501.94
781.218	4481.61
781.552	4470.08
781.886	4452.23
782.22	4477.09
782.554	4430.76
782.888	4402.74
783.222	4355.73
783.556	4339.91
783.889	4373.81
784.223	4302.63
784.557	4289.52
784.89	4317.09
785.224	4304.21
785.557	4293.59
785.891	4253.36
786.224	4207.94
786.558	4273.7
786.891	4207.04
787.224	4183.31
787.557	4160.26
787.891	4205.45
788.224	4225.11
788.557	4177.66
788.89	4143.54
789.223	4117.32
789.556	4115.51
789.888	4128.17
790.221	4079.58
790.554	4057.44
790.887	4095.17
791.219	4051.33
791.552	4068.73
791.884	4051.11
792.217	4031.67
792.549	3997.78
792.882	3997.55
793.214	3979.92
793.546	3982.64
793.879	3945.57
794.211	3920.04
794.543	3983.31
794.875	3921.17
795.207	3917.78
795.539	3904.22
795.871	3940.38
796.203	3901.28
796.535	3873.49
796.867	3904.22
797.198	3847.5
797.53	3834.62
797.862	3791.23
798.193	3820.83
798.525	3854.05
798.856	3784.67
799.188	3794.39
799.519	3796.2
799.85	3760.72
800.182	3733.38
800.513	3726.14
800.844	3711.68
801.175	3715.07
801.506	3709.87
801.837	3711.68
802.168	3643.66
802.499	3735.86
802.83	3679.37
803.161	3656.54
803.491	3662.87
803.822	3677.11
804.153	3628.29
804.483	3640.5
804.814	3608.86
805.145	3544.68
805.475	3596.2
805.805	3587.62
806.136	3592.82
806.466	3564.79
806.796	3569.99
807.126	3521.18
807.457	3531.12
807.787	3523.44
808.117	3535.42
808.447	3534.51
808.777	3523.44
809.107	3457.45
809.436	3499.48
809.766	3502.87
810.096	3511.01
810.426	3483.89
810.755	3491.12
811.085	3461.97
811.414	3457.68
811.744	3483.44
812.073	3448.41
812.403	3384.69
812.732	3398.7
813.061	3390.11
813.39	3365.93
813.719	3377.23
814.049	3353.05
814.378	3377.23
814.707	3333.39
815.036	3364.35
815.365	3338.36
815.693	3323.9
816.022	3321.86
816.351	3249.32
816.68	3339.71
817.008	3308.98
817.337	3294.97
817.665	3285.03
817.994	3306.95
818.322	3308.08
818.651	3266.27
818.979	3236.89
819.307	3284.8
819.636	3288.64
819.964	3260.62
820.292	3282.99
820.62	3242.09
820.948	3233.05
821.276	3253.62
821.604	3257.23
821.932	3229.21
822.259	3210.68
822.587	3202.99
822.915	3186.27
823.243	3263.56
823.57	3183.56
823.898	3219.27
824.225	3250.23
824.553	3212.03
824.88	3224.24
825.207	3213.62
825.535	3202.54
825.862	3213.16
826.189	3187.63
826.516	3212.26
826.843	3210
827.17	3215.42
827.497	3228.3
827.824	3206.61
828.151	3208.87
828.478	3212.49
828.805	3226.27
829.131	3194.63
829.458	3256.78
829.785	3221.07
830.111	3220.62
830.438	3258.13
830.764	3210.68
831.09	3190.79
831.417	3189.21
831.743	3250
832.069	3203.9
832.395	3197.12
832.722	3188.98
833.048	3207.29
833.374	3191.92
833.7	3230.34
834.026	3155.09
834.351	3169.78
834.677	3174.3
835.003	3200.96
835.329	3177.01
835.654	3178.59
835.98	3190.11
836.306	3215.42
836.631	3163.67
836.956	3150.79
837.282	3167.97
837.607	3177.23
837.932	3137.46
838.258	3158.25
838.583	3140.4
838.908	3158.25
839.233	3143.34
839.558	3123.22
839.883	3108.99
840.208	3074.41
840.533	3078.03
840.858	3105.6
841.182	3098.36
841.507	3095.43
841.832	3058.82
842.156	3080.74
842.481	3060.63
842.805	3070.79
843.13	3074.64
843.454	3053.39
843.778	3045.71
844.103	3031.25
844.427	3019.5
844.751	3023.56
845.075	2975.43
845.399	3012.04
845.723	2997.12
846.047	3016.33
846.371	2975.2
846.695	2967.07
847.019	2961.65
847.343	2935.66
847.666	2956.67
847.99	2944.7
848.313	2922.32
848.637	2919.84
848.96	2915.77
849.284	2874.87
849.607	2889.33
849.931	2851.14
850.254	2885.49
850.577	2836
850.9	2805.04
851.223	2802.1
851.546	2809.78
851.869	2784.47
852.192	2789.67
852.515	2810.01
852.838	2771.59
853.161	2774.76
853.483	2774.31
853.806	2745.38
854.129	2729.34
854.451	2745.83
854.774	2715.78
855.096	2720.07
855.419	2722.33
855.741	2700.18
856.063	2700.86
856.385	2673.74
856.708	2706.96
857.03	2658.38
857.352	2669.45
857.674	2669.68
857.996	2665.16
858.318	2654.99
858.64	2652.95
858.961	2592.62
859.283	2623.35
859.605	2633.29
859.926	2644.14
860.248	2637.13
860.57	2578.83
860.891	2606.4
861.212	2578.6
861.534	2600.98
861.855	2588.55
862.176	2583.12
862.498	2586.51
862.819	2574.99
863.14	2560.07
863.461	2553.75
863.782	2578.38
864.103	2575.67
864.424	2524.37
864.745	2566.4
865.065	2498.38
865.386	2522.33
865.707	2559.85
866.027	2523.92
866.348	2530.47
866.668	2516.23
866.989	2527.31
867.309	2488.66
867.63	2514.88
867.95	2491.83
868.27	2487.31
868.59	2494.31
868.91	2512.62
869.23	2459.06
869.55	2470.81
869.87	2503.8
870.19	2478.95
870.51	2500.41
870.83	2499.06
871.15	2444.37
871.469	2457.7
871.789	2482.79
872.109	2471.26
872.428	2454.31
872.748	2456.57
873.067	2474.2
873.386	2479.4
873.706	2452.51
874.025	2433.98
874.344	2436.24
874.663	2452.28
874.982	2433.07
875.301	2430.13
875.62	2426.74
875.939	2458.61
876.258	2416.35
876.577	2377.71
876.896	2445.73
877.214	2422.9
877.533	2430.36
877.852	2440.76
878.17	2418.61
878.489	2414.99
878.807	2409.34
879.125	2382
879.444	2388.33
879.762	2374.99
880.08	2400.08
880.398	2364.37
880.716	2365.95
881.034	2362.34
881.352	2380.64
881.67	2346.29
881.988	2365.5
882.306	2388.33
882.624	2364.37
882.941	2351.27
883.259	2338.61
883.577	2330.48
883.894	2306.07
884.212	2320.53
884.529	2307.43
884.846	2308.56
885.164	2286.63
885.481	2324.83
885.798	2310.59
886.115	2292.74
886.432	2335.67
886.75	2276.92
887.067	2307.2
887.383	2276.01
887.7	2306.75
888.017	2292.06
888.334	2251.16
888.651	2243.25
888.967	2208.67
889.284	2259.74
889.6	2252.51
889.917	2235.56
890.233	2240.76
890.55	2223.13
890.866	2234.88
891.182	2223.59
891.498	2207.77
891.815	2210.7
892.131	2215.45
892.447	2189.01
892.763	2186.75
893.079	2173.19
893.395	2173.87
893.71	2163.7
894.026	2191.04
894.342	2168.45
894.657	2149.01
894.973	2132.51
895.289	2133.64
895.604	2178.16
895.92	2159.63
896.235	2092.97
896.55	2129.35
896.865	2110.82
897.181	2127.32
897.496	2107.88
897.811	2085.51
898.126	2083.93
898.441	2074.44
898.756	2057.04
899.071	2055
899.386	2055.68
899.7	2049.58
900.015	2033.08
900.33	2031.27
900.644	2043.25
900.959	2017.26
901.273	2019.3
901.588	2033.53
901.902	2015.46
902.216	1993.54
902.531	1984.72
902.845	2025.62
903.159	2010.26
903.473	1971.84
903.787	1966.42
904.101	1979.98
904.415	1984.27
904.729	1984.04
905.042	1973.2
905.356	1939.3
905.67	1918.06
905.984	1931.62
906.297	1956.25
906.611	1941.79
906.924	1945.4
907.237	1940.2
907.551	1926.64
907.864	1924.38
908.177	1903.82
908.491	1893.88
908.804	1900.43
909.117	1883.26
909.43	1880.09
909.743	1855.46
910.056	1840.77
910.368	1839.64
910.681	1871.05
910.994	1847.1
911.307	1853.2
911.619	1823.6
911.932	1833.54
912.244	1799.87
912.557	1809.59
912.869	1784.28
913.181	1792.18
913.494	1758.74
913.806	1771.39
914.118	1753.77
914.43	1736.59
914.742	1768.68
915.054	1760.09
915.366	1744.28
915.678	1752.19
915.99	1729.81
916.302	1721.68
916.613	1722.13
916.925	1727.33
917.236	1706.76
917.548	1714.45
917.859	1698.4
918.171	1678.06
918.482	1699.31
918.794	1684.39
919.105	1668.12
919.416	1680.78
919.727	1671.74
920.038	1640.55
920.349	1653.43
920.66	1605.52
920.971	1637.84
921.282	1629.7
921.593	1631.51
921.903	1593.09
922.214	1629.7
922.525	1614.56
922.835	1591.29
923.146	1604.84
923.456	1618.63
923.767	1568.91
924.077	1574.56
924.387	1573.21
924.697	1589.48
925.008	1587.44
925.318	1573.43
925.628	1549.71
925.938	1546.54
926.248	1571.4
926.558	1546.09
926.867	1551.96
927.177	1493.89
927.487	1504.28
927.796	1498.18
928.106	1539.99
928.416	1535.47
928.725	1509.03
929.034	1492.31
929.344	1480.78
929.653	1507.22
929.962	1479.2
930.271	1492.76
930.581	1450.95
930.89	1446.2
931.199	1466.32
931.508	1436.49
931.817	1464.96
932.125	1464.96
932.434	1434
932.743	1438.75
933.051	1438.75
933.36	1400.56
933.669	1425.41
933.977	1425.19
934.286	1393.1
934.594	1392.87
934.902	1408.69
935.21	1410.95
935.519	1390.16
935.827	1401.69
936.135	1376.15
936.443	1391.52
936.751	1349.94
937.059	1344.74
937.367	1354.68
937.674	1384.29
937.982	1357.85
938.29	1318.75
938.597	1342.03
938.905	1349.94
939.213	1332.08
939.52	1335.47
939.827	1314.68
940.135	1349.03
940.442	1351.97
940.749	1325.53
941.056	1317.62
941.363	1303.38
941.67	1327.56
941.977	1280.56
942.284	1308.81
942.591	1287.79
942.898	1288.92
943.205	1286.66
943.511	1270.16
943.818	1297.28
944.125	1257.06
944.431	1263.61
944.738	1268.58
945.044	1244.85
945.35	1247.11
945.657	1213.22
945.963	1238.98
946.269	1260.22
946.575	1254.57
946.881	1227.68
947.187	1223.16
947.493	1222.93
947.799	1227.23
948.105	1251.63
948.41	1234.46
948.716	1243.72
949.022	1189.49
949.327	1207.12
949.633	1181.58
949.938	1193.56
950.244	1203.05
950.549	1191.97
950.854	1194.69
951.16	1182.93
951.465	1184.29
951.77	1175.03
952.075	1164.4
952.38	1133.22
952.685	1180.9
952.99	1141.58
953.294	1145.42
953.599	1159.66
953.904	1158.3
954.209	1142.48
954.513	1118.53
954.818	1119.43
955.122	1125.99
955.426	1150.85
955.731	1118.76
956.035	1138.64
956.339	1103.84
956.643	1123.5
956.948	1098.19
957.252	1109.94
957.556	1116.5
957.86	1112.43
958.163	1113.56
958.467	1084.86
958.771	1064.29
959.075	1063.84
959.378	1085.08
959.682	1082.6
959.985	1087.34
960.289	1062.03
960.592	1075.14
960.896	1049.61
961.199	1076.05
961.502	1037.18
961.805	1031.53
962.108	1047.35
962.411	1036.05
962.714	1043.05
963.017	1039.44
963.32	1043.73
963.623	1023.84
963.926	1035.59
964.228	1016.61
964.531	1032.88
964.833	1023.62
965.136	1028.14
965.438	1012.54
965.741	996.5
966.043	1011.19
966.345	1026.55
966.648	990.17
966.95	1001.92
967.252	1013.45
967.554	984.52
967.856	1000.11
968.158	985.65
968.46	995.14
968.761	965.54
969.063	965.99
969.365	989.04
969.666	989.49
969.968	957.63
970.269	947.01
970.571	954.69
970.872	944.98
971.174	929.61
971.475	933.9
971.776	946.11
972.077	956.73
972.378	922.38
972.679	934.81
972.98	940.91
973.281	925.09
973.582	912.21
973.883	918.76
974.183	909.5
974.484	934.58
974.785	919.44
975.085	912.21
975.386	921.7
975.686	915.37
975.986	894.13
976.287	914.24
976.587	894.13
976.887	911.08
977.187	883.06
977.487	893
977.787	907.69
978.087	889.84
978.387	866.11
978.687	882.15
978.987	875.6
979.286	870.4
979.586	876.28
979.885	868.59
980.185	857.29
980.484	859.55
980.784	862.94
981.083	843.51
981.382	867.01
981.682	870.85
981.981	869.27
982.28	852.77
982.579	841.93
982.878	833.11
983.177	840.57
983.475	832.66
983.774	845.99
984.073	818.2
984.372	836.73
984.67	837.41
984.969	845.32
985.267	801.02
985.566	825.88
985.864	833.11
986.162	813
986.461	827.24
986.759	806.22
987.057	803.96
987.355	786.11
987.653	815.94
987.951	801.48
988.249	776.17
988.547	779.1
988.844	787.01
989.142	814.36
989.44	800.8
989.737	792.21
990.035	768.03
990.332	770.29
990.63	785.66
990.927	761.48
991.224	771.42
991.521	786.34
991.819	761.48
992.116	779.78
992.413	771.42
992.71	777.52
993.006	765.54
993.303	759.9
993.6	748.37
993.897	753.34
994.193	731.42
994.49	768.93
994.787	742.95
995.083	738.65
995.379	729.84
995.676	733.68
995.972	740.69
996.268	708.82
996.565	723.74
996.861	717.86
997.157	742.72
997.453	733.68
997.749	719.67
998.044	709.73
998.34	739.78
998.636	712.89
998.932	690.52
999.227	712.44
999.523	719.67
999.818	694.36
1000.114	702.95
1000.409	700.46
1000.704	697.75
1001	699.78
1001.295	667.47
1001.59	707.69
1001.885	677.64
1002.18	675.38
1002.475	671.76
1002.77	691.65
1003.065	676.96
1003.359	684.42
1003.654	670.18
1003.949	659.78
1004.243	633.57
1004.538	671.54
1004.832	650.07
1005.127	635.38
1005.421	664.53
1005.715	650.52
1006.009	633.57
1006.304	651.42
1006.598	643.06
1006.892	636.51
1007.186	642.38
1007.48	658.43
1007.773	655.27
1008.067	630.41
1008.361	630.86
1008.655	637.41
1008.948	616.62
1009.242	615.94
1009.535	633.34
1009.829	624.98
1010.122	609.84
1010.415	617.75
1010.708	607.58
1011.001	607.36
1011.295	583.63
1011.588	603.74
1011.881	601.26
1012.173	581.14
1012.466	633.12
1012.759	602.84
1013.052	620.24
1013.344	583.18
1013.637	613.23
1013.93	610.52
1014.222	588.6
1014.514	571.43
1014.807	582.05
1015.099	598.09
1015.391	574.59
1015.683	574.36
1015.976	577.98
1016.268	579.11
1016.56	563.74
1016.851	578.66
1017.143	587.7
1017.435	560.13
1017.727	574.59
1018.018	551.99
1018.31	585.44
1018.602	564.19
1018.893	551.77
1019.185	566
1019.476	556.51
1019.767	555.61
1020.058	539.11
1020.35	540.24
1020.641	553.12
1020.932	531.2
1021.223	556.28
1021.514	542.27
1021.804	546.34
1022.095	549.05
1022.386	551.99
1022.677	532.78
1022.967	527.13
1023.258	516.74
1023.548	541.37
1023.839	539.56
1024.129	535.95
1024.419	533.69
1024.709	536.4
1025	518.32
1025.29	501.37
1025.58	523.29
1025.87	517.42
1026.16	508.15
1026.449	510.41
1026.739	499.79
1027.029	504.53
1027.319	507.7
1027.608	495.95
1027.898	497.98
1028.187	517.64
1028.477	491.2
1028.766	495.5
1029.055	508.38
1029.344	481.48
1029.634	474.03
1029.923	508.83
1030.212	498.21
1030.501	490.07
1030.79	485.33
1031.078	490.3
1031.367	484.87
1031.656	486.91
1031.945	477.64
1032.233	483.07
1032.522	488.49
1032.81	490.98
1033.099	458.21
1033.387	496.17
1033.675	498.89
1033.963	487.81
1034.251	467.02
1034.54	470.86
1034.828	474.25
1035.116	451.2
1035.403	454.37
1035.691	479.68
1035.979	448.94
1036.267	457.76
1036.554	454.59
1036.842	466.12
1037.129	469.51
1037.417	474.71
1037.704	459.34
1037.992	454.37
1038.279	469.51
1038.566	444.65
1038.853	444.65
1039.14	444.65
