Data from carpet_green_FLMS001491_00035.txt Node
Date: Wed Feb 08 10:35:16 GMT 2017
User: dcchb
Spectrometer: FLMS00149
Trigger mode: 0
Integration Time (sec): 2.000000E-2
Scans to average: 10
Electric dark correction enabled: true
Nonlinearity correction enabled: false
Boxcar width: 0
XAxis mode: Wavelengths
Number of Pixels in Spectrum: 2048
>>>>>Begin Spectral Data<<<<<
341.393	-8.98
341.776	-8.98
342.16	-8.98
342.543	-57.57
342.927	-61.18
343.31	-66.61
343.693	-72.94
344.077	-59.15
344.46	-87.4
344.843	-74.07
345.226	-21.19
345.61	-37.91
345.993	-11.02
346.376	6.38
346.759	14.97
347.142	37.12
347.525	48.64
347.908	51.13
348.291	77.12
348.674	92.26
349.057	102.65
349.44	102.65
349.823	126.38
350.206	160.96
350.588	174.52
350.971	180.62
351.354	202.09
351.737	226.72
352.119	207.06
352.502	235.3
352.884	240.95
353.267	235.3
353.65	272.14
354.032	272.37
354.414	283.66
354.797	269.88
355.179	292.03
355.562	317.56
355.944	304.46
356.326	301.52
356.709	326.6
357.091	311.69
357.473	329.09
357.855	298.58
358.238	313.04
358.62	315.08
359.002	311.01
359.384	304.68
359.766	298.35
360.148	311.69
360.53	334.28
360.912	309.88
361.294	321.18
361.676	313.04
362.057	301.74
362.439	302.65
362.821	319.6
363.203	294.74
363.584	296.32
363.966	304.23
364.348	314.85
364.729	287.05
365.111	301.07
365.493	289.31
365.874	295.64
366.256	286.6
366.637	281.18
367.019	294.29
367.4	274.17
367.781	258.81
368.163	309.65
368.544	311.69
368.925	276.43
369.306	283.66
369.688	282.53
370.069	266.72
370.45	294.74
370.831	270.33
371.212	283.66
371.593	299.48
371.974	273.95
372.355	264.46
372.736	279.15
373.117	280.95
373.498	265.36
373.879	283.21
374.26	292.93
374.641	284.79
375.021	278.02
375.402	274.85
375.783	291.8
376.163	271.46
376.544	249.09
376.925	297.45
377.305	287.05
377.686	276.43
378.066	286.83
378.447	270.11
378.827	294.06
379.208	303.78
379.588	290.44
379.968	284.12
380.349	313.27
380.729	305.36
381.109	285.25
381.489	289.99
381.87	280.73
382.25	303.33
382.63	298.13
383.01	271.24
383.39	304
383.77	263.55
384.15	298.58
384.53	288.18
384.91	294.29
385.29	305.81
385.67	298.13
386.049	295.87
386.429	305.81
386.809	300.39
387.189	291.12
387.568	299.48
387.948	303.78
388.328	285.7
388.707	287.05
389.087	282.99
389.466	294.96
389.846	318.92
390.225	332.03
390.605	282.99
390.984	326.38
391.363	291.12
391.743	310.78
392.122	304.91
392.501	304
392.881	303.78
393.26	301.07
393.639	301.97
394.018	313.72
394.397	298.13
394.776	314.62
395.155	309.2
395.534	289.09
395.913	308.75
396.292	318.92
396.671	305.59
397.05	321.63
397.429	334.06
397.808	308.97
398.186	310.33
398.565	298.58
398.944	293.61
399.323	308.97
399.701	293.16
400.08	313.49
400.458	308.07
400.837	308.07
401.215	321.63
401.594	324.79
401.972	306.72
402.351	329.99
402.729	310.33
403.107	313.27
403.486	310.56
403.864	323.66
404.242	311.91
404.62	323.44
404.999	307.17
405.377	307.17
405.755	343.32
406.133	325.25
406.511	319.14
406.889	337.45
407.267	314.17
407.645	320.95
408.023	325.02
408.401	330.44
408.779	317.79
409.156	327.28
409.534	326.83
409.912	351.69
410.29	329.99
410.667	315.75
411.045	332.7
411.422	336.09
411.8	344.45
412.178	355.08
412.555	312.36
412.933	312.59
413.31	332.03
413.687	332.93
414.065	349.88
414.442	332.25
414.819	318.01
415.197	316.88
415.574	337
415.951	349.88
416.328	355.08
416.705	334.06
417.082	338.58
417.46	325.47
417.837	338.13
418.214	333.16
418.591	340.84
418.967	344.68
419.344	360.27
419.721	323.89
420.098	339.71
420.475	347.39
420.852	330.22
421.228	345.13
421.605	339.48
421.982	349.65
422.358	332.03
422.735	334.28
423.111	350.78
423.488	351.69
423.864	332.03
424.241	357.79
424.617	332.93
424.994	347.39
425.37	319.6
425.746	364.11
426.123	349.88
426.499	348.07
426.875	374.28
427.251	346.04
427.627	359.37
428.003	351.91
428.379	343.55
428.756	354.17
429.132	362.53
429.507	351.23
429.883	360.05
430.259	356.66
430.635	353.04
431.011	363.21
431.387	374.51
431.763	367.73
432.138	365.24
432.514	372.7
432.89	359.6
433.265	354.85
433.641	360.95
434.016	352.14
434.392	374.51
434.767	376.09
435.143	380.39
435.518	363.21
435.894	380.61
436.269	380.84
436.644	373.61
437.02	371.8
437.395	373.61
437.77	403.66
438.145	371.12
438.52	378.8
438.895	384.68
439.271	388.75
439.646	374.96
440.021	384.91
440.395	364.57
440.77	387.39
441.145	402.76
441.52	386.94
441.895	378.8
442.27	390.78
442.645	389.42
443.019	397.11
443.394	394.85
443.769	377.45
444.143	394.62
444.518	398.24
444.892	394.17
445.267	408.41
445.641	388.29
446.016	381.29
446.39	415.19
446.764	405.7
447.139	415.86
447.513	390.55
447.887	400.72
448.262	409.76
448.636	412.48
449.01	411.12
449.384	421.06
449.758	426.49
450.132	424.45
450.506	416.09
450.88	396.2
451.254	435.98
451.628	413.6
452.002	405.24
452.376	407.5
452.75	401.63
453.123	419.48
453.497	423.77
453.871	423.55
454.244	415.19
454.618	441.17
454.992	426.94
455.365	453.6
455.739	453.15
456.112	445.69
456.486	446.82
456.859	419.71
457.232	461.51
457.606	445.24
457.979	456.09
458.352	457.67
458.725	444.34
459.099	462.87
459.472	482.98
459.845	454.96
460.218	452.02
460.591	463.32
460.964	456.32
461.337	467.61
461.71	466.03
462.083	481.63
462.456	476.65
462.829	465.35
463.201	477.56
463.574	471.46
463.947	471.23
464.32	470.78
464.692	504.9
465.065	504
465.438	476.43
465.81	496.09
466.183	479.82
466.555	510.1
466.928	507.16
467.3	508.52
467.672	499.48
468.045	510.55
468.417	520.72
468.789	512.36
469.161	508.07
469.534	513.72
469.906	528.4
470.278	538.8
470.65	530.21
471.022	567.05
471.394	544.22
471.766	551.23
472.138	556.43
472.51	554.17
472.882	541.06
473.253	555.75
473.625	586.48
473.997	573.37
474.369	585.58
474.74	573.83
475.112	594.62
475.484	580.61
475.855	586.93
476.227	620.38
476.598	603.88
476.97	614.05
477.341	616.31
477.713	628.51
478.084	624.9
478.455	631.9
478.827	642.98
479.198	664.67
479.569	650.43
479.94	657.89
480.311	668.74
480.682	684.78
481.053	665.58
481.424	693.6
481.795	688.63
482.166	712.13
482.537	706.93
482.908	718.23
483.279	706.93
483.65	750.77
484.021	738.57
484.391	749.87
484.762	741.05
485.133	741.28
485.503	756.19
485.874	749.19
486.244	774.27
486.615	801.17
486.985	779.7
487.356	797.32
487.726	799.58
488.097	811.79
488.467	821.73
488.837	834.38
489.207	874.16
489.578	889.52
489.948	868.96
490.318	884.55
490.688	877.1
491.058	896.98
491.428	891.56
491.798	896.3
492.168	894.04
492.538	903.08
492.908	919.58
493.278	914.83
493.648	932.01
494.017	941.05
494.387	946.47
494.757	921.84
495.126	943.53
495.496	961.39
495.866	966.58
496.235	952.35
496.605	987.6
496.974	971.33
497.344	983.99
497.713	986.25
498.082	987.83
498.452	983.99
498.821	1000.48
499.19	1004.78
499.559	1026.7
499.928	1018.11
500.298	1010.43
500.667	1013.59
501.036	1028.5
501.405	1040.48
501.774	1043.64
502.143	1061.5
502.512	1047.71
502.88	1052.46
503.249	1064.21
503.618	1067.15
503.987	1059.01
504.356	1080.03
504.724	1067.15
505.093	1089.07
505.462	1077.54
505.83	1084.77
506.199	1081.38
506.567	1082.97
506.936	1105.34
507.304	1101.72
507.672	1097.2
508.041	1113.25
508.409	1123.87
508.777	1107.82
509.145	1130.87
509.514	1108.5
509.882	1141.04
510.25	1126.35
510.618	1125.9
510.986	1161.38
511.354	1166.13
511.722	1155.28
512.09	1169.07
512.458	1151.66
512.826	1175.17
513.193	1178.56
513.561	1160.93
513.929	1174.26
514.297	1194.6
514.664	1177.43
515.032	1179.46
515.4	1204.09
515.767	1202.06
516.135	1209.29
516.502	1187.37
516.869	1219.23
517.237	1189.18
517.604	1204.54
517.972	1210.19
518.339	1230.76
518.706	1220.14
519.073	1225.79
519.44	1249.29
519.808	1242.06
520.175	1217.65
520.542	1253.36
520.909	1282.73
521.276	1237.54
521.643	1263.98
522.009	1268.72
522.376	1256.75
522.743	1264.88
523.11	1282.51
523.477	1299.46
523.843	1268.5
524.21	1309.85
524.577	1334.71
524.943	1291.77
525.31	1277.09
525.676	1306.69
526.043	1327.48
526.409	1311.66
526.776	1321.38
527.142	1330.87
527.508	1337.42
527.874	1364.77
528.241	1346.91
528.607	1331.09
528.973	1351.89
529.339	1334.71
529.705	1379.68
530.071	1369.06
530.437	1344.43
530.803	1384.43
531.169	1365.67
531.535	1356.18
531.901	1360.47
532.267	1363.41
532.632	1379
532.998	1377.87
533.364	1385.56
533.73	1379.46
534.095	1370.87
534.461	1415.39
534.826	1372.45
535.192	1392.79
535.557	1401.6
535.923	1407.93
536.288	1406.8
536.653	1371.77
537.019	1391.88
537.384	1369.51
537.749	1379.23
538.114	1418.32
538.479	1392.34
538.845	1412.67
539.21	1391.88
539.575	1412.9
539.94	1402.05
540.305	1421.04
540.67	1418.55
541.034	1395.05
541.399	1402.51
541.764	1432.79
542.129	1414.03
542.494	1415.61
542.858	1419.45
543.223	1404.09
543.587	1391.88
543.952	1386.46
544.316	1425.56
544.681	1437.31
545.045	1407.25
545.41	1395.5
545.774	1433.01
546.138	1400.02
546.503	1438.44
546.867	1412.9
547.231	1440.24
547.595	1436.63
547.959	1437.98
548.324	1442.5
548.688	1427.14
549.052	1422.17
549.416	1414.26
549.779	1390.98
550.143	1437.31
550.507	1433.69
550.871	1419.45
551.235	1428.72
551.599	1422.62
551.962	1415.16
552.326	1437.53
552.689	1470.07
553.053	1448.61
553.417	1460.58
553.78	1484.09
554.143	1469.85
554.507	1434.6
554.87	1435.72
555.234	1469.85
555.597	1465.78
555.96	1452
556.323	1478.44
556.686	1454.48
557.05	1495.16
557.413	1456.97
557.776	1502.39
558.139	1488.6
558.502	1479.79
558.865	1453.13
559.228	1464.88
559.59	1492.22
559.953	1490.86
560.316	1500.36
560.679	1495.16
561.041	1501.03
561.404	1485.67
561.767	1506.91
562.129	1499.68
562.492	1498.55
562.854	1515.95
563.217	1496.51
563.579	1495.61
563.941	1519.11
564.304	1518.66
564.666	1489.73
565.028	1528.38
565.39	1567.7
565.753	1537.19
566.115	1523.86
566.477	1523.86
566.839	1534.03
567.201	1539.68
567.563	1551.43
567.925	1532.45
568.287	1549.17
568.648	1570.41
569.01	1538.77
569.372	1540.58
569.734	1554.37
570.095	1552.11
570.457	1536.97
570.819	1544.87
571.18	1548.04
571.542	1551.43
571.903	1541.71
572.265	1564.76
572.626	1558.43
572.987	1560.47
573.349	1584.42
573.71	1562.95
574.071	1553.46
574.432	1583.74
574.794	1575.61
575.155	1575.61
575.516	1546.68
575.877	1550.07
576.238	1548.94
576.599	1557.08
576.96	1562.95
577.32	1567.47
577.681	1549.17
578.042	1549.17
578.403	1548.94
578.763	1545.33
579.124	1557.53
579.485	1571.09
579.845	1555.72
580.206	1541.26
580.566	1545.55
580.927	1574.03
581.287	1540.13
581.648	1558.89
582.008	1575.38
582.368	1527.47
582.728	1567.47
583.089	1567.92
583.449	1534.48
583.809	1537.42
584.169	1542.16
584.529	1553.01
584.889	1543.74
585.249	1513.24
585.609	1537.42
585.969	1534.71
586.329	1515.95
586.688	1511.66
587.048	1511.66
587.408	1524.99
587.768	1508.27
588.127	1515.5
588.487	1531.09
588.846	1493.58
589.206	1512.56
589.565	1507.14
589.925	1495.61
590.284	1517.76
590.643	1527.7
591.003	1510.75
591.362	1491.32
591.721	1517.98
592.08	1505.55
592.44	1501.94
592.799	1522.28
593.158	1503.75
593.517	1491.77
593.876	1478.89
594.235	1494.71
594.593	1500.58
594.952	1473.01
595.311	1489.28
595.67	1472.79
596.029	1521.6
596.387	1503.97
596.746	1475.95
597.104	1506.68
597.463	1473.92
597.822	1503.52
598.18	1494.03
598.538	1474.14
598.897	1517.53
599.255	1492.22
599.613	1501.26
599.972	1512.56
600.33	1501.71
600.688	1503.07
601.046	1486.12
601.404	1490.41
601.762	1490.19
602.12	1511.43
602.478	1520.69
602.836	1543.97
603.194	1503.29
603.552	1513.91
603.91	1487.7
604.268	1500.36
604.625	1536.29
604.983	1510.07
605.341	1501.71
605.698	1504.65
606.056	1532.22
606.413	1520.24
606.771	1499.68
607.128	1495.61
607.485	1498.32
607.843	1540.35
608.2	1531.77
608.557	1512.33
608.914	1502.16
609.272	1507.81
609.629	1549.62
609.986	1533.12
610.343	1537.19
610.7	1542.16
611.057	1529.51
611.414	1529.51
611.771	1544.65
612.127	1543.29
612.484	1533.8
612.841	1522.95
613.198	1556.63
613.554	1525.89
613.911	1538.55
614.267	1567.47
614.624	1552.11
614.98	1544.42
615.337	1532.45
615.693	1543.07
616.05	1560.24
616.406	1533.58
616.762	1547.81
617.118	1555.72
617.475	1513.46
617.831	1566.79
618.187	1558.43
618.543	1558.66
618.899	1568.83
619.255	1556.63
619.611	1535.61
619.967	1573.12
620.323	1557.76
620.678	1541.71
621.034	1546
621.39	1570.86
621.746	1530.64
622.101	1559.79
622.457	1542.61
622.812	1555.72
623.168	1537.87
623.523	1536.29
623.879	1555.27
624.234	1541.03
624.589	1567.7
624.945	1539.45
625.3	1542.39
625.655	1577.87
626.01	1561.6
626.365	1546.23
626.72	1544.2
627.075	1550.3
627.43	1532.22
627.785	1564.08
628.14	1568.15
628.495	1573.57
628.85	1558.43
629.205	1550.3
629.559	1555.95
629.914	1547.81
630.269	1563.63
630.623	1555.04
630.978	1557.76
631.332	1535.84
631.687	1534.93
632.041	1525.44
632.396	1535.61
632.75	1542.61
633.104	1564.76
633.459	1525.21
633.813	1539.45
634.167	1540.13
634.521	1543.74
634.875	1554.37
635.229	1538.55
635.583	1529.51
635.937	1533.35
636.291	1537.87
636.645	1535.61
636.999	1535.16
637.352	1535.38
637.706	1517.98
638.06	1517.08
638.413	1548.49
638.767	1531.77
639.121	1522.5
639.474	1523.86
639.828	1507.14
640.181	1545.55
640.534	1529.06
640.888	1548.49
641.241	1527.25
641.594	1543.52
641.947	1544.2
642.301	1541.71
642.654	1510.53
643.007	1546.46
643.36	1528.38
643.713	1540.13
644.066	1530.19
644.419	1497.19
644.771	1515.04
645.124	1545.55
645.477	1497.42
645.83	1506.91
646.182	1520.92
646.535	1512.56
646.888	1505.55
647.24	1527.02
647.593	1523.41
647.945	1510.53
648.298	1529.28
648.65	1518.89
649.002	1519.79
649.355	1522.28
649.707	1510.3
650.059	1561.15
650.411	1548.04
650.763	1572.9
651.115	1590.3
651.467	1588.49
651.819	1563.41
652.171	1614.48
652.523	1574.48
652.875	1594.59
653.227	1586.23
653.578	1592.78
653.93	1604.76
654.282	1631.43
654.633	1598.66
654.985	1626
655.337	1630.75
655.688	1638.88
656.039	1634.36
656.391	1650.18
656.742	1624.19
657.094	1647.24
657.445	1653.35
657.796	1649.05
658.147	1678.2
658.498	1668.94
658.849	1703.74
659.2	1683.85
659.551	1680.92
659.902	1692.44
660.253	1670.07
660.604	1724.76
660.955	1738.54
661.306	1713.23
661.656	1718.66
662.007	1736.51
662.358	1733.8
662.708	1773.12
663.059	1755.26
663.409	1760.46
663.76	1765.21
664.11	1778.99
664.461	1809.95
664.811	1802.27
665.161	1816.96
665.511	1844.98
665.862	1859.22
666.212	1862.38
666.562	1867.58
666.912	1857.41
667.262	1868.71
667.612	1878.88
667.962	1902.61
668.312	1917.75
668.662	1951.19
669.011	1921.14
669.361	1943.73
669.711	1955.49
670.06	1964.98
670.41	1993.9
670.76	1978.99
671.109	2022.6
671.459	2036.84
671.808	2033.22
672.157	2041.81
672.507	2023.96
672.856	2071.87
673.205	2091.53
673.554	2113.9
673.904	2102.83
674.253	2152.32
674.602	2162.26
674.951	2139.21
675.3	2152.32
675.649	2180.79
675.998	2203.16
676.346	2190.28
676.695	2239.09
677.044	2231.18
677.393	2285.87
677.741	2260.79
678.09	2302.82
678.438	2322.26
678.787	2327.45
679.135	2341.69
679.484	2370.62
679.832	2405.19
680.181	2377.62
680.529	2388.92
680.877	2441.57
681.225	2416.26
681.573	2497.84
681.922	2463.95
682.27	2486.32
682.618	2500.56
682.966	2527.9
683.314	2540.55
683.661	2541.23
684.009	2553.21
684.357	2562.25
684.705	2611.51
685.053	2608.58
685.4	2644.05
685.748	2638.86
686.095	2670.95
686.443	2708.91
686.79	2729.48
687.138	2741.68
687.485	2730.38
687.832	2768.12
688.18	2818.29
688.527	2818.74
688.874	2821.45
689.221	2821.23
689.568	2812.86
689.915	2821.23
690.262	2892.64
690.609	2900.55
690.956	2940.54
691.303	2931.05
691.65	2971.73
691.997	2969.47
692.344	2996.81
692.69	3024.84
693.037	3037.26
693.383	2999.98
693.73	3049.47
694.077	3032.97
694.423	3048.34
694.769	3131.95
695.116	3134.21
695.462	3137.83
695.808	3154.1
696.155	3220.99
696.501	3145.74
696.847	3189.8
697.193	3212.18
697.539	3241.33
697.885	3232.51
698.231	3267.77
698.577	3234.77
698.923	3311.16
699.269	3264.38
699.614	3353.64
699.96	3364.26
700.306	3333.98
700.651	3360.42
700.997	3363.58
701.342	3396.8
701.688	3432.06
702.033	3441.32
702.379	3422.57
702.724	3476.58
703.069	3520.42
703.415	3490.13
703.76	3526.29
704.105	3515.22
704.45	3547.53
704.795	3613.75
705.14	3513.41
705.485	3588.44
705.83	3571.94
706.175	3578.04
706.52	3622.56
706.865	3644.03
707.209	3667.76
707.554	3673.41
707.899	3670.02
708.243	3673.63
708.588	3681.09
708.932	3678.15
709.277	3675.67
709.621	3761.77
709.966	3746.4
710.31	3754.76
710.654	3755.44
710.998	3769.67
711.342	3801.54
711.687	3790.01
712.031	3825.04
712.375	3775.55
712.719	3831.82
713.063	3840.18
713.407	3884.02
713.75	3873.85
714.094	3870.01
714.438	3861.42
714.782	3905.26
715.125	3921.99
715.469	3915.66
715.812	3968.77
716.156	3969.22
716.499	3927.64
716.843	3930.57
717.186	3951.37
717.53	4003.57
717.873	3972.38
718.216	4046.5
718.559	3962.66
718.902	4005.6
719.246	4020.52
719.589	4006.5
719.932	4008.31
720.275	4030.01
720.617	4031.36
720.96	4027.97
721.303	4072.72
721.646	4063.23
721.989	4065.94
722.331	4050.8
722.674	4066.39
723.016	4109.33
723.359	4123.56
723.701	4111.81
724.044	4100.06
724.386	4080.18
724.729	4118.14
725.071	4088.99
725.413	4175.99
725.755	4129.89
726.097	4077.01
726.439	4124.47
726.782	4154.75
727.124	4177.57
727.465	4169.44
727.807	4180.29
728.149	4181.64
728.491	4176.44
728.833	4184.58
729.175	4133.06
729.516	4164.47
729.858	4163.79
730.199	4193.84
730.541	4142.32
730.882	4196.56
731.224	4196.33
731.565	4189.55
731.906	4226.84
732.248	4186.61
732.589	4181.87
732.93	4218.25
733.271	4197.01
733.612	4213.51
733.953	4193.84
734.294	4220.51
734.635	4245.14
734.976	4212.15
735.317	4209.44
735.658	4211.02
735.999	4178.7
736.339	4219.38
736.68	4243.33
737.021	4216.22
737.361	4208.76
737.702	4215.76
738.042	4163.56
738.383	4173.28
738.723	4212.15
739.063	4182.77
739.404	4182.55
739.744	4206.27
740.084	4167.18
740.424	4208.76
740.764	4197.46
741.104	4229.55
741.444	4209.21
741.784	4222.32
742.124	4157.24
742.464	4204.47
742.804	4188.19
743.143	4228.87
743.483	4169.89
743.823	4118.82
744.162	4203.56
744.502	4178.93
744.841	4167.86
745.181	4222.77
745.52	4134.41
745.86	4173.73
746.199	4160.4
746.538	4160.63
746.877	4190.45
747.216	4131.02
747.556	4158.37
747.895	4182.09
748.234	4150.68
748.573	4121.53
748.911	4113.85
749.25	4107.97
749.589	4064.58
749.928	4137.57
750.267	4092.38
750.605	4117.69
750.944	4130.34
751.283	4073.4
751.621	4094.41
751.96	4106.62
752.298	4059.38
752.636	4113.17
752.975	4081.08
753.313	4044.24
753.651	4047.86
753.989	4065.49
754.327	4083.11
754.666	4018.93
755.004	3998.6
755.342	4025.49
755.679	4002.44
756.017	3993.4
756.355	4001.31
756.693	4020.97
757.031	4003.57
757.368	4010.57
757.706	4002.44
758.044	3979.84
758.381	4015.32
758.719	3956.11
759.056	3958.14
759.394	3931.93
759.731	3933.51
760.068	3915.66
760.405	3902.1
760.743	3887.19
761.08	3897.58
761.417	3866.4
761.754	3875.66
762.091	3891.03
762.428	3867.07
762.765	3857.81
763.102	3814.42
763.438	3842.89
763.775	3836.11
764.112	3816.91
764.449	3842.89
764.785	3764.25
765.122	3780.3
765.458	3719.51
765.795	3779.17
766.131	3759.73
766.467	3759.96
766.804	3752.05
767.14	3687.19
767.476	3709.34
767.812	3705.72
768.148	3711.37
768.485	3662.33
768.821	3673.63
769.157	3630.47
769.492	3633.18
769.828	3633.18
770.164	3611.94
770.5	3577.14
770.836	3623.69
771.171	3546.63
771.507	3563.58
771.842	3576.46
772.178	3564.26
772.513	3573.75
772.849	3543.01
773.184	3527.65
773.519	3534.65
773.855	3548.21
774.19	3480.64
774.525	3493.07
774.86	3533.07
775.195	3464.15
775.53	3466.41
775.865	3433.64
776.2	3425.5
776.535	3415.11
776.87	3400.42
777.205	3404.94
777.539	3399.29
777.874	3367.65
778.209	3317.03
778.543	3320.87
778.878	3332.4
779.212	3349.35
779.547	3313.42
779.881	3347.54
780.215	3322.91
780.55	3326.52
780.884	3310.03
781.218	3296.47
781.552	3293.53
781.886	3236.58
782.22	3255.34
782.554	3266.64
782.888	3223.47
783.222	3226.19
783.556	3193.42
783.889	3155
784.223	3155
784.557	3172.18
784.89	3174.66
785.224	3142.8
785.557	3141.89
785.891	3136.02
786.224	3147.09
786.558	3101.67
786.891	3128.79
787.224	3082.24
787.557	3078.17
787.891	3052.63
788.224	3073.42
788.557	3042.01
788.89	3083.82
789.223	3044.27
789.556	3035.91
789.888	3046.53
790.221	3044.95
790.554	2997.72
790.887	3016.02
791.219	2989.58
791.552	2973.31
791.884	2979.87
792.217	2949.81
792.549	2942.35
792.882	2965.85
793.214	2918.17
793.546	2950.26
793.879	2904.84
794.211	2910.26
794.543	2913.2
794.875	2897.16
795.207	2906.87
795.539	2884.27
795.871	2878.17
796.203	2853.77
796.535	2790.27
796.867	2844.05
797.198	2867.55
797.53	2796.59
797.862	2812.86
798.193	2809.7
798.525	2822.36
798.856	2800.89
799.188	2762.47
799.519	2762.47
799.85	2733.77
800.182	2774.22
800.513	2758.85
800.844	2769.48
801.175	2735.35
801.506	2723.83
801.837	2734.9
802.168	2740.32
802.499	2729.7
802.83	2708.69
803.161	2719.98
803.491	2682.7
803.822	2679.31
804.153	2679.99
804.483	2675.01
804.814	2659.87
805.145	2653.55
805.475	2644.51
805.805	2649.93
806.136	2690.83
806.466	2638.41
806.796	2625.75
807.126	2606.32
807.457	2579.42
807.787	2602.47
808.117	2600.67
808.447	2590.72
808.777	2586.88
809.107	2589.59
809.436	2580.33
809.766	2548.24
810.096	2539.65
810.426	2543.27
810.755	2533.32
811.085	2569.48
811.414	2506.88
811.744	2554.11
812.073	2501.23
812.403	2531.74
812.732	2532.19
813.061	2503.04
813.39	2475.25
813.719	2475.25
814.049	2469.82
814.378	2468.69
814.707	2488.35
815.036	2471.18
815.365	2466.66
815.693	2426.66
816.022	2450.39
816.351	2453.55
816.68	2414.91
817.008	2455.81
817.337	2453.55
817.665	2463.27
817.994	2385.53
818.322	2437.51
818.651	2434.57
818.979	2408.58
819.307	2398.19
819.636	2385.08
819.964	2379.88
820.292	2419.43
820.62	2393.21
820.948	2367
821.276	2407.9
821.604	2371.75
821.932	2399.09
822.259	2402.25
822.587	2375.36
822.915	2384.4
823.243	2419.88
823.57	2388.69
823.898	2418.52
824.225	2383.72
824.553	2357.96
824.88	2420.33
825.207	2411.52
825.535	2358.19
825.862	2376.27
826.189	2365.64
826.516	2365.19
826.843	2382.14
827.17	2397.06
827.497	2372.88
827.824	2380.11
828.151	2392.08
828.478	2350.05
828.805	2408.81
829.131	2390.95
829.458	2370.39
829.785	2384.63
830.111	2392.08
830.438	2399.99
830.764	2407.45
831.09	2387.11
831.417	2359.77
831.743	2362.48
832.069	2385.08
832.395	2353.21
832.722	2380.33
833.048	2368.13
833.374	2367.23
833.7	2370.84
834.026	2350.28
834.351	2380.33
834.677	2348.02
835.003	2389.37
835.329	2365.19
835.654	2359.09
835.98	2330.62
836.306	2341.92
836.631	2348.47
836.956	2341.01
837.282	2355.02
837.607	2337.85
837.932	2333.78
838.258	2352.54
838.583	2321.35
838.908	2309.83
839.233	2314.8
839.558	2317.96
839.883	2330.16
840.208	2285.87
840.533	2320.45
840.858	2303.72
841.182	2292.2
841.507	2297.85
841.832	2294.46
842.156	2252.88
842.481	2303.95
842.805	2250.62
843.13	2282.48
843.454	2258.3
843.778	2264.18
844.103	2246.33
844.427	2258.98
844.751	2243.84
845.075	2235.03
845.399	2214.46
845.723	2226.21
846.047	2246.33
846.371	2236.16
846.695	2181.02
847.019	2167.23
847.343	2155.48
847.666	2173.33
847.99	2181.02
848.313	2165.88
848.637	2148.7
848.96	2132.2
849.284	2140.11
849.607	2144.86
849.931	2159.1
850.254	2112.77
850.577	2131.53
850.9	2107.57
851.223	2096.72
851.546	2106.44
851.869	2126.1
852.192	2106.22
852.515	2063.05
852.838	2073.22
853.161	2056.5
853.483	2025.31
853.806	2031.64
854.129	2060.12
854.451	2068.93
854.774	2051.53
855.096	2028.7
855.419	2023.05
855.741	2037.29
856.063	2024.41
856.385	1976.95
856.708	2007.01
857.03	1988.48
857.352	1998.87
857.674	1981.25
857.996	2016.27
858.318	1971.76
858.64	1966.78
858.961	1962.49
859.283	1951.19
859.605	1968.37
859.926	1962.49
860.248	1963.85
860.57	1937.86
860.891	1977.86
861.212	1942.15
861.534	1933.79
861.855	1948.03
862.176	1908.03
862.498	1926.11
862.819	1958.65
863.14	1902.61
863.461	1894.7
863.782	1938.99
864.103	1910.29
864.424	1891.76
864.745	1925.43
865.065	1900.35
865.386	1909.16
865.707	1904.64
866.027	1901.02
866.348	1904.87
866.668	1922.04
866.989	1874.81
867.309	1915.94
867.63	1900.35
867.95	1884.3
868.27	1876.62
868.59	1868.03
868.91	1879.33
869.23	1883.17
869.55	1895.15
869.87	1834.36
870.19	1855.37
870.51	1881.36
870.83	1849.73
871.15	1854.02
871.469	1870.06
871.789	1844.53
872.109	1839.1
872.428	1850.18
872.748	1859.44
873.067	1849.27
873.386	1846.11
873.706	1847.92
874.025	1807.01
874.344	1847.92
874.663	1835.04
874.982	1849.95
875.301	1820.12
875.62	1824.87
875.939	1797.07
876.258	1804.53
876.577	1803.85
876.896	1813.57
877.214	1818.54
877.533	1783.74
877.852	1824.64
878.17	1792.1
878.489	1805.21
878.807	1781.48
879.125	1778.54
879.444	1795.72
879.762	1783.96
880.08	1811.76
880.398	1775.83
880.716	1784.19
881.034	1744.42
881.352	1754.13
881.67	1741.25
881.988	1749.16
882.306	1784.64
882.624	1755.26
882.941	1776.28
883.259	1747.13
883.577	1766.56
883.894	1729.95
884.212	1760.46
884.529	1725.43
884.846	1717.3
885.164	1747.58
885.481	1754.36
885.798	1770.18
886.115	1736.06
886.432	1698.99
886.75	1711.42
887.067	1729.5
887.383	1734.7
887.7	1694.7
888.017	1710.29
888.334	1728.82
888.651	1722.95
888.967	1699.67
889.284	1703.29
889.6	1689.96
889.917	1689.96
890.233	1695.83
890.55	1686.79
890.866	1691.09
891.182	1664.87
891.498	1641.14
891.815	1670.97
892.131	1663.97
892.447	1649.28
892.763	1635.72
893.079	1642.27
893.395	1648.6
893.71	1630.75
894.026	1619.22
894.342	1610.41
894.657	1646.57
894.973	1615.16
895.289	1623.52
895.604	1623.29
895.92	1569.96
896.235	1639.56
896.55	1594.14
896.865	1598.43
897.181	1581.26
897.496	1568.83
897.811	1590.75
898.126	1599.34
898.441	1566.12
898.756	1573.12
899.071	1564.76
899.386	1548.94
899.7	1524.99
900.015	1550.3
900.33	1540.58
900.644	1546.68
900.959	1548.04
901.273	1536.51
901.588	1548.04
901.902	1528.6
902.216	1494.25
902.531	1512.56
902.845	1488.83
903.159	1517.53
903.473	1499.45
903.787	1482.05
904.101	1488.83
904.415	1480.7
904.729	1470.3
905.042	1480.24
905.356	1458.55
905.67	1452.22
905.984	1460.13
906.297	1461.71
906.611	1460.13
906.924	1468.49
907.237	1461.04
907.551	1457.65
907.864	1450.41
908.177	1445.89
908.491	1449.96
908.804	1403.41
909.117	1429.4
909.43	1433.01
909.743	1413.35
910.056	1395.95
910.368	1408.38
910.681	1404.31
910.994	1409.96
911.307	1421.26
911.619	1374.48
911.932	1398.44
912.244	1388.49
912.557	1368.61
912.869	1373.35
913.181	1388.49
913.494	1370.19
913.806	1361.6
914.118	1325.45
914.43	1347.14
914.742	1321.15
915.054	1345.78
915.366	1335.16
915.678	1310.3
915.99	1348.95
916.302	1328.16
916.613	1303.53
916.925	1330.19
917.236	1320.93
917.548	1294.03
917.859	1275.96
918.171	1275.28
918.482	1252
918.794	1249.06
919.105	1270.76
919.416	1278.67
919.727	1282.06
920.038	1250.19
920.349	1291.1
920.66	1288.61
920.971	1267.59
921.282	1281.38
921.593	1229.63
921.903	1270.53
922.214	1225.56
922.525	1244.77
922.835	1234.83
923.146	1219.69
923.456	1226.69
923.767	1240.48
924.077	1215.84
924.387	1221.27
924.697	1202.74
925.008	1198.22
925.318	1215.39
925.628	1208.39
925.938	1198.22
926.248	1184.21
926.558	1180.14
926.867	1197.99
927.177	1176.3
927.487	1179.91
927.796	1169.97
928.106	1187.14
928.416	1156.86
928.725	1155.05
929.034	1157.31
929.344	1189.4
929.653	1162.96
929.962	1143.98
930.271	1136.3
930.581	1124.32
930.89	1135.17
931.199	1120.03
931.508	1116.19
931.817	1118.67
932.125	1123.64
932.434	1147.82
932.743	1128.61
933.051	1115.51
933.36	1084.1
933.669	1103.08
933.977	1108.95
934.286	1117.99
934.594	1083.87
934.902	1094.72
935.21	1078.9
935.519	1086.13
935.827	1106.92
936.135	1080.71
936.443	1061.95
936.751	1042.97
937.059	1079.58
937.367	1054.72
937.674	1061.95
937.982	1056.3
938.29	1029.63
938.597	1021.72
938.905	1058.56
939.213	1048.16
939.52	1023.76
939.827	1071.21
940.135	1054.94
940.442	1059.69
940.749	1013.59
941.056	1059.46
941.363	1006.36
941.67	1022.18
941.977	1012.69
942.284	1010.2
942.591	975.4
942.898	1024.21
943.205	1009.97
943.511	987.83
943.818	1015.85
944.125	1000.26
944.431	978.11
944.738	1003.19
945.044	985.12
945.35	984.44
945.657	993.93
945.963	978.56
946.269	981.95
946.575	960.48
946.881	971.33
947.187	971.1
947.493	951.22
947.799	965.45
948.105	960.94
948.41	972.69
948.716	952.57
949.022	950.31
949.327	942.63
949.633	922.29
949.938	954.83
950.244	956.64
950.549	924.1
950.854	923.65
951.16	924.55
951.465	919.35
951.77	921.39
952.075	909.41
952.38	928.17
952.685	908.73
952.99	917.77
953.294	905.34
953.599	888.17
953.904	913.03
954.209	895.17
954.513	888.17
954.818	884.78
955.122	899.69
955.426	910.99
955.731	872.58
956.035	906.02
956.339	897.21
956.643	878.68
956.948	883.2
957.252	868.28
957.556	857.89
957.86	872.8
958.163	887.94
958.467	870.54
958.771	855.85
959.075	872.12
959.378	856.98
959.682	869.41
959.985	872.58
960.289	835.97
960.592	854.05
960.896	843.2
961.199	840.26
961.502	842.75
961.805	825.35
962.108	819.7
962.411	842.97
962.714	843.42
963.017	820.15
963.32	827.38
963.623	830.09
963.926	844.78
964.228	812.24
964.531	794.16
964.833	834.61
965.136	803.65
965.438	813.82
965.741	788.28
966.043	806.36
966.345	805.46
966.648	793.71
966.95	790.77
967.252	777.44
967.554	794.16
967.856	791.22
968.158	783.76
968.46	782.18
968.761	788.51
969.063	784.44
969.365	773.82
969.666	766.14
969.968	756.87
970.269	755.52
970.571	751
970.872	787.61
971.174	773.6
971.475	743.77
971.776	755.29
972.077	757.32
972.378	765.91
972.679	739.02
972.98	745.57
973.281	727.27
973.582	746.93
973.883	726.82
974.183	746.7
974.484	748.96
974.785	748.96
975.085	769.53
975.386	755.74
975.686	703.99
975.986	734.73
976.287	739.25
976.587	713.71
976.887	706.7
977.187	747.83
977.487	733.14
977.787	710.55
978.087	732.69
978.387	712.13
978.687	716.42
978.987	721.85
979.286	720.49
979.586	717.33
979.885	690.43
980.185	703.99
980.484	704.9
980.784	695.63
981.083	704.9
981.382	701.51
981.682	689.53
981.981	683.88
982.28	683.65
982.579	708.29
982.878	712.13
983.177	674.62
983.475	677.55
983.774	692.02
984.073	702.41
984.372	685.91
984.67	667.84
984.969	693.15
985.267	658.12
985.566	670.32
985.864	676.87
986.162	676.65
986.461	682.3
986.759	671
987.057	667.38
987.355	675.07
987.653	656.76
987.951	648.4
988.249	661.96
988.547	673.26
988.844	661.51
989.142	656.08
989.44	642.53
989.737	603.43
990.035	620.15
990.332	649.3
990.63	619.02
990.927	662.41
991.224	641.62
991.521	619.48
991.819	630.32
992.116	648.4
992.413	654.5
992.71	623.32
993.006	623.99
993.303	648.18
993.6	637.1
993.897	624.67
994.193	611.79
994.49	625.58
994.787	621.51
995.083	609.53
995.379	621.06
995.676	599.36
995.972	612.92
996.268	596.88
996.565	617.22
996.861	610.21
997.157	600.49
997.453	607.72
997.749	608.85
998.044	576.76
998.34	609.76
998.636	591.23
998.932	594.17
999.227	593.26
999.523	591.23
999.818	576.31
1000.114	591
1000.409	582.87
1000.704	581.96
1001	568.86
1001.295	586.26
1001.59	569.53
1001.885	588.52
1002.18	574.5
1002.475	582.41
1002.77	558.46
1003.065	574.73
1003.359	581.28
1003.654	571.34
1003.949	588.52
1004.243	574.05
1004.538	582.87
1004.832	585.58
1005.127	558.23
1005.421	537.67
1005.715	567.95
1006.009	547.39
1006.304	561.62
1006.598	553.71
1006.892	555.3
1007.186	538.12
1007.48	555.07
1007.773	545.8
1008.067	533.15
1008.361	534.05
1008.655	553.71
1008.948	532.25
1009.242	550.78
1009.535	537.67
1009.829	539.48
1010.122	543.09
1010.415	551.68
1010.708	541.51
1011.001	517.78
1011.295	523.21
1011.588	499.93
1011.881	521.62
1012.173	536.99
1012.466	526.6
1012.759	527.05
1013.052	517.33
1013.344	499.7
1013.637	525.69
1013.93	487.28
1014.222	502.19
1014.514	513.49
1014.807	528.18
1015.099	521.4
1015.391	503.09
1015.683	508.07
1015.976	525.47
1016.268	488.63
1016.56	511.68
1016.851	517.56
1017.143	505.58
1017.435	493.6
1017.727	490.44
1018.018	501.74
1018.31	479.82
1018.602	492.47
1018.893	458.8
1019.185	489.08
1019.476	492.92
1019.767	455.86
1020.058	484.11
1020.35	493.83
1020.641	494.28
1020.932	479.59
1021.223	467.16
1021.514	448.63
1021.804	478.24
1022.095	467.16
1022.386	478.24
1022.677	468.74
1022.967	471.91
1023.258	462.64
1023.548	461.74
1023.839	463.32
1024.129	476.88
1024.419	479.37
1024.709	466.26
1025	456.32
1025.29	453.83
1025.58	449.99
1025.87	442.53
1026.16	481.17
1026.449	457.45
1026.739	422.19
1027.029	478.24
1027.319	434.85
1027.608	441.63
1027.898	448.86
1028.187	469.2
1028.477	467.84
1028.766	454.96
1029.055	446.6
1029.344	456.32
1029.634	426.03
1029.923	453.15
1030.212	448.86
1030.501	435.53
1030.79	429.88
1031.078	429.2
1031.367	431.01
1031.656	424.23
1031.945	412.25
1032.233	425.13
1032.522	410.22
1032.81	410.67
1033.099	435.3
1033.387	431.91
1033.675	416.77
1033.963	405.47
1034.251	419.03
1034.54	418.58
1034.828	436.2
1035.116	428.75
1035.403	417.67
1035.691	418.8
1035.979	417.22
1036.267	401.63
1036.554	415.64
1036.842	429.42
1037.129	431.91
1037.417	401.18
1037.704	412.25
1037.992	428.75
1038.279	400.72
1038.566	404.11
1038.853	404.11
1039.14	404.11
