Data from carpet_green_FLMS001491_00009.txt Node
Date: Wed Feb 08 10:34:48 GMT 2017
User: dcchb
Spectrometer: FLMS00149
Trigger mode: 0
Integration Time (sec): 2.000000E-2
Scans to average: 10
Electric dark correction enabled: true
Nonlinearity correction enabled: false
Boxcar width: 0
XAxis mode: Wavelengths
Number of Pixels in Spectrum: 2048
>>>>>Begin Spectral Data<<<<<
341.393	-21.09
341.776	-21.09
342.16	-21.09
342.543	-75.1
342.927	-66.06
343.31	-57.92
343.693	-81.42
344.077	-68.77
344.46	-50.24
344.843	-37.58
345.226	-43.69
345.61	-24.93
345.993	-25.38
346.376	1.74
346.759	8.06
347.142	38.35
347.525	31.34
347.908	54.62
348.291	61.4
348.674	81.06
349.057	113.37
349.44	111.34
349.823	124.22
350.206	155.41
350.588	177.78
350.971	178
351.354	187.27
351.737	197.21
352.119	204.9
352.502	237.44
352.884	245.12
353.267	267.72
353.65	259.81
354.032	273.59
354.414	261.84
354.797	268.85
355.179	281.28
355.562	279.02
355.944	310.43
356.326	295.74
356.709	286.7
357.091	315.18
357.473	309.75
357.855	305.46
358.238	301.39
358.62	302.07
359.002	298
359.384	298.45
359.766	289.64
360.148	307.49
360.53	315.85
360.912	288.06
361.294	308.85
361.676	314.72
362.057	310.43
362.439	302.07
362.821	280.83
363.203	293.93
363.584	281.28
363.966	294.38
364.348	290.32
364.729	288.06
365.111	285.35
365.493	280.15
365.874	301.16
366.256	284.22
366.637	271.56
367.019	283.99
367.4	260.71
367.781	283.31
368.163	277.89
368.544	279.92
368.925	263.88
369.306	290.54
369.688	265.91
370.069	279.7
370.45	272.46
370.831	260.04
371.212	280.37
371.593	264.78
371.974	262.75
372.355	292.58
372.736	275.85
373.117	272.24
373.498	265.01
373.879	275.18
374.26	265.46
374.641	278.34
375.021	275.4
375.402	269.53
375.783	291.22
376.163	279.47
376.544	268.85
376.925	279.7
377.305	278.11
377.686	288.06
378.066	270.43
378.447	260.04
378.827	279.02
379.208	269.07
379.588	286.48
379.968	280.37
380.349	292.13
380.729	278.11
381.109	287.83
381.489	287.61
381.87	280.83
382.25	291.45
382.63	286.7
383.01	294.61
383.39	283.31
383.77	307.49
384.15	308.17
384.53	299.36
384.91	277.89
385.29	281.96
385.67	268.17
386.049	270.66
386.429	280.6
386.809	267.72
387.189	325.12
387.568	314.72
387.948	286.48
388.328	297.1
388.707	299.81
389.087	302.75
389.466	295.51
389.846	284.89
390.225	307.49
390.605	298.45
390.984	290.32
391.363	304.55
391.743	301.62
392.122	309.3
392.501	305.23
392.881	314.95
393.26	291.9
393.639	305.68
394.018	301.16
394.397	290.32
394.776	302.52
395.155	295.74
395.534	293.26
395.913	289.64
396.292	301.39
396.671	292.58
397.05	312.01
397.429	305.23
397.808	299.13
398.186	325.57
398.565	307.27
398.944	327.15
399.323	304.78
399.701	307.72
400.08	286.7
400.458	294.38
400.837	312.24
401.215	309.98
401.594	308.17
401.972	301.16
402.351	307.27
402.729	321.73
403.107	300.26
403.486	306.59
403.864	304.55
404.242	312.69
404.62	307.72
404.999	288.74
405.377	288.74
405.755	306.81
406.133	318.11
406.511	310.2
406.889	300.94
407.267	316.08
407.645	308.85
408.023	314.27
408.401	304.1
408.779	313.37
409.156	303.88
409.534	273.37
409.912	314.5
410.29	322.18
410.667	319.24
411.045	315.18
411.422	320.15
411.8	322.18
412.178	289.87
412.555	309.53
412.933	319.47
413.31	328.73
413.687	328.28
414.065	310.66
414.442	320.6
414.819	317.66
415.197	333.25
415.574	320.37
415.951	321.05
416.328	332.58
416.705	317.66
417.082	325.57
417.46	326.47
417.837	332.8
418.214	314.95
418.591	337.55
418.967	322.18
419.344	328.06
419.721	326.25
420.098	313.59
420.475	306.14
420.852	337.1
421.228	327.83
421.605	330.54
421.982	324.89
422.358	343.42
422.735	336.87
423.111	329.86
423.488	331.45
423.864	323.08
424.241	338.45
424.617	345.23
424.994	334.61
425.37	345.91
425.746	351.56
426.123	337.1
426.499	334.38
426.875	327.15
427.251	342.07
427.627	343.65
428.003	351.33
428.379	334.61
428.756	355.17
429.132	338.23
429.507	343.42
429.883	347.72
430.259	344.1
430.635	352.46
431.011	356.76
431.387	349.07
431.763	345.68
432.138	367.83
432.514	367.15
432.89	354.72
433.265	343.88
433.641	351.11
434.016	347.26
434.392	347.49
434.767	366.93
435.143	367.6
435.518	357.21
435.894	378.68
436.269	355.63
436.644	366.02
437.02	388.62
437.395	377.09
437.77	379.58
438.145	356.53
438.52	377.55
438.895	373.48
439.271	363.99
439.646	354.04
440.021	377.55
440.395	355.17
440.77	384.78
441.145	379.81
441.52	367.6
441.895	377.77
442.27	374.16
442.645	386.13
443.019	397.89
443.394	354.04
443.769	382.29
444.143	383.42
444.518	365.12
444.892	396.76
445.267	402.4
445.641	390.88
446.016	389.3
446.39	389.75
446.764	401.95
447.139	398.11
447.513	397.21
447.887	398.79
448.262	387.04
448.636	399.01
449.01	394.72
449.384	392.91
449.758	400.37
450.132	396.76
450.506	366.02
450.88	396.08
451.254	385.91
451.628	403.53
452.002	403.08
452.376	391.56
452.75	404.44
453.123	410.09
453.497	401.5
453.871	400.6
454.244	408.05
454.618	428.17
454.992	406.7
455.365	406.25
455.739	402.18
456.112	431.78
456.486	430.65
456.859	422.74
457.232	415.96
457.606	429.52
457.979	417.77
458.352	425.23
458.725	434.27
459.099	426.13
459.472	452.57
459.845	441.73
460.218	421.16
460.591	443.76
460.964	426.36
461.337	422.97
461.71	447.6
462.083	451.44
462.456	450.54
462.829	444.44
463.201	462.29
463.574	475.17
463.947	433.82
464.32	481.27
464.692	485.11
465.065	466.81
465.438	480.59
465.81	473.59
466.183	487.37
466.555	476.3
466.928	500.26
467.3	490.76
467.672	473.14
468.045	493.02
468.417	485.11
468.789	498.45
469.161	485.11
469.534	522.18
469.906	503.87
470.278	519.24
470.65	525.79
471.022	489.18
471.394	516.3
471.766	526.92
472.138	507.94
472.51	538.9
472.882	517.2
473.253	542.06
473.625	545.45
473.997	556.75
474.369	562.63
474.74	549.97
475.112	551.55
475.484	545.45
475.855	558.33
476.227	560.14
476.598	561.27
476.97	562.85
477.341	568.5
477.713	598.56
478.084	587.26
478.455	591.1
478.827	602.17
479.198	592
479.569	627.71
479.94	629.52
480.311	609.18
480.682	637.88
481.053	628.61
481.424	648.5
481.795	650.31
482.166	650.76
482.537	661.15
482.908	663.19
483.279	672.45
483.65	681.27
484.021	691.44
484.391	693.47
484.762	711.1
485.133	713.36
485.503	718.1
485.874	702.74
486.244	699.35
486.615	705.22
486.985	737.76
487.356	753.36
487.726	746.8
488.097	744.77
488.467	740.93
488.837	777.31
489.207	767.59
489.578	779.34
489.948	772.34
490.318	785.67
490.688	817.31
491.058	818.44
491.428	792.45
491.798	838.33
492.168	821.15
492.538	825.22
492.908	822.28
493.278	857.76
493.648	856.86
494.017	834.26
494.387	839.46
494.757	858.21
495.126	843.75
495.496	880.36
495.866	898.21
496.235	862.73
496.605	867.7
496.974	885.33
497.344	888.95
497.713	900.47
498.082	887.36
498.452	904.09
498.821	915.84
499.19	887.36
499.559	919
499.928	929.62
500.298	933.01
500.667	932.79
501.036	894.37
501.405	929.85
501.774	963.75
502.143	938.21
502.512	948.15
502.88	941.6
503.249	950.64
503.618	945.44
503.987	950.41
504.356	962.39
504.724	956.51
505.093	957.19
505.462	952.45
505.83	959.9
506.199	970.3
506.567	977.53
506.936	994.93
507.304	998.1
507.672	977.3
508.041	998.32
508.409	1000.36
508.777	996.51
509.145	1005.78
509.514	986.34
509.882	995.61
510.25	1001.71
510.618	1011.88
510.986	1033.35
511.354	1017.3
511.722	1027.47
512.09	1042.16
512.458	1014.82
512.826	1024.54
513.193	1043.74
513.561	1020.69
513.929	1057.08
514.297	1042.84
514.664	1043.97
515.032	1076.06
515.4	1073.35
515.767	1030.41
516.135	1048.94
516.502	1080.8
516.869	1092.33
517.237	1071.54
517.604	1071.77
517.972	1074.03
518.339	1095.27
518.706	1058.88
519.073	1076.06
519.44	1081.48
519.808	1115.38
520.175	1082.39
520.542	1104.08
520.909	1116.28
521.276	1098.66
521.643	1133.68
522.009	1103.86
522.376	1135.94
522.743	1137.07
523.11	1149.05
523.477	1146.11
523.843	1160.8
524.21	1153.12
524.577	1145.21
524.943	1154.02
525.31	1189.28
525.676	1168.03
526.043	1156.06
526.409	1173.23
526.776	1180.01
527.142	1176.4
527.508	1174.14
527.874	1183.85
528.241	1198.77
528.607	1174.81
528.973	1196.06
529.339	1196.96
529.705	1191.76
530.071	1213.91
530.437	1186.79
530.803	1192.21
531.169	1190.63
531.535	1203.51
531.901	1227.92
532.267	1220.46
532.632	1196.51
532.998	1213.23
533.364	1214.13
533.73	1196.73
534.095	1225.21
534.461	1245.09
534.826	1237.86
535.192	1223.63
535.557	1234.93
535.923	1231.54
536.288	1244.64
536.653	1213
537.019	1224.08
537.384	1256.17
537.749	1229.28
538.114	1227.47
538.479	1212.1
538.845	1232.67
539.21	1229.73
539.575	1233.12
539.94	1259.33
540.305	1223.17
540.67	1229.73
541.034	1226.56
541.399	1248.94
541.764	1226.56
542.129	1252.78
542.494	1238.77
542.858	1254.81
543.223	1220.69
543.587	1258.2
543.952	1255.26
544.316	1227.47
544.681	1248.71
545.045	1254.13
545.41	1269.05
545.774	1226.79
546.138	1252.78
546.503	1244.19
546.867	1214.36
547.231	1224.08
547.595	1240.57
547.959	1247.13
548.324	1232.89
548.688	1244.64
549.052	1241.48
549.416	1243.06
549.779	1242.61
550.143	1232.21
550.507	1239.67
550.871	1261.82
551.235	1207.81
551.599	1271.99
551.962	1276.96
552.326	1242.61
552.689	1286.45
553.053	1240.12
553.417	1273.34
553.78	1272.21
554.143	1238.99
554.507	1268.82
554.87	1290.29
555.234	1264.98
555.597	1280.57
555.96	1289.84
556.323	1276.73
556.686	1287.81
557.05	1276.73
557.413	1274.02
557.776	1306.56
558.139	1295.71
558.502	1274.02
558.865	1316.96
559.228	1289.61
559.59	1311.99
559.953	1311.08
560.316	1312.21
560.679	1279.22
561.041	1306.56
561.404	1304.08
561.767	1311.08
562.129	1300.23
562.492	1300.46
562.854	1339.33
563.217	1312.89
563.579	1345.2
563.941	1305.88
564.304	1327.13
564.666	1317.18
565.028	1348.82
565.39	1366.9
565.753	1362.15
566.115	1328.03
566.477	1344.75
566.839	1352.89
567.201	1330.52
567.563	1313.12
567.925	1370.97
568.287	1332.1
568.648	1335.94
569.01	1361.02
569.372	1357.41
569.734	1354.47
570.095	1370.97
570.457	1369.16
570.819	1370.74
571.18	1373.23
571.542	1357.86
571.903	1361.93
572.265	1378.42
572.626	1368.71
572.987	1377.29
573.349	1342.94
573.71	1390.18
574.071	1381.81
574.432	1366.9
574.794	1383.4
575.155	1398.31
575.516	1348.37
575.877	1379.55
576.238	1377.07
576.599	1359.89
576.96	1372.77
577.32	1346.56
577.681	1357.86
578.042	1356.05
578.403	1390.85
578.763	1383.17
579.124	1366.45
579.485	1368.71
579.845	1370.29
580.206	1361.7
580.566	1392.66
580.927	1344.3
581.287	1375.71
581.648	1365.77
582.008	1356.05
582.368	1357.41
582.728	1367.8
583.089	1360.8
583.449	1353.34
583.809	1352.66
584.169	1377.29
584.529	1378.42
584.889	1326.22
585.249	1316.5
585.609	1352.21
585.969	1363.28
586.329	1346.11
586.688	1326.67
587.048	1328.48
587.408	1323.06
587.768	1360.8
588.127	1335.94
588.487	1318.09
588.846	1331.42
589.206	1334.81
589.565	1337.75
589.925	1324.87
590.284	1333.68
590.643	1357.63
591.003	1320.57
591.362	1306.79
591.721	1300.23
592.08	1315.15
592.44	1332.78
592.799	1328.71
593.158	1316.5
593.517	1320.8
593.876	1319.44
594.235	1311.08
594.593	1314.25
594.952	1305.43
595.311	1326.67
595.67	1335.49
596.029	1325.09
596.387	1326.22
596.746	1345.2
597.104	1307.47
597.463	1328.26
597.822	1338.2
598.18	1343.62
598.538	1321.7
598.897	1324.64
599.255	1331.87
599.613	1333.45
599.972	1338.43
600.33	1343.17
600.688	1309.95
601.046	1307.69
601.404	1324.64
601.762	1337.75
602.12	1334.36
602.478	1346.79
602.836	1333.91
603.194	1333.23
603.552	1318.09
603.91	1305.21
604.268	1325.77
604.625	1338.2
604.983	1368.71
605.341	1356.73
605.698	1361.25
606.056	1342.04
606.413	1333.23
606.771	1370.51
607.128	1329.39
607.485	1339.33
607.843	1363.06
608.2	1322.61
608.557	1351.08
608.914	1350.63
609.272	1360.12
609.629	1355.37
609.986	1369.16
610.343	1363.74
610.7	1344.53
611.057	1355.83
611.414	1345.88
611.771	1360.8
612.127	1371.19
612.484	1376.16
612.841	1371.19
613.198	1330.52
613.554	1357.41
613.911	1363.28
614.267	1363.74
614.624	1378.42
614.98	1377.75
615.337	1397.41
615.693	1352.21
616.05	1380.46
616.406	1383.62
616.762	1346.79
617.118	1370.06
617.475	1383.85
617.831	1382.27
618.187	1390.85
618.543	1374.13
618.899	1369.84
619.255	1375.26
619.611	1361.48
619.967	1380.46
620.323	1378.65
620.678	1378.65
621.034	1371.42
621.39	1369.38
621.746	1383.85
622.101	1374.36
622.457	1377.07
622.812	1384.07
623.168	1351.31
623.523	1408.93
623.879	1390.85
624.234	1354.47
624.589	1380.46
624.945	1370.06
625.3	1351.76
625.655	1374.81
626.01	1374.13
626.365	1362.15
626.72	1358.99
627.075	1391.53
627.43	1362.38
627.785	1373.45
628.14	1382.49
628.495	1364.64
628.85	1384.98
629.205	1355.37
629.559	1347.24
629.914	1361.7
630.269	1386.79
630.623	1393.79
630.978	1376.39
631.332	1391.53
631.687	1337.52
632.041	1358.76
632.396	1371.42
632.75	1388.14
633.104	1375.94
633.459	1368.03
633.813	1356.5
634.167	1347.92
634.521	1353.79
634.875	1341.82
635.229	1346.79
635.583	1324.87
635.937	1331.65
636.291	1350.18
636.645	1352.66
636.999	1347.92
637.352	1335.94
637.706	1335.94
638.06	1335.49
638.413	1357.86
638.767	1345.88
639.121	1376.16
639.474	1364.41
639.828	1369.61
640.181	1344.98
640.534	1372.32
640.888	1357.41
641.241	1358.54
641.594	1353.34
641.947	1369.16
642.301	1366.67
642.654	1357.63
643.007	1354.92
643.36	1350.18
643.713	1361.7
644.066	1377.07
644.419	1339.56
644.771	1356.5
645.124	1350.85
645.477	1354.7
645.83	1323.74
646.182	1330.97
646.535	1342.94
646.888	1361.02
647.24	1315.15
647.593	1346.79
647.945	1363.28
648.298	1331.87
648.65	1377.75
649.002	1350.63
649.355	1323.51
649.707	1358.31
650.059	1381.36
650.411	1389.72
650.763	1378.42
651.115	1383.85
651.467	1375.49
651.819	1393.11
652.171	1438.08
652.523	1407.8
652.875	1395.37
653.227	1384.3
653.578	1419.1
653.93	1423.85
654.282	1408.03
654.633	1451.64
654.985	1441.93
655.337	1433.11
655.688	1444.64
656.039	1420.23
656.391	1438.08
656.742	1462.72
657.094	1471.08
657.445	1462.26
657.796	1469.04
658.147	1492.77
658.498	1478.31
658.849	1500
659.2	1496.39
659.551	1489.61
659.902	1523.73
660.253	1511.75
660.604	1516.5
660.955	1525.09
661.306	1557.18
661.656	1554.01
662.007	1546.56
662.358	1548.59
662.708	1551.3
663.059	1547.01
663.409	1576.39
663.76	1573
664.11	1578.87
664.461	1607.34
664.811	1617.51
665.161	1613.45
665.511	1615.48
665.862	1628.59
666.212	1634.69
666.562	1647.34
666.912	1646.67
667.262	1662.03
667.612	1692.09
667.962	1698.19
668.312	1708.81
668.662	1711.3
669.011	1737.74
669.361	1720.79
669.711	1758.53
670.06	1735.7
670.41	1756.04
670.76	1755.14
671.109	1797.85
671.459	1804.85
671.808	1814.12
672.157	1815.02
672.507	1841.24
672.856	1859.77
673.205	1882.59
673.554	1897.28
673.904	1899.77
674.253	1896.83
674.602	1919.2
674.951	1926.21
675.3	1911.52
675.649	1934.57
675.998	1970.95
676.346	1981.35
676.695	2008.01
677.044	2014.34
677.393	2048.24
677.741	2030.61
678.09	2058.41
678.438	2071.74
678.787	2093.43
679.135	2079.2
679.484	2145.41
679.832	2111.29
680.181	2159.42
680.529	2170.04
680.877	2172.53
681.225	2193.54
681.573	2189.7
681.922	2229.02
682.27	2258.4
682.618	2235.8
682.966	2273.32
683.314	2325.07
683.661	2328.68
684.009	2339.75
684.357	2330.26
684.705	2361.68
685.053	2377.95
685.4	2409.58
685.748	2390.83
686.095	2452.52
686.443	2462.01
686.79	2483.25
687.138	2520.32
687.485	2502.01
687.832	2485.29
688.18	2537.72
688.527	2534.1
688.874	2570.26
689.221	2596.47
689.568	2632.85
689.915	2656.58
690.262	2650.03
690.609	2681.21
690.956	2693.19
691.303	2671.5
691.65	2747.65
691.997	2755.56
692.344	2744.94
692.69	2783.13
693.037	2798.5
693.383	2804.83
693.73	2856.58
694.077	2851.15
694.423	2920.08
694.769	2911.72
695.116	2926.86
695.462	2950.81
695.808	2967.53
696.155	2986.74
696.501	2983.13
696.847	2960.53
697.193	3010.47
697.539	3059.51
697.885	3054.76
698.231	3082.11
698.577	3152.16
698.923	3141.99
699.269	3158.04
699.614	3127.76
699.96	3169.56
700.306	3187.64
700.651	3211.37
700.997	3223.8
701.342	3247.75
701.688	3283.46
702.033	3316.68
702.379	3257.47
702.724	3334.98
703.069	3375.89
703.415	3321.88
703.76	3394.19
704.105	3427.18
704.45	3440.74
704.795	3414.53
705.14	3417.47
705.485	3495.43
705.83	3466.05
706.175	3511.48
706.52	3507.86
706.865	3551.25
707.209	3537.69
707.554	3551.25
707.899	3589.44
708.243	3577.91
708.588	3601.42
708.932	3651.13
709.277	3668.99
709.621	3649.55
709.966	3664.92
710.31	3716.67
710.654	3682.32
710.998	3744.46
711.342	3742.88
711.687	3779.72
712.031	3745.59
712.375	3748.76
712.719	3805.93
713.063	3807.51
713.407	3846.83
713.75	3878.92
714.094	3882.77
714.438	3882.31
714.782	3890.67
715.125	3908.3
715.469	3891.35
715.812	3924.12
716.156	3902.88
716.499	3950.56
716.843	4017.45
717.186	3923.89
717.53	3984.91
717.873	3994.85
718.216	4035.08
718.559	4014.51
718.902	4024.91
719.246	4051.35
719.589	4049.09
719.932	4080.5
720.275	4074.17
720.617	4079.6
720.96	4105.81
721.303	4163.89
721.646	4119.6
721.989	4121.4
722.331	4158.24
722.674	4159.82
723.016	4164.57
723.359	4240.5
723.701	4217.45
724.044	4239.59
724.386	4201.4
724.729	4245.24
725.071	4235.52
725.413	4266.71
725.755	4258.57
726.097	4226.71
726.439	4237.56
726.782	4257.67
727.124	4263.77
727.465	4263.55
727.807	4257.9
728.149	4274.62
728.491	4273.04
728.833	4310.32
729.175	4309.42
729.516	4311.23
729.858	4284.11
730.199	4278.91
730.541	4333.37
730.882	4296.09
731.224	4349.19
731.565	4302.87
731.906	4337.44
732.248	4348.74
732.589	4324.11
732.93	4288.18
733.271	4327.95
733.612	4369.08
733.953	4343.32
734.294	4362.07
734.635	4363.88
734.976	4394.39
735.317	4354.17
735.658	4386.93
735.999	4370.21
736.339	4376.09
736.68	4381.51
737.021	4407.05
737.361	4374.73
737.702	4437.33
738.042	4371.11
738.383	4369.53
738.723	4369.08
739.063	4396.65
739.404	4367.27
739.744	4376.54
740.084	4332.7
740.424	4422.64
740.764	4378.8
741.104	4367.27
741.444	4358.46
741.784	4356.88
742.124	4371.34
742.464	4439.36
742.804	4373.15
743.143	4359.81
743.483	4345.58
743.823	4338.35
744.162	4359.81
744.502	4340.61
744.841	4347.16
745.181	4359.59
745.52	4402.98
745.86	4327.5
746.199	4341.74
746.538	4337.89
746.877	4385.58
747.216	4344.22
747.556	4337.89
747.895	4344.22
748.234	4341.74
748.573	4275.52
748.911	4301.06
749.25	4332.92
749.589	4289.31
749.928	4311.91
750.267	4335.86
750.605	4289.99
750.944	4295.86
751.283	4320.49
751.621	4286.6
751.96	4281.17
752.298	4231.23
752.636	4262.87
752.975	4231.91
753.313	4246.6
753.651	4285.92
753.989	4230.1
754.327	4247.5
754.666	4225.36
755.004	4253.6
755.342	4225.36
755.679	4199.14
756.017	4192.59
756.355	4217.67
756.693	4215.41
757.031	4193.27
757.368	4179.48
757.706	4147.62
758.044	4176.99
758.381	4144
758.719	4114.85
759.056	4158.92
759.394	4104.23
759.731	4096.54
760.068	4088.41
760.405	4063.78
760.743	4099.48
761.08	4096.32
761.417	4079.6
761.754	4041.63
762.091	3977
762.428	4025.81
762.765	4026.26
763.102	4053.83
763.438	3979.71
763.775	4028.07
764.112	4007.73
764.449	3980.39
764.785	3951.92
765.122	3951.24
765.458	3917.34
765.795	3905.36
766.131	3910.34
766.467	3901.97
766.804	3930.45
767.14	3919.83
767.476	3876.66
767.812	3851.13
768.148	3910.34
768.485	3862.43
768.821	3823.78
769.157	3820.62
769.492	3818.36
769.828	3843.22
770.164	3753.73
770.5	3769.55
770.836	3763.67
771.171	3754.63
771.507	3715.76
771.842	3739.49
772.178	3733.16
772.513	3701.75
772.849	3720.06
773.184	3682.77
773.519	3668.53
773.855	3671.02
774.19	3658.59
774.525	3665.14
774.86	3606.39
775.195	3658.14
775.53	3633.51
775.865	3629.21
776.2	3588.54
776.535	3565.94
776.87	3558.25
777.205	3551.25
777.539	3550.8
777.874	3543.11
778.209	3509.22
778.543	3526.84
778.878	3499.72
779.212	3474.19
779.547	3412.27
779.881	3537.69
780.215	3462.21
780.55	3449.33
780.884	3438.48
781.218	3396
781.552	3448.88
781.886	3408.65
782.22	3388.99
782.554	3387.64
782.888	3349.22
783.222	3334.53
783.556	3334.76
783.889	3341.31
784.223	3317.58
784.557	3299.73
784.89	3317.81
785.224	3298.83
785.557	3289.56
785.891	3293.63
786.224	3280.97
786.558	3263.12
786.891	3204.36
787.224	3203.23
787.557	3222.44
787.891	3218.6
788.224	3201.65
788.557	3220.18
788.89	3182.44
789.223	3202.33
789.556	3159.17
789.888	3145.61
790.221	3167.3
790.554	3172.73
790.887	3125.04
791.219	3133.86
791.552	3082.79
791.884	3105.38
792.217	3087.08
792.549	3060.19
792.882	3099.96
793.214	3055.22
793.546	3073.75
793.879	3056.12
794.211	3029.45
794.543	3017.93
794.875	3019.29
795.207	3046.18
795.539	3017.25
795.871	2991.72
796.203	2991.26
796.535	2975.67
796.867	2937.93
797.198	2935.45
797.53	2949.91
797.862	2946.97
798.193	2945.84
798.525	2969.12
798.856	2927.54
799.188	2891.6
799.519	2886.63
799.85	2817.26
800.182	2860.65
800.513	2870.36
800.844	2864.26
801.175	2868.78
801.506	2857.03
801.837	2800.76
802.168	2863.13
802.499	2838.05
802.83	2816.13
803.161	2812.74
803.491	2795.34
803.822	2804.15
804.153	2796.92
804.483	2803.02
804.814	2765.28
805.145	2770.25
805.475	2763.47
805.805	2774.55
806.136	2769.35
806.466	2791.95
806.796	2759.63
807.126	2724.6
807.457	2724.83
807.787	2719.63
808.117	2689.35
808.447	2711.95
808.777	2705.85
809.107	2725.73
809.436	2695.45
809.766	2688.45
810.096	2658.16
810.426	2665.62
810.755	2671.05
811.085	2666.07
811.414	2686.64
811.744	2645.96
812.073	2637.37
812.403	2623.36
812.732	2605.96
813.061	2621.33
813.39	2613.87
813.719	2576.81
814.049	2631.05
814.378	2609.35
814.707	2605.06
815.036	2599.18
815.365	2584.49
815.693	2577.04
816.022	2572.52
816.351	2562.12
816.68	2538.62
817.008	2548.56
817.337	2504.72
817.665	2532.97
817.994	2525.06
818.322	2511.5
818.651	2497.04
818.979	2542.69
819.307	2537.72
819.636	2518.06
819.964	2525.96
820.292	2494.78
820.62	2504.95
820.948	2512.86
821.276	2482.58
821.604	2511.73
821.932	2501.56
822.259	2520.99
822.587	2477.83
822.915	2462.01
823.243	2457.49
823.57	2475.8
823.898	2477.83
824.225	2492.29
824.553	2464.72
824.88	2505.63
825.207	2487.77
825.535	2485.97
825.862	2468.57
826.189	2462.01
826.516	2498.17
826.843	2475.8
827.17	2486.42
827.497	2490.94
827.824	2491.84
828.151	2484.16
828.478	2478.28
828.805	2483.25
829.131	2499.98
829.458	2492.75
829.785	2443.48
830.111	2445.51
830.438	2489.81
830.764	2502.01
831.09	2474.67
831.417	2459.3
831.743	2459.53
832.069	2474.44
832.395	2437.61
832.722	2481.9
833.048	2451.62
833.374	2448.9
833.7	2455.23
834.026	2443.48
834.351	2469.69
834.677	2451.62
835.003	2429.24
835.329	2452.97
835.654	2446.19
835.98	2438.06
836.306	2434.44
836.631	2471.95
836.956	2424.95
837.282	2468.57
837.607	2441
837.932	2442.35
838.258	2413.88
838.583	2438.28
838.908	2437.61
839.233	2410.26
839.558	2386.99
839.883	2380.43
840.208	2414.33
840.533	2410.94
840.858	2414.1
841.182	2425.4
841.507	2406.87
841.832	2394.22
842.156	2357.38
842.481	2386.53
842.805	2404.61
843.13	2332.07
843.454	2334.56
843.778	2353.99
844.103	2353.09
844.427	2370.49
844.751	2376.36
845.075	2365.97
845.399	2353.54
845.723	2315.57
846.047	2328.91
846.371	2307.89
846.695	2302.24
847.019	2256.14
847.343	2272.19
847.666	2253.66
847.99	2258.4
848.313	2240.77
848.637	2281.68
848.96	2278.97
849.284	2242.58
849.607	2248.23
849.931	2231.51
850.254	2222.47
850.577	2179.08
850.9	2180.44
851.223	2211.85
851.546	2179.31
851.869	2185.18
852.192	2187.44
852.515	2165.75
852.838	2144.05
853.161	2170.95
853.483	2130.27
853.806	2146.31
854.129	2128.46
854.451	2104.96
854.774	2151.74
855.096	2142.02
855.419	2108.35
855.741	2112.64
856.063	2097.5
856.385	2071.06
856.708	2070.16
857.03	2085.52
857.352	2084.39
857.674	2040.78
857.996	2063.83
858.318	2073.1
858.64	2056.82
858.961	2045.98
859.283	2057.05
859.605	2038.52
859.926	2056.15
860.248	2032.87
860.57	2010.27
860.891	2023.15
861.212	2026.32
861.534	2017.73
861.855	2004.17
862.176	1998.75
862.498	1999.42
862.819	1997.17
863.14	2011.18
863.461	2012.53
863.782	2017.28
864.103	1984.06
864.424	1999.88
864.745	1973.89
865.065	1968.47
865.386	1965.3
865.707	1962.82
866.027	1976.83
866.348	1951.52
866.668	1963.72
866.989	1943.38
867.309	1968.69
867.63	1950.61
867.95	1962.59
868.27	1943.83
868.59	1947.45
868.91	1961.23
869.23	1947.22
869.55	1921.23
869.87	1949.71
870.19	1933.44
870.51	1895.25
870.83	1943.38
871.15	1898.86
871.469	1913.78
871.789	1927.79
872.109	1929.82
872.428	1903.16
872.748	1922.14
873.067	1933.89
873.386	1898.18
873.706	1907
874.025	1888.47
874.344	1867.22
874.663	1892.08
874.982	1899.09
875.301	1858.19
875.62	1892.99
875.939	1892.53
876.258	1879.2
876.577	1885.76
876.896	1879.65
877.214	1870.16
877.533	1873.78
877.852	1865.87
878.17	1851.18
878.489	1848.69
878.807	1866.55
879.125	1862.03
879.444	1865.64
879.762	1837.17
880.08	1877.62
880.398	1874
880.716	1845.3
881.034	1841.24
881.352	1847.11
881.67	1846.43
881.988	1838.98
882.306	1817.51
882.624	1843.27
882.941	1816.38
883.259	1819.99
883.577	1840.56
883.894	1804.18
884.212	1828.36
884.529	1806.89
884.846	1793.78
885.164	1830.16
885.481	1794.23
885.798	1796.49
886.115	1788.13
886.432	1793.33
886.75	1775.48
887.067	1766.21
887.383	1788.81
887.7	1776.38
888.017	1793.78
888.334	1755.82
888.651	1772.99
888.967	1747.45
889.284	1751.3
889.6	1749.71
889.917	1747
890.233	1740
890.55	1741.13
890.866	1751.97
891.182	1740.9
891.498	1728.25
891.815	1722.6
892.131	1712.2
892.447	1695.48
892.763	1704.52
893.079	1722.6
893.395	1709.94
893.71	1672.65
894.026	1660.9
894.342	1681.02
894.657	1689.15
894.973	1667.91
895.289	1655.25
895.604	1686.66
895.92	1677.17
896.235	1684.63
896.55	1666.33
896.865	1653.9
897.181	1634.46
897.496	1659.77
897.811	1657.51
898.126	1635.82
898.441	1645.54
898.756	1608.7
899.071	1631.52
899.386	1603.05
899.7	1602.83
900.015	1617.74
900.33	1585.2
900.644	1580.45
900.959	1586.33
901.273	1599.66
901.588	1584.07
901.902	1563.28
902.216	1578.87
902.531	1570.96
902.845	1560.11
903.159	1576.16
903.473	1561.7
903.787	1540.23
904.101	1539.1
904.415	1539.78
904.729	1527.35
905.042	1515.14
905.356	1523.96
905.67	1517.86
905.984	1523.05
906.297	1516.5
906.611	1501.13
906.924	1530.28
907.237	1494.58
907.551	1500.45
907.864	1497.74
908.177	1486.67
908.491	1479.89
908.804	1445.09
909.117	1459.55
909.43	1470.4
909.743	1465.43
910.056	1477.18
910.368	1452.09
910.681	1430.63
910.994	1431.53
911.307	1441.7
911.619	1439.89
911.932	1437.41
912.244	1415.26
912.557	1421.59
912.869	1427.69
913.181	1428.14
913.494	1431.53
913.806	1392.66
914.118	1375.71
914.43	1361.7
914.742	1408.48
915.054	1359.89
915.366	1377.52
915.678	1376.16
915.99	1350.63
916.302	1331.19
916.613	1390.4
916.925	1338.88
917.236	1369.38
917.548	1334.81
917.859	1349.27
918.171	1338.88
918.482	1332.32
918.794	1359.22
919.105	1303.4
919.416	1302.49
919.727	1316.05
920.038	1322.83
920.349	1310.4
920.66	1319.67
920.971	1281.93
921.282	1295.71
921.593	1283.29
921.903	1273.34
922.214	1276.96
922.525	1274.47
922.835	1276.28
923.146	1274.02
923.456	1250.97
923.767	1250.74
924.077	1256.39
924.387	1263.85
924.697	1237.64
925.008	1236.51
925.318	1255.94
925.628	1238.09
925.938	1216.62
926.248	1234.93
926.558	1227.47
926.867	1225.89
927.177	1201.25
927.487	1202.84
927.796	1204.42
928.106	1232.44
928.416	1227.92
928.725	1188.82
929.034	1191.76
929.344	1190.41
929.653	1178.66
929.962	1165.1
930.271	1195.6
930.581	1187.69
930.89	1183.85
931.199	1180.46
931.508	1156.74
931.817	1180.24
932.125	1181.37
932.434	1167.58
932.743	1137.3
933.051	1137.98
933.36	1141.14
933.669	1154.25
933.977	1128.49
934.286	1107.7
934.594	1147.02
934.902	1135.94
935.21	1137.98
935.519	1139.33
935.827	1120.58
936.135	1088.94
936.443	1112.67
936.751	1094.36
937.059	1102.73
937.367	1097.08
937.674	1076.06
937.982	1101.37
938.29	1055.27
938.597	1102.5
938.905	1049.62
939.213	1085.32
939.52	1083.97
939.827	1072.67
940.135	1067.47
940.442	1059.79
940.749	1083.97
941.056	1062.27
941.363	1062.73
941.67	1029.51
941.977	1039.22
942.284	1050.98
942.591	1056.85
942.898	1048.94
943.205	1043.74
943.511	1031.54
943.818	1031.31
944.125	1001.03
944.431	1018.66
944.738	1024.31
945.044	1028.15
945.35	1008.72
945.657	993.35
945.963	1002.39
946.269	986.8
946.575	982.73
946.881	996.97
947.187	986.57
947.493	993.12
947.799	968.49
948.105	977.08
948.41	965.78
948.716	981.82
949.022	959.23
949.327	952.22
949.633	939.57
949.938	968.72
950.244	949.73
950.549	957.42
950.854	965.33
951.16	934.59
951.465	927.36
951.77	945.22
952.075	933.01
952.38	918.78
952.685	929.85
952.99	930.07
953.294	921.04
953.599	898.66
953.904	891.21
954.209	907.7
954.513	914.03
954.818	926.68
955.122	919.68
955.426	897.08
955.731	887.14
956.035	900.47
956.339	907.02
956.643	919
956.948	891.21
957.252	884.43
957.556	895.27
957.86	876.74
958.163	870.41
958.467	890.75
958.771	853.24
959.075	867.48
959.378	881.49
959.682	874.48
959.985	871.09
960.289	853.92
960.592	850.3
960.896	868.61
961.199	862.05
961.502	853.69
961.805	852.79
962.108	846.01
962.411	843.75
962.714	854.14
963.017	847.14
963.32	852.34
963.623	810.3
963.926	836.74
964.228	838.33
964.531	839
964.833	860.25
965.136	818.21
965.438	836.29
965.741	776.41
966.043	807.59
966.345	806.46
966.648	827.7
966.95	810.53
967.252	788.16
967.554	779.57
967.856	820.92
968.158	803.52
968.46	795.16
968.761	816.18
969.063	785.22
969.365	790.19
969.666	817.08
969.968	767.14
970.269	785.22
970.571	797.87
970.872	791.1
971.174	804.43
971.475	768.95
971.776	773.69
972.077	776.63
972.378	785.45
972.679	773.69
972.98	753.13
973.281	753.36
973.582	772.79
973.883	775.5
974.183	739.34
974.484	732.79
974.785	745.9
975.085	726.24
975.386	731.66
975.686	734.37
975.986	752.23
976.287	759.46
976.587	749.06
976.887	748.16
977.187	725.33
977.487	719.23
977.787	739.34
978.087	723.3
978.387	726.69
978.687	714.49
978.987	723.53
979.286	725.11
979.586	732.79
979.885	723.75
980.185	707.93
980.484	731.21
980.784	709.74
981.083	718.1
981.382	731.21
981.682	710.19
981.981	714.49
982.28	700.93
982.579	723.98
982.878	679.69
983.177	696.41
983.475	706.58
983.774	653.47
984.073	699.8
984.372	683.75
984.67	691.89
984.969	681.04
985.267	665.9
985.566	686.01
985.864	695.05
986.162	677.43
986.461	660.7
986.759	681.72
987.057	668.84
987.355	683.98
987.653	687.37
987.951	671.78
988.249	664.09
988.547	671.78
988.844	682.62
989.142	648.05
989.44	639.23
989.737	656.41
990.035	661.15
990.332	655.51
990.63	672
990.927	638.56
991.224	628.39
991.521	655.28
991.819	657.09
992.116	655.96
992.413	646.92
992.71	643.08
993.006	618.44
993.303	642.17
993.6	627.48
993.897	635.39
994.193	634.94
994.49	634.49
994.787	594.49
995.083	610.53
995.379	622.96
995.676	626.81
995.972	614.38
996.268	631.55
996.565	602.63
996.861	611.66
997.157	618.22
997.453	614.83
997.749	587.26
998.044	586.35
998.34	603.08
998.636	613.02
998.932	581.61
999.227	583.19
999.523	618.44
999.818	589.74
1000.114	603.3
1000.409	579.35
1000.704	580.93
1001	584.32
1001.295	590.2
1001.59	572.34
1001.885	584.77
1002.18	598.78
1002.475	570.31
1002.77	559.69
1003.065	557.2
1003.359	594.04
1003.654	574.83
1003.949	560.14
1004.243	570.08
1004.538	549.52
1004.832	570.99
1005.127	560.14
1005.421	558.56
1005.715	560.59
1006.009	562.4
1006.304	552.01
1006.598	562.17
1006.892	538.22
1007.186	549.97
1007.48	560.59
1007.773	533.93
1008.067	552.01
1008.361	552.01
1008.655	545.68
1008.948	535.51
1009.242	562.17
1009.535	529.41
1009.829	556.3
1010.122	534.15
1010.415	521.95
1010.708	540.71
1011.001	533.93
1011.295	520.82
1011.588	523.53
1011.881	514.49
1012.173	513.59
1012.466	509.07
1012.759	514.72
1013.052	526.02
1013.344	500.71
1013.637	497.09
1013.93	512.01
1014.222	511.55
1014.514	500.26
1014.807	529.86
1015.099	522.18
1015.391	500.71
1015.683	505.23
1015.976	517.2
1016.268	511.78
1016.56	495.51
1016.851	501.61
1017.143	499.35
1017.435	485.34
1017.727	500.71
1018.018	492.35
1018.31	483.76
1018.602	493.25
1018.893	489.63
1019.185	478.11
1019.476	476.3
1019.767	498.9
1020.058	505.45
1020.35	478.79
1020.641	477.43
1020.932	479.24
1021.223	466.81
1021.514	494.83
1021.804	471.56
1022.095	469.97
1022.386	496.87
1022.677	466.36
1022.967	451.89
1023.258	442.4
1023.548	466.81
1023.839	461.84
1024.129	475.62
1024.419	473.14
1024.709	450.09
1025	463.65
1025.29	463.87
1025.58	463.19
1025.87	448.28
1026.16	456.41
1026.449	456.41
1026.739	474.49
1027.029	447.38
1027.319	458.45
1027.608	455.96
1027.898	443.76
1028.187	458
1028.477	430.88
1028.766	447.38
1029.055	455.51
1029.344	451.67
1029.634	442.86
1029.923	436.3
1030.212	450.31
1030.501	440.14
1030.79	416.87
1031.078	415.96
1031.367	435.62
1031.656	423.87
1031.945	429.52
1032.233	407.38
1032.522	431.1
1032.81	420.48
1033.099	433.59
1033.387	438.11
1033.675	424.33
1033.963	427.26
1034.251	420.03
1034.54	424.1
1034.828	416.19
1035.116	416.42
1035.403	402.63
1035.691	421.39
1035.979	414.16
1036.267	406.7
1036.554	389.3
1036.842	406.47
1037.129	424.1
1037.417	418.22
1037.704	407.38
1037.992	410.77
1038.279	416.42
1038.566	395.85
1038.853	395.85
1039.14	395.85
