Data from carpet_green_FLMS001491_00019.txt Node
Date: Wed Feb 08 10:34:59 GMT 2017
User: dcchb
Spectrometer: FLMS00149
Trigger mode: 0
Integration Time (sec): 2.000000E-2
Scans to average: 10
Electric dark correction enabled: true
Nonlinearity correction enabled: false
Boxcar width: 0
XAxis mode: Wavelengths
Number of Pixels in Spectrum: 2048
>>>>>Begin Spectral Data<<<<<
341.393	-16.27
341.776	-16.27
342.16	-16.27
342.543	-50.85
342.927	-63.5
343.31	-75.03
343.693	-86.33
344.077	-60.79
344.46	-58.53
344.843	-44.74
345.226	-45.87
345.61	-47.91
345.993	-2.71
346.376	8.59
346.759	21.02
347.142	22.82
347.525	47.23
347.908	58.08
348.291	78.87
348.674	80
349.057	105.31
349.44	128.58
349.823	114.57
350.206	152.54
350.588	184.85
350.971	189.83
351.354	209.94
351.737	211.07
352.119	228.69
352.502	224.85
352.884	243.16
353.267	262.37
353.65	280.9
354.032	272.99
354.414	265.53
354.797	272.08
355.179	294.23
355.562	289.71
355.944	291.07
356.326	303.04
356.709	301.24
357.091	312.76
357.473	303.27
357.855	299.43
358.238	291.52
358.62	310.5
359.002	307.34
359.384	295.59
359.766	293.1
360.148	312.08
360.53	312.99
360.912	333.32
361.294	300.33
361.676	318.18
362.057	310.73
362.439	282.25
362.821	312.08
363.203	300.11
363.584	299.88
363.966	300.56
364.348	294.91
364.729	287.9
365.111	304.62
365.493	302.14
365.874	285.19
366.256	295.81
366.637	284.96
367.019	293.55
367.4	289.26
367.781	282.7
368.163	278.86
368.544	294.68
368.925	265.76
369.306	268.69
369.688	284.51
370.069	265.76
370.45	270.95
370.831	285.42
371.212	261.24
371.593	282.48
371.974	265.98
372.355	278.41
372.736	287.45
373.117	264.4
373.498	258.3
373.879	280.9
374.26	261.01
374.641	274.34
375.021	275.92
375.402	296.94
375.783	267.11
376.163	266.89
376.544	292.87
376.925	269.15
377.305	275.7
377.686	273.89
378.066	290.16
378.447	276.83
378.827	282.25
379.208	290.84
379.588	275.47
379.968	269.37
380.349	273.21
380.729	285.87
381.109	269.6
381.489	279.77
381.87	284.29
382.25	294.68
382.63	276.15
383.01	291.07
383.39	282.7
383.77	286.09
384.15	291.74
384.53	293.1
384.91	291.29
385.29	284.74
385.67	286.55
386.049	314.79
386.429	283.83
386.809	288.81
387.189	307.79
387.568	306.88
387.948	298.52
388.328	285.64
388.707	294.46
389.087	286.77
389.466	294.23
389.846	315.47
390.225	305.98
390.605	291.97
390.984	284.96
391.363	304.85
391.743	271.18
392.122	298.07
392.501	297.39
392.881	291.29
393.26	319.54
393.639	278.41
394.018	298.3
394.397	307.56
394.776	300.78
395.155	305.3
395.534	315.92
395.913	313.44
396.292	304.62
396.671	309.82
397.05	322.25
397.429	304.85
397.808	312.53
398.186	300.56
398.565	302.82
398.944	306.66
399.323	309.14
399.701	300.11
400.08	303.04
400.458	322.48
400.837	312.31
401.215	318.18
401.594	309.6
401.972	310.73
402.351	295.13
402.729	318.18
403.107	311.86
403.486	308.24
403.864	324.51
404.242	338.3
404.62	329.48
404.999	319.99
405.377	323.16
405.755	312.76
406.133	324.29
406.511	320.22
406.889	329.03
407.267	310.73
407.645	327.45
408.023	318.41
408.401	297.17
408.779	300.56
409.156	326.09
409.534	319.99
409.912	331.74
410.29	348.92
410.667	331.06
411.045	319.77
411.422	310.5
411.8	309.37
412.178	324.29
412.555	329.93
412.933	324.74
413.31	318.41
413.687	318.18
414.065	336.04
414.442	322.25
414.819	308.69
415.197	347.34
415.574	323.38
415.951	338.3
416.328	329.93
416.705	332.87
417.082	310.05
417.46	322.93
417.837	343.95
418.214	329.26
418.591	344.85
418.967	319.09
419.344	323.61
419.721	338.3
420.098	330.61
420.475	339.65
420.852	320.67
421.228	338.75
421.605	312.08
421.982	335.13
422.358	332.87
422.735	343.49
423.111	346.88
423.488	346.88
423.864	331.29
424.241	340.78
424.617	329.93
424.994	336.94
425.37	347.56
425.746	338.97
426.123	344.85
426.499	358.41
426.875	327.68
427.251	344.62
427.627	328.58
428.003	347.56
428.379	367.9
428.756	359.31
429.132	342.36
429.507	354.11
429.883	353.21
430.259	349.14
430.635	361.8
431.011	345.75
431.387	346.88
431.763	346.43
432.138	353.66
432.514	343.49
432.89	338.07
433.265	342.14
433.641	373.55
434.016	371.29
434.392	343.04
434.767	370.39
435.143	369.48
435.518	367.9
435.894	368.13
436.269	386.2
436.644	367.45
437.02	361.35
437.395	380.1
437.77	378.75
438.145	374.23
438.52	339.65
438.895	380.78
439.271	359.31
439.646	386.2
440.021	375.36
440.395	376.49
440.77	362.93
441.145	382.36
441.52	387.79
441.895	391.85
442.27	364.74
442.645	379.88
443.019	378.52
443.394	386.66
443.769	378.52
444.143	392.98
444.518	382.14
444.892	395.24
445.267	405.19
445.641	404.96
446.016	381.23
446.39	388.24
446.764	398.18
447.139	402.25
447.513	387.11
447.887	400.22
448.262	399.31
448.636	391.18
449.01	400.44
449.384	400.44
449.758	402.48
450.132	396.15
450.506	422.36
450.88	419.42
451.254	419.42
451.628	398.63
452.002	409.71
452.376	427.79
452.75	444.51
453.123	426.43
453.497	407.45
453.871	411.74
454.244	422.81
454.618	420.78
454.992	435.02
455.365	420.78
455.739	433.43
456.112	444.28
456.486	428.01
456.859	444.06
457.232	433.43
457.606	428.01
457.979	429.59
458.352	442.02
458.725	446.09
459.099	439.31
459.472	445.64
459.845	456.94
460.218	456.94
460.591	439.31
460.964	441.12
461.337	435.02
461.71	476.15
462.083	465.98
462.456	449.03
462.829	444.28
463.201	474.11
463.574	448.8
463.947	457.16
464.32	457.84
464.692	485.64
465.065	486.31
465.438	470.72
465.81	481.57
466.183	486.99
466.555	474.79
466.928	496.48
467.3	489.48
467.672	484.73
468.045	494.22
468.417	495.13
468.789	491.51
469.161	513.21
469.534	504.85
469.906	512.98
470.278	526.31
470.65	529.03
471.022	515.69
471.394	527.67
471.766	516.6
472.138	521.12
472.51	547.1
472.882	528.8
473.253	536.94
473.625	562.25
473.997	543.49
474.369	563.15
474.74	579.19
475.112	549.36
475.484	585.3
475.855	575.58
476.227	587.78
476.598	578.06
476.97	598.18
477.341	595.01
477.713	599.76
478.084	624.62
478.455	638.85
478.827	608.8
479.198	610.83
479.569	625.75
479.94	637.27
480.311	630.27
480.682	633.88
481.053	660.55
481.424	672.75
481.795	653.09
482.166	660.32
482.537	672.75
482.908	700.09
483.279	685.41
483.65	707.1
484.021	709.36
484.391	710.26
484.762	731.51
485.133	733.77
485.503	726.53
485.874	718.85
486.244	736.25
486.615	743.26
486.985	752.3
487.356	783.71
487.726	773.54
488.097	778.96
488.467	789.36
488.837	799.75
489.207	804.05
489.578	810.6
489.948	811.28
490.318	787.32
490.688	826.42
491.058	827.77
491.428	823.03
491.798	843.59
492.168	862.35
492.538	830.03
492.908	874.33
493.278	877.94
493.648	884.72
494.017	866.64
494.387	881.33
494.757	879.75
495.126	893.31
495.496	893.76
495.866	909.13
496.235	926.76
496.605	876.36
496.974	933.08
497.344	917.49
497.713	909.13
498.082	936.92
498.452	935.34
498.821	921.78
499.19	936.92
499.559	961.56
499.928	928.11
500.298	955.46
500.667	941.9
501.036	946.19
501.405	946.87
501.774	972.86
502.143	991.84
502.512	962.23
502.88	969.69
503.249	996.81
503.618	981.67
503.987	948
504.356	1004.04
504.724	987.09
505.093	995
505.462	1008.34
505.83	1026.41
506.199	997.04
506.567	1003.82
506.936	1038.39
507.304	1021.22
507.672	1023.93
508.041	1060.99
508.409	1040.2
508.777	1009.69
509.145	1060.99
509.514	1050.59
509.882	1060.31
510.25	1070.48
510.618	1057.37
510.986	1052.85
511.354	1069.58
511.722	1094.43
512.09	1109.8
512.458	1082.23
512.826	1065.96
513.193	1070.03
513.561	1101.44
513.929	1098.05
514.297	1138.05
514.664	1079.97
515.032	1110.93
515.4	1117.26
515.767	1117.26
516.135	1131.04
516.502	1093.53
516.869	1124.04
517.237	1115.68
517.604	1138.73
517.972	1108.45
518.339	1139.18
518.706	1141.89
519.073	1140.76
519.44	1157.26
519.808	1163.13
520.175	1145.05
520.542	1156.35
520.909	1177.6
521.276	1179.4
521.643	1201.78
522.009	1180.76
522.376	1187.77
522.743	1192.29
523.11	1198.61
523.477	1203.36
523.843	1221.66
524.21	1194.09
524.577	1181.89
524.943	1201.55
525.31	1219.18
525.676	1230.93
526.043	1242.91
526.409	1205.17
526.776	1226.41
527.142	1236.13
527.508	1233.64
527.874	1245.84
528.241	1260.08
528.607	1226.86
528.973	1226.86
529.339	1248.1
529.705	1256.92
530.071	1281.55
530.437	1283.58
530.803	1284.71
531.169	1280.87
531.535	1267.76
531.901	1268.44
532.267	1279.29
532.632	1296.24
532.998	1262.34
533.364	1318.84
533.73	1272.73
534.095	1322
534.461	1290.14
534.826	1316.8
535.192	1295.11
535.557	1295.56
535.923	1285.16
536.288	1282
536.653	1304.15
537.019	1307.76
537.384	1330.59
537.749	1318.38
538.114	1291.94
538.479	1297.59
538.845	1347.31
539.21	1336.01
539.575	1279.74
539.94	1294.66
540.305	1284.94
540.67	1333.52
541.034	1325.16
541.399	1320.19
541.764	1304.6
542.129	1325.39
542.494	1279.51
542.858	1286.75
543.223	1296.24
543.587	1361.09
543.952	1315.9
544.316	1289.23
544.681	1339.4
545.045	1307.31
545.41	1315.22
545.774	1316.58
546.138	1316.8
546.503	1318.61
546.867	1309.57
547.231	1334.2
547.595	1292.17
547.959	1329.68
548.324	1335.33
548.688	1335.33
549.052	1338.27
549.416	1339.4
549.779	1328.1
550.143	1335.56
550.507	1361.09
550.871	1327.42
551.235	1352.28
551.599	1351.38
551.962	1332.39
552.326	1326.97
552.689	1344.82
553.053	1329
553.417	1330.13
553.78	1334.2
554.143	1336.24
554.507	1351.83
554.87	1338.72
555.234	1350.92
555.597	1330.13
555.96	1326.07
556.323	1363.58
556.686	1337.82
557.05	1368.78
557.413	1386.86
557.776	1377.36
558.139	1357.03
558.502	1362.45
558.865	1399.74
559.228	1379.17
559.59	1375.78
559.953	1387.31
560.316	1387.31
560.679	1393.86
561.041	1396.12
561.404	1385.5
561.767	1406.06
562.129	1378.72
562.492	1384.14
562.854	1403.58
563.217	1413.75
563.579	1410.81
563.941	1404.03
564.304	1442.9
564.666	1397.7
565.028	1408.78
565.39	1405.16
565.753	1404.71
566.115	1453.75
566.477	1426.63
566.839	1431.37
567.201	1423.92
567.563	1411.49
567.925	1453.52
568.287	1439.28
568.648	1447.42
569.01	1395.22
569.372	1437.93
569.734	1434.31
570.095	1449
570.457	1450.13
570.819	1423.69
571.18	1431.37
571.542	1442.9
571.903	1450.58
572.265	1458.94
572.626	1440.19
572.987	1449.91
573.349	1474.31
573.71	1448.55
574.071	1426.4
574.432	1459.85
574.794	1469.57
575.155	1473.18
575.516	1423.24
575.877	1470.47
576.238	1463.24
576.599	1459.85
576.96	1447.42
577.32	1470.47
577.681	1464.59
578.042	1452.84
578.403	1454.65
578.763	1449.91
579.124	1450.13
579.485	1443.35
579.845	1437.7
580.206	1441.09
580.566	1434.76
580.927	1446.29
581.287	1453.3
581.648	1459.85
582.008	1425.27
582.368	1427.08
582.728	1431.83
583.089	1462.11
583.449	1456.46
583.809	1418.95
584.169	1418.49
584.529	1417.59
584.889	1415.33
585.249	1426.18
585.609	1419.62
585.969	1431.6
586.329	1402.67
586.688	1393.41
587.048	1399.96
587.408	1397.7
587.768	1406.74
588.127	1400.87
588.487	1385.05
588.846	1426.18
589.206	1379.62
589.565	1395.67
589.925	1415.56
590.284	1372.85
590.643	1371.94
591.003	1420.98
591.362	1414.88
591.721	1378.95
592.08	1402.45
592.44	1402.67
592.799	1371.04
593.158	1378.27
593.517	1399.29
593.876	1417.59
594.235	1390.47
594.593	1366.97
594.952	1384.14
595.311	1383.24
595.67	1409.68
596.029	1392.73
596.387	1409.91
596.746	1398.61
597.104	1403.13
597.463	1382.56
597.822	1396.12
598.18	1366.07
598.538	1375.33
598.897	1409.91
599.255	1395.44
599.613	1403.8
599.972	1389.57
600.33	1386.4
600.688	1402
601.046	1409.68
601.404	1382.11
601.762	1377.82
602.12	1369.68
602.478	1410.58
602.836	1448.32
603.194	1385.95
603.552	1386.63
603.91	1387.76
604.268	1406.74
604.625	1405.16
604.983	1419.85
605.341	1402.9
605.698	1397.03
606.056	1425.27
606.413	1406.29
606.771	1400.19
607.128	1389.57
607.485	1424.82
607.843	1403.58
608.2	1424.37
608.557	1413.97
608.914	1434.54
609.272	1417.36
609.629	1453.07
609.986	1443.58
610.343	1433.41
610.7	1427.53
611.057	1411.26
611.414	1423.47
611.771	1456.46
612.127	1444.26
612.484	1420.3
612.841	1458.72
613.198	1443.13
613.554	1446.06
613.911	1439.74
614.267	1444.93
614.624	1451.94
614.98	1470.92
615.337	1460.07
615.693	1434.54
616.05	1465.95
616.406	1453.75
616.762	1461.2
617.118	1430.02
617.475	1452.62
617.831	1444.26
618.187	1461.66
618.543	1432.73
618.899	1462.56
619.255	1425.27
619.611	1465.05
619.967	1471.83
620.323	1461.43
620.678	1459.62
621.034	1466.18
621.39	1469.57
621.746	1463.24
622.101	1480.41
622.457	1445.61
622.812	1481.77
623.168	1436.35
623.523	1445.84
623.879	1438.38
624.234	1462.79
624.589	1456.46
624.945	1426.4
625.3	1513.18
625.655	1455.33
626.01	1450.13
626.365	1434.31
626.72	1446.74
627.075	1478.83
627.43	1477.02
627.785	1437.7
628.14	1443.35
628.495	1447.87
628.85	1419.17
629.205	1443.35
629.559	1448.32
629.914	1427.76
630.269	1436.12
630.623	1450.58
630.978	1430.47
631.332	1434.99
631.687	1441.54
632.041	1441.32
632.396	1432.73
632.75	1444.48
633.104	1428.21
633.459	1449
633.813	1428.66
634.167	1420.98
634.521	1461.43
634.875	1434.99
635.229	1445.84
635.583	1433.41
635.937	1420.08
636.291	1444.48
636.645	1423.92
636.999	1416.69
637.352	1420.75
637.706	1388.21
638.06	1423.47
638.413	1425.27
638.767	1399.96
639.121	1449.91
639.474	1422.56
639.828	1428.89
640.181	1430.7
640.534	1425.5
640.888	1415.78
641.241	1428.44
641.594	1444.26
641.947	1438.38
642.301	1400.19
642.654	1393.18
643.007	1466.4
643.36	1420.75
643.713	1444.71
644.066	1425.27
644.419	1421.66
644.771	1413.3
645.124	1429.11
645.477	1433.41
645.83	1399.06
646.182	1398.61
646.535	1409.91
646.888	1429.11
647.24	1423.47
647.593	1437.93
647.945	1449.45
648.298	1457.14
648.65	1449.68
649.002	1429.79
649.355	1455.33
649.707	1405.39
650.059	1451.71
650.411	1454.65
650.763	1460.98
651.115	1485.16
651.467	1490.36
651.819	1495.33
652.171	1507.53
652.523	1491.94
652.875	1487.42
653.227	1485.38
653.578	1506.4
653.93	1492.84
654.282	1498.04
654.633	1521.32
654.985	1514.31
655.337	1526.51
655.688	1521.54
656.039	1531.26
656.391	1549.56
656.742	1543.46
657.094	1554.08
657.445	1534.2
657.796	1556.57
658.147	1567.42
658.498	1587.53
658.849	1579.85
659.2	1590.69
659.551	1587.53
659.902	1590.47
660.253	1571.03
660.604	1623.91
660.955	1625.95
661.306	1635.89
661.656	1657.58
662.007	1657.13
662.358	1646.28
662.708	1684.93
663.059	1714.53
663.409	1681.76
663.76	1735.1
664.11	1692.38
664.461	1722.44
664.811	1720.18
665.161	1714.08
665.511	1714.98
665.862	1774.42
666.212	1748.88
666.562	1771.25
666.912	1775.77
667.262	1793.63
667.612	1771.7
667.962	1794.76
668.312	1819.61
668.662	1820.52
669.011	1834.98
669.361	1842.21
669.711	1864.58
670.06	1839.27
670.41	1848.09
670.76	1870.91
671.109	1910.46
671.459	1922.44
671.808	1901.19
672.157	1935.99
672.507	1939.61
672.856	1939.61
673.205	1975.09
673.554	1963.11
673.904	1962.21
674.253	1997.69
674.602	2016.44
674.951	2021.87
675.3	2046.73
675.649	2027.29
675.998	2070
676.346	2076.1
676.695	2089.21
677.044	2110.9
677.393	2104.35
677.741	2128.76
678.09	2157.01
678.438	2117.23
678.787	2149.55
679.135	2182.54
679.484	2198.13
679.832	2206.95
680.181	2208.98
680.529	2238.81
680.877	2232.71
681.225	2242.88
681.573	2267.29
681.922	2273.16
682.27	2308.87
682.618	2311.58
682.966	2309.09
683.314	2347.73
683.661	2386.83
684.009	2356.32
684.357	2378.02
684.705	2362.42
685.053	2432.93
685.4	2411.24
685.748	2419.15
686.095	2439.71
686.443	2461.18
686.79	2444.23
687.138	2481.97
687.485	2524.45
687.832	2487.62
688.18	2493.72
688.527	2534.4
688.874	2535.3
689.221	2568.29
689.568	2606.49
689.915	2595.41
690.262	2570.1
690.609	2644.45
690.956	2575.98
691.303	2630.44
691.65	2626.82
691.997	2632.47
692.344	2638.8
692.69	2722.19
693.037	2686.94
693.383	2681.96
693.73	2711.57
694.077	2722.64
694.423	2751.11
694.769	2736.65
695.116	2765.8
695.462	2788.85
695.808	2777.1
696.155	2818.23
696.501	2818.01
696.847	2809.19
697.193	2803.99
697.539	2848.96
697.885	2841.28
698.231	2893.71
698.577	2870.66
698.923	2868.17
699.269	2875.18
699.614	2910.88
699.96	2911.11
700.306	2934.84
700.651	2945.01
700.997	2946.36
701.342	2919.25
701.688	2992.69
702.033	2982.29
702.379	2976.64
702.724	3003.76
703.069	3010.09
703.415	3000.15
703.76	3060.94
704.105	3035.85
704.45	3072.69
704.795	3069.75
705.14	3086.02
705.485	3069.07
705.83	3069.3
706.175	3115.62
706.52	3130.77
706.865	3112.46
707.209	3083.08
707.554	3124.66
707.899	3134.15
708.243	3124.89
708.588	3156.3
708.932	3135.28
709.277	3175.51
709.621	3178.22
709.966	3223.64
710.31	3213.93
710.654	3207.6
710.998	3192.91
711.342	3234.27
711.687	3239.01
712.031	3211.67
712.375	3218.45
712.719	3252.12
713.063	3210.54
713.407	3252.57
713.75	3256.86
714.094	3293.02
714.438	3282.63
714.782	3284.66
715.125	3284.43
715.469	3342.51
715.812	3318.78
716.156	3327.6
716.499	3344.54
716.843	3337.54
717.186	3275.85
717.53	3348.61
717.873	3385
718.216	3352
718.559	3357.43
718.902	3343.87
719.246	3401.49
719.589	3366.69
719.932	3362.4
720.275	3379.12
720.617	3362.62
720.96	3414.15
721.303	3408.27
721.646	3426.35
721.989	3370.31
722.331	3418.67
722.674	3395.84
723.016	3387.93
723.359	3406.01
723.701	3415.96
724.044	3396.07
724.386	3419.12
724.729	3429.06
725.071	3459.12
725.413	3447.82
725.755	3429.97
726.097	3424.99
726.439	3384.54
726.782	3431.32
727.124	3413.24
727.465	3479.46
727.807	3445.79
728.149	3417.99
728.491	3464.77
728.833	3412.79
729.175	3461.83
729.516	3425.22
729.858	3459.12
730.199	3422.73
730.541	3447.37
730.882	3470.87
731.224	3448.5
731.565	3458.21
731.906	3441.94
732.248	3472.23
732.589	3468.84
732.93	3478.33
733.271	3417.99
733.612	3495.95
733.953	3489.4
734.294	3441.04
734.635	3460.93
734.976	3463.64
735.317	3447.82
735.658	3453.02
735.999	3424.09
736.339	3430.19
736.68	3465.45
737.021	3481.49
737.361	3482.39
737.702	3432.68
738.042	3450.08
738.383	3475.39
738.723	3468.61
739.063	3467.25
739.404	3418.44
739.744	3433.13
740.084	3421.83
740.424	3466.58
740.764	3446.46
741.104	3473.13
741.444	3433.58
741.784	3439.23
742.124	3419.57
742.464	3410.76
742.804	3432.9
743.143	3444.88
743.483	3402.85
743.823	3407.59
744.162	3409.63
744.502	3399.01
744.841	3419.57
745.181	3457.08
745.52	3434.49
745.86	3384.77
746.199	3436.29
746.538	3362.85
746.877	3403.53
747.216	3400.14
747.556	3368.5
747.895	3407.82
748.234	3386.58
748.573	3392.45
748.911	3376.41
749.25	3380.48
749.589	3330.99
749.928	3379.35
750.267	3392.68
750.605	3368.72
750.944	3370.76
751.283	3347.93
751.621	3350.65
751.96	3326.47
752.298	3356.3
752.636	3333.47
752.975	3342.29
753.313	3370.53
753.651	3363.3
753.989	3304.32
754.327	3283.53
754.666	3302.29
755.004	3278.56
755.342	3282.17
755.679	3289.18
756.017	3271.1
756.355	3237.88
756.693	3301.61
757.031	3271.55
757.368	3277.65
757.706	3238.56
758.044	3270.87
758.381	3213.7
758.719	3175.74
759.056	3234.94
759.394	3200.59
759.731	3228.84
760.068	3217.32
760.405	3162.63
760.743	3228.84
761.08	3219.58
761.417	3131.44
761.754	3177.32
762.091	3165.34
762.428	3126.92
762.765	3164.89
763.102	3132.35
763.438	3125.34
763.775	3093.48
764.112	3089.18
764.449	3097.55
764.785	3122.4
765.122	3111.78
765.458	3057.55
765.795	3075.17
766.131	3073.59
766.467	3072.46
766.804	3052.8
767.14	3034.5
767.476	3054.61
767.812	3030.2
768.148	3011.67
768.485	2993.59
768.821	3008.06
769.157	2992.69
769.492	2993.59
769.828	2955.63
770.164	2956.76
770.5	2934.39
770.836	2953.59
771.171	2929.87
771.507	2968.51
771.842	2926.48
772.178	2907.72
772.513	2897.32
772.849	2921.05
773.184	2869.53
773.519	2907.95
773.855	2860.72
774.19	2863.65
774.525	2866.82
774.86	2891.22
775.195	2887.38
775.53	2835.18
775.865	2821.85
776.2	2825.01
776.535	2801.96
776.87	2795.18
777.205	2751.79
777.539	2760.61
777.874	2785.24
778.209	2712.25
778.543	2774.62
778.878	2728.06
779.212	2687.16
779.547	2702.08
779.881	2719.02
780.215	2741.85
780.55	2688.74
780.884	2692.81
781.218	2667.95
781.552	2685.35
781.886	2657.78
782.22	2655.3
782.554	2672.02
782.888	2622.08
783.222	2601.97
783.556	2614.85
783.889	2610.1
784.223	2580.05
784.557	2602.64
784.89	2595.19
785.224	2568.75
785.557	2578.01
785.891	2555.64
786.224	2554.51
786.558	2545.02
786.891	2535.07
787.224	2517.67
787.557	2523.55
787.891	2511.57
788.224	2484.68
788.557	2540.05
788.89	2498.92
789.223	2509.31
789.556	2495.98
789.888	2526.94
790.221	2477.45
790.554	2460.27
790.887	2456.88
791.219	2449.2
791.552	2445.13
791.884	2421.41
792.217	2443.55
792.549	2404.68
792.882	2425.25
793.214	2420.73
793.546	2397.23
793.879	2367.62
794.211	2365.59
794.543	2362.42
794.875	2352.93
795.207	2380.73
795.539	2360.84
795.871	2368.3
796.203	2339.6
796.535	2342.54
796.867	2327.62
797.198	2313.39
797.53	2329.88
797.862	2313.39
798.193	2274.52
798.525	2310
798.856	2308.64
799.188	2266.16
799.519	2282.88
799.85	2233.16
800.182	2242.2
800.513	2305.48
800.844	2240.85
801.175	2257.12
801.506	2243.33
801.837	2265.03
802.168	2242.2
802.499	2230
802.83	2226.38
803.161	2232.03
803.491	2212.15
803.822	2213.73
804.153	2193.16
804.483	2213.5
804.814	2212.6
805.145	2188.87
805.475	2197.68
805.805	2129.44
806.136	2194.74
806.466	2174.86
806.796	2181.41
807.126	2162.43
807.457	2153.39
807.787	2176.44
808.117	2079.72
808.447	2123.11
808.777	2144.58
809.107	2114.29
809.436	2135.76
809.766	2111.13
810.096	2092.15
810.426	2119.27
810.755	2080.85
811.085	2094.18
811.414	2106.39
811.744	2100.06
812.073	2093.96
812.403	2055.54
812.732	2058.02
813.061	2071.58
813.39	2068.87
813.719	2060.51
814.049	2070.23
814.378	2035.2
814.707	2041.08
815.036	2001.08
815.365	2017.35
815.693	2060.74
816.022	2005.82
816.351	2026.61
816.68	2012.38
817.008	2004.69
817.337	1973.06
817.665	1984.13
817.994	1999.27
818.322	2034.3
818.651	1986.39
818.979	1998.14
819.307	1988.2
819.636	1973.73
819.964	1979.38
820.292	1988.65
820.62	1966.5
820.948	1992.72
821.276	1967.63
821.604	1976.45
821.932	1978.48
822.259	1990.23
822.587	1969.67
822.915	1976.9
823.243	1928.99
823.57	1953.39
823.898	1964.02
824.225	1974.19
824.553	1959.72
824.88	1972.38
825.207	1948.2
825.535	1983.22
825.862	1960.4
826.189	1967.41
826.516	1970.34
826.843	2004.69
827.17	1985.48
827.497	2001.98
827.824	1951.36
828.151	1951.14
828.478	1966.05
828.805	1959.04
829.131	1961.53
829.458	1980.74
829.785	1928.31
830.111	1956.56
830.438	1968.31
830.764	1955.43
831.09	1980.06
831.417	1951.36
831.743	1905.26
832.069	1920.85
832.395	1951.14
832.722	1931.02
833.048	1982.77
833.374	1940.74
833.7	1956.56
834.026	1935.54
834.351	1956.78
834.677	1950.46
835.003	1939.16
835.329	1940.51
835.654	1964.24
835.98	1935.54
836.306	1917.46
836.631	1892.83
836.956	1911.14
837.282	1951.36
837.607	1904.13
837.932	1925.6
838.258	1915.2
838.583	1889.67
838.908	1890.35
839.233	1908.42
839.558	1917.24
839.883	1900.29
840.208	1914.3
840.533	1905.26
840.858	1878.82
841.182	1887.41
841.507	1896
841.832	1900.51
842.156	1901.19
842.481	1895.77
842.805	1894.19
843.13	1863.68
843.454	1873.62
843.778	1865.49
844.103	1885.37
844.427	1858.71
844.751	1879.05
845.075	1857.35
845.399	1882.66
845.723	1831.14
846.047	1837.92
846.371	1832.49
846.695	1801.76
847.019	1819.39
847.343	1832.49
847.666	1825.94
847.99	1781.65
848.313	1807.86
848.637	1757.69
848.96	1780.97
849.284	1763.12
849.607	1765.83
849.931	1772.38
850.254	1763.34
850.577	1750.69
850.9	1749.11
851.223	1779.61
851.546	1749.33
851.869	1725.38
852.192	1714.08
852.515	1705.94
852.838	1715.89
853.161	1714.08
853.483	1712.72
853.806	1696.9
854.129	1716.34
854.451	1682.89
854.774	1679.05
855.096	1684.48
855.419	1668.2
855.741	1679.28
856.063	1689
856.385	1674.31
856.708	1664.81
857.03	1634.99
857.352	1672.27
857.674	1676.79
857.996	1637.47
858.318	1621.43
858.64	1653.52
858.961	1644.25
859.283	1640.86
859.605	1614.19
859.926	1603.8
860.248	1623.23
860.57	1606.96
860.891	1614.65
861.212	1611.03
861.534	1593.4
861.855	1630.24
862.176	1609
862.498	1623.46
862.819	1606.74
863.14	1624.59
863.461	1581.88
863.782	1611.94
864.103	1604.03
864.424	1598.6
864.745	1590.47
865.065	1563.35
865.386	1597.7
865.707	1598.6
866.027	1588.43
866.348	1569
866.668	1603.8
866.989	1586.85
867.309	1585.72
867.63	1602.44
867.95	1538.26
868.27	1547.76
868.59	1559.51
868.91	1545.72
869.23	1568.32
869.55	1512.28
869.87	1538.72
870.19	1557.47
870.51	1530.58
870.83	1542.11
871.15	1540.75
871.469	1526.06
871.789	1532.16
872.109	1540.98
872.428	1508.89
872.748	1526.97
873.067	1561.99
873.386	1519.96
873.706	1530.36
874.025	1536.23
874.344	1519.28
874.663	1540.52
874.982	1532.62
875.301	1494.88
875.62	1524.25
875.939	1499.17
876.258	1519.51
876.577	1504.14
876.896	1515.44
877.214	1496.68
877.533	1501.88
877.852	1491.03
878.17	1493.97
878.489	1480.41
878.807	1486.74
879.125	1496.46
879.444	1459.17
879.762	1479.74
880.08	1480.64
880.398	1510.47
880.716	1494.2
881.034	1470.92
881.352	1493.75
881.67	1478.38
881.988	1482.67
882.306	1479.51
882.624	1446.06
882.941	1474.99
883.259	1456.68
883.577	1449.91
883.894	1436.57
884.212	1435.44
884.529	1444.71
884.846	1460.98
885.164	1453.3
885.481	1433.63
885.798	1439.96
886.115	1440.87
886.432	1423.92
886.75	1447.65
887.067	1422.56
887.383	1433.18
887.7	1420.75
888.017	1446.74
888.334	1446.52
888.651	1413.97
888.967	1400.42
889.284	1431.83
889.6	1428.66
889.917	1412.17
890.233	1377.59
890.55	1412.39
890.866	1410.36
891.182	1413.07
891.498	1396.57
891.815	1387.76
892.131	1396.12
892.447	1371.26
892.763	1367.65
893.079	1404.71
893.395	1356.35
893.71	1386.86
894.026	1339.63
894.342	1363.13
894.657	1364.94
894.973	1355.44
895.289	1332.85
895.604	1357.03
895.92	1340.08
896.235	1314.32
896.55	1336.46
896.865	1309.57
897.181	1354.77
897.496	1329
897.811	1331.26
898.126	1321.55
898.441	1291.49
898.756	1286.97
899.071	1286.75
899.386	1314.54
899.7	1309.34
900.015	1329
900.33	1279.29
900.644	1284.94
900.959	1297.82
901.273	1281.1
901.588	1279.97
901.902	1262.11
902.216	1243.13
902.531	1252.4
902.845	1288.33
903.159	1277.03
903.473	1228.89
903.787	1262.34
904.101	1267.76
904.415	1274.09
904.729	1242.23
905.042	1240.19
905.356	1240.87
905.67	1222.34
905.984	1254.43
906.297	1221.44
906.611	1235.22
906.924	1233.41
907.237	1205.17
907.551	1217.37
907.864	1207.43
908.177	1224.6
908.491	1216.47
908.804	1191.16
909.117	1221.44
909.43	1209.69
909.743	1192.96
910.056	1196.13
910.368	1181.21
910.681	1176.92
910.994	1169.69
911.307	1188.44
911.619	1158.84
911.932	1154.09
912.244	1177.82
912.557	1143.7
912.869	1154.32
913.181	1131.04
913.494	1146.64
913.806	1142.57
914.118	1161.33
914.43	1115.9
914.742	1121.33
915.054	1115.68
915.366	1112.97
915.678	1131.95
915.99	1092.17
916.302	1134.21
916.613	1123.36
916.925	1140.99
917.236	1131.5
917.548	1087.88
917.859	1087.43
918.171	1140.53
918.482	1089.46
918.794	1085.17
919.105	1090.59
919.416	1064.83
919.727	1078.84
920.038	1077.94
920.349	1086.07
920.66	1069.12
920.971	1067.32
921.282	1069.12
921.593	1048.33
921.903	1066.41
922.214	1037.26
922.525	1052.18
922.835	1032.06
923.146	1042.91
923.456	1044.27
923.767	1018.5
924.077	1051.95
924.387	1018.28
924.697	1037.26
925.008	1004.04
925.318	1010.59
925.628	1017.6
925.938	1023.7
926.248	998.84
926.558	1014.44
926.867	999.97
927.177	1018.05
927.487	1006.08
927.796	999.75
928.106	1006.53
928.416	999.97
928.725	989.58
929.034	994.32
929.344	998.84
929.653	960.65
929.962	975.34
930.271	964.49
930.581	982.8
930.89	973.31
931.199	979.86
931.508	945.51
931.817	952.07
932.125	959.3
932.434	982.57
932.743	965.85
933.051	959.75
933.36	932.63
933.669	912.07
933.977	955
934.286	925.63
934.594	936.02
934.902	947.32
935.21	931.05
935.519	939.64
935.827	923.14
936.135	945.06
936.443	899.19
936.751	903.25
937.059	876.14
937.367	905.06
937.674	917.04
937.982	893.31
938.29	897.6
938.597	905.51
938.905	870.03
939.213	890.15
939.52	885.4
939.827	878.39
940.135	890.82
940.442	895.12
940.749	882.69
941.056	879.52
941.363	885.17
941.67	882.91
941.977	866.64
942.284	876.14
942.591	879.07
942.898	876.14
943.205	842.92
943.511	862.12
943.818	869.13
944.125	847.66
944.431	855.57
944.738	856.7
945.044	833.42
945.35	845.63
945.657	876.81
945.963	854.67
946.269	843.82
946.575	839.3
946.881	838.4
947.187	853.31
947.493	845.63
947.799	805.63
948.105	827.77
948.41	824.39
948.716	792.3
949.022	840.43
949.327	804.5
949.633	811.96
949.938	824.39
950.244	819.87
950.549	817.15
950.854	791.84
951.16	799.98
951.465	808.57
951.77	797.27
952.075	794.33
952.38	776.02
952.685	781.67
952.99	789.36
953.294	782.13
953.599	788.45
953.904	792.07
954.209	782.13
954.513	751.62
954.818	792.3
955.122	783.03
955.426	765.18
955.731	779.41
956.035	771.28
956.339	761.11
956.643	766.08
956.948	766.31
957.252	759.75
957.556	743.71
957.86	752.3
958.163	768.57
958.467	723.37
958.771	745.74
959.075	736.48
959.378	751.62
959.682	720.66
959.985	749.36
960.289	754.1
960.592	740.09
960.896	731.05
961.199	755.69
961.502	728.12
961.805	707.1
962.108	702.58
962.411	732.64
962.714	706.2
963.017	721.11
963.32	732.64
963.623	726.53
963.926	712.52
964.228	697.83
964.531	703.03
964.833	698.74
965.136	721.11
965.438	691.51
965.741	705.29
966.043	686.99
966.345	682.92
966.648	700.55
966.95	688.8
967.252	708
967.554	694.67
967.856	681.11
968.158	694.22
968.46	681.79
968.761	703.71
969.063	672.75
969.365	675.46
969.666	675.01
969.968	679.53
970.269	657.84
970.571	672.75
970.872	673.2
971.174	682.69
971.475	646.31
971.776	679.3
972.077	670.26
972.378	644.95
972.679	662.13
972.98	669.13
973.281	690.6
973.582	647.44
973.883	648.12
974.183	643.37
974.484	642.92
974.785	665.29
975.085	640.44
975.386	652.41
975.686	660.32
975.986	645.63
976.287	649.47
976.587	653.77
976.887	655.12
977.187	632.98
977.487	651.96
977.787	640.21
978.087	648.12
978.387	644.95
978.687	628.23
978.987	618.06
979.286	625.29
979.586	640.89
979.885	612.19
980.185	607.89
980.484	600.66
980.784	626.88
981.083	593.2
981.382	628.46
981.682	614.22
981.981	621.68
982.28	612.19
982.579	594.79
982.878	593.43
983.177	598.85
983.475	636.59
983.774	625.07
984.073	602.7
984.372	601.34
984.67	593.43
984.969	598.85
985.267	592.53
985.566	592.98
985.864	620.55
986.162	585.07
986.461	589.14
986.759	612.41
987.057	606.76
987.355	581.23
987.653	584.84
987.951	570.83
988.249	571.06
988.547	566.99
988.844	577.84
989.142	593.66
989.44	595.69
989.737	585.3
990.035	579.42
990.332	581.91
990.63	563.6
990.927	587.78
991.224	571.06
991.521	574.9
991.819	555.92
992.116	559.31
992.413	562.92
992.71	553.21
993.006	557.73
993.303	565.63
993.6	568.35
993.897	565.86
994.193	563.38
994.49	555.01
994.787	569.93
995.083	567.22
995.379	555.92
995.676	557.95
995.972	531.96
996.268	559.08
996.565	532.87
996.861	541.45
997.157	576.03
997.453	527.9
997.749	543.04
998.044	534.45
998.34	542.36
998.636	545.3
998.932	534.68
999.227	528.12
999.523	553.66
999.818	533.55
1000.114	529.25
1000.409	515.47
1000.704	531.29
1001	531.96
1001.295	520.89
1001.59	525.64
1001.885	516.37
1002.18	526.09
1002.475	515.01
1002.77	533.09
1003.065	523.83
1003.359	521.34
1003.654	519.31
1003.949	496.03
1004.243	520.66
1004.538	491.06
1004.832	505.98
1005.127	480.21
1005.421	488.12
1005.715	512.08
1006.009	484.96
1006.304	502.59
1006.598	492.64
1006.892	508.01
1007.186	524.05
1007.48	480.21
1007.773	504.62
1008.067	513.43
1008.361	493.09
1008.655	482.25
1008.948	478.63
1009.242	482.93
1009.535	503.26
1009.829	494.22
1010.122	490.83
1010.415	492.64
1010.708	498.07
1011.001	489.03
1011.295	482.02
1011.588	492.19
1011.881	475.02
1012.173	479.99
1012.466	465.98
1012.759	479.31
1013.052	495.13
1013.344	460.33
1013.637	462.36
1013.93	466.88
1014.222	465.52
1014.514	465.07
1014.807	461.91
1015.099	461
1015.391	451.74
1015.683	466.88
1015.976	467.33
1016.268	472.3
1016.56	472.3
1016.851	464.17
1017.143	441.57
1017.435	462.13
1017.727	455.13
1018.018	441.34
1018.31	479.76
1018.602	458.29
1018.893	451.74
1019.185	455.58
1019.476	419.88
1019.767	441.12
1020.058	448.35
1020.35	466.43
1020.641	442.93
1020.932	463.04
1021.223	429.59
1021.514	427.33
1021.804	430.72
1022.095	441.8
1022.386	436.37
1022.677	425.75
1022.967	444.51
1023.258	427.79
1023.548	436.82
1023.839	441.57
1024.129	428.24
1024.419	438.86
1024.709	445.41
1025	450.84
1025.29	429.59
1025.58	426.2
1025.87	435.02
1026.16	416.26
1026.449	421.46
1026.739	411.97
1027.029	402.93
1027.319	422.59
1027.608	425.75
1027.898	418.97
1028.187	419.42
1028.477	421.91
1028.766	418.29
1029.055	387.56
1029.344	421.91
1029.634	411.06
1029.923	411.74
1030.212	415.81
1030.501	406.99
1030.79	413.1
1031.078	409.93
1031.367	382.59
1031.656	413.1
1031.945	410.84
1032.233	406.54
1032.522	384.17
1032.81	401.8
1033.099	389.82
1033.387	395.02
1033.675	399.09
1033.963	420.78
1034.251	409.93
1034.54	395.24
1034.828	413.1
1035.116	404.06
1035.403	393.66
1035.691	392.53
1035.979	413.32
1036.267	402.7
1036.554	417.16
1036.842	403.83
1037.129	416.03
1037.417	392.08
1037.704	394.79
1037.992	389.37
1038.279	394.79
1038.566	392.53
1038.853	392.53
1039.14	392.53
