Data from carpet_green_FLMS001491_00098.txt Node
Date: Wed Feb 08 10:36:08 GMT 2017
User: dcchb
Spectrometer: FLMS00149
Trigger mode: 0
Integration Time (sec): 2.000000E-2
Scans to average: 10
Electric dark correction enabled: true
Nonlinearity correction enabled: false
Boxcar width: 0
XAxis mode: Wavelengths
Number of Pixels in Spectrum: 2048
>>>>>Begin Spectral Data<<<<<
341.393	-26.51
341.776	-26.51
342.16	-26.51
342.543	-49.79
342.927	-75.1
343.31	-55.66
343.693	-80.97
344.077	-65.15
344.46	-38.04
344.843	-39.17
345.226	-35.78
345.61	-43.91
345.993	-41.88
346.376	-10.69
346.759	13.49
347.142	29.08
347.525	48.06
347.908	53.26
348.291	65.92
348.674	101.17
349.057	100.27
349.44	111.56
349.823	136.2
350.206	155.86
350.588	166.48
350.971	172.58
351.354	189.53
351.737	211
352.119	214.84
352.502	237.89
352.884	251.45
353.267	252.58
353.65	267.27
354.032	254.16
354.414	275.85
354.797	276.08
355.179	311.11
355.562	291.22
355.944	303.42
356.326	293.03
356.709	323.99
357.091	286.48
357.473	305.68
357.855	298.45
358.238	293.26
358.62	327.83
359.002	317.66
359.384	319.92
359.766	316.76
360.148	314.5
360.53	320.37
360.912	312.46
361.294	311.79
361.676	292.35
362.057	283.09
362.439	309.3
362.821	301.84
363.203	304.55
363.584	291.67
363.966	298.9
364.348	314.05
364.729	296.19
365.111	283.76
365.493	299.58
365.874	293.48
366.256	279.24
366.637	296.19
367.019	295.29
367.4	282.41
367.781	276.76
368.163	266.59
368.544	288.06
368.925	262.3
369.306	276.98
369.688	278.11
370.069	286.7
370.45	272.69
370.831	283.76
371.212	290.32
371.593	249.41
371.974	295.74
372.355	288.74
372.736	272.69
373.117	298
373.498	292.35
373.879	287.15
374.26	273.14
374.641	287.15
375.021	278.79
375.402	280.37
375.783	291.67
376.163	307.04
376.544	291.45
376.925	286.93
377.305	292.13
377.686	292.58
378.066	296.19
378.447	274.05
378.827	279.24
379.208	290.09
379.588	282.63
379.968	304.1
380.349	285.57
380.729	295.06
381.109	312.24
381.489	311.56
381.87	307.94
382.25	306.59
382.63	284.44
383.01	288.28
383.39	306.81
383.77	290.32
384.15	299.36
384.53	278.79
384.91	282.86
385.29	309.53
385.67	315.18
386.049	320.37
386.429	316.76
386.809	317.89
387.189	302.29
387.568	311.33
387.948	307.49
388.328	288.96
388.707	307.94
389.087	310.88
389.466	301.16
389.846	306.81
390.225	300.49
390.605	297.32
390.984	310.66
391.363	309.53
391.743	298.68
392.122	302.97
392.501	276.53
392.881	319.69
393.26	310.88
393.639	291.45
394.018	309.98
394.397	295.29
394.776	299.36
395.155	324.67
395.534	304.78
395.913	312.01
396.292	300.26
396.671	314.05
397.05	320.82
397.429	308.62
397.808	315.18
398.186	315.4
398.565	331.9
398.944	322.18
399.323	304.1
399.701	315.63
400.08	294.84
400.458	330.09
400.837	324.21
401.215	319.02
401.594	335.74
401.972	312.92
402.351	305.46
402.729	308.62
403.107	323.99
403.486	334.38
403.864	296.19
404.242	296.19
404.62	334.61
404.999	328.06
405.377	320.37
405.755	338
406.133	330.77
406.511	325.57
406.889	303.65
407.267	336.19
407.645	321.95
408.023	329.64
408.401	322.63
408.779	334.38
409.156	339.58
409.534	327.15
409.912	309.07
410.29	316.98
410.667	340.03
411.045	354.5
411.422	345.23
411.8	344.55
412.178	355.17
412.555	370.54
412.933	331.22
413.31	342.97
413.687	350.2
414.065	367.83
414.442	346.81
414.819	343.88
415.197	371.67
415.574	332.35
415.951	345.91
416.328	361.05
416.705	342.29
417.082	337.1
417.46	355.85
417.837	343.65
418.214	354.04
418.591	343.2
418.967	345.23
419.344	338.45
419.721	355.63
420.098	335.97
420.475	359.24
420.852	374.83
421.228	352.01
421.605	369.41
421.982	360.82
422.358	353.59
422.735	370.09
423.111	352.69
423.488	358.79
423.864	361.28
424.241	376.42
424.617	368.28
424.994	336.42
425.37	350.65
425.746	352.46
426.123	349.07
426.499	392.69
426.875	374.83
427.251	362.41
427.627	376.87
428.003	361.05
428.379	380.94
428.756	396.53
429.132	378.22
429.507	380.94
429.883	406.7
430.259	388.39
430.635	391.78
431.011	400.82
431.387	382.52
431.763	408.96
432.138	398.11
432.514	395.4
432.89	412.8
433.265	390.65
433.641	401.95
434.016	418.22
434.392	392.46
434.767	396.08
435.143	383.2
435.518	394.95
435.894	411.44
436.269	406.7
436.644	420.03
437.02	417.55
437.395	440.82
437.77	401.05
438.145	407.15
438.52	424.33
438.895	421.84
439.271	431.33
439.646	430.43
440.021	420.94
440.395	443.99
440.77	437.88
441.145	462.74
441.52	413.93
441.895	434.72
442.27	446.25
442.645	415.51
443.019	456.64
443.394	441.95
443.769	434.72
444.143	432.69
444.518	448.51
444.892	465.45
445.267	452.8
445.641	462.29
446.016	452.12
446.39	462.97
446.764	460.48
447.139	458.9
447.513	451.89
447.887	480.82
448.262	467.49
448.636	465.68
449.01	479.01
449.384	473.14
449.758	465.45
450.132	488.28
450.506	475.85
450.88	477.66
451.254	467.26
451.628	475.4
452.002	488.05
452.376	500.93
452.75	488.05
453.123	490.54
453.497	507.03
453.871	508.84
454.244	528.73
454.618	482.63
454.992	481.95
455.365	500.03
455.739	513.81
456.112	509.52
456.486	514.04
456.859	510.2
457.232	519.92
457.606	516.98
457.979	526.47
458.352	542.74
458.725	533.93
459.099	541.16
459.472	540.48
459.845	563.3
460.218	538.9
460.591	542.29
460.964	550.2
461.337	564.43
461.71	572.12
462.083	563.3
462.456	561.27
462.829	571.44
463.201	562.63
463.574	580.25
463.947	591.33
464.32	595.39
464.692	589.07
465.065	597.2
465.438	618.44
465.81	608.73
466.183	618.9
466.555	629.07
466.928	627.26
467.3	628.61
467.672	633.81
468.045	634.26
468.417	635.17
468.789	649.18
469.161	679.01
469.534	654.83
469.906	655.05
470.278	679.91
470.65	685.34
471.022	691.89
471.394	693.24
471.766	685.34
472.138	693.02
472.51	711.32
472.882	725.79
473.253	716.97
473.625	722.4
473.997	752.9
474.369	769.4
474.74	758.33
475.112	752.68
475.484	788.16
475.855	767.82
476.227	782.73
476.598	814.37
476.97	811.89
477.341	829.51
477.713	849.17
478.084	820.02
478.455	844.88
478.827	844.65
479.198	855.05
479.569	876.74
479.94	900.02
480.311	880.81
480.682	923.52
481.053	949.06
481.424	925.33
481.795	943.18
482.166	978.66
482.537	969.62
482.908	973.01
483.279	989.73
483.65	983.86
484.021	1039.22
484.391	1048.94
484.762	1048.72
485.133	1032.67
485.503	1053.91
485.874	1069.51
486.244	1083.52
486.615	1082.61
486.985	1097.08
487.356	1145.21
487.726	1096.85
488.097	1129.84
488.467	1139.11
488.837	1158.77
489.207	1157.41
489.578	1203.97
489.948	1199.45
490.318	1240.12
490.688	1243.06
491.058	1251.65
491.428	1264.08
491.798	1257.3
492.168	1288.94
492.538	1305.43
492.908	1303.4
493.278	1352.66
493.648	1309.5
494.017	1350.18
494.387	1357.18
494.757	1361.7
495.126	1361.48
495.496	1384.75
495.866	1365.32
496.235	1391.08
496.605	1428.14
496.974	1401.25
497.344	1417.52
497.713	1409.61
498.082	1446.9
498.452	1446.9
498.821	1454.35
499.19	1447.12
499.559	1492.55
499.928	1476.5
500.298	1476.95
500.667	1470.17
501.036	1474.47
501.405	1521.92
501.774	1514.24
502.143	1512.21
502.512	1531.41
502.88	1542.94
503.249	1554.46
503.618	1568.93
503.987	1573
504.356	1559.21
504.724	1599.66
505.093	1612.54
505.462	1574.58
505.83	1581.58
506.199	1586.1
506.567	1606.89
506.936	1648.02
507.304	1623.39
507.672	1615.48
508.041	1662.94
508.409	1641.69
508.777	1668.59
509.145	1691.18
509.514	1688.47
509.882	1669.49
510.25	1688.92
510.618	1681.92
510.986	1738.19
511.354	1712.88
511.722	1714.91
512.09	1734.12
512.458	1717.4
512.826	1720.34
513.193	1787.45
513.561	1789.03
513.929	1766.89
514.297	1783.84
514.664	1775.7
515.032	1812.09
515.4	1782.48
515.767	1814.8
516.135	1803.05
516.502	1824.97
516.869	1835.36
517.237	1846.21
517.604	1830.39
517.972	1847.79
518.339	1859.99
518.706	1867
519.073	1867.22
519.44	1891.18
519.808	1888.02
520.175	1893.44
520.542	1925.53
520.909	1942.7
521.276	1924.17
521.643	1959.2
522.009	1949.48
522.376	1954.91
522.743	1965.98
523.11	1967.56
523.477	2013.21
523.843	1986.77
524.21	2003.72
524.577	2006.88
524.943	2035.58
525.31	1998.07
525.676	2050.27
526.043	2069.03
526.409	2047.79
526.776	2090.5
527.142	2082.81
527.508	2089.59
527.874	2086.2
528.241	2085.98
528.607	2099.54
528.973	2109.48
529.339	2125.3
529.705	2124.17
530.071	2129.82
530.437	2149.25
530.803	2153.77
531.169	2153.32
531.535	2165.52
531.901	2148.35
532.267	2181.79
532.632	2145.18
532.998	2168.23
533.364	2179.31
533.73	2186.31
534.095	2179.53
534.461	2240.1
534.826	2213.88
535.192	2215.01
535.557	2220.89
535.923	2197.39
536.288	2234.67
536.653	2254.11
537.019	2233.54
537.384	2243.26
537.749	2219.53
538.114	2229.7
538.479	2210.72
538.845	2228.12
539.21	2228.35
539.575	2269.93
539.94	2218.85
540.305	2265.86
540.67	2238.29
541.034	2239.19
541.399	2222.7
541.764	2257.27
542.129	2260.89
542.494	2271.06
542.858	2242.36
543.223	2244.39
543.587	2245.75
543.952	2256.14
544.316	2245.75
544.681	2273.32
545.045	2286.2
545.41	2245.07
545.774	2283.71
546.138	2289.59
546.503	2278.97
546.867	2259.53
547.231	2280.77
547.595	2291.62
547.959	2310.83
548.324	2270.83
548.688	2271.28
549.052	2300.21
549.416	2287.78
549.779	2324.61
550.143	2289.36
550.507	2335.46
550.871	2304.73
551.235	2304.05
551.599	2317.83
551.962	2336.14
552.326	2328.68
552.689	2379.3
553.053	2341.56
553.417	2340.21
553.78	2353.09
554.143	2362.35
554.507	2351.73
554.87	2351.51
555.234	2357.83
555.597	2358.06
555.96	2355.12
556.323	2386.99
556.686	2382.01
557.05	2385.4
557.413	2372.75
557.776	2372.07
558.139	2399.64
558.502	2395.8
558.865	2386.99
559.228	2406.19
559.59	2407.32
559.953	2392.18
560.316	2442.35
560.679	2410.04
561.041	2443.93
561.404	2415.23
561.767	2472.86
562.129	2442.13
562.492	2467.66
562.854	2460.43
563.217	2457.94
563.579	2437.15
563.941	2471.05
564.304	2466.31
564.666	2506.76
565.028	2518.06
565.39	2483.48
565.753	2499.52
566.115	2476.7
566.477	2504.5
566.839	2513.99
567.201	2536.81
567.563	2506.53
567.925	2554.44
568.287	2528
568.648	2554.66
569.01	2562.12
569.372	2549.69
569.734	2583.14
570.095	2520.77
570.457	2575.91
570.819	2583.36
571.18	2558.73
571.542	2576.13
571.903	2575.68
572.265	2546.3
572.626	2606.19
572.987	2588.11
573.349	2599.41
573.71	2566.42
574.071	2584.72
574.432	2590.6
574.794	2582.23
575.155	2580.43
575.516	2568
575.877	2599.64
576.238	2548.56
576.599	2597.38
576.96	2598.51
577.32	2578.17
577.681	2564.61
578.042	2595.57
578.403	2589.47
578.763	2637.15
579.124	2575
579.485	2607.77
579.845	2589.92
580.206	2586.08
580.566	2564.83
580.927	2543.59
581.287	2579.75
581.648	2569.13
582.008	2560.31
582.368	2586.98
582.728	2571.84
583.089	2559.41
583.449	2543.82
583.809	2572.07
584.169	2575.68
584.529	2540.65
584.889	2542.24
585.249	2508.79
585.609	2548.56
585.969	2575.23
586.329	2547.88
586.688	2512.41
587.048	2531.39
587.408	2526.42
587.768	2525.51
588.127	2528.68
588.487	2506.3
588.846	2538.62
589.206	2516.25
589.565	2499.3
589.925	2533.87
590.284	2518.51
590.643	2520.32
591.003	2497.26
591.362	2509.69
591.721	2511.05
592.08	2531.16
592.44	2524.38
592.799	2539.75
593.158	2517.15
593.517	2513.31
593.876	2508.11
594.235	2445.97
594.593	2467.89
594.952	2474.67
595.311	2488.45
595.67	2459.3
596.029	2523.03
596.387	2509.24
596.746	2479.19
597.104	2488.9
597.463	2486.19
597.822	2543.14
598.18	2524.38
598.538	2490.26
598.897	2478.28
599.255	2487.55
599.613	2521.9
599.972	2484.16
600.33	2533.65
600.688	2532.74
601.046	2546.08
601.404	2559.41
601.762	2557.38
602.12	2526.87
602.478	2544.04
602.836	2559.64
603.194	2537.94
603.552	2535.23
603.91	2506.3
604.268	2515.34
604.625	2526.64
604.983	2538.17
605.341	2505.4
605.698	2556.7
606.056	2523.7
606.413	2543.82
606.771	2522.35
607.128	2562.57
607.485	2545.17
607.843	2532.52
608.2	2594.44
608.557	2559.18
608.914	2572.74
609.272	2592.18
609.629	2599.18
609.986	2580.2
610.343	2566.42
610.7	2629.24
611.057	2589.69
611.414	2588.34
611.771	2622.46
612.127	2606.64
612.484	2595.79
612.841	2622.69
613.198	2578.17
613.554	2598.73
613.911	2613.87
614.267	2626.53
614.624	2603.48
614.98	2618.84
615.337	2619.3
615.693	2623.59
616.05	2616.81
616.406	2635.57
616.762	2608
617.118	2620.65
617.475	2610.48
617.831	2641.22
618.187	2684.38
618.543	2658.39
618.899	2652.29
619.255	2627.66
619.611	2646.87
619.967	2610.93
620.323	2676.02
620.678	2652.52
621.034	2629.69
621.39	2618.17
621.746	2676.92
622.101	2677.6
622.457	2652.52
622.812	2626.08
623.168	2636.47
623.523	2641.22
623.879	2642.57
624.234	2612.52
624.589	2683.7
624.945	2696.81
625.3	2630.82
625.655	2642.57
626.01	2639.18
626.365	2598.96
626.72	2638.96
627.075	2657.49
627.43	2644.83
627.785	2660.2
628.14	2611.61
628.495	2666.98
628.85	2640.31
629.205	2604.83
629.559	2633.31
629.914	2624.27
630.269	2641.44
630.623	2620.43
630.978	2622.91
631.332	2631.05
631.687	2643.02
632.041	2657.71
632.396	2627.43
632.75	2591.27
633.104	2598.73
633.459	2614.32
633.813	2586.53
634.167	2596.47
634.521	2602.57
634.875	2591.05
635.229	2577.94
635.583	2573.2
635.937	2598.28
636.291	2558.28
636.645	2599.86
636.999	2620.2
637.352	2615.91
637.706	2610.48
638.06	2600.31
638.413	2572.52
638.767	2570.94
639.121	2573.2
639.474	2595.79
639.828	2582.23
640.181	2602.12
640.534	2571.61
640.888	2599.64
641.241	2580.88
641.594	2589.69
641.947	2564.16
642.301	2602.12
642.654	2585.85
643.007	2596.7
643.36	2562.8
643.713	2568.22
644.066	2582.01
644.419	2614.32
644.771	2592.86
645.124	2588.34
645.477	2559.86
645.83	2570.94
646.182	2577.26
646.535	2589.69
646.888	2543.82
647.24	2524.16
647.593	2569.13
647.945	2568.22
648.298	2546.3
648.65	2608.67
649.002	2574.1
649.355	2568.22
649.707	2573.87
650.059	2629.24
650.411	2648.45
650.763	2685.28
651.115	2666.3
651.467	2686.64
651.819	2668.33
652.171	2705.62
652.523	2685.96
652.875	2693.87
653.227	2723.02
653.578	2706.75
653.93	2759.63
654.282	2702.91
654.633	2750.37
654.985	2716.69
655.337	2767.31
655.688	2772.51
656.039	2783.36
656.391	2812.06
656.742	2809.12
657.094	2798.5
657.445	2764.83
657.796	2803.7
658.147	2826.52
658.498	2831.04
658.849	2829.46
659.2	2867.2
659.551	2864.94
659.902	2869.68
660.253	2885.28
660.604	2935.9
660.955	2904.26
661.306	2952.39
661.656	2949.46
662.007	2965.73
662.358	2958.04
662.708	2997.14
663.059	2976.57
663.409	2990.36
663.76	3042.56
664.11	3034.2
664.461	3077.14
664.811	3081.88
665.161	3066.52
665.511	3064.48
665.862	3098.83
666.212	3130.24
666.562	3120.98
666.912	3157.13
667.262	3174.31
667.612	3164.82
667.962	3230.8
668.312	3175.67
668.662	3216.57
669.011	3241.43
669.361	3299.5
669.711	3307.64
670.06	3315.1
670.41	3302.44
670.76	3323.46
671.109	3352.61
671.459	3380.63
671.808	3378.82
672.157	3437.35
672.507	3398.94
672.856	3401.42
673.205	3475.32
673.554	3468.76
673.904	3545.82
674.253	3555.77
674.602	3544.47
674.951	3543.34
675.3	3542.66
675.649	3603.68
675.998	3606.84
676.346	3658.14
676.695	3699.72
677.044	3653.84
677.393	3713.73
677.741	3752.83
678.09	3779.72
678.438	3801.19
678.787	3794.41
679.135	3867.17
679.484	3835.31
679.832	3847.06
680.181	3882.31
680.529	3914.18
680.877	3922.76
681.225	3970.9
681.573	3980.39
681.922	4011.8
682.27	4020.61
682.618	4017
682.966	4063.78
683.314	4106.71
683.661	4111.91
684.009	4148.52
684.357	4136.77
684.705	4147.84
685.053	4198.01
685.4	4199.14
685.748	4220.84
686.095	4217.67
686.443	4241.4
686.79	4248.41
687.138	4307.61
687.485	4337.89
687.832	4363.2
688.18	4386.71
688.527	4360.04
688.874	4416.76
689.221	4439.13
689.568	4443.43
689.915	4473.71
690.262	4519.36
690.609	4529.3
690.956	4556.19
691.303	4535.18
691.65	4590.09
691.997	4618.11
692.344	4549.41
692.69	4575.63
693.037	4681.16
693.383	4660.6
693.73	4664.67
694.077	4733.36
694.423	4694.72
694.769	4707.83
695.116	4715.29
695.462	4725.45
695.808	4784.66
696.155	4864.66
696.501	4771.33
696.847	4809.07
697.193	4843.19
697.539	4864.66
697.885	4870.76
698.231	4899.46
698.577	4892.91
698.923	4953.25
699.269	4897.43
699.614	4926.58
699.96	4992.34
700.306	4987.14
700.651	5014.94
700.997	4979.91
701.342	5031.44
701.688	5042.51
702.033	5061.49
702.379	5038.89
702.724	5040.93
703.069	5067.14
703.415	5080.7
703.76	5132.9
704.105	5156.4
704.45	5155.73
704.795	5174.93
705.14	5159.12
705.485	5135.16
705.83	5159.57
706.175	5227.36
706.52	5238.66
706.865	5230.07
707.209	5248.6
707.554	5288.38
707.899	5240.02
708.243	5271.66
708.588	5287.47
708.932	5275.5
709.277	5309.85
709.621	5318.66
709.966	5335.83
710.31	5365.66
710.654	5297.87
710.998	5323.18
711.342	5359.79
711.687	5377.87
712.031	5352.33
712.375	5360.47
712.719	5387.58
713.063	5401.37
713.407	5434.14
713.75	5450.41
714.094	5399.34
714.438	5414.7
714.782	5447.7
715.125	5395.27
715.469	5445.89
715.812	5468.03
716.156	5468.94
716.499	5423.06
716.843	5466.9
717.186	5463.06
717.53	5517.98
717.873	5480.92
718.216	5507.81
718.559	5532.67
718.902	5473.46
719.246	5534.02
719.589	5541.48
719.932	5489.05
720.275	5533.34
720.617	5557.3
720.96	5523.17
721.303	5544.42
721.646	5535.6
721.989	5525.89
722.331	5537.64
722.674	5538.54
723.016	5568.82
723.359	5534.02
723.701	5561.14
724.044	5546
724.386	5522.04
724.729	5533.57
725.071	5577.41
725.413	5555.72
725.755	5552.1
726.097	5577.18
726.439	5563.17
726.782	5568.37
727.124	5584.42
727.465	5611.08
727.807	5571.31
728.149	5542.61
728.491	5596.17
728.833	5611.99
729.175	5597.3
729.516	5543.06
729.858	5640.69
730.199	5588.93
730.541	5568.37
730.882	5566.11
731.224	5592.32
731.565	5598.88
731.906	5570.4
732.248	5562.04
732.589	5507.58
732.93	5546.45
733.271	5590.97
733.612	5527.47
733.953	5564.53
734.294	5534.02
734.635	5562.04
734.976	5565.21
735.317	5582.16
735.658	5585.77
735.999	5592.32
736.339	5564.75
736.68	5608.14
737.021	5606.11
737.361	5527.92
737.702	5533.34
738.042	5562.04
738.383	5552.1
738.723	5535.15
739.063	5498.54
739.404	5530.18
739.744	5498.77
740.084	5500.58
740.424	5528.15
740.764	5459.9
741.104	5542.16
741.444	5548.48
741.784	5440.46
742.124	5509.39
742.464	5478.66
742.804	5488.6
743.143	5503.51
743.483	5437.75
743.823	5486.34
744.162	5462.84
744.502	5428.49
744.841	5447.47
745.181	5414.48
745.52	5475.49
745.86	5458.77
746.199	5425.1
746.538	5462.84
746.877	5446.57
747.216	5435.27
747.556	5435.72
747.895	5463.29
748.234	5401.6
748.573	5429.17
748.911	5404.76
749.25	5434.59
749.589	5391.43
749.928	5352.11
750.267	5348.04
750.605	5337.87
750.944	5336.29
751.283	5275.5
751.621	5303.52
751.96	5273.01
752.298	5314.37
752.636	5308.94
752.975	5276.85
753.313	5248.38
753.651	5266.23
753.989	5227.14
754.327	5248.83
754.666	5214.71
755.004	5233.01
755.342	5206.8
755.679	5232.79
756.017	5155.95
756.355	5194.37
756.693	5163.41
757.031	5180.81
757.368	5176.74
757.706	5207.93
758.044	5107.59
758.381	5126.35
758.719	5130.64
759.056	5114.15
759.394	5112.34
759.731	5079.8
760.068	5080.25
760.405	5014.03
760.743	5026.92
761.08	5039.34
761.417	5029.18
761.754	5013.36
762.091	4990.31
762.428	4984.43
762.765	4979.46
763.102	4973.13
763.438	4930.87
763.775	4932.68
764.112	4924.09
764.449	4903.53
764.785	4914.38
765.122	4884.32
765.458	4860.14
765.795	4895.62
766.131	4821.27
766.467	4856.3
766.804	4841.61
767.14	4800.71
767.476	4832.12
767.812	4774.04
768.148	4820.82
768.485	4763.65
768.821	4734.72
769.157	4709.18
769.492	4688.62
769.828	4703.31
770.164	4695.63
770.5	4663.99
770.836	4660.6
771.171	4587.38
771.507	4682.29
771.842	4589.19
772.178	4596.42
772.513	4591.22
772.849	4537.89
773.184	4554.39
773.519	4559.36
773.855	4463.99
774.19	4492.92
774.525	4489.75
774.86	4496.53
775.195	4492.92
775.53	4486.59
775.865	4444.56
776.2	4429.87
776.535	4407.27
776.87	4394.16
777.205	4351.91
777.539	4351.23
777.874	4376.31
778.209	4329.76
778.543	4283.21
778.878	4324.79
779.212	4288.86
779.547	4307.84
779.881	4298.57
780.215	4266.03
780.55	4258.57
780.884	4217.22
781.218	4194.62
781.552	4233.26
781.886	4212.93
782.22	4171.8
782.554	4156.43
782.888	4087.28
783.222	4105.81
783.556	4073.95
783.889	4077.56
784.223	4063.1
784.557	4064.46
784.89	4080.95
785.224	4030.11
785.557	4042.99
785.891	4017.45
786.224	4016.32
786.558	4029.65
786.891	3999.37
787.224	3940.84
787.557	3934.74
787.891	3944.91
788.224	3940.84
788.557	3942.2
788.89	3891.58
789.223	3957.34
789.556	3864.69
789.888	3872.6
790.221	3859.04
790.554	3865.82
790.887	3846.61
791.219	3832.6
791.552	3773.39
791.884	3786.27
792.217	3818.13
792.549	3750.11
792.882	3748.08
793.214	3715.54
793.546	3758.93
793.879	3710.11
794.211	3689.1
794.543	3721.19
794.875	3727.06
795.207	3689.32
795.539	3678.7
795.871	3688.42
796.203	3651.58
796.535	3609.78
796.867	3608.87
797.198	3678.25
797.53	3591.25
797.862	3611.59
798.193	3609.78
798.525	3602.09
798.856	3588.54
799.188	3539.72
799.519	3545.37
799.85	3494.98
800.182	3508.54
800.513	3539.5
800.844	3504.02
801.175	3519.61
801.506	3481.87
801.837	3486.84
802.168	3463.79
802.499	3486.84
802.83	3512.83
803.161	3444.81
803.491	3470.57
803.822	3473.74
804.153	3415.66
804.483	3466.73
804.814	3409.33
805.145	3395.32
805.475	3430.35
805.805	3372.72
806.136	3392.16
806.466	3349.67
806.796	3363.91
807.126	3331.59
807.457	3333.85
807.787	3347.41
808.117	3345.15
808.447	3324.14
808.777	3285.72
809.107	3322.1
809.436	3311.48
809.766	3295.89
810.096	3264.93
810.426	3257.02
810.755	3281.43
811.085	3272.61
811.414	3283.46
811.744	3213.86
812.073	3217.92
812.403	3245.27
812.732	3230.58
813.061	3223.57
813.39	3178.83
813.719	3197.59
814.049	3183.57
814.378	3177.47
814.707	3167.53
815.036	3165.04
815.365	3130.02
815.693	3113.97
816.022	3107.19
816.351	3145.84
816.68	3106.51
817.008	3125.72
817.337	3075.1
817.665	3085.5
817.994	3057.7
818.322	3073.07
818.651	3037.59
818.979	3067.42
819.307	3090.7
819.636	3079.62
819.964	3039.17
820.292	3053.41
820.62	3027.87
820.948	3069.91
821.276	3041.66
821.604	3034.2
821.932	3043.92
822.259	3037.82
822.587	3040.08
822.915	3054.31
823.243	3054.99
823.57	3027.42
823.898	3037.14
824.225	3040.53
824.553	3064.26
824.88	3013.18
825.207	3056.12
825.535	3044.82
825.862	3028.78
826.189	3052.96
826.516	3073.07
826.843	3051.83
827.17	3016.35
827.497	3038.49
827.824	3029.91
828.151	3040.08
828.478	3052.73
828.805	3039.62
829.131	3065.16
829.458	2998.72
829.785	2992.62
830.111	3007.53
830.438	3051.37
830.764	3016.12
831.09	3013.86
831.417	3042.34
831.743	3036.69
832.069	3038.72
832.395	3001.43
832.722	3032.84
833.048	3001.43
833.374	3039.17
833.7	3007.31
834.026	3033.3
834.351	3021.54
834.677	2978.38
835.003	2994.65
835.329	2994.2
835.654	3010.02
835.98	3005.5
836.306	2976.12
836.631	3003.69
836.956	3007.08
837.282	3005.5
837.607	2954.43
837.932	2988.55
838.258	2958.72
838.583	3019.74
838.908	2967.99
839.233	2947.87
839.558	2951.72
839.883	2937.71
840.208	2935.9
840.533	2920.98
840.858	2952.17
841.182	2915.11
841.507	2912.62
841.832	2915.33
842.156	2905.16
842.481	2889.8
842.805	2869.23
843.13	2896.35
843.454	2879.63
843.778	2854.77
844.103	2851.83
844.427	2840.31
844.751	2849.8
845.075	2883.7
845.399	2848.67
845.723	2803.92
846.047	2829.69
846.371	2800.08
846.695	2837.82
847.019	2756.24
847.343	2784.49
847.666	2756.69
847.99	2732.74
848.313	2729.58
848.637	2730.71
848.96	2727.09
849.284	2747.2
849.607	2684.6
849.931	2689.35
850.254	2705.85
850.577	2702.23
850.9	2668.56
851.223	2652.97
851.546	2648.67
851.869	2629.24
852.192	2629.46
852.515	2633.53
852.838	2641.67
853.161	2643.02
853.483	2612.74
853.806	2608.9
854.129	2611.84
854.451	2575.23
854.774	2571.16
855.096	2563.7
855.419	2579.75
855.741	2578.39
856.063	2544.5
856.385	2537.49
856.708	2522.12
857.03	2540.88
857.352	2495.68
857.674	2540.65
857.996	2474.21
858.318	2494.55
858.64	2514.21
858.961	2502.24
859.283	2443.03
859.605	2437.38
859.926	2476.25
860.248	2482.35
860.57	2518.51
860.891	2469.02
861.212	2449.36
861.534	2417.27
861.855	2438.74
862.176	2453.65
862.498	2443.48
862.819	2458.85
863.14	2434.67
863.461	2452.29
863.782	2438.28
864.103	2401.45
864.424	2384.5
864.745	2405.97
865.065	2418.85
865.386	2395.8
865.707	2390.83
866.027	2389.7
866.348	2376.14
866.668	2396.48
866.989	2382.69
867.309	2373.43
867.63	2389.47
867.95	2397.83
868.27	2387.44
868.59	2346.31
868.91	2409.13
869.23	2355.12
869.55	2352.18
869.87	2352.41
870.19	2334.11
870.51	2356.48
870.83	2326.65
871.15	2319.42
871.469	2356.25
871.789	2331.17
872.109	2369.58
872.428	2321.45
872.748	2302.24
873.067	2310.83
873.386	2330.26
873.706	2321.22
874.025	2282.36
874.344	2291.62
874.663	2310.38
874.982	2313.09
875.301	2318.74
875.62	2306.31
875.939	2300.66
876.258	2314.9
876.577	2286.2
876.896	2299.98
877.214	2282.81
877.533	2280.1
877.852	2275.35
878.17	2243.49
878.489	2247.1
878.807	2262.24
879.125	2248.68
879.444	2243.26
879.762	2229.25
880.08	2257.72
880.398	2232.19
880.716	2202.58
881.034	2235.12
881.352	2218.18
881.67	2230.61
881.988	2241.9
882.306	2217.5
882.624	2217.95
882.941	2246.65
883.259	2202.36
883.577	2215.92
883.894	2195.58
884.212	2212.53
884.529	2178.4
884.846	2186.99
885.164	2182.7
885.481	2208.01
885.798	2170.04
886.115	2154
886.432	2182.02
886.75	2135.69
887.067	2171.85
887.383	2162.58
887.7	2164.17
888.017	2157.39
888.334	2109.48
888.651	2127.11
888.967	2146.54
889.284	2136.37
889.6	2098.63
889.917	2084.39
890.233	2099.76
890.55	2082.59
890.866	2105.86
891.182	2083.04
891.498	2050.72
891.815	2065.19
892.131	2054.34
892.447	2068.58
892.763	2044.62
893.079	2054.56
893.395	2054.11
893.71	2046.66
894.026	2051.4
894.342	2056.6
894.657	2030.38
894.973	2014.57
895.289	2022.02
895.604	2022.25
895.92	2038.07
896.235	1993.55
896.55	1992.87
896.865	1998.07
897.181	1995.13
897.496	1988.13
897.811	1966.43
898.126	2003.72
898.441	1958.3
898.756	1936.83
899.071	1945.64
899.386	1964.17
899.7	1992.65
900.015	1956.04
900.33	1932.31
900.644	1904.51
900.959	1902.93
901.273	1908.58
901.588	1906.09
901.902	1894.57
902.216	1910.39
902.531	1884.85
902.845	1913.78
903.159	1863.16
903.473	1884.85
903.787	1881.01
904.101	1858.86
904.415	1881.01
904.729	1851.41
905.042	1841.46
905.356	1851.86
905.67	1824.97
905.984	1870.61
906.297	1812.09
906.611	1825.87
906.924	1784.06
907.237	1822.25
907.551	1808.02
907.864	1799.66
908.177	1759.88
908.491	1791.52
908.804	1764.4
909.117	1797.62
909.43	1780.9
909.743	1794.23
910.056	1749.04
910.368	1748.36
910.681	1723.73
910.994	1729.15
911.307	1753.56
911.619	1727.79
911.932	1728.7
912.244	1730.96
912.557	1716.95
912.869	1689.83
913.181	1693.22
913.494	1694.57
913.806	1690.28
914.118	1684.86
914.43	1645.99
914.742	1693.9
915.054	1680.56
915.366	1669.94
915.678	1642.6
915.99	1644.63
916.302	1655.48
916.613	1648.02
916.925	1603.96
917.236	1618.64
917.548	1609.15
917.859	1633.56
918.171	1605.31
918.482	1618.64
918.794	1596.5
919.105	1601.02
919.416	1578.42
919.727	1604.18
920.038	1576.84
920.349	1556.5
920.66	1582.49
920.971	1576.39
921.282	1567.35
921.593	1551.75
921.903	1530.28
922.214	1540
922.525	1528.48
922.835	1526.22
923.146	1513.34
923.456	1516.5
923.767	1514.24
924.077	1487.35
924.387	1492.55
924.697	1478.31
925.008	1473.34
925.318	1477.63
925.628	1489.38
925.938	1509.04
926.248	1483.96
926.558	1460
926.867	1474.24
927.177	1462.94
927.487	1461.36
927.796	1447.35
928.106	1420.23
928.416	1446.9
928.725	1430.63
929.034	1450.74
929.344	1416.39
929.653	1422.94
929.962	1413
930.271	1423.17
930.581	1426.78
930.89	1397.86
931.199	1374.58
931.508	1421.81
931.817	1371.42
932.125	1401.7
932.434	1377.52
932.743	1363.28
933.051	1358.31
933.36	1347.92
933.669	1348.82
933.977	1375.71
934.286	1347.92
934.594	1351.76
934.902	1330.97
935.21	1330.29
935.519	1339.78
935.827	1330.97
936.135	1327.8
936.443	1342.04
936.751	1326
937.059	1329.84
937.367	1278.09
937.674	1283.51
937.982	1315.6
938.29	1287.35
938.597	1271.76
938.905	1269.27
939.213	1288.71
939.52	1278.77
939.827	1259.33
940.135	1281.25
940.442	1265.66
940.749	1256.39
941.056	1260.69
941.363	1232.44
941.67	1236.28
941.977	1251.65
942.284	1235.6
942.591	1216.85
942.898	1191.76
943.205	1219.11
943.511	1252.1
943.818	1254.13
944.125	1213.46
944.431	1210.52
944.738	1213.91
945.044	1198.09
945.35	1211.42
945.657	1178.2
945.963	1200.58
946.269	1197.64
946.575	1175.72
946.881	1187.24
947.187	1197.86
947.493	1163.29
947.799	1186.79
948.105	1172.78
948.41	1147.92
948.716	1150.41
949.022	1135.04
949.327	1198.32
949.633	1121.26
949.938	1146.57
950.244	1139.56
950.549	1114.25
950.854	1129.84
951.16	1126.91
951.465	1155.83
951.77	1128.26
952.075	1125.55
952.38	1112.89
952.685	1112.22
952.99	1100.01
953.294	1084.65
953.599	1107.24
953.904	1074.7
954.209	1082.39
954.513	1067.25
954.818	1098.66
955.122	1105.21
955.426	1085.55
955.731	1093.23
956.035	1060.69
956.339	1101.37
956.643	1081.48
956.948	1051.43
957.252	1062.05
957.556	1055.49
957.86	1054.14
958.163	1070.41
958.467	1027.7
958.771	1028.38
959.075	1037.87
959.378	1033.57
959.682	1044.87
959.985	1001.94
960.289	1028.38
960.592	1036.06
960.896	993.58
961.199	1037.64
961.502	990.86
961.805	1002.84
962.108	996.06
962.411	974.14
962.714	996.51
963.017	981.82
963.32	982.73
963.623	988.83
963.926	966.91
964.228	994.71
964.531	967.81
964.833	994.25
965.136	947.25
965.438	961.03
965.741	940.7
966.043	935.72
966.345	942.28
966.648	973.46
966.95	940.02
967.252	927.81
967.554	950.41
967.856	952.22
968.158	937.53
968.46	936.85
968.761	926.23
969.063	938.89
969.365	907.7
969.666	927.36
969.968	924.42
970.269	914.93
970.571	906.8
970.872	916.52
971.174	919.68
971.475	911.09
971.776	899.57
972.077	902.73
972.378	910.19
972.679	895.27
972.98	891.66
973.281	890.75
973.582	889.4
973.883	900.47
974.183	872.45
974.484	894.14
974.785	883.52
975.085	881.94
975.386	879.45
975.686	862.05
975.986	884.88
976.287	881.26
976.587	873.8
976.887	860.25
977.187	874.93
977.487	846.46
977.787	869.51
978.087	850.53
978.387	867.7
978.687	889.4
978.987	839
979.286	831.09
979.586	834.71
979.885	856.18
980.185	825.9
980.484	818.89
980.784	818.44
981.083	805.33
981.382	810.76
981.682	811.43
981.981	820.7
982.28	798.55
982.579	803.52
982.878	794.26
983.177	834.03
983.475	796.29
983.774	839.91
984.073	817.08
984.372	795.39
984.67	788.84
984.969	792.9
985.267	782.51
985.566	799.91
985.864	764.88
986.162	777.54
986.461	773.92
986.759	793.58
987.057	787.03
987.355	770.53
987.653	772.79
987.951	776.18
988.249	747.48
988.547	791.1
988.844	757.65
989.142	755.16
989.44	760.59
989.737	749.29
990.035	750.42
990.332	747.25
990.63	750.19
990.927	740.93
991.224	738.67
991.521	746.12
991.819	725.33
992.116	744.77
992.413	741.38
992.71	721.49
993.006	736.63
993.303	734.83
993.6	730.98
993.897	721.72
994.193	695.28
994.49	704.77
994.787	707.48
995.083	726.69
995.379	726.01
995.676	710.65
995.972	689.18
996.268	719.91
996.565	702.28
996.861	718.55
997.157	704.77
997.453	669.06
997.749	705.22
998.044	677.2
998.34	680.59
998.636	689.18
998.932	709.97
999.227	678.78
999.523	698.89
999.818	693.24
1000.114	648.27
1000.409	656.86
1000.704	670.65
1001	666.8
1001.295	675.62
1001.59	675.17
1001.885	669.52
1002.18	646.47
1002.475	667.71
1002.77	656.64
1003.065	652.57
1003.359	640.14
1003.654	667.48
1003.949	653.02
1004.243	653.92
1004.538	636.52
1004.832	633.13
1005.127	635.84
1005.421	648.95
1005.715	652.79
1006.009	633.13
1006.304	635.62
1006.598	619.57
1006.892	629.74
1007.186	663.64
1007.48	612.57
1007.773	624.55
1008.067	629.74
1008.361	620.25
1008.655	608.27
1008.948	605.11
1009.242	601.95
1009.535	604.21
1009.829	601.27
1010.122	590.87
1010.415	612.12
1010.708	592.91
1011.001	599.24
1011.295	615.28
1011.588	591.78
1011.881	570.76
1012.173	580.25
1012.466	570.08
1012.759	601.5
1013.052	584.77
1013.344	582.06
1013.637	539.35
1013.93	579.35
1014.222	582.06
1014.514	553.36
1014.807	562.4
1015.099	579.58
1015.391	570.76
1015.683	552.23
1015.976	572.8
1016.268	565.79
1016.56	582.51
1016.851	576.19
1017.143	566.69
1017.435	543.19
1017.727	564.66
1018.018	543.19
1018.31	561.95
1018.602	540.48
1018.893	565.11
1019.185	535.28
1019.476	549.75
1019.767	566.69
1020.058	558.56
1020.35	529.41
1020.641	534.83
1020.932	525.79
1021.223	528.28
1021.514	531.89
1021.804	540.03
1022.095	482.18
1022.386	514.49
1022.677	528.5
1022.967	556.52
1023.258	540.03
1023.548	520.37
1023.839	513.59
1024.129	520.59
1024.419	495.96
1024.709	494.38
1025	521.05
1025.29	531.44
1025.58	518.11
1025.87	507.94
1026.16	491.22
1026.449	507.49
1026.739	498.22
1027.029	498.45
1027.319	480.82
1027.608	499.35
1027.898	476.3
1028.187	487.6
1028.477	471.1
1028.766	482.18
1029.055	495.74
1029.344	488.5
1029.634	483.53
1029.923	466.58
1030.212	481.5
1030.501	483.31
1030.79	458
1031.078	459.58
1031.367	469.3
1031.656	436.98
1031.945	465
1032.233	499.13
1032.522	480.14
1032.81	461.39
1033.099	443.31
1033.387	479.69
1033.675	481.5
1033.963	432.91
1034.251	457.09
1034.54	455.28
1034.828	465
1035.116	455.28
1035.403	446.7
1035.691	455.06
1035.979	473.82
1036.267	454.15
1036.554	441.5
1036.842	441.95
1037.129	456.64
1037.417	437.43
1037.704	432.23
1037.992	452.35
1038.279	439.01
1038.566	455.74
1038.853	455.74
1039.14	455.74
