Data from carpet_green_FLMS001491_00075.txt Node
Date: Wed Feb 08 10:35:50 GMT 2017
User: dcchb
Spectrometer: FLMS00149
Trigger mode: 0
Integration Time (sec): 2.000000E-2
Scans to average: 10
Electric dark correction enabled: true
Nonlinearity correction enabled: false
Boxcar width: 0
XAxis mode: Wavelengths
Number of Pixels in Spectrum: 2048
>>>>>Begin Spectral Data<<<<<
341.393	-22.64
341.776	-22.64
342.16	-22.64
342.543	-68.74
342.927	-82.53
343.31	-59.7
343.693	-53.37
344.077	-69.65
344.46	-54.05
344.843	-67.16
345.226	-20.38
345.61	-48.85
345.993	-3.66
346.376	7.64
346.759	1.31
347.142	26.4
347.525	52.39
347.908	49
348.291	77.47
348.674	63.91
349.057	98.71
349.44	121.99
349.823	146.39
350.206	152.5
350.588	174.19
350.971	193.17
351.354	201.31
351.737	216.9
352.119	212.16
352.502	229.56
352.884	252.15
353.267	263.91
353.65	276.79
354.032	256.67
354.414	291.93
354.797	273.62
355.179	293.96
355.562	292.38
355.944	307.07
356.326	306.39
356.709	307.97
357.091	288.76
357.473	323.79
357.855	319.5
358.238	324.92
358.62	307.97
359.002	305.94
359.384	319.5
359.766	303.45
360.148	307.75
360.53	322.89
360.912	330.8
361.294	319.27
361.676	324.02
362.057	310.91
362.439	327.86
362.821	316.11
363.203	292.15
363.584	300.51
363.966	308.88
364.348	307.07
364.729	281.98
365.111	293.28
365.493	295.54
365.874	273.85
366.256	285.6
366.637	274.98
367.019	278.14
367.4	272.72
367.781	290.35
368.163	286.28
368.544	269.1
368.925	283.34
369.306	306.84
369.688	277.01
370.069	295.09
370.45	296.67
370.831	289.89
371.212	292.83
371.593	272.49
371.974	281.53
372.355	273.62
372.736	278.59
373.117	285.37
373.498	289.22
373.879	297.8
374.26	290.35
374.641	288.54
375.021	280.18
375.402	278.37
375.783	290.57
376.163	300.74
376.544	285.37
376.925	292.61
377.305	293.28
377.686	270.68
378.066	282.44
378.447	321.08
378.827	295.09
379.208	288.76
379.588	291.7
379.968	309.1
380.349	308.2
380.729	311.36
381.109	292.83
381.489	305.94
381.87	282.89
382.25	287.41
382.63	288.54
383.01	293.28
383.39	292.61
383.77	289.67
384.15	286.05
384.53	284.7
384.91	312.27
385.29	307.75
385.67	307.75
386.049	312.27
386.429	301.87
386.809	297.35
387.189	303.45
387.568	290.8
387.948	307.97
388.328	290.35
388.707	321.08
389.087	296.45
389.466	312.94
389.846	317.01
390.225	307.52
390.605	298.03
390.984	300.97
391.363	323.79
391.743	316.79
392.122	283.79
392.501	327.86
392.881	309.1
393.26	308.42
393.639	325.6
394.018	304.36
394.397	303.45
394.776	321.98
395.155	299.84
395.534	327.18
395.913	318.59
396.292	325.37
396.671	318.37
397.05	333.28
397.429	311.81
397.808	317.01
398.186	322.89
398.565	308.2
398.944	323.79
399.323	328.54
399.701	331.02
400.08	330.8
400.458	315.66
400.837	309.33
401.215	326.5
401.594	312.27
401.972	334.64
402.351	342.1
402.729	331.93
403.107	336.9
403.486	314.3
403.864	327.63
404.242	329.89
404.62	329.89
404.999	329.44
405.377	307.29
405.755	311.59
406.133	334.19
406.511	345.94
406.889	340.97
407.267	333.73
407.645	324.02
408.023	326.73
408.401	325.37
408.779	322.21
409.156	345.94
409.534	350.23
409.912	341.64
410.29	339.61
410.667	321.31
411.045	338.03
411.422	359.5
411.8	338.93
412.178	329.89
412.555	340.74
412.933	352.04
413.31	343.23
413.687	354.52
414.065	325.82
414.442	361.08
414.819	348.88
415.197	358.59
415.574	347.29
415.951	366.95
416.328	356.11
416.705	361.08
417.082	354.98
417.46	360.63
417.837	359.95
418.214	375.77
418.591	357.69
418.967	364.92
419.344	345.94
419.721	377.57
420.098	363.11
420.475	360.85
420.852	365.6
421.228	367.63
421.605	365.15
421.982	358.82
422.358	365.82
422.735	365.6
423.111	353.85
423.488	366.5
423.864	385.94
424.241	372.6
424.617	360.63
424.994	357.46
425.37	383.68
425.746	378.03
426.123	382.77
426.499	353.62
426.875	387.29
427.251	380.29
427.627	376.22
428.003	373.96
428.379	401.98
428.756	389.33
429.132	383.68
429.507	403.34
429.883	382.32
430.259	416.44
430.635	410.12
431.011	394.75
431.387	390.68
431.763	394.98
432.138	411.92
432.514	403.56
432.89	423.68
433.265	417.35
433.641	423
434.016	411.25
434.392	420.96
434.767	394.98
435.143	398.14
435.518	422.55
435.894	421.87
436.269	421.19
436.644	418.7
437.02	408.31
437.395	427.07
437.77	426.84
438.145	427.07
438.52	426.61
438.895	461.64
439.271	438.36
439.646	450.79
440.021	427.52
440.395	443.11
440.77	429.32
441.145	423
441.52	439.04
441.895	463.45
442.27	444.24
442.645	476.56
443.019	441.75
443.394	444.47
443.769	444.24
444.143	461.87
444.518	461.64
444.892	468.65
445.267	450.79
445.641	475.2
446.016	461.19
446.39	457.8
446.764	467.97
447.139	467.52
447.513	479.27
447.887	485.82
448.262	474.97
448.636	481.75
449.01	487.63
449.384	473.84
449.758	468.42
450.132	463.67
450.506	485.59
450.88	491.02
451.254	484.69
451.628	495.31
452.002	513.39
452.376	490.34
452.75	499.15
453.123	506.38
453.497	489.89
453.871	531.24
454.244	514.29
454.618	506.16
454.992	521.3
455.365	502.77
455.739	527.4
456.112	548.64
456.486	526.05
456.859	537.34
457.232	541.64
457.606	525.14
457.979	537.8
458.352	550.23
458.725	558.36
459.099	547.06
459.472	554.52
459.845	554.97
460.218	582.09
460.591	578.47
460.964	551.81
461.337	554.97
461.71	592.26
462.083	572.82
462.456	571.69
462.829	587.74
463.201	585.03
463.574	597
463.947	600.39
464.32	606.04
464.692	644.46
465.065	607.63
465.438	629.09
465.81	618.92
466.183	618.47
466.555	632.94
466.928	666.61
467.3	641.3
467.672	668.87
468.045	658.47
468.417	688.75
468.789	668.64
469.161	659.15
469.534	685.82
469.906	697.34
470.278	692.82
470.65	687.17
471.022	707.96
471.394	710.67
471.766	716.55
472.138	729.66
472.51	733.05
472.882	737.34
473.253	735.98
473.625	757.68
473.997	768.75
474.369	762.2
474.74	773.27
475.112	799.03
475.484	783.21
475.855	817.11
476.227	808.75
476.598	823.66
476.97	847.84
477.341	871.8
477.713	879.03
478.084	829.77
478.455	875.41
478.827	867.96
479.198	898.01
479.569	923.78
479.94	920.84
480.311	926.71
480.682	947.73
481.053	962.42
481.424	945.7
481.795	984.34
482.166	1012.81
482.537	983.21
482.908	1009.65
483.279	1042.87
483.65	1049.42
484.021	1069.08
484.391	1061.62
484.762	1059.36
485.133	1092.13
485.503	1081.06
485.874	1089.19
486.244	1113.83
486.615	1113.83
486.985	1133.49
487.356	1166.71
487.726	1201.96
488.097	1209.64
488.467	1208.51
488.837	1220.49
489.207	1229.53
489.578	1237.21
489.948	1240.83
490.318	1254.61
490.688	1276.08
491.058	1272.92
491.428	1298.91
491.798	1308.4
492.168	1356.76
492.538	1335.06
492.908	1302.3
493.278	1341.62
493.648	1357.44
494.017	1397.21
494.387	1402.18
494.757	1414.16
495.126	1408.96
495.496	1401.73
495.866	1439.69
496.235	1438.11
496.605	1435.85
496.974	1436.08
497.344	1452.8
497.713	1458.9
498.082	1477.21
498.452	1508.17
498.821	1492.57
499.19	1485.34
499.559	1519.24
499.928	1528.96
500.298	1559.69
500.667	1546.81
501.036	1541.16
501.405	1564.21
501.774	1560.14
502.143	1587.49
502.512	1594.27
502.88	1586.81
503.249	1599.69
503.618	1577.09
503.987	1597.2
504.356	1618.45
504.724	1641.04
505.093	1609.63
505.462	1614.83
505.83	1632.68
506.199	1671.55
506.567	1682.17
506.936	1673.13
507.304	1686.01
507.672	1669.07
508.041	1701.61
508.409	1715.62
508.777	1726.24
509.145	1736.64
509.514	1750.65
509.882	1731.44
510.25	1782.06
510.618	1745
510.986	1737.99
511.354	1746.58
511.722	1790.42
512.09	1796.75
512.458	1800.14
512.826	1798.78
513.193	1835.39
513.561	1792.23
513.929	1821.83
514.297	1850.98
514.664	1858.67
515.032	1832.68
515.4	1863.64
515.767	1867.25
516.135	1888.5
516.502	1854.37
516.869	1900.92
517.237	1898.66
517.604	1923.52
517.972	1916.74
518.339	1928.04
518.706	1931.21
519.073	1937.99
519.44	1970.53
519.808	1961.94
520.175	1957.19
520.542	1962.84
520.909	1973.69
521.276	1988.61
521.643	1996.74
522.009	2006.46
522.376	2006.23
522.743	2009.17
523.11	2010.98
523.477	2034.03
523.843	2037.19
524.21	2039.68
524.577	2101.6
524.943	2083.52
525.31	2055.95
525.676	2142.95
526.043	2123.52
526.409	2161.93
526.776	2156.51
527.142	2157.42
527.508	2162.39
527.874	2181.82
528.241	2194.25
528.607	2160.13
528.973	2184.53
529.339	2177.53
529.705	2181.37
530.071	2183.86
530.437	2213.46
530.803	2246.68
531.169	2244.19
531.535	2222.72
531.901	2248.26
532.267	2226.79
532.632	2244.87
532.998	2246.23
533.364	2259.11
533.73	2251.2
534.095	2271.54
534.461	2276.96
534.826	2270.86
535.192	2298.43
535.557	2283.06
535.923	2265.89
536.288	2315.38
536.653	2335.49
537.019	2271.76
537.384	2310.63
537.749	2316.51
538.114	2300.46
538.479	2290.97
538.845	2287.81
539.21	2312.21
539.575	2317.64
539.94	2328.94
540.305	2338.43
540.67	2302.04
541.034	2305.89
541.399	2342.95
541.764	2325.09
542.129	2341.82
542.494	2333.91
542.858	2310.41
543.223	2348.37
543.587	2388.6
543.952	2345.43
544.316	2364.19
544.681	2366.68
545.045	2374.36
545.41	2384.98
545.774	2385.66
546.138	2370.97
546.503	2389.95
546.867	2376.84
547.231	2354.92
547.595	2394.24
547.959	2386.56
548.324	2362.61
548.688	2396.73
549.052	2424.07
549.416	2421.81
549.779	2432.21
550.143	2451.87
550.507	2414.58
550.871	2418.88
551.235	2381.36
551.599	2424.98
551.962	2432.44
552.326	2437.63
552.689	2450.06
553.053	2445.77
553.417	2413.23
553.78	2440.8
554.143	2433.79
554.507	2474.24
554.87	2468.14
555.234	2491.19
555.597	2446
555.96	2460.91
556.323	2479.67
556.686	2485.32
557.05	2502.72
557.413	2488.71
557.776	2475.82
558.139	2516.5
558.502	2472.89
558.865	2514.69
559.228	2471.53
559.59	2491.42
559.953	2493.68
560.316	2545.88
560.679	2493
561.041	2552.66
561.404	2550.17
561.767	2596.05
562.129	2578.42
562.492	2584.97
562.854	2540
563.217	2553.34
563.579	2559.44
563.941	2594.92
564.304	2564.41
564.666	2618.42
565.028	2604.18
565.39	2646.89
565.753	2631.98
566.115	2612.77
566.477	2632.43
566.839	2612.09
567.201	2645.31
567.563	2629.72
567.925	2684.18
568.287	2687.34
568.648	2654.8
569.01	2706.78
569.372	2668.81
569.734	2647.35
570.095	2689.83
570.457	2685.31
570.819	2690.73
571.18	2682.37
571.542	2729.83
571.903	2722.6
572.265	2694.12
572.626	2692.77
572.987	2707.68
573.349	2719.43
573.71	2719.21
574.071	2690.73
574.432	2683.95
574.794	2689.38
575.155	2676.72
575.516	2679.44
575.877	2687.34
576.238	2729.15
576.599	2713.56
576.96	2721.92
577.32	2719.21
577.681	2691.86
578.042	2718.08
578.403	2699.55
578.763	2722.37
579.124	2746.1
579.485	2738.87
579.845	2700.45
580.206	2683.95
580.566	2699.77
580.927	2678.98
581.287	2731.86
581.648	2692.32
582.008	2694.12
582.368	2667.91
582.728	2688.02
583.089	2656.84
583.449	2683.5
583.809	2682.37
584.169	2700.68
584.529	2706.33
584.889	2694.58
585.249	2702.49
585.609	2679.44
585.969	2662.94
586.329	2682.82
586.688	2660.68
587.048	2659.55
587.408	2658.19
587.768	2648.02
588.127	2647.57
588.487	2631.3
588.846	2654.8
589.206	2660
589.565	2641.24
589.925	2640.79
590.284	2638.53
590.643	2631.3
591.003	2614.58
591.362	2632.2
591.721	2664.29
592.08	2643.28
592.44	2617.29
592.799	2603.5
593.158	2625.2
593.517	2603.73
593.876	2612.54
594.235	2648.93
594.593	2639.44
594.952	2648.48
595.311	2640.79
595.67	2650.96
596.029	2636.27
596.387	2610.96
596.746	2650.51
597.104	2629.04
597.463	2644.63
597.822	2629.72
598.18	2643.05
598.538	2629.27
598.897	2623.84
599.255	2650.96
599.613	2647.8
599.972	2652.09
600.33	2663.62
600.688	2631.75
601.046	2664.07
601.404	2654.13
601.762	2651.41
602.12	2666.1
602.478	2669.49
602.836	2648.02
603.194	2612.09
603.552	2658.42
603.91	2661.81
604.268	2629.72
604.625	2659.55
604.983	2694.8
605.341	2674.24
605.698	2700.23
606.056	2670.85
606.413	2667.23
606.771	2702.03
607.128	2665.2
607.485	2648.25
607.843	2658.87
608.2	2668.59
608.557	2649.38
608.914	2729.83
609.272	2684.86
609.629	2684.63
609.986	2712.65
610.343	2716.04
610.7	2721.69
611.057	2707.68
611.414	2738.42
611.771	2730.28
612.127	2730.06
612.484	2760.56
612.841	2757.17
613.198	2744.29
613.554	2749.49
613.911	2748.13
614.267	2749.72
614.624	2769.38
614.98	2755.14
615.337	2763.05
615.693	2752.88
616.05	2773.22
616.406	2752.43
616.762	2728.25
617.118	2727.8
617.475	2752.65
617.831	2763.95
618.187	2784.29
618.543	2775.7
618.899	2761.69
619.255	2765.53
619.611	2782.03
619.967	2786.78
620.323	2774.8
620.678	2751.07
621.034	2743.84
621.39	2787.68
621.746	2774.35
622.101	2777.51
622.457	2754.46
622.812	2780.9
623.168	2790.84
623.523	2810.73
623.879	2790.17
624.234	2753.33
624.589	2758.76
624.945	2790.39
625.3	2770.51
625.655	2747.23
626.01	2743.61
626.365	2773.9
626.72	2761.24
627.075	2730.28
627.43	2739.55
627.785	2764.63
628.14	2732.99
628.495	2772.77
628.85	2778.42
629.205	2747
629.559	2746.1
629.914	2748.81
630.269	2752.43
630.623	2733.9
630.978	2739.77
631.332	2722.15
631.687	2746.1
632.041	2716.95
632.396	2734.57
632.75	2725.31
633.104	2721.47
633.459	2751.07
633.813	2721.24
634.167	2720.34
634.521	2724.18
634.875	2700.9
635.229	2710.62
635.583	2685.99
635.937	2707.91
636.291	2719.89
636.645	2728.02
636.999	2717.4
637.352	2727.8
637.706	2685.99
638.06	2703.39
638.413	2716.95
638.767	2707.46
639.121	2686.21
639.474	2732.32
639.828	2736.16
640.181	2723.05
640.534	2729.6
640.888	2712.43
641.241	2699.55
641.594	2704.75
641.947	2700
642.301	2742.03
642.654	2705.65
643.007	2734.35
643.36	2759.21
643.713	2667.01
644.066	2752.88
644.419	2711.52
644.771	2718.3
645.124	2732.54
645.477	2701.13
645.83	2697.06
646.182	2717.85
646.535	2663.39
646.888	2697.51
647.24	2707.91
647.593	2710.39
647.945	2710.39
648.298	2683.95
648.65	2688.25
649.002	2679.89
649.355	2730.06
649.707	2668.36
650.059	2722.82
650.411	2775.25
650.763	2778.87
651.115	2831.3
651.467	2803.95
651.819	2811.86
652.171	2865.42
652.523	2842.37
652.875	2824.06
653.227	2824.97
653.578	2835.36
653.93	2845.98
654.282	2864.52
654.633	2855.7
654.985	2877.85
655.337	2863.39
655.688	2891.63
656.039	2878.3
656.391	2918.52
656.742	2932.31
657.094	2921.24
657.445	2959.2
657.796	2937.06
658.147	2967.79
658.498	3016.83
658.849	3012.08
659.2	2968.02
659.551	3017.05
659.902	2993.78
660.253	3009.37
660.604	3036.04
660.955	3056.6
661.306	3022.7
661.656	3085.07
662.007	3095.47
662.358	3069.93
662.708	3101.8
663.059	3119.88
663.409	3125.3
663.76	3131.85
664.11	3160.78
664.461	3152.19
664.811	3209.59
665.161	3208.23
665.511	3173.66
665.862	3231.74
666.212	3231.51
666.562	3288.23
666.912	3263.15
667.262	3307.89
667.612	3320.55
667.962	3373.43
668.312	3340.66
668.662	3402.13
669.011	3359.42
669.361	3416.36
669.711	3426.99
670.06	3441.68
670.41	3432.86
670.76	3455.91
671.109	3524.84
671.459	3494.56
671.808	3543.82
672.157	3537.94
672.507	3544.95
672.856	3531.84
673.205	3600.31
673.554	3644.83
673.904	3603.93
674.253	3648.22
674.602	3659.52
674.951	3668.79
675.3	3684.83
675.649	3774.55
675.998	3769.8
676.346	3759.86
676.695	3818.84
677.044	3832.63
677.393	3810.25
677.741	3840.53
678.09	3856.13
678.438	3916.46
678.787	3915.11
679.135	3923.92
679.484	3989.91
679.832	3991.04
680.181	3960.08
680.529	3998.04
680.877	4013.64
681.225	4065.61
681.573	4135.89
681.922	4109.91
682.27	4127.31
682.618	4128.21
682.966	4160.07
683.314	4173.86
683.661	4186.51
684.009	4184.03
684.357	4210.24
684.705	4259.51
685.053	4283.23
685.4	4297.02
685.748	4375.21
686.095	4358.04
686.443	4368.88
686.79	4353.52
687.138	4404.36
687.485	4422.21
687.832	4473.29
688.18	4481.87
688.527	4494.98
688.874	4527.75
689.221	4567.75
689.568	4539.73
689.915	4521.87
690.262	4578.14
690.609	4568.2
690.956	4593.51
691.303	4656.33
691.65	4647.29
691.997	4673.28
692.344	4650.23
692.69	4649.78
693.037	4734.52
693.383	4742.66
693.73	4727.97
694.077	4783.33
694.423	4836.21
694.769	4801.64
695.116	4866.95
695.462	4800.51
695.808	4860.39
696.155	4895.42
696.501	4916.89
696.847	4883.22
697.193	4911.69
697.539	4963.22
697.885	4970
698.231	5019.71
698.577	5034.85
698.923	5069.43
699.269	5039.6
699.614	5035.31
699.96	5059.71
700.306	5099.03
700.651	5094.96
700.997	5099.03
701.342	5119.15
701.688	5134.06
702.033	5139.48
702.379	5165.25
702.724	5181.97
703.069	5240.72
703.415	5169.31
703.76	5242.98
704.105	5262.19
704.45	5256.32
704.795	5316.2
705.14	5276.2
705.485	5297.22
705.83	5322.98
706.175	5324.56
706.52	5346.94
706.865	5342.42
707.209	5353.26
707.554	5416.76
707.899	5417.22
708.243	5388.06
708.588	5442.3
708.932	5450.21
709.277	5497.21
709.621	5513.03
709.966	5508.74
710.31	5516.87
710.654	5512.36
710.998	5536.31
711.342	5498.8
711.687	5559.59
712.031	5574.95
712.375	5582.41
712.719	5584.67
713.063	5560.04
713.407	5610.88
713.75	5685.46
714.094	5608.62
714.438	5625.8
714.782	5654.05
715.125	5629.64
715.469	5684.33
715.812	5680.49
716.156	5644.55
716.499	5698.11
716.843	5758.9
717.186	5640.94
717.53	5772.01
717.873	5736.76
718.216	5779.24
718.559	5742.86
718.902	5727.49
719.246	5727.26
719.589	5760.71
719.932	5748.28
720.275	5774.72
720.617	5768.17
720.96	5790.77
721.303	5782.63
721.646	5829.86
721.989	5857.66
722.331	5786.92
722.674	5851.1
723.016	5825.34
723.359	5817.66
723.701	5878.45
724.044	5853.82
724.386	5813.59
724.729	5859.46
725.071	5872.35
725.413	5885.23
725.755	5872.12
726.097	5888.16
726.439	5888.16
726.782	5879.8
727.124	5899.46
727.465	5879.35
727.807	5898.79
728.149	5875.96
728.491	5906.47
728.833	5918.45
729.175	5875.06
729.516	5919.12
729.858	5879.58
730.199	5906.02
730.541	5886.81
730.882	5866.7
731.224	5931.1
731.565	5870.76
731.906	5920.93
732.248	5905.11
732.589	5892.01
732.93	5837.54
733.271	5891.1
733.612	5911.89
733.953	5935.62
734.294	5906.47
734.635	5887.03
734.976	5886.81
735.317	5864.89
735.658	5855.85
735.999	5905.57
736.339	5862.4
736.68	5904.21
737.021	5902.85
737.361	5835.06
737.702	5872.8
738.042	5870.99
738.383	5841.16
738.723	5900.82
739.063	5861.05
739.404	5934.49
739.744	5897.66
740.084	5881.16
740.424	5886.81
740.764	5850.43
741.104	5892.46
741.444	5855.85
741.784	5851.78
742.124	5887.94
742.464	5852.69
742.804	5859.46
743.143	5833.25
743.483	5874.61
743.823	5831.67
744.162	5835.06
744.502	5826.02
744.841	5830.31
745.181	5827.15
745.52	5757.09
745.86	5831.22
746.199	5827.83
746.538	5794.83
746.877	5747.15
747.216	5781.27
747.556	5752.12
747.895	5796.87
748.234	5801.39
748.573	5758.68
748.911	5742.63
749.25	5726.13
749.589	5734.72
749.928	5684.55
750.267	5720.71
750.605	5721.62
750.944	5696.08
751.283	5671.67
751.621	5714.38
751.96	5692.01
752.298	5638
752.636	5657.66
752.975	5641.39
753.313	5646.59
753.651	5669.41
753.989	5603.88
754.327	5634.84
754.666	5574.73
755.004	5607.49
755.342	5594.61
755.679	5573.14
756.017	5517.1
756.355	5555.29
756.693	5520.26
757.031	5523.65
757.368	5546.48
757.706	5492.02
758.044	5506.03
758.381	5474.62
758.719	5483.66
759.056	5472.58
759.394	5482.07
759.731	5412.24
760.068	5432.13
760.405	5384.9
760.743	5356.88
761.08	5384.9
761.417	5370.89
761.754	5371.79
762.091	5332.7
762.428	5335.64
762.765	5293.15
763.102	5281.63
763.438	5356.43
763.775	5266.94
764.112	5265.58
764.449	5287.95
764.785	5251.8
765.122	5232.81
765.458	5170.22
765.795	5181.06
766.131	5180.84
766.467	5135.87
766.804	5133.38
767.14	5107.85
767.476	5123.89
767.812	5111.01
768.148	5113.5
768.485	5058.36
768.821	5024.23
769.157	5017.9
769.492	5030.33
769.828	5015.64
770.164	4969.54
770.5	4969.09
770.836	4950.11
771.171	4941.97
771.507	4919.15
771.842	4876.67
772.178	4921.41
772.513	4920.96
772.849	4846.84
773.184	4830.57
773.519	4894.97
773.855	4824.46
774.19	4797.12
774.525	4806.61
774.86	4719.83
775.195	4791.7
775.53	4801.64
775.865	4763.45
776.2	4673.96
776.535	4725.26
776.87	4732.26
777.205	4684.35
777.539	4660.4
777.874	4671.47
778.209	4597.58
778.543	4629.67
778.878	4600.97
779.212	4570.68
779.547	4581.98
779.881	4603.9
780.215	4551.02
780.55	4559.16
780.884	4475.32
781.218	4488.43
781.552	4508.54
781.886	4483.91
782.22	4460.86
782.554	4439.39
782.888	4404.59
783.222	4422.89
783.556	4402.55
783.889	4389.22
784.223	4331.37
784.557	4361.65
784.89	4300.86
785.224	4320.3
785.557	4264.03
785.891	4318.26
786.224	4353.97
786.558	4303.12
786.891	4267.42
787.224	4214.99
787.557	4228.1
787.891	4195.55
788.224	4201.43
788.557	4212.73
788.89	4220.64
789.223	4152.84
789.556	4124.37
789.888	4100.87
790.221	4155.33
790.554	4097.25
790.887	4116.46
791.219	4083.24
791.552	4098.38
791.884	4075.78
792.217	4056.8
792.549	4071.26
792.882	4010.47
793.214	4036.91
793.546	4041.43
793.879	3961.89
794.211	3970.47
794.543	3965.5
794.875	3963.92
795.207	3989.23
795.539	3960.31
795.871	3959.4
796.203	3858.39
796.535	3906.3
796.867	3872.85
797.198	3878.95
797.53	3856.13
797.862	3830.14
798.193	3884.15
798.525	3830.37
798.856	3843.92
799.188	3775.45
799.519	3750.37
799.85	3793.53
800.182	3786.07
800.513	3775.9
800.844	3746.98
801.175	3774.77
801.506	3744.27
801.837	3741.55
802.168	3681.67
802.499	3724.15
802.83	3679.41
803.161	3690.03
803.491	3709.24
803.822	3665.85
804.153	3649.13
804.483	3644.16
804.814	3604.61
805.145	3649.58
805.475	3637.83
805.805	3626.3
806.136	3586.76
806.466	3605.74
806.796	3582.01
807.126	3550.15
807.457	3578.17
807.787	3560.99
808.117	3541.79
808.447	3558.96
808.777	3536.36
809.107	3510.15
809.436	3480.32
809.766	3512.18
810.096	3473.31
810.426	3476.93
810.755	3490.71
811.085	3460.88
811.414	3454.78
811.744	3480.77
812.073	3424.5
812.403	3439.19
812.732	3429.25
813.061	3438.29
813.39	3393.99
813.719	3438.74
814.049	3418.85
814.378	3398.96
814.707	3381.79
815.036	3336.37
815.365	3399.64
815.693	3366.2
816.022	3350.83
816.351	3348.34
816.68	3318.51
817.008	3336.82
817.337	3329.14
817.665	3308.8
817.994	3282.13
818.322	3300.21
818.651	3267.44
818.979	3287.78
819.307	3296.14
819.636	3262.7
819.964	3236.71
820.292	3290.27
820.62	3243.04
820.948	3245.3
821.276	3260.21
821.604	3233.09
821.932	3264.73
822.259	3218.86
822.587	3175.92
822.915	3229.25
823.243	3289.59
823.57	3236.93
823.898	3261.79
824.225	3225.86
824.553	3187.67
824.88	3234.22
825.207	3224.05
825.535	3246.2
825.862	3249.14
826.189	3211.62
826.516	3233.54
826.843	3244.62
827.17	3246.2
827.497	3258.4
827.824	3218.4
828.151	3240.32
828.478	3207.56
828.805	3267.44
829.131	3239.42
829.458	3261.79
829.785	3220.66
830.111	3222.02
830.438	3218.86
830.764	3252.08
831.09	3226.77
831.417	3224.05
831.743	3250.72
832.069	3230.38
832.395	3187.44
832.722	3229.7
833.048	3220.89
833.374	3215.69
833.7	3197.84
834.026	3215.92
834.351	3241.91
834.677	3182.02
835.003	3196.94
835.329	3212.3
835.654	3167.33
835.98	3232.42
836.306	3192.87
836.631	3190.16
836.956	3172.76
837.282	3175.02
837.607	3167.56
837.932	3179.08
838.258	3179.08
838.583	3164.17
838.908	3126.88
839.233	3170.27
839.558	3147.22
839.883	3137.5
840.208	3090.27
840.533	3123.94
840.858	3104.96
841.182	3152.19
841.507	3119.2
841.832	3103.38
842.156	3132.3
842.481	3099.09
842.805	3052.08
843.13	3111.29
843.454	3066.77
843.778	3076.94
844.103	3085.75
844.427	3060.67
844.751	3041.91
845.075	3050.5
845.399	3029.71
845.723	3023.15
846.047	3022.7
846.371	3018.64
846.695	3012.76
847.019	3001.91
847.343	2983.61
847.666	2943.61
847.99	2955.13
848.313	2930.28
848.637	2936.83
848.96	2921.01
849.284	2937.06
849.607	2907.45
849.931	2933.67
850.254	2874.01
850.577	2898.86
850.9	2878.3
851.223	2825.19
851.546	2817.96
851.869	2797.62
852.192	2871.97
852.515	2818.87
852.838	2784.07
853.161	2822.03
853.483	2785.87
853.806	2743.61
854.129	2770.73
854.451	2778.19
854.774	2715.14
855.096	2730.28
855.419	2725.99
855.741	2707.46
856.063	2743.39
856.385	2720.56
856.708	2691.19
857.03	2704.75
857.352	2707.68
857.674	2702.94
857.996	2657.51
858.318	2659.55
858.64	2678.08
858.961	2619.55
859.283	2665.65
859.605	2641.92
859.926	2665.42
860.248	2646.67
860.57	2629.27
860.891	2628.59
861.212	2636.72
861.534	2572.32
861.855	2633.33
862.176	2603.28
862.498	2619.55
862.819	2629.27
863.14	2626.56
863.461	2621.58
863.782	2565.09
864.103	2597.4
864.424	2557.18
864.745	2573.22
865.065	2586.1
865.386	2567.57
865.707	2555.14
866.027	2575.03
866.348	2569.83
866.668	2560.57
866.989	2589.72
867.309	2509.04
867.63	2542.94
867.95	2569.38
868.27	2515.37
868.59	2544.3
868.91	2532.77
869.23	2496.39
869.55	2505.2
869.87	2542.04
870.19	2483.96
870.51	2492.55
870.83	2485.99
871.15	2494.81
871.469	2476.73
871.789	2485.54
872.109	2503.62
872.428	2452.55
872.748	2464.3
873.067	2483.96
873.386	2469.27
873.706	2487.8
874.025	2459.1
874.344	2488.48
874.663	2450.74
874.982	2439.89
875.301	2480.12
875.62	2454.36
875.939	2440.35
876.258	2420.91
876.577	2415.71
876.896	2451.42
877.214	2405.32
877.533	2399.22
877.852	2429.05
878.17	2432.21
878.489	2404.64
878.807	2399.67
879.125	2383.17
879.444	2374.58
879.762	2376.17
880.08	2408.03
880.398	2388.37
880.716	2401.93
881.034	2372.1
881.352	2380.01
881.67	2321.48
881.988	2377.75
882.306	2367.8
882.624	2346.34
882.941	2344.98
883.259	2349.95
883.577	2356.05
883.894	2349.73
884.212	2320.8
884.529	2342.95
884.846	2315.83
885.164	2315.38
885.481	2297.98
885.798	2336.85
886.115	2272.44
886.432	2310.41
886.75	2297.07
887.067	2298.88
887.383	2309.5
887.7	2307.47
888.017	2256.17
888.334	2279.22
888.651	2266.34
888.967	2267.92
889.284	2257.75
889.6	2228.83
889.917	2235.83
890.233	2223.63
890.55	2241.25
890.866	2243.06
891.182	2185.66
891.498	2233.8
891.815	2190.41
892.131	2209.84
892.447	2205.1
892.763	2214.59
893.079	2175.49
893.395	2189.28
893.71	2196.74
894.026	2191.09
894.342	2147.47
894.657	2140.24
894.973	2165.78
895.289	2180.01
895.604	2156.06
895.92	2114.48
896.235	2131.43
896.55	2119.45
896.865	2127.13
897.181	2103.41
897.496	2114.7
897.811	2112.22
898.126	2124.87
898.441	2121.03
898.756	2083.07
899.071	2078.55
899.386	2055.04
899.7	2072.67
900.015	2080.13
900.33	2039.45
900.644	2069.51
900.959	2063.18
901.273	2061.82
901.588	2040.81
901.902	1999.23
902.216	2023.18
902.531	1996.97
902.845	1991.32
903.159	1970.98
903.473	2005.55
903.787	2006.91
904.101	2001.03
904.415	1953.8
904.729	1973.01
905.042	1979.11
905.356	1942.28
905.67	1984.54
905.984	1967.36
906.297	1945.44
906.611	1933.24
906.924	1954.26
907.237	1914.48
907.551	1925.1
907.864	1930.3
908.177	1899.57
908.491	1928.49
908.804	1898.66
909.117	1881.94
909.43	1861.38
909.743	1889.63
910.056	1862.96
910.368	1860.47
910.681	1837.65
910.994	1862.06
911.307	1845.33
911.619	1807.14
911.932	1848.5
912.244	1824.99
912.557	1818.67
912.869	1848.72
913.181	1802.62
913.494	1813.7
913.806	1808.5
914.118	1784.32
914.43	1799.01
914.742	1764.66
915.054	1777.31
915.366	1766.69
915.678	1739.8
915.99	1729.4
916.302	1733.25
916.613	1736.64
916.925	1754.71
917.236	1725.79
917.548	1719.46
917.859	1701.38
918.171	1735.51
918.482	1698.9
918.794	1675.17
919.105	1680.14
919.416	1688.05
919.727	1670.87
920.038	1669.52
920.349	1653.93
920.66	1649.86
920.971	1671.33
921.282	1662.74
921.593	1625.45
921.903	1658.67
922.214	1637.88
922.525	1609.63
922.835	1606.47
923.146	1602.85
923.456	1619.12
923.767	1641.27
924.077	1575.96
924.387	1590.65
924.697	1563.98
925.008	1586.36
925.318	1575.96
925.628	1543.19
925.938	1569.18
926.248	1536.41
926.558	1549.75
926.867	1542.97
927.177	1528.96
927.487	1548.39
927.796	1527.38
928.106	1525.79
928.416	1515.17
928.725	1540.48
929.034	1521.95
929.344	1487.15
929.653	1491.9
929.962	1493.7
930.271	1473.14
930.581	1464.1
930.89	1472.01
931.199	1475.4
931.508	1483.99
931.817	1480.37
932.125	1484.66
932.434	1452.8
932.743	1450.54
933.051	1434.04
933.36	1422.29
933.669	1427.04
933.977	1414.16
934.286	1404.89
934.594	1403.31
934.902	1410.77
935.21	1423.65
935.519	1411.67
935.827	1417.32
936.135	1400.82
936.443	1380.26
936.751	1366.25
937.059	1371.9
937.367	1382.52
937.674	1370.09
937.982	1373.25
938.29	1343.43
938.597	1351.33
938.905	1355.85
939.213	1334.39
939.52	1346.59
939.827	1356.53
940.135	1358.57
940.442	1340.71
940.749	1351.11
941.056	1349.53
941.363	1312.47
941.67	1309.75
941.977	1303.43
942.284	1325.57
942.591	1334.61
942.898	1303.88
943.205	1293.48
943.511	1287.83
943.818	1286.03
944.125	1268.4
944.431	1287.16
944.738	1292.35
945.044	1262.3
945.35	1252.35
945.657	1292.58
945.963	1251.68
946.269	1250.55
946.575	1270.88
946.881	1256.87
947.187	1240.38
947.493	1233.6
947.799	1204.67
948.105	1237.44
948.41	1206.25
948.716	1229.53
949.022	1178.46
949.327	1231.34
949.633	1209.64
949.938	1204.22
950.244	1203.99
950.549	1189.53
950.854	1189.98
951.16	1185.92
951.465	1195.63
951.77	1164.67
952.075	1174.84
952.38	1147.95
952.685	1173.26
952.99	1144.56
953.294	1173.49
953.599	1142.98
953.904	1144.33
954.209	1138.91
954.513	1111.79
954.818	1139.36
955.122	1148.85
955.426	1145.92
955.731	1128.06
956.035	1136.2
956.339	1111.57
956.643	1122.87
956.948	1120.83
957.252	1094.62
957.556	1123.09
957.86	1086.71
958.163	1111.34
958.467	1095.75
958.771	1097.33
959.075	1076.09
959.378	1054.62
959.682	1079.48
959.985	1088.29
960.289	1063.66
960.592	1081.06
960.896	1067.95
961.199	1047.39
961.502	1056.43
961.805	1060.95
962.108	1066.6
962.411	1049.65
962.714	1028.86
963.017	1053.72
963.32	1056.65
963.623	1031.12
963.926	1008.29
964.228	1044.9
964.531	1025.92
964.833	1031.57
965.136	1034.05
965.438	1031.79
965.741	1019.82
966.043	1025.24
966.345	1011.46
966.648	1009.42
966.95	1036.54
967.252	994.28
967.554	978.24
967.856	991.8
968.158	988.41
968.46	998.35
968.761	998.35
969.063	933.04
969.365	994.96
969.666	985.69
969.968	972.59
970.269	966.49
970.571	955.86
970.872	970.1
971.174	964
971.475	946.37
971.776	943.89
972.077	940.72
972.378	960.16
972.679	916.54
972.98	957.45
973.281	927.16
973.582	921.29
973.883	930.33
974.183	926.71
974.484	914.06
974.785	933.49
975.085	907.96
975.386	926.49
975.686	917.9
975.986	886.26
976.287	915.41
976.587	889.43
976.887	904.57
977.187	901.4
977.487	917.9
977.787	883.55
978.087	890.1
978.387	896.43
978.687	900.72
978.987	880.84
979.286	870.44
979.586	877.9
979.885	853.95
980.185	862.31
980.484	878.35
980.784	867.51
981.083	889.2
981.382	850.78
981.682	855.98
981.981	851.46
982.28	895.75
982.579	848.52
982.878	848.3
983.177	843.1
983.475	835.64
983.774	834.06
984.073	837.22
984.372	827.05
984.67	851.69
984.969	829.77
985.267	829.99
985.566	835.64
985.864	807.62
986.162	808.98
986.461	823.89
986.759	834.96
987.057	813.72
987.355	802.42
987.653	804.46
987.951	806.94
988.249	816.21
988.547	801.29
988.844	804
989.142	771.01
989.44	808.3
989.737	788.64
990.035	766.49
990.332	775.98
990.63	763.1
990.927	777.11
991.224	777.56
991.521	759.26
991.819	745.25
992.116	765.59
992.413	767.17
992.71	763.33
993.006	752.71
993.303	768.75
993.6	751.12
993.897	763.33
994.193	750.22
994.49	745.02
994.787	765.14
995.083	744.12
995.379	740.73
995.676	729.66
995.972	721.29
996.268	739.6
996.565	749.54
996.861	730.33
997.157	736.21
997.453	741.18
997.749	729.43
998.044	721.29
998.34	745.7
998.636	714.97
998.932	694.18
999.227	685.82
999.523	716.32
999.818	700.05
1000.114	706.15
1000.409	700.96
1000.704	711.13
1001	681.97
1001.295	700.28
1001.59	694.63
1001.885	700.05
1002.18	704.12
1002.475	696.44
1002.77	672.48
1003.065	670.45
1003.359	660.96
1003.654	685.59
1003.949	693.27
1004.243	682.2
1004.538	674.52
1004.832	678.58
1005.127	663.67
1005.421	653.73
1005.715	650.34
1006.009	668.19
1006.304	665.02
1006.598	658.7
1006.892	665.93
1007.186	634.97
1007.48	652.14
1007.773	634.07
1008.067	649.88
1008.361	651.47
1008.655	669.77
1008.948	651.47
1009.242	627.51
1009.535	661.18
1009.829	640.84
1010.122	652.37
1010.415	613.73
1010.708	608.08
1011.001	607.4
1011.295	594.74
1011.588	611.69
1011.881	598.13
1012.173	626.83
1012.466	627.06
1012.759	589.09
1013.052	602.43
1013.344	599.04
1013.637	608.3
1013.93	589.77
1014.222	591.58
1014.514	589.55
1014.807	599.26
1015.099	566.5
1015.391	569.89
1015.683	590
1015.976	583.67
1016.268	582.99
1016.56	567.85
1016.851	592.71
1017.143	576.21
1017.435	573.95
1017.727	564.24
1018.018	557.01
1018.31	573.5
1018.602	557.46
1018.893	564.24
1019.185	568.76
1019.476	571.02
1019.767	531.7
1020.058	561.3
1020.35	554.29
1020.641	570.79
1020.932	543.67
1021.223	540.73
1021.514	542.32
1021.804	538.7
1022.095	541.41
1022.386	546.61
1022.677	525.82
1022.967	539.38
1023.258	549.32
1023.548	533.05
1023.839	512.94
1024.129	529.89
1024.419	526.05
1024.709	503.22
1025	518.59
1025.29	535.31
1025.58	537.34
1025.87	520.4
1026.16	506.84
1026.449	504.35
1026.739	537.12
1027.029	514.29
1027.319	523.56
1027.608	509.1
1027.898	520.4
1028.187	514.52
1028.477	502.54
1028.766	491.7
1029.055	497.57
1029.344	490.79
1029.634	497.35
1029.923	473.39
1030.212	496.67
1030.501	503.67
1030.79	479.95
1031.078	501.64
1031.367	479.27
1031.656	489.89
1031.945	472.71
1032.233	495.99
1032.522	470.68
1032.81	502.32
1033.099	477.46
1033.387	448.31
1033.675	483.56
1033.963	482.88
1034.251	476.78
1034.54	481.07
1034.828	484.01
1035.116	468.65
1035.403	483.11
1035.691	463
1035.979	473.62
1036.267	470
1036.554	479.72
1036.842	464.8
1037.129	457.35
1037.417	457.12
1037.704	467.06
1037.992	454.41
1038.279	462.54
1038.566	454.86
1038.853	454.86
1039.14	454.86
