Data from carpet_green_FLMS001491_00046.txt Node
Date: Wed Feb 08 10:35:25 GMT 2017
User: dcchb
Spectrometer: FLMS00149
Trigger mode: 0
Integration Time (sec): 2.000000E-2
Scans to average: 10
Electric dark correction enabled: true
Nonlinearity correction enabled: false
Boxcar width: 0
XAxis mode: Wavelengths
Number of Pixels in Spectrum: 2048
>>>>>Begin Spectral Data<<<<<
341.393	-52.48
341.776	-52.48
342.16	-52.48
342.543	-60.39
342.927	-67.17
343.31	-64.01
343.693	-67.63
344.077	-64.01
344.46	-61.98
344.843	-65.14
345.226	-50.22
345.61	-24.46
345.993	-23.33
346.376	9.89
346.759	1.75
347.142	34.74
347.525	37
347.908	70.22
348.291	78.36
348.674	90.79
349.057	98.02
349.44	124.46
349.823	126.49
350.206	150.9
350.588	171.46
350.971	182.09
351.354	215.31
351.737	199.94
352.119	218.02
352.502	239.71
352.884	234.06
353.267	248.07
353.65	270.67
354.032	274.06
354.414	292.82
354.797	282.2
355.179	296.66
355.562	287.85
355.944	302.08
356.326	277
356.709	298.69
357.091	286.26
357.473	301.86
357.855	300.73
358.238	316.09
358.62	302.99
359.002	298.01
359.384	288.52
359.766	301.86
360.148	300.27
360.53	311.8
360.912	313.38
361.294	317.68
361.676	286.49
362.057	318.58
362.439	316.77
362.821	275.87
363.203	296.43
363.584	300.27
363.966	303.89
364.348	302.08
364.729	274.74
365.111	266.83
365.493	292.14
365.874	275.87
366.256	286.49
366.637	285.81
367.019	271.12
367.4	273.16
367.781	290.33
368.163	271.57
368.544	276.77
368.925	281.07
369.306	271.12
369.688	289.2
370.069	281.29
370.45	258.02
370.831	287.17
371.212	267.51
371.593	272.25
371.974	270.67
372.355	275.87
372.736	279.71
373.117	268.41
373.498	304.79
373.879	264.57
374.26	271.57
374.641	298.24
375.021	288.07
375.402	291.46
375.783	263.89
376.163	275.87
376.544	274.96
376.925	291.69
377.305	270.67
377.686	277.22
378.066	269.77
378.447	294.63
378.827	292.14
379.208	289.2
379.588	286.04
379.968	305.92
380.349	272.48
380.729	281.97
381.109	257.56
381.489	285.81
381.87	293.5
382.25	300.95
382.63	277.22
383.01	297.79
383.39	288.52
383.77	298.01
384.15	275.42
384.53	286.72
384.91	295.08
385.29	286.49
385.67	305.02
386.049	309.31
386.429	303.66
386.809	305.25
387.189	319.26
387.568	291.69
387.948	284
388.328	283.78
388.707	296.66
389.087	302.99
389.466	293.5
389.846	278.81
390.225	280.16
390.605	321.52
390.984	284.91
391.363	292.37
391.743	297.79
392.122	296.66
392.501	293.27
392.881	304.34
393.26	310.44
393.639	299.14
394.018	306.38
394.397	321.29
394.776	300.73
395.155	290.56
395.534	284
395.913	300.5
396.292	311.12
396.671	277.45
397.05	304.79
397.429	310.67
397.808	308.18
398.186	323.55
398.565	308.64
398.944	279.48
399.323	296.43
399.701	307.51
400.08	316.77
400.458	311.57
400.837	298.01
401.215	289.2
401.594	300.95
401.972	304.79
402.351	302.31
402.729	326.94
403.107	299.6
403.486	309.31
403.864	334.4
404.242	313.61
404.62	305.92
404.999	305.92
405.377	319.48
405.755	320.16
406.133	321.07
406.511	322.19
406.889	296.88
407.267	278.35
407.645	321.07
408.023	310.9
408.401	309.54
408.779	313.16
409.156	299.82
409.534	316.55
409.912	324.45
410.29	310.22
410.667	319.71
411.045	324.91
411.422	309.09
411.8	316.32
412.178	316.32
412.555	310.67
412.933	319.48
413.31	317.9
413.687	326.04
414.065	309.09
414.442	324.91
414.819	317.45
415.197	310.44
415.574	330.33
415.951	319.94
416.328	313.38
416.705	330.56
417.082	350.67
417.46	323.1
417.837	313.61
418.214	334.62
418.591	338.24
418.967	340.05
419.344	331.01
419.721	335.75
420.098	339.82
420.475	316.09
420.852	338.01
421.228	330.1
421.605	347.96
421.982	355.41
422.358	337.79
422.735	333.49
423.111	345.02
423.488	323.78
423.864	311.12
424.241	339.37
424.617	335.75
424.994	334.85
425.37	349.99
425.746	307.28
426.123	364.68
426.499	353.83
426.875	338.92
427.251	344.79
427.627	326.94
428.003	339.37
428.379	340.27
428.756	362.65
429.132	362.19
429.507	351.57
429.883	335.75
430.259	341.63
430.635	338.69
431.011	357.22
431.387	335.53
431.763	368.52
432.138	346.15
432.514	355.64
432.89	350.22
433.265	355.19
433.641	363.32
434.016	340.5
434.392	346.83
434.767	368.75
435.143	374.85
435.518	335.98
435.894	376.88
436.269	376.2
436.644	368.97
437.02	375.3
437.395	378.69
437.77	353.15
438.145	367.39
438.52	370.56
438.895	364.23
439.271	378.69
439.646	367.39
440.021	346.83
440.395	366.49
440.77	369.2
441.145	373.72
441.52	360.39
441.895	360.84
442.27	387.28
442.645	393.15
443.019	375.75
443.394	364
443.769	410.1
444.143	365.36
444.518	387.05
444.892	406.03
445.267	391.35
445.641	379.59
446.016	394.74
446.39	380.05
446.764	421.85
447.139	375.53
447.513	388.41
447.887	363.55
448.262	413.49
448.636	400.16
449.01	389.76
449.384	393.15
449.758	400.38
450.132	385.92
450.506	375.75
450.88	402.19
451.254	422.76
451.628	391.35
452.002	384.57
452.376	400.16
452.75	416.88
453.123	388.86
453.497	396.32
453.871	424.34
454.244	415.98
454.618	418.24
454.992	426.15
455.365	413.49
455.739	397.67
456.112	416.88
456.486	411.91
456.859	411.46
457.232	425.47
457.606	442.64
457.979	420.72
458.352	437.9
458.725	446.94
459.099	415.53
459.472	441.51
459.845	439.71
460.218	431.34
460.591	448.97
460.964	435.64
461.337	433.38
461.71	456.88
462.083	451.46
462.456	445.81
462.829	435.19
463.201	456.2
463.574	462.3
463.947	441.97
464.32	462.76
464.692	458.69
465.065	472.25
465.438	461.17
465.81	465.24
466.183	455.98
466.555	463.21
466.928	479.03
467.3	495.3
467.672	492.36
468.045	501.4
468.417	481.96
468.789	498.01
469.161	502.76
469.534	471.34
469.906	498.46
470.278	515.86
470.65	516.99
471.022	519.93
471.394	531
471.766	529.65
472.138	533.04
472.51	512.02
472.882	520.38
473.253	535.3
473.625	527.84
473.997	540.04
474.369	528.07
474.74	543.21
475.112	552.25
475.484	542.53
475.855	557.22
476.227	575.3
476.598	577.1
476.97	574.84
477.341	578.69
477.713	568.06
478.084	582.3
478.455	573.71
478.827	581.85
479.198	608.29
479.569	605.58
479.94	621.17
480.311	632.02
480.682	649.19
481.053	643.54
481.424	636.08
481.795	628.85
482.166	686.93
482.537	653.71
482.908	634.73
483.279	652.81
483.65	668.63
484.021	693.48
484.391	679.02
484.762	690.55
485.133	713.82
485.503	674.73
485.874	702.52
486.244	718.57
486.615	719.25
486.985	719.47
487.356	734.84
487.726	742.52
488.097	759.47
488.467	763.31
488.837	760.6
489.207	757.89
489.578	782.52
489.948	789.3
490.318	785.23
490.688	794.27
491.058	789.75
491.428	774.16
491.798	797.44
492.168	810.09
492.538	844.44
492.908	833.82
493.278	853.48
493.648	836.08
494.017	837.44
494.387	860.03
494.757	860.03
495.126	859.58
495.496	894.61
495.866	856.87
496.235	877.21
496.605	882.86
496.974	885.57
497.344	881.73
497.713	875.85
498.082	884.89
498.452	906.13
498.821	890.54
499.19	892.8
499.559	933.7
499.928	905.46
500.298	923.54
500.667	916.08
501.036	926.02
501.405	939.81
501.774	933.25
502.143	936.19
502.512	913.37
502.88	923.54
503.249	923.08
503.618	940.03
503.987	966.92
504.356	979.13
504.724	949.75
505.093	942.74
505.462	957.88
505.83	943.2
506.199	971.67
506.567	965.12
506.936	988.84
507.304	988.84
507.672	986.81
508.041	1006.24
508.409	988.17
508.777	976.42
509.145	1006.92
509.514	1016.64
509.882	998.11
510.25	1025.45
510.618	991.1
510.986	1013.7
511.354	1019.8
511.722	1034.72
512.09	1022.06
512.458	1042.4
512.826	1035.4
513.193	1036.75
513.561	1029.75
513.929	1036.3
514.297	1046.02
514.664	1080.82
515.032	1073.59
515.4	1050.99
515.767	1028.84
516.135	1059.35
516.502	1064.32
516.869	1097.54
517.237	1072.91
517.604	1081.72
517.972	1067.26
518.339	1072.23
518.706	1087.37
519.073	1099.58
519.44	1079.69
519.808	1086.02
520.175	1087.82
520.542	1108.39
520.909	1107.26
521.276	1100.03
521.643	1117.88
522.009	1104.77
522.376	1084.21
522.743	1124.21
523.11	1128.95
523.477	1127.82
523.843	1101.16
524.21	1143.87
524.577	1153.36
524.943	1141.83
525.31	1146.81
525.676	1157.43
526.043	1173.02
526.409	1162.85
526.776	1181.83
527.142	1154.72
527.508	1164.66
527.874	1177.99
528.241	1175.73
528.607	1200.82
528.973	1209.18
529.339	1218.67
529.705	1189.29
530.071	1184.09
530.437	1209.63
530.803	1202.4
531.169	1220.7
531.535	1188.16
531.901	1203.75
532.267	1220.93
532.632	1192.68
532.998	1215.96
533.364	1239.68
533.73	1190.65
534.095	1209.63
534.461	1195.84
534.826	1212.79
535.192	1216.18
535.557	1232.68
535.923	1225.22
536.288	1221.61
536.653	1243.53
537.019	1214.15
537.384	1222.28
537.749	1214.83
538.114	1233.36
538.479	1222.28
538.845	1211.44
539.21	1203.75
539.575	1243.3
539.94	1216.86
540.305	1220.7
540.67	1217.31
541.034	1213.7
541.399	1209.4
541.764	1227.93
542.129	1197.43
542.494	1235.39
542.858	1231.32
543.223	1216.18
543.587	1240.14
543.952	1244.66
544.316	1258.44
544.681	1225.45
545.045	1235.62
545.41	1231.55
545.774	1233.36
546.138	1227.03
546.503	1253.92
546.867	1239.23
547.231	1213.92
547.595	1238.33
547.959	1239.91
548.324	1238.33
548.688	1238.33
549.052	1234.04
549.416	1228.16
549.779	1272.68
550.143	1235.39
550.507	1243.75
550.871	1260.02
551.235	1250.98
551.599	1246.92
551.962	1264.09
552.326	1250.53
552.689	1266.8
553.053	1267.03
553.417	1249.63
553.78	1277.65
554.143	1218.22
554.507	1270.87
554.87	1282.85
555.234	1258.89
555.597	1254.6
555.96	1261.38
556.323	1272
556.686	1257.54
557.05	1283.3
557.413	1266.35
557.776	1288.27
558.139	1285.56
558.502	1308.38
558.865	1266.12
559.228	1297.08
559.59	1305.45
559.953	1309.51
560.316	1301.38
560.679	1303.64
561.041	1303.86
561.404	1284.66
561.767	1298.21
562.129	1303.19
562.492	1295.05
562.854	1307.93
563.217	1331.21
563.579	1298.67
563.941	1312.9
564.304	1329.4
564.666	1340.93
565.028	1314.71
565.39	1318.33
565.753	1317.2
566.115	1321.26
566.477	1315.84
566.839	1354.26
567.201	1340.93
567.563	1341.38
567.925	1362.39
568.287	1335.5
568.648	1311.77
569.01	1349.96
569.372	1342.96
569.734	1359.68
570.095	1348.16
570.457	1342.06
570.819	1347.25
571.18	1363.75
571.542	1344.77
571.903	1352.45
572.265	1340.25
572.626	1344.54
572.987	1347.03
573.349	1363.98
573.71	1359.46
574.071	1316.97
574.432	1346.35
574.794	1354.26
575.155	1335.95
575.516	1332.34
575.877	1315.39
576.238	1353.81
576.599	1367.59
576.96	1357.2
577.32	1341.83
577.681	1347.03
578.042	1364.65
578.403	1320.36
578.763	1352.22
579.124	1369.4
579.485	1366.46
579.845	1345.44
580.206	1354.26
580.566	1337.76
580.927	1320.36
581.287	1344.99
581.648	1337.54
582.008	1323.75
582.368	1362.39
582.728	1345.44
583.089	1320.36
583.449	1307.71
583.809	1307.25
584.169	1347.7
584.529	1339.34
584.889	1330.53
585.249	1325.11
585.609	1337.31
585.969	1329.17
586.329	1333.24
586.688	1323.75
587.048	1313.81
587.408	1287.37
587.768	1318.55
588.127	1315.62
588.487	1307.93
588.846	1315.62
589.206	1294.37
589.565	1287.59
589.925	1302.06
590.284	1306.12
590.643	1291.66
591.003	1321.94
591.362	1298.67
591.721	1304.32
592.08	1323.3
592.44	1307.25
592.799	1299.34
593.158	1318.55
593.517	1312.9
593.876	1299.57
594.235	1285.56
594.593	1273.36
594.952	1292.34
595.311	1278.1
595.67	1291.66
596.029	1287.37
596.387	1312.9
596.746	1326.91
597.104	1297.31
597.463	1281.49
597.822	1314.94
598.18	1306.8
598.538	1307.71
598.897	1288.72
599.255	1302.96
599.613	1289.63
599.972	1308.16
600.33	1331.21
600.688	1289.63
601.046	1302.51
601.404	1288.95
601.762	1285.79
602.12	1306.35
602.478	1339.12
602.836	1323.07
603.194	1299.8
603.552	1317.87
603.91	1328.95
604.268	1300.02
604.625	1312.68
604.983	1313.13
605.341	1321.49
605.698	1340.47
606.056	1313.58
606.413	1302.28
606.771	1308.16
607.128	1319.23
607.485	1322.17
607.843	1331.21
608.2	1302.06
608.557	1309.97
608.914	1322.39
609.272	1324.65
609.629	1314.71
609.986	1312.45
610.343	1355.61
610.7	1326.46
611.057	1303.86
611.414	1333.02
611.771	1335.73
612.127	1311.55
612.484	1333.24
612.841	1348.38
613.198	1316.52
613.554	1320.59
613.911	1323.07
614.267	1363.07
614.624	1345.9
614.98	1333.69
615.337	1380.92
615.693	1346.57
616.05	1366.46
616.406	1337.54
616.762	1360.36
617.118	1342.51
617.475	1352.68
617.831	1356.07
618.187	1364.88
618.543	1324.88
618.899	1369.17
619.255	1356.97
619.611	1320.59
619.967	1363.3
620.323	1346.35
620.678	1378.66
621.034	1340.25
621.39	1337.08
621.746	1347.03
622.101	1338.44
622.457	1341.6
622.812	1373.92
623.168	1330.08
623.523	1398.32
623.879	1374.82
624.234	1358.78
624.589	1369.4
624.945	1361.49
625.3	1369.85
625.655	1346.35
626.01	1333.24
626.365	1352.22
626.72	1347.93
627.075	1326.91
627.43	1344.09
627.785	1352.9
628.14	1289.4
628.495	1354.03
628.85	1362.85
629.205	1343.64
629.559	1336.63
629.914	1319.46
630.269	1348.38
630.623	1323.75
630.978	1332.79
631.332	1359.91
631.687	1349.74
632.041	1348.16
632.396	1363.3
632.75	1314.26
633.104	1322.39
633.459	1317.65
633.813	1317.87
634.167	1333.02
634.521	1336.86
634.875	1341.15
635.229	1322.62
635.583	1317.65
635.937	1323.52
636.291	1317.2
636.645	1347.03
636.999	1340.7
637.352	1320.59
637.706	1333.92
638.06	1318.78
638.413	1303.86
638.767	1294.37
639.121	1307.93
639.474	1301.6
639.828	1335.28
640.181	1322.39
640.534	1304.32
640.888	1306.35
641.241	1326.24
641.594	1329.85
641.947	1333.69
642.301	1335.05
642.654	1320.59
643.007	1311.77
643.36	1339.12
643.713	1331.66
644.066	1342.51
644.419	1358.33
644.771	1333.92
645.124	1312.9
645.477	1318.1
645.83	1312
646.182	1324.43
646.535	1313.81
646.888	1323.98
647.24	1311.77
647.593	1302.51
647.945	1335.73
648.298	1304.09
648.65	1319.91
649.002	1344.99
649.355	1329.63
649.707	1354.03
650.059	1324.65
650.411	1349.06
650.763	1342.73
651.115	1363.3
651.467	1369.85
651.819	1365.56
652.171	1398.78
652.523	1352.45
652.875	1383.86
653.227	1385.9
653.578	1386.12
653.93	1402.84
654.282	1408.27
654.633	1402.39
654.985	1382.28
655.337	1422.5
655.688	1417.08
656.039	1439.23
656.391	1425.89
656.742	1400.58
657.094	1399.68
657.445	1448.04
657.796	1442.39
658.147	1475.38
658.498	1445.56
658.849	1450.75
659.2	1446.01
659.551	1467.48
659.902	1494.14
660.253	1486.01
660.604	1473.35
660.955	1453.46
661.306	1497.31
661.656	1525.1
662.007	1511.77
662.358	1515.16
662.708	1506.34
663.059	1550.19
663.409	1512.22
663.76	1512.45
664.11	1558.77
664.461	1558.77
664.811	1558.32
665.161	1549.51
665.511	1566.91
665.862	1603.97
666.212	1620.24
666.562	1606.68
666.912	1606
667.262	1610.75
667.612	1640.8
667.962	1664.98
668.312	1629.96
668.662	1657.98
669.011	1675.15
669.361	1682.16
669.711	1715.38
670.06	1732.78
670.41	1728.26
670.76	1698.2
671.109	1729.62
671.459	1759.9
671.808	1733.91
672.157	1763.29
672.507	1788.82
672.856	1784.76
673.205	1794.92
673.554	1825.66
673.904	1816.39
674.253	1834.7
674.602	1844.41
674.951	1850.97
675.3	1818.2
675.649	1877.86
675.998	1900.46
676.346	1886.67
676.695	1893.68
677.044	1922.15
677.393	1919.67
677.741	1976.39
678.09	1956.28
678.438	1984.3
678.787	1988.82
679.135	1987.01
679.484	2022.72
679.832	2007.57
680.181	2034.01
680.529	2037.86
680.877	2079.66
681.225	2100.23
681.573	2079.66
681.922	2109.49
682.27	2106.55
682.618	2140.45
682.966	2164.41
683.314	2160.11
683.661	2168.93
684.009	2157.17
684.357	2174.12
684.705	2216.61
685.053	2234.69
685.4	2241.01
685.748	2246.21
686.095	2222.03
686.443	2272.88
686.79	2290.28
687.138	2300.22
687.485	2287.34
687.832	2333.67
688.18	2343.84
688.527	2329.37
688.874	2371.41
689.221	2336.15
689.568	2375.25
689.915	2393.33
690.262	2415.25
690.609	2454.57
690.956	2468.13
691.303	2399.2
691.65	2468.35
691.997	2487.34
692.344	2484.85
692.69	2502.93
693.037	2491.86
693.383	2508.8
693.73	2543.83
694.077	2577.5
694.423	2542.25
694.769	2615.69
695.116	2613.89
695.462	2616.15
695.808	2624.96
696.155	2660.89
696.501	2643.49
696.847	2625.19
697.193	2702.7
697.539	2669.25
697.885	2688.91
698.231	2737.5
698.577	2727.1
698.923	2743.37
699.269	2768.68
699.614	2721.68
699.96	2766.42
700.306	2767.33
700.651	2768.91
700.997	2791.51
701.342	2819.76
701.688	2863.6
702.033	2858.4
702.379	2881.9
702.724	2870.38
703.069	2884.84
703.415	2848.68
703.76	2913.09
704.105	2877.61
704.45	2901.11
704.795	2931.84
705.14	2918.06
705.485	2956.93
705.83	2972.75
706.175	2943.37
706.52	2982.92
706.865	3001.67
707.209	3002.58
707.554	3023.37
707.899	3038.28
708.243	3033.08
708.588	3040.32
708.932	3063.14
709.277	3034.44
709.621	3046.42
709.966	3067.89
710.31	3105.62
710.654	3081.44
710.998	3085.06
711.342	3119.86
711.687	3109.69
712.031	3097.04
712.375	3121.22
712.719	3161.44
713.063	3171.39
713.407	3165.51
713.75	3157.6
714.094	3196.7
714.438	3199.63
714.782	3209.58
715.125	3212.97
715.469	3181.1
715.812	3207.99
716.156	3280.31
716.499	3259.74
716.843	3243.02
717.186	3207.09
717.53	3245.96
717.873	3271.72
718.216	3294.32
718.559	3289.12
718.902	3263.13
719.246	3286.64
719.589	3328.22
719.932	3310.82
720.275	3315.11
720.617	3299.29
720.96	3326.18
721.303	3321.89
721.646	3343.81
721.989	3324.6
722.331	3347.43
722.674	3323.47
723.016	3415.22
723.359	3414.09
723.701	3358.27
724.044	3347.43
724.386	3330.48
724.729	3383.13
725.071	3381.55
725.413	3366.18
725.755	3384.04
726.097	3430.36
726.439	3346.07
726.782	3389.01
727.124	3415.45
727.465	3369.8
727.807	3353.3
728.149	3450.47
728.491	3414.32
728.833	3441.43
729.175	3447.54
729.516	3402.34
729.858	3440.76
730.199	3437.37
730.541	3404.6
730.882	3387.43
731.224	3425.62
731.565	3418.38
731.906	3430.59
732.248	3445.05
732.589	3405.96
732.93	3392.17
733.271	3425.62
733.612	3426.52
733.953	3405.96
734.294	3418.84
734.635	3389.46
734.976	3433.07
735.317	3417.48
735.658	3427.65
735.999	3422.23
736.339	3465.84
736.68	3436.24
737.021	3407.76
737.361	3440.31
737.702	3453.41
738.042	3449.57
738.383	3433.3
738.723	3431.49
739.063	3425.84
739.404	3419.51
739.744	3429.68
740.084	3451.6
740.424	3415.22
740.764	3424.26
741.104	3467.42
741.444	3442.11
741.784	3450.93
742.124	3445.5
742.464	3395.79
742.804	3392.17
743.143	3407.76
743.483	3436.01
743.823	3384.94
744.162	3359.63
744.502	3395.79
744.841	3437.59
745.181	3386.3
745.52	3388.33
745.86	3419.97
746.199	3381.1
746.538	3399.63
746.877	3381.55
747.216	3410.7
747.556	3368.67
747.895	3376.58
748.234	3397.14
748.573	3364.15
748.911	3409.12
749.25	3382.23
749.589	3344.49
749.928	3353.08
750.267	3343.81
750.605	3321.44
750.944	3352.4
751.283	3320.31
751.621	3367.09
751.96	3293.64
752.298	3311.95
752.636	3365.5
752.975	3316.47
753.313	3320.76
753.651	3325.51
753.989	3260.65
754.327	3272.4
754.666	3306.07
755.004	3282.12
755.342	3284.15
755.679	3286.86
756.017	3276.92
756.355	3276.92
756.693	3264.26
757.031	3260.42
757.368	3273.3
757.706	3279.63
758.044	3248.45
758.381	3254.55
758.719	3223.59
759.056	3233.53
759.394	3178.84
759.731	3199.86
760.068	3160.09
760.405	3164.15
760.743	3249.12
761.08	3195.79
761.417	3188.56
761.754	3165.74
762.091	3166.19
762.428	3122.57
762.765	3116.92
763.102	3155.11
763.438	3145.62
763.775	3110.6
764.112	3126.87
764.449	3115.34
764.785	3096.13
765.122	3094.78
765.458	3072.41
765.795	3021.33
766.131	3050.48
766.467	3088.9
766.804	3029.02
767.14	3018.62
767.476	3018.62
767.812	3029.02
768.148	3020.2
768.485	2989.02
768.821	2960.09
769.157	2991.96
769.492	2947.21
769.828	2963.26
770.164	2950.6
770.5	2902.92
770.836	2948.34
771.171	2928.45
771.507	2914.22
771.842	2901.79
772.178	2886.42
772.513	2928
772.849	2899.08
773.184	2867.66
773.519	2890.49
773.855	2850.49
774.19	2845.29
774.525	2832.86
774.86	2847.78
775.195	2838.96
775.53	2828.34
775.865	2830.15
776.2	2793.99
776.535	2776.82
776.87	2769.59
777.205	2794.67
777.539	2785.86
777.874	2742.24
778.209	2768.01
778.543	2758.97
778.878	2733.66
779.212	2724.17
779.547	2728.69
779.881	2731.17
780.215	2712.41
780.55	2707.22
780.884	2670.38
781.218	2693.66
781.552	2695.01
781.886	2643.49
782.22	2663.6
782.554	2641.46
782.888	2612.53
783.222	2609.82
783.556	2584.73
783.889	2614.34
784.223	2600.33
784.557	2592.87
784.89	2603.94
785.224	2573.89
785.557	2569.59
785.891	2563.04
786.224	2575.92
786.558	2524.85
786.891	2521.23
787.224	2549.48
787.557	2488.69
787.891	2508.35
788.224	2502.93
788.557	2502.93
788.89	2508.13
789.223	2487.56
789.556	2478.52
789.888	2479.88
790.221	2478.07
790.554	2463.38
790.887	2429.71
791.219	2405.53
791.552	2415.93
791.884	2427.22
792.217	2402.82
792.549	2388.58
792.882	2384.97
793.214	2422.03
793.546	2363.72
793.879	2401.91
794.211	2356.49
794.543	2412.08
794.875	2378.86
795.207	2369.15
795.539	2323.27
795.871	2352.42
796.203	2356.94
796.535	2325.08
796.867	2321.92
797.198	2339.32
797.53	2312.43
797.862	2310.39
798.193	2323.27
798.525	2283.73
798.856	2281.69
799.188	2268.81
799.519	2269.04
799.85	2272.88
800.182	2262.93
800.513	2226.78
800.844	2235.59
801.175	2227.23
801.506	2271.3
801.837	2235.59
802.168	2231.52
802.499	2230.17
802.83	2205.54
803.161	2193.78
803.491	2228.36
803.822	2220.22
804.153	2181.13
804.483	2175.48
804.814	2175.48
805.145	2181.13
805.475	2189.72
805.805	2189.26
806.136	2167.12
806.466	2148.59
806.796	2136.84
807.126	2141.36
807.457	2148.81
807.787	2156.72
808.117	2125.99
808.447	2118.08
808.777	2152.66
809.107	2147.01
809.436	2144.97
809.766	2091.87
810.096	2102.94
810.426	2074.92
810.755	2114.92
811.085	2085.76
811.414	2101.36
811.744	2033.11
812.073	2091.87
812.403	2083.28
812.732	2059.55
813.061	2075.82
813.39	2044.41
813.719	2042.6
814.049	2059.78
814.378	2043.05
814.707	2037.4
815.036	2027.23
815.365	2029.49
815.693	2027.23
816.022	2030.85
816.351	2043.28
816.68	2014.35
817.008	2000.79
817.337	2014.35
817.665	2015.48
817.994	1999.21
818.322	2007.8
818.651	1967.35
818.979	1982.49
819.307	1970.51
819.636	1954.47
819.964	1974.13
820.292	1964.19
820.62	2003.73
820.948	1977.29
821.276	1979.55
821.604	1974.81
821.932	1960.12
822.259	1943.17
822.587	1954.47
822.915	1932.1
823.243	1962.6
823.57	1962.38
823.898	1982.26
824.225	1931.64
824.553	1973.9
824.88	1988.14
825.207	1933
825.535	1965.99
825.862	1963.28
826.189	1954.02
826.516	1984.52
826.843	1919.44
827.17	1941.14
827.497	1956.28
827.824	1962.6
828.151	1958.54
828.478	1963.51
828.805	1979.33
829.131	1953.11
829.458	1955.15
829.785	1937.75
830.111	1946.78
830.438	1959.89
830.764	1964.64
831.09	1963.51
831.417	1973.22
831.743	1936.62
832.069	1982.49
832.395	1923.28
832.722	1933.45
833.048	1930.51
833.374	1970.51
833.7	1946.78
834.026	1939.1
834.351	1943.85
834.677	1959.67
835.003	1942.04
835.329	1936.16
835.654	1934.58
835.98	1937.29
836.306	1934.58
836.631	1917.63
836.956	1938.2
837.282	1893
837.607	1909.05
837.932	1938.88
838.258	1913.34
838.583	1923.96
838.908	1912.89
839.233	1893
839.558	1914.92
839.883	1891.19
840.208	1875.83
840.533	1893.23
840.858	1909.05
841.182	1921.47
841.507	1852.32
841.832	1885.54
842.156	1882.38
842.481	1876.28
842.805	1879.22
843.13	1865.66
843.454	1882.38
843.778	1867.92
844.103	1840.12
844.427	1862.72
844.751	1887.13
845.075	1867.92
845.399	1827.01
845.723	1841.93
846.047	1815.04
846.371	1830.63
846.695	1836.96
847.019	1824.75
847.343	1797.18
847.666	1793.12
847.99	1775.26
848.313	1778.65
848.637	1776.62
848.96	1770.97
849.284	1747.24
849.607	1713.57
849.931	1770.52
850.254	1764.19
850.577	1726.9
850.9	1719.9
851.223	1740.91
851.546	1711.08
851.869	1723.74
852.192	1717.86
852.515	1712.21
852.838	1718.99
853.161	1733.91
853.483	1697.75
853.806	1713.57
854.129	1705.66
854.451	1682.39
854.774	1669.28
855.096	1675.83
855.419	1675.61
855.741	1657.3
856.063	1649.62
856.385	1676.74
856.708	1647.36
857.03	1647.58
857.352	1641.48
857.674	1635.61
857.996	1617.75
858.318	1636.96
858.64	1634.02
858.961	1651.43
859.283	1634.02
859.605	1630.18
859.926	1622.5
860.248	1593.57
860.57	1612.78
860.891	1620.92
861.212	1627.92
861.534	1619.11
861.855	1628.15
862.176	1604.2
862.498	1591.09
862.819	1614.36
863.14	1591.09
863.461	1599.9
863.782	1566.68
864.103	1606.23
864.424	1568.49
864.745	1582.5
865.065	1568.94
865.386	1574.37
865.707	1565.55
866.027	1573.69
866.348	1545.67
866.668	1570.52
866.989	1560.81
867.309	1564.2
867.63	1585.89
867.95	1577.3
868.27	1555.83
868.59	1566.23
868.91	1565.78
869.23	1547.47
869.55	1539.56
869.87	1575.95
870.19	1567.59
870.51	1549.28
870.83	1549.73
871.15	1524.42
871.469	1535.72
871.789	1549.51
872.109	1529.85
872.428	1505.21
872.748	1499.57
873.067	1523.52
873.386	1540.69
873.706	1516.06
874.025	1533.01
874.344	1548.6
874.663	1534.59
874.982	1530.3
875.301	1515.84
875.62	1506.34
875.939	1497.76
876.258	1499.11
876.577	1491.2
876.896	1500.47
877.214	1494.59
877.533	1519.45
877.852	1494.37
878.17	1477.42
878.489	1497.08
878.807	1507.25
879.125	1476.29
879.444	1492.33
879.762	1494.59
880.08	1475.84
880.398	1509.06
880.716	1437.19
881.034	1475.84
881.352	1472.9
881.67	1477.19
881.988	1438.78
882.306	1466.12
882.624	1465.67
882.941	1437.42
883.259	1461.37
883.577	1452.56
883.894	1433.35
884.212	1410.75
884.529	1420.92
884.846	1450.3
885.164	1448.27
885.481	1433.13
885.798	1450.75
886.115	1405.56
886.432	1429.96
886.75	1407.14
887.067	1430.64
887.383	1415.73
887.7	1422.5
888.017	1436.06
888.334	1431.09
888.651	1413.69
888.967	1424.76
889.284	1438.78
889.6	1395.16
889.917	1405.33
890.233	1377.08
890.55	1373.24
890.866	1378.21
891.182	1375.5
891.498	1393.58
891.815	1390.19
892.131	1394.48
892.447	1377.76
892.763	1387.7
893.079	1357.2
893.395	1361.94
893.71	1373.92
894.026	1340.02
894.342	1367.59
894.657	1354.71
894.973	1354.26
895.289	1343.86
895.604	1349.96
895.92	1303.19
896.235	1369.17
896.55	1352.9
896.865	1350.64
897.181	1338.21
897.496	1307.93
897.811	1327.59
898.126	1316.07
898.441	1331.66
898.756	1305.67
899.071	1306.35
899.386	1323.98
899.7	1310.19
900.015	1295.73
900.33	1290.98
900.644	1290.31
900.959	1295.05
901.273	1302.96
901.588	1293.47
901.902	1245.11
902.216	1279.91
902.531	1237.88
902.845	1281.04
903.159	1274.71
903.473	1250.53
903.787	1227.71
904.101	1208.95
904.415	1236.07
904.729	1257.54
905.042	1228.16
905.356	1230.65
905.67	1204.43
905.984	1209.86
906.297	1251.66
906.611	1244.88
906.924	1205.79
907.237	1203.3
907.551	1194.71
907.864	1199.46
908.177	1223.41
908.491	1208.73
908.804	1190.42
909.117	1191.1
909.43	1187.93
909.743	1185.45
910.056	1180.93
910.368	1187.03
910.681	1156.75
910.994	1165.11
911.307	1172.57
911.619	1151.78
911.932	1179.12
912.244	1171.21
912.557	1138.44
912.869	1146.13
913.181	1128.95
913.494	1160.59
913.806	1123.3
914.118	1122.4
914.43	1127.82
914.742	1105.68
915.054	1123.53
915.366	1140.03
915.678	1109.29
915.99	1133.92
916.302	1112.91
916.613	1108.39
916.925	1097.32
917.236	1080.37
917.548	1105.9
917.859	1079.92
918.171	1093.93
918.482	1069.07
918.794	1083.53
919.105	1074.94
919.416	1074.27
919.727	1066.36
920.038	1050.76
920.349	1061.84
920.66	1062.51
920.971	1052.57
921.282	1049.41
921.593	1055.51
921.903	1019.58
922.214	1055.06
922.525	1032.91
922.835	1037.88
923.146	1017.54
923.456	1049.18
923.767	1022.06
924.077	1020.26
924.387	1017.32
924.697	1033.14
925.008	1017.54
925.318	1008.28
925.628	1005.34
925.938	1011.22
926.248	1001.5
926.558	1005.34
926.867	1004.66
927.177	1014.15
927.487	1007.37
927.796	1000.82
928.106	991.1
928.416	993.82
928.725	986.81
929.034	969.86
929.344	973.25
929.653	961.27
929.962	949.3
930.271	938.9
930.581	973.7
930.89	951.56
931.199	941.39
931.508	939.58
931.817	950.2
932.125	939.81
932.434	949.98
932.743	933.93
933.051	918.11
933.36	926.7
933.669	943.65
933.977	941.61
934.286	951.78
934.594	913.37
934.902	909.52
935.21	914.95
935.519	930.31
935.827	912.24
936.135	919.24
936.443	926.47
936.751	925.57
937.059	880.15
937.367	913.37
937.674	910.88
937.982	891.22
938.29	905.68
938.597	900.94
938.905	888.51
939.213	876.53
939.52	886.02
939.827	891.9
940.135	883.08
940.442	889.86
940.749	861.16
941.056	898.45
941.363	878.34
941.67	861.16
941.977	858.23
942.284	862.29
942.591	859.81
942.898	861.39
943.205	848.73
943.511	854.16
943.818	865.46
944.125	852.12
944.431	842.41
944.738	842.86
945.044	853.03
945.35	853.03
945.657	841.28
945.963	827.04
946.269	838.57
946.575	833.82
946.881	836.08
947.187	818.45
947.493	843.54
947.799	823.2
948.105	800.83
948.41	808.74
948.716	795.63
949.022	796.31
949.327	803.76
949.633	788.85
949.938	782.97
950.244	800.37
950.549	786.59
950.854	801.73
951.16	807.83
951.465	768.96
951.77	797.89
952.075	775.97
952.38	769.64
952.685	779.58
952.99	777.1
953.294	779.13
953.599	783.88
953.904	770.54
954.209	768.74
954.513	769.64
954.818	740.49
955.122	774.39
955.426	758.57
955.731	759.02
956.035	777.55
956.339	766.25
956.643	750.66
956.948	780.49
957.252	758.12
957.556	746.59
957.86	737.55
958.163	749.98
958.467	764.22
958.771	730.77
959.075	723.09
959.378	738
959.682	739.36
959.985	738.23
960.289	726.7
960.592	743.43
960.896	735.07
961.199	718.12
961.502	717.66
961.805	704.11
962.108	687.84
962.411	694.84
962.714	726.93
963.017	717.44
963.32	713.15
963.623	713.6
963.926	721.05
964.228	719.25
964.531	711.56
964.833	709.3
965.136	710.66
965.438	679.93
965.741	696.42
966.043	712.92
966.345	702.07
966.648	693.71
966.95	677.21
967.252	678.57
967.554	652.81
967.856	692.58
968.158	693.03
968.46	686.03
968.761	690.32
969.063	665.69
969.365	662.52
969.666	671.11
969.968	669.76
970.269	661.62
970.571	687.61
970.872	675.63
971.174	661.17
971.475	662.75
971.776	673.15
972.077	665.91
972.378	673.82
972.679	663.2
972.98	644.22
973.281	652.36
973.582	634.73
973.883	660.04
974.183	626.37
974.484	660.04
974.785	654.62
975.085	649.87
975.386	646.93
975.686	626.82
975.986	660.04
976.287	636.76
976.587	624.79
976.887	642.86
977.187	625.01
977.487	633.37
977.787	616.2
978.087	622.53
978.387	626.37
978.687	631.34
978.987	612.81
979.286	623.43
979.586	628.4
979.885	587.95
980.185	605.8
980.484	624.79
980.784	605.13
981.083	599.48
981.382	618.91
981.682	616.65
981.981	615.29
982.28	606.93
982.579	598.35
982.878	621.4
983.177	607.39
983.475	596.76
983.774	601.28
984.073	614.39
984.372	593.15
984.67	588.85
984.969	605.13
985.267	591.57
985.566	570.78
985.864	596.99
986.162	582.08
986.461	580.49
986.759	571.91
987.057	589.08
987.355	563.32
987.653	571.45
987.951	577.33
988.249	621.85
988.547	582.3
988.844	584.79
989.142	571.68
989.44	571.23
989.737	563.32
990.035	570.78
990.332	569.42
990.63	556.77
990.927	583.21
991.224	582.53
991.521	566.26
991.819	581.17
992.116	555.18
992.413	564.67
992.71	542.98
993.006	564.45
993.303	531.45
993.6	531.45
993.897	552.92
994.193	535.75
994.49	561.51
994.787	535.97
995.083	543.43
995.379	544.11
995.676	551.12
995.972	534.62
996.268	556.31
996.565	543.43
996.861	536.65
997.157	544.11
997.453	521.51
997.749	522.19
998.044	532.58
998.34	531.45
998.636	523.32
998.932	521.51
999.227	522.87
999.523	513.38
999.818	540.49
1000.114	528.74
1000.409	533.71
1000.704	535.52
1001	518.35
1001.295	520.61
1001.59	512.25
1001.885	535.07
1002.18	496.65
1002.475	500.27
1002.77	522.64
1003.065	527.61
1003.359	515.18
1003.654	516.31
1003.949	507.5
1004.243	509.53
1004.538	531
1004.832	517.67
1005.127	497.56
1005.421	512.47
1005.715	492.36
1006.009	486.03
1006.304	493.72
1006.598	489.2
1006.892	495.52
1007.186	500.5
1007.48	485.13
1007.773	472.02
1008.067	484.45
1008.361	476.09
1008.655	491
1008.948	469.54
1009.242	483.09
1009.535	491.68
1009.829	500.95
1010.122	489.65
1010.415	497.11
1010.708	481.29
1011.001	486.26
1011.295	479.93
1011.588	487.61
1011.881	453.49
1012.173	465.69
1012.466	482.19
1012.759	481.29
1013.052	460.72
1013.344	476.09
1013.637	486.48
1013.93	472.02
1014.222	478.8
1014.514	460.95
1014.807	459.82
1015.099	458.46
1015.391	472.02
1015.683	454.17
1015.976	471.34
1016.268	456.88
1016.56	484.9
1016.851	458.91
1017.143	447.39
1017.435	440.16
1017.727	453.49
1018.018	462.53
1018.31	452.81
1018.602	464.11
1018.893	453.49
1019.185	436.54
1019.476	460.27
1019.767	464.56
1020.058	429.31
1020.35	437.22
1020.641	433.6
1020.932	468.18
1021.223	443.55
1021.514	441.29
1021.804	430.21
1022.095	432.02
1022.386	425.7
1022.677	437.45
1022.967	433.15
1023.258	434.28
1023.548	438.58
1023.839	428.63
1024.129	428.63
1024.419	427.95
1024.709	415.53
1025	429.31
1025.29	401.51
1025.58	422.31
1025.87	414.85
1026.16	419.82
1026.449	431.8
1026.739	429.54
1027.029	408.97
1027.319	425.92
1027.608	417.33
1027.898	406.94
1028.187	397.9
1028.477	418.01
1028.766	423.44
1029.055	417.79
1029.344	420.72
1029.634	410.55
1029.923	400.84
1030.212	404.68
1030.501	376.43
1030.79	415.3
1031.078	417.33
1031.367	393.61
1031.656	385.92
1031.945	410.55
1032.233	407.84
1032.522	407.16
1032.81	388.86
1033.099	411.68
1033.387	383.44
1033.675	390.22
1033.963	411.91
1034.251	391.8
1034.54	406.94
1034.828	394.51
1035.116	395.41
1035.403	385.24
1035.691	385.7
1035.979	386.37
1036.267	389.54
1036.554	394.96
1036.842	381.85
1037.129	382.53
1037.417	382.53
1037.704	367.62
1037.992	385.24
1038.279	403.77
1038.566	380.05
1038.853	380.05
1039.14	380.05
