Data from carpet_green_FLMS001491_00039.txt Node
Date: Wed Feb 08 10:35:17 GMT 2017
User: dcchb
Spectrometer: FLMS00149
Trigger mode: 0
Integration Time (sec): 2.000000E-2
Scans to average: 10
Electric dark correction enabled: true
Nonlinearity correction enabled: false
Boxcar width: 0
XAxis mode: Wavelengths
Number of Pixels in Spectrum: 2048
>>>>>Begin Spectral Data<<<<<
341.393	-18.14
341.776	-18.14
342.16	-18.14
342.543	-76.21
342.927	-73.27
343.31	-71.69
343.693	-65.82
344.077	-60.39
344.46	-71.24
344.843	-63.33
345.226	-31.92
345.61	-47.29
345.993	-7.97
346.376	-1.19
346.759	15.76
347.142	32.94
347.525	46.5
347.908	46.04
348.291	76.33
348.674	97.12
349.057	106.16
349.44	104.35
349.823	140.96
350.206	152.71
350.588	156.78
350.971	188.41
351.354	198.13
351.737	225.93
352.119	231.12
352.502	230.45
352.884	254.63
353.267	259.82
353.65	271.8
354.032	276.32
354.414	266.15
354.797	292.59
355.179	312.25
355.562	293.27
355.944	295.53
356.326	297.11
356.709	284.46
357.091	297.56
357.473	334.62
357.855	315.64
358.238	307.96
358.62	293.95
359.002	322.87
359.384	285.81
359.766	296.88
360.148	304.79
360.53	318.13
360.912	313.61
361.294	295.98
361.676	314.96
362.057	318.13
362.439	260.95
362.821	288.52
363.203	295.3
363.584	269.77
363.966	291.24
364.348	309.54
364.729	295.08
365.111	286.49
365.493	288.3
365.874	285.81
366.256	274.51
366.637	286.72
367.019	284.46
367.4	282.65
367.781	300.73
368.163	288.75
368.544	281.74
368.925	276.09
369.306	286.72
369.688	291.01
370.069	270.44
370.45	270.9
370.831	300.05
371.212	281.07
371.593	295.53
371.974	283.78
372.355	283.1
372.736	299.6
373.117	277.68
373.498	269.77
373.879	265.93
374.26	288.3
374.641	298.24
375.021	260.73
375.402	307.51
375.783	275.87
376.163	282.2
376.544	286.94
376.925	288.98
377.305	281.97
377.686	316.77
378.066	286.04
378.447	287.85
378.827	288.52
379.208	271.35
379.588	275.64
379.968	289.2
380.349	296.66
380.729	292.82
381.109	279.03
381.489	291.91
381.87	300.05
382.25	285.59
382.63	288.3
383.01	303.89
383.39	299.14
383.77	302.76
384.15	295.98
384.53	283.78
384.91	295.53
385.29	300.73
385.67	296.88
386.049	314.74
386.429	279.71
386.809	309.77
387.189	278.81
387.568	303.21
387.948	307.51
388.328	301.86
388.707	290.78
389.087	297.56
389.466	297.79
389.846	303.21
390.225	291.69
390.605	306.38
390.984	303.89
391.363	284.23
391.743	295.75
392.122	302.08
392.501	290.11
392.881	307.96
393.26	305.7
393.639	317.68
394.018	317
394.397	306.38
394.776	309.09
395.155	295.98
395.534	299.6
395.913	312.03
396.292	310.67
396.671	305.7
397.05	292.82
397.429	306.15
397.808	303.89
398.186	314.51
398.565	298.47
398.944	315.19
399.323	306.38
399.701	301.86
400.08	300.5
400.458	306.15
400.837	301.63
401.215	325.13
401.594	324.68
401.972	295.75
402.351	302.99
402.729	326.71
403.107	319.71
403.486	310.9
403.864	304.79
404.242	308.64
404.62	305.02
404.999	306.83
405.377	324.91
405.755	298.01
406.133	326.94
406.511	311.57
406.889	312.93
407.267	320.16
407.645	337.79
408.023	337.56
408.401	316.32
408.779	317.68
409.156	334.4
409.534	338.01
409.912	334.62
410.29	335.98
410.667	322.42
411.045	310.9
411.422	319.71
411.8	321.74
412.178	337.11
412.555	306.38
412.933	333.72
413.31	324
413.687	316.55
414.065	343.89
414.442	332.59
414.819	328.52
415.197	331.46
415.574	339.6
415.951	324.23
416.328	340.73
416.705	334.4
417.082	336.21
417.46	341.4
417.837	337.34
418.214	356.09
418.591	357
418.967	340.73
419.344	344.79
419.721	344.57
420.098	361.52
420.475	335.08
420.852	348.86
421.228	342.53
421.605	350.89
421.982	344.79
422.358	328.07
422.735	361.74
423.111	332.14
423.488	346.6
423.864	350.67
424.241	347.96
424.617	320.39
424.994	344.79
425.37	357
425.746	330.33
426.123	333.49
426.499	360.84
426.875	357
427.251	371.91
427.627	349.54
428.003	359.71
428.379	368.07
428.756	357
429.132	355.64
429.507	354.51
429.883	361.29
430.259	344.57
430.635	372.14
431.011	354.51
431.387	368.97
431.763	359.93
432.138	352.93
432.514	352.25
432.89	364.91
433.265	357.67
433.641	353.15
434.016	389.76
434.392	372.14
434.767	367.84
435.143	373.49
435.518	364
435.894	370.33
436.269	398.35
436.644	366.94
437.02	366.94
437.395	361.74
437.77	362.65
438.145	396.32
438.52	375.07
438.895	380.72
439.271	392.93
439.646	382.08
440.021	386.15
440.395	416.2
440.77	382.53
441.145	380.72
441.52	375.53
441.895	369.88
442.27	381.63
442.645	370.78
443.019	406.71
443.394	392.02
443.769	407.39
444.143	385.47
444.518	400.61
444.892	391.35
445.267	398.13
445.641	404.68
446.016	400.38
446.39	395.19
446.764	408.52
447.139	390.67
447.513	420.72
447.887	409.88
448.262	400.16
448.636	406.26
449.01	413.72
449.384	392.48
449.758	422.76
450.132	413.72
450.506	401.51
450.88	402.19
451.254	421.18
451.628	422.31
452.002	418.69
452.376	426.82
452.75	410.55
453.123	411.68
453.497	428.63
453.871	429.99
454.244	437.67
454.618	419.37
454.992	438.8
455.365	446.49
455.739	436.54
456.112	434.06
456.486	429.54
456.859	446.71
457.232	456.43
457.606	431.8
457.979	442.42
458.352	431.8
458.725	445.81
459.099	460.5
459.472	459.59
459.845	467.05
460.218	455.52
460.591	463.21
460.964	458.01
461.337	449.65
461.71	451.23
462.083	458.91
462.456	462.76
462.829	462.76
463.201	457.78
463.574	483.55
463.947	480.16
464.32	488.52
464.692	474.06
465.065	482.64
465.438	491.68
465.81	496.88
466.183	491.68
466.555	503.43
466.928	493.72
467.3	501.85
467.672	504.34
468.045	517.22
468.417	497.33
468.789	530.78
469.161	516.31
469.534	519.93
469.906	537.33
470.278	537.1
470.65	534.84
471.022	549.53
471.394	544.11
471.766	551.12
472.138	564.9
472.51	566.93
472.882	549.31
473.253	570.78
473.625	559.25
473.997	555.41
474.369	555.64
474.74	583.21
475.112	575.52
475.484	604.22
475.855	603.54
476.227	599.02
476.598	621.62
476.97	615.52
477.341	634.28
477.713	629.31
478.084	648.51
478.455	645.12
478.827	645.58
479.198	646.03
479.569	656.2
479.94	661.85
480.311	657.78
480.682	674.28
481.053	684.9
481.424	682.19
481.795	723.77
482.166	687.84
482.537	691.9
482.908	703.43
483.279	716.76
483.65	760.6
484.021	751.34
484.391	745.01
484.762	749.3
485.133	747.04
485.503	757.66
485.874	786.14
486.244	762.64
486.615	780.71
486.985	807.38
487.356	818.91
487.726	817.55
488.097	816.42
488.467	835.4
488.837	841.73
489.207	835.4
489.578	849.41
489.948	855.97
490.318	873.14
490.688	877.66
491.058	871.11
491.428	876.08
491.798	899.58
492.168	918.56
492.538	900.71
492.908	912.69
493.278	923.31
493.648	927.6
494.017	953.14
494.387	947.26
494.757	951.1
495.126	950.65
495.496	935.06
495.866	973.48
496.235	974.16
496.605	1006.02
496.974	990.65
497.344	1000.82
497.713	988.62
498.082	1017.77
498.452	1013.25
498.821	1021.39
499.19	1031.33
499.559	997.43
499.928	1034.04
500.298	1034.72
500.667	1059.35
501.036	1051.44
501.405	1027.71
501.774	1041.27
502.143	1069.75
502.512	1049.18
502.88	1053.25
503.249	1072.01
503.618	1076.75
503.987	1056.19
504.356	1074.94
504.724	1076.3
505.093	1077.66
505.462	1085.34
505.83	1072.91
506.199	1062.29
506.567	1110.87
506.936	1093.7
507.304	1097.99
507.672	1108.39
508.041	1103.87
508.409	1129.86
508.777	1124.66
509.145	1152.46
509.514	1137.09
509.882	1135.05
510.25	1134.38
510.618	1168.73
510.986	1147.94
511.354	1151.78
511.722	1147.71
512.09	1171.89
512.458	1149.74
512.826	1157.65
513.193	1195.39
513.561	1173.02
513.929	1180.48
514.297	1179.35
514.664	1217.09
515.032	1206.47
515.4	1185.22
515.767	1206.24
516.135	1209.86
516.502	1195.84
516.869	1229.06
517.237	1213.92
517.604	1214.15
517.972	1218.22
518.339	1235.84
518.706	1229.97
519.073	1236.97
519.44	1230.65
519.808	1240.14
520.175	1234.94
520.542	1271.32
520.909	1294.6
521.276	1264.77
521.643	1269.51
522.009	1294.37
522.376	1299.34
522.743	1252.34
523.11	1259.57
523.477	1271.1
523.843	1292.34
524.21	1302.51
524.577	1288.5
524.943	1308.38
525.31	1330.76
525.676	1327.82
526.043	1340.7
526.409	1321.94
526.776	1321.72
527.142	1344.99
527.508	1315.62
527.874	1358.55
528.241	1354.03
528.607	1347.03
528.973	1330.08
529.339	1363.3
529.705	1350.19
530.071	1365.78
530.437	1357.2
530.803	1337.54
531.169	1375.95
531.535	1377.53
531.901	1367.59
532.267	1372.34
532.632	1372.11
532.998	1382.96
533.364	1390.64
533.73	1398.1
534.095	1377.99
534.461	1391.09
534.826	1391.09
535.192	1411.88
535.557	1412.56
535.923	1398.78
536.288	1361.04
536.653	1398.78
537.019	1378.21
537.384	1414.14
537.749	1408.95
538.114	1410.75
538.479	1397.87
538.845	1366.01
539.21	1383.86
539.575	1407.14
539.94	1418.66
540.305	1398.55
540.67	1422.05
541.034	1375.5
541.399	1411.43
541.764	1419.57
542.129	1439.68
542.494	1408.95
542.858	1397.87
543.223	1428.83
543.587	1434.48
543.952	1425.22
544.316	1393.35
544.681	1414.14
545.045	1418.21
545.41	1420.92
545.774	1409.62
546.138	1414.82
546.503	1409.85
546.867	1412.11
547.231	1424.99
547.595	1402.84
547.959	1402.84
548.324	1446.69
548.688	1437.42
549.052	1430.41
549.416	1452.11
549.779	1450.75
550.143	1410.75
550.507	1436.74
550.871	1438.78
551.235	1451.43
551.599	1430.41
551.962	1408.72
552.326	1451.2
552.689	1472.22
553.053	1459.34
553.417	1435.16
553.78	1449.17
554.143	1452.56
554.507	1472
554.87	1452.56
555.234	1458.89
555.597	1468.83
555.96	1450.3
556.323	1486.23
556.686	1497.31
557.05	1484.42
557.413	1477.19
557.776	1479.68
558.139	1479.68
558.502	1489.4
558.865	1474.26
559.228	1484.88
559.59	1459.57
559.953	1470.64
560.316	1502.73
560.679	1504.54
561.041	1518.77
561.404	1509.06
561.767	1481.71
562.129	1483.52
562.492	1508.15
562.854	1515.38
563.217	1520.13
563.579	1533.24
563.941	1539.11
564.304	1535.72
564.666	1523.75
565.028	1527.59
565.39	1549.96
565.753	1537.76
566.115	1554.25
566.477	1540.92
566.839	1531.88
567.201	1566.91
567.563	1560.35
567.925	1545.44
568.287	1541.15
568.648	1568.26
569.01	1556.06
569.372	1571.2
569.734	1548.38
570.095	1563.07
570.457	1562.61
570.819	1572.33
571.18	1572.56
571.542	1544.31
571.903	1585.89
572.265	1579.56
572.626	1601.48
572.987	1572.33
573.349	1600.35
573.71	1579.79
574.071	1598.32
574.432	1575.27
574.794	1606
575.155	1557.64
575.516	1585.66
575.877	1555.83
576.238	1554.03
576.599	1564.2
576.96	1569.17
577.32	1565.1
577.681	1576.17
578.042	1578.66
578.403	1559.45
578.763	1549.06
579.124	1568.04
579.485	1586.79
579.845	1534.59
580.206	1588.6
580.566	1560.13
580.927	1560.35
581.287	1524.65
581.648	1567.13
582.008	1552.9
582.368	1554.25
582.728	1577.53
583.089	1554.93
583.449	1563.07
583.809	1541.82
584.169	1515.61
584.529	1520.81
584.889	1521.71
585.249	1533.91
585.609	1510.41
585.969	1524.65
586.329	1538.89
586.688	1540.47
587.048	1544.31
587.408	1494.14
587.768	1524.2
588.127	1547.93
588.487	1500.7
588.846	1540.47
589.206	1524.88
589.565	1523.52
589.925	1530.3
590.284	1506.34
590.643	1528.26
591.003	1518.55
591.362	1518.55
591.721	1500.7
592.08	1471.32
592.44	1531.65
592.799	1552.45
593.158	1486.01
593.517	1521.03
593.876	1489.17
594.235	1507.02
594.593	1488.72
594.952	1521.26
595.311	1487.59
595.67	1477.64
596.029	1485.33
596.387	1509.51
596.746	1534.59
597.104	1495.72
597.463	1481.94
597.822	1500.02
598.18	1492.56
598.538	1468.38
598.897	1518.32
599.255	1487.14
599.613	1510.19
599.972	1474.71
600.33	1502.95
600.688	1479.23
601.046	1481.49
601.404	1542.95
601.762	1496.63
602.12	1536.63
602.478	1465.22
602.836	1481.26
603.194	1491.2
603.552	1509.06
603.91	1524.42
604.268	1533.46
604.625	1535.04
604.983	1534.14
605.341	1513.35
605.698	1508.6
606.056	1538.66
606.413	1520.13
606.771	1508.15
607.128	1523.75
607.485	1512.22
607.843	1542.05
608.2	1521.94
608.557	1551.09
608.914	1567.59
609.272	1556.51
609.629	1542.95
609.986	1546.34
610.343	1516.06
610.7	1549.06
611.057	1534.82
611.414	1561.26
611.771	1539.79
612.127	1569.62
612.484	1519
612.841	1542.05
613.198	1544.76
613.554	1520.36
613.911	1553.57
614.267	1554.03
614.624	1533.69
614.98	1530.07
615.337	1579.56
615.693	1583.86
616.05	1559.9
616.406	1556.29
616.762	1561.48
617.118	1558.32
617.475	1548.6
617.831	1559.9
618.187	1551.54
618.543	1562.84
618.899	1570.98
619.255	1575.72
619.611	1574.59
619.967	1560.35
620.323	1552.9
620.678	1538.66
621.034	1554.03
621.39	1573.46
621.746	1594.93
622.101	1592.67
622.457	1545.67
622.812	1592.44
623.168	1558.32
623.523	1571.2
623.879	1565.78
624.234	1575.04
624.589	1573.69
624.945	1556.96
625.3	1569.39
625.655	1565.55
626.01	1573.46
626.365	1540.24
626.72	1524.88
627.075	1547.47
627.43	1553.57
627.785	1571.88
628.14	1575.04
628.495	1584.53
628.85	1548.6
629.205	1557.42
629.559	1546.12
629.914	1552.45
630.269	1571.43
630.623	1560.58
630.978	1547.25
631.332	1520.36
631.687	1577.53
632.041	1543.63
632.396	1523.52
632.75	1540.69
633.104	1573.24
633.459	1540.92
633.813	1552.9
634.167	1544.31
634.521	1513.35
634.875	1535.27
635.229	1542.05
635.583	1533.69
635.937	1536.85
636.291	1541.15
636.645	1511.32
636.999	1570.75
637.352	1544.99
637.706	1522.16
638.06	1537.76
638.413	1515.16
638.767	1540.69
639.121	1536.85
639.474	1547.93
639.828	1528.72
640.181	1533.69
640.534	1542.05
640.888	1532.56
641.241	1537.08
641.594	1512.45
641.947	1571.2
642.301	1545.44
642.654	1540.02
643.007	1527.81
643.36	1555.38
643.713	1537.08
644.066	1543.18
644.419	1538.43
644.771	1529.17
645.124	1534.82
645.477	1499.79
645.83	1525.1
646.182	1513.35
646.535	1515.61
646.888	1538.66
647.24	1520.36
647.593	1535.27
647.945	1534.59
648.298	1549.51
648.65	1541.15
649.002	1506.8
649.355	1544.31
649.707	1568.26
650.059	1563.74
650.411	1568.49
650.763	1571.2
651.115	1601.94
651.467	1581.82
651.819	1576.17
652.171	1608.04
652.523	1585.44
652.875	1581.37
653.227	1604.42
653.578	1595.61
653.93	1595.38
654.282	1609.62
654.633	1599.22
654.985	1609.84
655.337	1640.58
655.688	1631.77
656.039	1630.64
656.391	1671.09
656.742	1627.02
657.094	1653.69
657.445	1665.21
657.796	1686.9
658.147	1676.74
658.498	1653.69
658.849	1688.03
659.2	1680.8
659.551	1678.77
659.902	1713.8
660.253	1693.68
660.604	1773.46
660.955	1736.17
661.306	1720.12
661.656	1737.52
662.007	1745.43
662.358	1748.82
662.708	1731.65
663.059	1770.29
663.409	1787.69
663.76	1805.77
664.11	1779.78
664.461	1804.64
664.811	1813
665.161	1823.85
665.511	1824.08
665.862	1846.9
666.212	1885.54
666.562	1857.52
666.912	1875.37
667.262	1893.23
667.612	1897.52
667.962	1914.02
668.312	1923.51
668.662	1953.34
669.011	1978.2
669.361	1977.74
669.711	2009.38
670.06	1982.72
670.41	2001.02
670.76	2001.02
671.109	2000.57
671.459	2033.56
671.808	2025.88
672.157	2067.23
672.507	2056.61
672.856	2099.78
673.205	2070.17
673.554	2117.63
673.904	2136.84
674.253	2139.32
674.602	2163.73
674.951	2127.57
675.3	2158.08
675.649	2198.76
675.998	2186.33
676.346	2230.85
676.695	2260.45
677.044	2265.42
677.393	2261.8
677.741	2322.82
678.09	2310.84
678.438	2302.26
678.787	2315.36
679.135	2363.5
679.484	2364.85
679.832	2403.5
680.181	2427.68
680.529	2426.09
680.877	2454.57
681.225	2451.63
681.573	2473.32
681.922	2506.77
682.27	2510.39
682.618	2481.23
682.966	2524.62
683.314	2573.44
683.661	2577.28
684.009	2573.66
684.357	2584.28
684.705	2600.78
685.053	2646.2
685.4	2660.44
685.748	2684.62
686.095	2710.38
686.443	2721.68
686.79	2723.04
687.138	2746.99
687.485	2771.17
687.832	2797.38
688.18	2800.77
688.527	2798.29
688.874	2815.01
689.221	2825.63
689.568	2880.32
689.915	2893.65
690.262	2905.63
690.609	2894.78
690.956	2939.08
691.303	2962.58
691.65	2971.16
691.997	2991.28
692.344	3003.03
692.69	3033.99
693.037	3038.06
693.383	3099.07
693.73	3055.91
694.077	3076.47
694.423	3096.13
694.769	3107.88
695.116	3147.43
695.462	3161.89
695.808	3166.64
696.155	3231.72
696.501	3234.43
696.847	3231.72
697.193	3222.46
697.539	3247.99
697.885	3266.07
698.231	3253.42
698.577	3278.5
698.923	3305.85
699.269	3350.59
699.614	3348.56
699.96	3359.4
700.306	3377.26
700.651	3381.55
700.997	3420.42
701.342	3382.45
701.688	3414.77
702.033	3445.73
702.379	3427.88
702.724	3461.77
703.069	3484.6
703.415	3483.47
703.76	3505.84
704.105	3558.27
704.45	3572.5
704.795	3551.49
705.14	3593.3
705.485	3571.15
705.83	3609.79
706.175	3634.65
706.52	3587.42
706.865	3649.79
707.209	3627.19
707.554	3642.33
707.899	3681.43
708.243	3671.49
708.588	3755.55
708.932	3705.61
709.277	3742.67
709.621	3785.38
709.966	3718.72
710.31	3748.32
710.654	3771.37
710.998	3784.02
711.342	3766.62
711.687	3810.24
712.031	3792.16
712.375	3807.98
712.719	3855.21
713.063	3876.68
713.407	3901.54
713.75	3905.83
714.094	3883.01
714.438	3873.29
714.782	3883.23
715.125	3903.12
715.469	3928.2
715.812	3946.28
716.156	3945.15
716.499	3930.24
716.843	3959.16
717.186	3935.89
717.53	4022.21
717.873	3994.87
718.216	3978.37
718.559	3987.64
718.902	3964.59
719.246	3996.45
719.589	4054.75
719.932	4036
720.275	4045.49
720.617	4036.22
720.96	4028.09
721.303	4047.97
721.646	4067.86
721.989	4067.18
722.331	4072.38
722.674	4100.17
723.016	4085.71
723.359	4086.16
723.701	4116.67
724.044	4100.63
724.386	4121.42
724.729	4132.26
725.071	4110.57
725.413	4113.96
725.755	4142.43
726.097	4137.69
726.439	4155.54
726.782	4162.77
727.124	4187.4
727.465	4147.41
727.807	4136.78
728.149	4186.73
728.491	4166.16
728.833	4188.76
729.175	4207.06
729.516	4213.62
729.858	4156.9
730.199	4215.88
730.541	4207.97
730.882	4223.56
731.224	4216.78
731.565	4232.83
731.906	4220.17
732.248	4212.26
732.589	4200.74
732.93	4214.97
733.271	4205.93
733.612	4176.78
733.953	4195.31
734.294	4254.97
734.635	4221.08
734.976	4213.39
735.317	4257.01
735.658	4224.92
735.999	4211.36
736.339	4219.27
736.68	4233.73
737.021	4203.45
737.361	4213.17
737.702	4216.78
738.042	4222.21
738.383	4196.9
738.723	4261.3
739.063	4184.47
739.404	4258.36
739.744	4214.75
740.084	4184.01
740.424	4222.66
740.764	4191.7
741.104	4205.71
741.444	4202.32
741.784	4219.95
742.124	4180.85
742.464	4167.29
742.804	4218.59
743.143	4199.61
743.483	4196.44
743.823	4185.6
744.162	4166.61
744.502	4213.62
744.841	4159.83
745.181	4159.38
745.52	4213.17
745.86	4145.6
746.199	4152.15
746.538	4153.96
746.877	4153.73
747.216	4151.47
747.556	4155.09
747.895	4159.16
748.234	4155.54
748.573	4133.85
748.911	4144.69
749.25	4152.15
749.589	4101.76
749.928	4105.6
750.267	4099.04
750.605	4123.22
750.944	4116.9
751.283	4070.12
751.621	4132.94
751.96	4132.49
752.298	4024.47
752.636	4080.51
752.975	4066.96
753.313	4051.36
753.651	4096.33
753.989	4049.33
754.327	4045.71
754.666	4054.53
755.004	4045.94
755.342	4035.77
755.679	4037.13
756.017	4008.2
756.355	4019.05
756.693	4038.26
757.031	4010.01
757.368	3992.15
757.706	3944.7
758.044	4018.82
758.381	3979.73
758.719	3977.01
759.056	3955.09
759.394	3990.35
759.731	3918.26
760.068	3913.29
760.405	3922.78
760.743	3925.72
761.08	3944.02
761.417	3897.47
761.754	3866.96
762.091	3848.88
762.428	3850.24
762.765	3825.15
763.102	3847.98
763.438	3848.43
763.775	3836.9
764.112	3800.52
764.449	3844.59
764.785	3799.62
765.122	3765.95
765.458	3768.43
765.795	3791.03
766.131	3784.25
766.467	3714.87
766.804	3721.88
767.14	3679.62
767.476	3718.26
767.812	3706.06
768.148	3693.86
768.485	3713.07
768.821	3663.35
769.157	3639.85
769.492	3662.22
769.828	3695.67
770.164	3639.62
770.5	3658.83
770.836	3633.07
771.171	3567.08
771.507	3635.78
771.842	3579.96
772.178	3614.31
772.513	3551.49
772.849	3580.87
773.184	3534.54
773.519	3558.27
773.855	3513.07
774.19	3518.27
774.525	3490.02
774.86	3498.16
775.195	3505.61
775.53	3463.81
775.865	3448.44
776.2	3434.43
776.535	3464.71
776.87	3443.92
777.205	3432.17
777.539	3426.29
777.874	3402.34
778.209	3399.18
778.543	3359.4
778.878	3396.69
779.212	3353.08
779.547	3351.27
779.881	3345.84
780.215	3319.4
780.55	3328.67
780.884	3282.8
781.218	3289.57
781.552	3322.57
781.886	3277.37
782.22	3272.4
782.554	3219.52
782.888	3228.11
783.222	3216.81
783.556	3208.9
783.889	3221.33
784.223	3175.68
784.557	3146.75
784.89	3170.71
785.224	3163.48
785.557	3131.84
785.891	3132.29
786.224	3148.79
786.558	3161.22
786.891	3113.76
787.224	3109.47
787.557	3082.35
787.891	3107.43
788.224	3090.48
788.557	3092.07
788.89	3077.38
789.223	3053.65
789.556	3057.72
789.888	3065.4
790.221	3034.21
790.554	3000.77
790.887	3028.11
791.219	3004.84
791.552	2986.31
791.884	2967.1
792.217	2994.89
792.549	2960.54
792.882	2931.62
793.214	2892.3
793.546	2977.04
793.879	2910.38
794.211	2876.03
794.543	2909.92
794.875	2887.1
795.207	2872.86
795.539	2899.08
795.871	2896.14
796.203	2864.5
796.535	2873.54
796.867	2871.96
797.198	2839.64
797.53	2843.94
797.862	2831.73
798.193	2817.5
798.525	2834.45
798.856	2805.97
799.188	2790.15
799.519	2757.61
799.85	2783.37
800.182	2742.02
800.513	2742.7
800.844	2728.91
801.175	2760.77
801.506	2781.57
801.837	2735.69
802.168	2773.2
802.499	2691.62
802.83	2688.91
803.161	2744.5
803.491	2717.61
803.822	2700.44
804.153	2658.86
804.483	2650.95
804.814	2654.34
805.145	2654.56
805.475	2645.07
805.805	2646.88
806.136	2632.42
806.466	2648.91
806.796	2625.64
807.126	2633.32
807.457	2622.7
807.787	2616.15
808.117	2610.95
808.447	2617.73
808.777	2611.63
809.107	2616.15
809.436	2545.41
809.766	2572.31
810.096	2573.44
810.426	2573.44
810.755	2572.53
811.085	2539.54
811.414	2556.26
811.744	2554.45
812.073	2523.94
812.403	2514.23
812.732	2542.93
813.061	2513.78
813.39	2514
813.719	2470.39
814.049	2515.81
814.378	2515.81
814.707	2457.05
815.036	2474.68
815.365	2499.31
815.693	2449.82
816.022	2458.86
816.351	2460.44
816.68	2466.55
817.008	2462.03
817.337	2436.94
817.665	2414.12
817.994	2447.79
818.322	2439.43
818.651	2443.5
818.979	2439.88
819.307	2445.08
819.636	2414.12
819.964	2415.7
820.292	2410.73
820.62	2443.72
820.948	2402.59
821.276	2389.94
821.604	2383.84
821.932	2412.54
822.259	2387
822.587	2386.32
822.915	2408.69
823.243	2413.21
823.57	2381.12
823.898	2413.67
824.225	2363.5
824.553	2372.99
824.88	2359.43
825.207	2376.83
825.535	2374.12
825.862	2425.87
826.189	2405.3
826.516	2389.49
826.843	2415.47
827.17	2403.04
827.497	2419.09
827.824	2377.73
828.151	2414.57
828.478	2402.82
828.805	2365.98
829.131	2404.17
829.458	2380.9
829.785	2373.67
830.111	2378.19
830.438	2382.48
830.764	2402.14
831.09	2357.17
831.417	2352.2
831.743	2424.06
832.069	2381.12
832.395	2372.76
832.722	2388.58
833.048	2354.91
833.374	2405.53
833.7	2362.14
834.026	2375.25
834.351	2379.77
834.677	2354.23
835.003	2371.86
835.329	2347
835.654	2392.42
835.98	2367.56
836.306	2359.88
836.631	2336.61
836.956	2324.18
837.282	2316.27
837.607	2359.2
837.932	2357.17
838.258	2330.28
838.583	2307
838.908	2365.53
839.233	2302.03
839.558	2271.07
839.883	2291.86
840.208	2309.26
840.533	2317.62
840.858	2290.96
841.182	2317.85
841.507	2297.51
841.832	2293.22
842.156	2265.19
842.481	2284.63
842.805	2281.01
843.13	2254.8
843.454	2269.71
843.778	2304.97
844.103	2272.65
844.427	2266.1
844.751	2252.31
845.075	2264.06
845.399	2236.95
845.723	2209.15
846.047	2249.83
846.371	2250.73
846.695	2210.51
847.019	2210.73
847.343	2203.95
847.666	2215.25
847.99	2175.93
848.313	2165.08
848.637	2178.42
848.96	2166.44
849.284	2153.11
849.607	2132.77
849.931	2156.05
850.254	2140.68
850.577	2150.62
850.9	2096.84
851.223	2095.26
851.546	2108.59
851.869	2115.14
852.192	2109.04
852.515	2077.18
852.838	2075.82
853.161	2082.15
853.483	2045.54
853.806	2061.13
854.129	2094.35
854.451	2031.98
854.774	2038.76
855.096	2024.98
855.419	2023.62
855.741	2045.54
856.063	1997.41
856.385	2019.33
856.708	1992.43
857.03	1987.46
857.352	1987.24
857.674	1972.77
857.996	1977.52
858.318	1963.73
858.64	1992.89
858.961	1947.01
859.283	1970.97
859.605	1996.73
859.926	1978.42
860.248	1945.2
860.57	1928.71
860.891	1981.36
861.212	1933.23
861.534	1918.76
861.855	1940.23
862.176	1939.78
862.498	1933.9
862.819	1954.47
863.14	1948.14
863.461	1937.07
863.782	1926.67
864.103	1907.46
864.424	1911.98
864.745	1910.4
865.065	1934.13
865.386	1932.77
865.707	1903.62
866.027	1933.9
866.348	1879.89
866.668	1922.6
866.989	1904.53
867.309	1885.77
867.63	1890.06
867.95	1917.18
868.27	1866.11
868.59	1882.15
868.91	1883.06
869.23	1850.29
869.55	1874.7
869.87	1871.98
870.19	1868.82
870.51	1879.89
870.83	1862.95
871.15	1881.7
871.469	1847.13
871.789	1870.4
872.109	1836.96
872.428	1864.08
872.748	1822.49
873.067	1833.12
873.386	1836.96
873.706	1842.83
874.025	1845.09
874.344	1843.28
874.663	1808.03
874.982	1816.62
875.301	1833.12
875.62	1801.03
875.939	1835.83
876.258	1852.78
876.577	1848.93
876.896	1786.56
877.214	1810.74
877.533	1805.09
877.852	1812.55
878.17	1815.49
878.489	1811.42
878.807	1806
879.125	1804.42
879.444	1800.12
879.762	1800.8
880.08	1806
880.398	1791.31
880.716	1784.08
881.034	1763.51
881.352	1770.07
881.67	1768.71
881.988	1780.01
882.306	1768.48
882.624	1747.69
882.941	1730.97
883.259	1759.9
883.577	1710.86
883.894	1757.86
884.212	1744.3
884.529	1766.45
884.846	1724.64
885.164	1744.53
885.481	1728.49
885.798	1756.28
886.115	1735.04
886.432	1742.5
886.75	1720.12
887.067	1751.31
887.383	1686.68
887.7	1703.63
888.017	1722.61
888.334	1695.04
888.651	1699.56
888.967	1704.31
889.284	1699.33
889.6	1711.99
889.917	1702.5
890.233	1647.58
890.55	1683.06
890.866	1696.62
891.182	1713.8
891.498	1653.01
891.815	1681.71
892.131	1655.95
892.447	1648.94
892.763	1632.67
893.079	1643.06
893.395	1613.23
893.71	1646.23
894.026	1621.37
894.342	1624.76
894.657	1627.02
894.973	1640.58
895.289	1627.02
895.604	1627.25
895.92	1606.23
896.235	1617.53
896.55	1620.69
896.865	1620.01
897.181	1611.2
897.496	1603.29
897.811	1596.51
898.126	1572.33
898.441	1568.72
898.756	1583.4
899.071	1561.26
899.386	1586.12
899.7	1556.06
900.015	1553.8
900.33	1541.82
900.644	1526.01
900.959	1537.3
901.273	1535.27
901.588	1538.89
901.902	1527.59
902.216	1516.97
902.531	1530.75
902.845	1525.55
903.159	1532.33
903.473	1513.58
903.787	1505.44
904.101	1499.34
904.415	1485.55
904.729	1485.33
905.042	1478.1
905.356	1480.58
905.67	1509.73
905.984	1450.75
906.297	1504.08
906.611	1484.65
906.924	1434.48
907.237	1464.99
907.551	1437.19
907.864	1454.82
908.177	1444.88
908.491	1431.77
908.804	1447.14
909.117	1434.48
909.43	1432.45
909.743	1410.08
910.056	1410.75
910.368	1423.41
910.681	1416.86
910.994	1400.81
911.307	1396.29
911.619	1397.87
911.932	1378.66
912.244	1388.61
912.557	1397.19
912.869	1354.94
913.181	1361.49
913.494	1358.55
913.806	1350.19
914.118	1353.58
914.43	1346.12
914.742	1341.15
915.054	1333.24
915.366	1330.3
915.678	1341.15
915.99	1313.13
916.302	1316.07
916.613	1343.86
916.925	1314.71
917.236	1309.06
917.548	1304.54
917.859	1308.16
918.171	1274.71
918.482	1283.3
918.794	1280.59
919.105	1270.64
919.416	1251.89
919.727	1243.75
920.038	1307.25
920.349	1291.66
920.66	1240.14
920.971	1270.42
921.282	1267.71
921.593	1238.56
921.903	1259.8
922.214	1241.27
922.525	1235.39
922.835	1232.45
923.146	1222.51
923.456	1221.83
923.767	1215.28
924.077	1226.13
924.387	1221.38
924.697	1253.24
925.008	1218.67
925.318	1219.12
925.628	1218.67
925.938	1204.21
926.248	1181.83
926.558	1192.68
926.867	1189.74
927.177	1170.76
927.487	1167.6
927.796	1177.31
928.106	1151.78
928.416	1175.96
928.725	1185
929.034	1155.62
929.344	1188.39
929.653	1145.22
929.962	1158.33
930.271	1141.38
930.581	1170.76
930.89	1146.35
931.199	1131.89
931.508	1118.78
931.817	1137.54
932.125	1122.4
932.434	1136.64
932.743	1135.51
933.051	1126.24
933.36	1100.93
933.669	1114.72
933.977	1098.67
934.286	1054.83
934.594	1093.25
934.902	1100.71
935.21	1084.21
935.519	1093.47
935.827	1073.36
936.135	1095.06
936.443	1076.75
936.751	1079.92
937.059	1071.78
937.367	1082.4
937.674	1034.94
937.982	1060.48
938.29	1041.05
938.597	1058.45
938.905	1060.93
939.213	1051.22
939.52	1032.68
939.827	1061.16
940.135	1047.37
940.442	1024.78
940.749	1048.73
941.056	1023.87
941.363	1017.77
941.67	1017.32
941.977	1019.35
942.284	1009.63
942.591	995.17
942.898	1003.08
943.205	995.4
943.511	996.53
943.818	1004.21
944.125	987.94
944.431	994.72
944.738	990.88
945.044	975.29
945.35	1009.41
945.657	993.14
945.963	964.89
946.269	994.04
946.575	979.8
946.881	944.55
947.187	963.99
947.493	965.34
947.799	961.05
948.105	995.17
948.41	958.11
948.716	966.02
949.022	945.68
949.327	941.61
949.633	960.6
949.938	934.61
950.244	948.85
950.549	947.72
950.854	928.73
951.16	948.85
951.465	890.77
951.77	912.69
952.075	931.44
952.38	936.19
952.685	938.9
952.99	892.8
953.294	918.34
953.599	908.62
953.904	920.15
954.209	889.19
954.513	898.45
954.818	916.76
955.122	912.69
955.426	883.31
955.731	882.63
956.035	883.08
956.339	884.21
956.643	890.32
956.948	884.21
957.252	867.27
957.556	891.45
957.86	856.64
958.163	870.66
958.467	851.9
958.771	849.64
959.075	854.16
959.378	853.03
959.682	839.7
959.985	849.19
960.289	843.09
960.592	863.2
960.896	846.02
961.199	840.15
961.502	844.22
961.805	815.52
962.108	818
962.411	862.29
962.714	845.12
963.017	823.65
963.32	824.55
963.623	850.09
963.926	817.1
964.228	827.94
964.531	828.62
964.833	806.7
965.136	813.93
965.438	813.03
965.741	787.72
966.043	788.17
966.345	805.12
966.648	808.74
966.95	807.38
967.252	801.96
967.554	804.67
967.856	808.51
968.158	787.49
968.46	775.97
968.761	781.62
969.063	782.97
969.365	770.54
969.666	777.78
969.968	800.37
970.269	771.67
970.571	764.67
970.872	761.96
971.174	774.16
971.475	762.18
971.776	770.32
972.077	745.69
972.378	767.61
972.679	754.5
972.98	752.92
973.281	750.21
973.582	744.33
973.883	764.9
974.183	752.24
974.484	752.47
974.785	777.55
975.085	742.97
975.386	720.83
975.686	742.3
975.986	742.75
976.287	732.58
976.587	733.94
976.887	707.27
977.187	727.38
977.487	735.97
977.787	737.1
978.087	707.72
978.387	720.83
978.687	735.97
978.987	723.31
979.286	693.94
979.586	699.36
979.885	706.82
980.185	714.05
980.484	683.77
980.784	714.05
981.083	704.78
981.382	695.74
981.682	704.11
981.981	692.58
982.28	714.73
982.579	709.98
982.878	683.54
983.177	689.64
983.475	699.13
983.774	693.26
984.073	660.72
984.372	660.94
984.67	685.12
984.969	672.47
985.267	666.14
985.566	681.06
985.864	663.43
986.162	675.41
986.461	678.34
986.759	674.28
987.057	640.38
987.355	657.33
987.653	666.59
987.951	658.91
988.249	638.8
988.547	646.93
988.844	648.29
989.142	634.73
989.44	652.81
989.737	643.99
990.035	629.76
990.332	639.93
990.63	652.81
990.927	645.35
991.224	627.5
991.521	634.73
991.819	634.5
992.116	621.62
992.413	628.85
992.71	629.98
993.006	644.67
993.303	621.17
993.6	617.33
993.897	600.61
994.193	613.94
994.49	624.79
994.787	640.6
995.083	592.92
995.379	612.81
995.676	608.97
995.972	593.6
996.268	611
996.565	599.02
996.861	608.29
997.157	599.7
997.453	594.73
997.749	599.7
998.044	599.93
998.34	596.31
998.636	620.72
998.932	606.26
999.227	610.77
999.523	585.01
999.818	580.95
1000.114	563.77
1000.409	575.3
1000.704	589.53
1001	596.99
1001.295	571.23
1001.59	602.41
1001.885	567.16
1002.18	578.69
1002.475	588.85
1002.77	574.62
1003.065	578.23
1003.359	573.04
1003.654	560.15
1003.949	571.68
1004.243	580.95
1004.538	554.51
1004.832	587.95
1005.127	543.66
1005.421	548.4
1005.715	552.47
1006.009	547.95
1006.304	533.49
1006.598	533.04
1006.892	548.18
1007.186	550.21
1007.48	527.39
1007.773	531.23
1008.067	542.3
1008.361	530.78
1008.655	523.32
1008.948	532.13
1009.242	545.01
1009.535	520.38
1009.829	535.3
1010.122	509.99
1010.415	510.66
1010.708	535.52
1011.001	526.03
1011.295	507.27
1011.588	516.09
1011.881	530.55
1012.173	531
1012.466	518.35
1012.759	539.36
1013.052	510.44
1013.344	552.25
1013.637	529.87
1013.93	513.83
1014.222	507.95
1014.514	491.68
1014.807	506.6
1015.099	519.25
1015.391	508.4
1015.683	502.53
1015.976	517.44
1016.268	489.2
1016.56	489.42
1016.851	496.2
1017.143	516.54
1017.435	479.03
1017.727	509.76
1018.018	486.03
1018.31	478.35
1018.602	496.65
1018.893	505.01
1019.185	482.64
1019.476	476.32
1019.767	493.72
1020.058	460.27
1020.35	478.12
1020.641	470.21
1020.932	469.54
1021.223	487.39
1021.514	464.34
1021.804	478.35
1022.095	462.53
1022.386	472.47
1022.677	456.88
1022.967	469.76
1023.258	467.95
1023.548	459.59
1023.839	455.75
1024.129	454.85
1024.419	448.29
1024.709	461.4
1025	448.52
1025.29	467.95
1025.58	455.98
1025.87	468.41
1026.16	466.15
1026.449	460.5
1026.739	460.27
1027.029	466.15
1027.319	434.28
1027.608	426.6
1027.898	451.23
1028.187	449.65
1028.477	457.11
1028.766	448.97
1029.055	455.07
1029.344	442.64
1029.634	425.47
1029.923	460.27
1030.212	457.11
1030.501	450.33
1030.79	410.1
1031.078	429.76
1031.367	439.48
1031.656	427.05
1031.945	436.77
1032.233	423.21
1032.522	448.07
1032.81	434.96
1033.099	413.27
1033.387	437.67
1033.675	437.22
1033.963	409.88
1034.251	415.98
1034.54	429.08
1034.828	423.89
1035.116	420.5
1035.403	434.06
1035.691	409.2
1035.979	437.22
1036.267	424.79
1036.554	420.95
1036.842	419.14
1037.129	419.14
1037.417	401.29
1037.704	432.25
1037.992	401.29
1038.279	424.34
1038.566	401.06
1038.853	401.06
1039.14	401.06
