Data from carpet_green_FLMS001491_00100.txt Node
Date: Wed Feb 08 10:36:08 GMT 2017
User: dcchb
Spectrometer: FLMS00149
Trigger mode: 0
Integration Time (sec): 2.000000E-2
Scans to average: 10
Electric dark correction enabled: true
Nonlinearity correction enabled: false
Boxcar width: 0
XAxis mode: Wavelengths
Number of Pixels in Spectrum: 2048
>>>>>Begin Spectral Data<<<<<
341.393	-32.57
341.776	-32.57
342.16	-32.57
342.543	-69.86
342.927	-71.66
343.31	-77.54
343.693	-89.29
344.077	-54.26
344.46	-54.26
344.843	-44.77
345.226	-55.85
345.61	-46.35
345.993	-5.9
346.376	-9.29
346.759	9.24
347.142	35.9
347.525	56.02
347.908	58.5
348.291	73.87
348.674	102.34
349.057	101.66
349.44	140.31
349.823	117.48
350.206	159.29
350.588	169.01
350.971	187.76
351.354	185.73
351.737	197.93
352.119	228.67
352.502	230.7
352.884	227.99
353.267	245.16
353.65	258.27
354.032	269.57
354.414	292.39
354.797	297.37
355.179	275.67
355.562	303.47
355.944	299.85
356.326	286.07
356.709	306.4
357.091	297.59
357.473	297.59
357.855	318.61
358.238	288.1
358.62	322.45
359.002	303.01
359.384	311.15
359.766	309.34
360.148	297.82
360.53	324.71
360.912	294.88
361.294	293.52
361.676	290.36
362.057	305.5
362.439	304.14
362.821	294.43
363.203	291.72
363.584	280.42
363.966	303.01
364.348	288.55
364.729	288.33
365.111	272.73
365.493	277.93
365.874	287.65
366.256	276.57
366.637	290.59
367.019	275.22
367.4	274.09
367.781	267.99
368.163	286.07
368.544	278.61
368.925	265.28
369.306	292.85
369.688	275.9
370.069	283.81
370.45	283.58
370.831	266.86
371.212	273.86
371.593	263.24
371.974	291.26
372.355	280.64
372.736	272.51
373.117	291.72
373.498	278.83
373.879	265.95
374.26	297.59
374.641	275.9
375.021	272.96
375.402	276.35
375.783	293.98
376.163	291.49
376.544	275.67
376.925	262.56
377.305	288.33
377.686	286.07
378.066	276.12
378.447	282
378.827	291.72
379.208	293.75
379.588	275.67
379.968	302.34
380.349	286.52
380.729	295.11
381.109	310.7
381.489	285.61
381.87	296.91
382.25	284.94
382.63	305.95
383.01	299.4
383.39	271.83
383.77	294.2
384.15	282
384.53	292.39
384.91	308.89
385.29	302.11
385.67	306.86
386.049	316.35
386.429	288.78
386.809	305.5
387.189	297.14
387.568	303.69
387.948	306.4
388.328	300.3
388.707	299.17
389.087	296.91
389.466	296.24
389.846	311.38
390.225	302.34
390.605	293.3
390.984	308.21
391.363	308.89
391.743	296.91
392.122	286.97
392.501	293.98
392.881	306.63
393.26	279.51
393.639	311.6
394.018	310.47
394.397	309.79
394.776	290.81
395.155	314.99
395.534	305.73
395.913	297.82
396.292	314.99
396.671	302.79
397.05	331.71
397.429	306.86
397.808	295.56
398.186	302.79
398.565	302.34
398.944	305.27
399.323	310.47
399.701	300.3
400.08	313.18
400.458	305.5
400.837	329
401.215	338.72
401.594	330.13
401.972	313.18
402.351	320.64
402.729	313.18
403.107	306.4
403.486	313.64
403.864	331.26
404.242	330.13
404.62	338.49
404.999	323.35
405.377	327.19
405.755	326.29
406.133	331.71
406.511	316.35
406.889	313.18
407.267	326.52
407.645	309.12
408.023	338.27
408.401	307.99
408.779	328.55
409.156	311.15
409.534	338.27
409.912	322
410.29	335.78
410.667	329
411.045	348.66
411.422	319.96
411.8	339.62
412.178	318.16
412.555	312.51
412.933	330.36
413.31	348.66
413.687	324.71
414.065	342.56
414.442	346.86
414.819	354.31
415.197	332.62
415.574	337.82
415.951	332.62
416.328	348.21
416.705	353.86
417.082	343.01
417.46	341.66
417.837	343.47
418.214	382.56
418.591	338.72
418.967	323.35
419.344	341.21
419.721	337.14
420.098	348.66
420.475	342.79
420.852	370.36
421.228	347.31
421.605	342.34
421.982	354.31
422.358	352.5
422.735	370.13
423.111	355.44
423.488	352.5
423.864	353.41
424.241	378.72
424.617	346.4
424.994	350.92
425.37	358.83
425.746	362.22
426.123	376.91
426.499	352.73
426.875	379.85
427.251	354.09
427.627	359.96
428.003	375.78
428.379	353.86
428.756	394.31
429.132	349.12
429.507	384.14
429.883	401.32
430.259	412.84
430.635	392.5
431.011	373.07
431.387	374.88
431.763	380.53
432.138	390.47
432.514	377.14
432.89	375.33
433.265	395.22
433.641	387.76
434.016	402.22
434.392	402.45
434.767	398.38
435.143	410.36
435.518	400.19
435.894	415.78
436.269	408.55
436.644	399.74
437.02	427.98
437.395	412.62
437.77	421.66
438.145	414.65
438.52	413.97
438.895	433.63
439.271	385.27
439.646	432.05
440.021	428.21
440.395	434.08
440.77	409.9
441.145	425.5
441.52	425.5
441.895	450.36
442.27	433.63
442.645	409.45
443.019	439.96
443.394	438.83
443.769	448.32
444.143	467.98
444.518	446.51
444.892	445.16
445.267	443.8
445.641	432.05
446.016	455.78
446.39	453.07
446.764	443.8
447.139	448.1
447.513	466.4
447.887	455.1
448.262	457.36
448.636	453.75
449.01	468.66
449.384	459.62
449.758	470.47
450.132	488.32
450.506	464.14
450.88	472.05
451.254	485.38
451.628	472.5
452.002	485.38
452.376	483.57
452.75	498.04
453.123	492.61
453.497	473.86
453.871	492.61
454.244	500.98
454.618	495.55
454.992	499.39
455.365	507.53
455.739	491.48
456.112	499.39
456.486	508.21
456.859	524.7
457.232	528.77
457.606	515.66
457.979	529.22
458.352	529
458.725	541.88
459.099	523.12
459.472	527.64
459.845	550.24
460.218	554.76
460.591	538.26
460.964	551.14
461.337	567.19
461.71	575.55
462.083	556.79
462.456	570.13
462.829	595.21
463.201	591.59
463.574	599.96
463.947	578.04
464.32	596.57
464.692	605.83
465.065	584.14
465.438	611.03
465.81	618.49
466.183	603.35
466.555	624.36
466.928	652.61
467.3	623.46
467.672	629.56
468.045	656.9
468.417	641.31
468.789	679.5
469.161	657.58
469.534	651.48
469.906	639.73
470.278	672.27
470.65	707.07
471.022	695.32
471.394	686.51
471.766	665.72
472.138	690.12
472.51	701.42
472.882	709.11
473.253	728.77
473.625	733.06
473.997	757.92
474.369	749.1
474.74	752.72
475.112	756.79
475.484	778.03
475.855	767.18
476.227	778.93
476.598	806.5
476.97	808.76
477.341	798.37
477.713	820.97
478.084	844.24
478.455	853.96
478.827	855.99
479.198	864.13
479.569	869.33
479.94	885.6
480.311	906.39
480.682	894.86
481.053	918.82
481.424	913.17
481.795	955.88
482.166	930.12
482.537	953.17
482.908	977.8
483.279	973.73
483.65	1001.98
484.021	1009.21
484.391	1020.51
484.762	1048.98
485.133	1038.14
485.503	1059.38
485.874	1061.19
486.244	1046.5
486.615	1110.9
486.985	1110.68
487.356	1112.71
487.726	1128.98
488.097	1138.7
488.467	1165.82
488.837	1187.06
489.207	1200.17
489.578	1193.61
489.948	1212.14
490.318	1218.02
490.688	1223.67
491.058	1249.88
491.428	1276.1
491.798	1275.87
492.168	1275.19
492.538	1304.12
492.908	1294.85
493.278	1312.48
493.648	1309.77
494.017	1326.04
494.387	1326.72
494.757	1379.82
495.126	1373.27
495.496	1371.01
495.866	1374.4
496.235	1377.56
496.605	1398.13
496.974	1394.06
497.344	1423.21
497.713	1411.69
498.082	1432.02
498.452	1448.3
498.821	1469.54
499.19	1416.21
499.559	1437.9
499.928	1485.36
500.298	1481.97
500.667	1472.48
501.036	1501.4
501.405	1524.68
501.774	1503.89
502.143	1479.71
502.512	1526.94
502.88	1545.69
503.249	1531.46
503.618	1538.46
503.987	1566.94
504.356	1563.55
504.724	1550.21
505.093	1578.91
505.462	1575.98
505.83	1589.53
506.199	1610.78
506.567	1625.92
506.936	1611.23
507.304	1623.43
507.672	1651.45
508.041	1636.54
508.409	1664.79
508.777	1658.46
509.145	1646.26
509.514	1688.29
509.882	1682.41
510.25	1684
510.618	1696.65
510.986	1720.83
511.354	1741.17
511.722	1723.09
512.09	1723.32
512.458	1733.26
512.826	1779.36
513.193	1762.41
513.561	1742.07
513.929	1790.66
514.297	1756.99
514.664	1803.54
515.032	1788.85
515.4	1793.82
515.767	1826.59
516.135	1783.88
516.502	1798.57
516.869	1816.65
517.237	1821.62
517.604	1827.72
517.972	1841.73
518.339	1847.38
518.706	1882.18
519.073	1870.21
519.44	1904.33
519.808	1878.11
520.175	1905.23
520.542	1927.83
520.909	1914.72
521.276	1921.5
521.643	1954.95
522.009	1927.15
522.376	1958.79
522.743	1970.54
523.11	1946.14
523.477	1987.94
523.843	1985
524.21	2032.91
524.577	2022.74
524.943	2029.3
525.31	2027.26
525.676	2059.8
526.043	2034.95
526.409	2065
526.776	2043.53
527.142	2091.22
527.508	2067.71
527.874	2113.36
528.241	2113.59
528.607	2143.19
528.973	2135.51
529.339	2096.64
529.705	2112.91
530.071	2149.29
530.437	2142.51
530.803	2143.87
531.169	2136.86
531.535	2148.39
531.901	2190.2
532.267	2160.82
532.632	2189.74
532.998	2179.35
533.364	2156.98
533.73	2184.77
534.095	2188.61
534.461	2173.25
534.826	2192
535.192	2208.05
535.557	2218.22
535.923	2210.31
536.288	2214.83
536.653	2220.03
537.019	2206.47
537.384	2252.79
537.749	2228.16
538.114	2216.18
538.479	2233.81
538.845	2253.25
539.21	2192.23
539.575	2208.73
539.94	2242.4
540.305	2244.88
540.67	2265
541.034	2204.21
541.399	2249.63
541.764	2232.68
542.129	2279.91
542.494	2267.93
542.858	2266.13
543.223	2280.59
543.587	2254.15
543.952	2248.73
544.316	2305
544.681	2289.63
545.045	2256.86
545.41	2277.43
545.774	2289.63
546.138	2262.74
546.503	2309.06
546.867	2276.75
547.231	2308.61
547.595	2281.27
547.959	2292.34
548.324	2321.94
548.688	2264.09
549.052	2305.22
549.416	2298.89
549.779	2311.1
550.143	2319.68
550.507	2332.79
550.871	2314.94
551.235	2323.75
551.599	2306.58
551.962	2350.42
552.326	2323.07
552.689	2326.46
553.053	2315.39
553.417	2340.7
553.78	2369.17
554.143	2382.28
554.507	2340.25
554.87	2349.97
555.234	2385.67
555.597	2379.8
555.96	2347.71
556.323	2329.63
556.686	2360.59
557.05	2399.23
557.413	2368.72
557.776	2372.34
558.139	2397.65
558.502	2384.99
558.865	2377.08
559.228	2432.45
559.59	2412.11
559.953	2401.49
560.316	2429.51
560.679	2394.94
561.041	2434.03
561.404	2448.27
561.767	2460.7
562.129	2434.71
562.492	2460.02
562.854	2464.31
563.217	2428.16
563.579	2485.56
563.941	2496.18
564.304	2495.73
564.666	2485.1
565.028	2495.27
565.39	2476.52
565.753	2476.29
566.115	2513.58
566.477	2528.72
566.839	2495.5
567.201	2529.17
567.563	2516.52
567.925	2503.41
568.287	2532.11
568.648	2530.07
569.01	2569.4
569.372	2542.96
569.734	2512.67
570.095	2555.61
570.457	2559.45
570.819	2553.58
571.18	2570.53
571.542	2602.62
571.903	2579.11
572.265	2574.59
572.626	2601.03
572.987	2601.03
573.349	2555.61
573.71	2587.25
574.071	2543.41
574.432	2556.51
574.794	2613.01
575.155	2597.64
575.516	2544.54
575.877	2572.33
576.238	2575.5
576.599	2616.85
576.96	2559
577.32	2567.59
577.681	2565.1
578.042	2566.46
578.403	2611.2
578.763	2599.9
579.124	2592.9
579.485	2587.25
579.845	2590.41
580.206	2573.01
580.566	2548.38
580.927	2547.93
581.287	2582.95
581.648	2528.04
582.008	2586.8
582.368	2529.17
582.728	2557.64
583.089	2554.93
583.449	2553.35
583.809	2521.49
584.169	2537.76
584.529	2536.4
584.889	2527.14
585.249	2555.16
585.609	2537.53
585.969	2525.33
586.329	2537.98
586.688	2522.84
587.048	2514.93
587.408	2534.14
587.768	2525.56
588.127	2521.94
588.487	2518.78
588.846	2493.01
589.206	2504.76
589.565	2518.78
589.925	2529.62
590.284	2489.85
590.643	2511.77
591.003	2500.47
591.362	2524.88
591.721	2522.84
592.08	2466.35
592.44	2495.95
592.799	2504.09
593.158	2478.32
593.517	2519.91
593.876	2512
594.235	2488.04
594.593	2538.89
594.952	2487.59
595.311	2495.05
595.67	2507.48
596.029	2518.1
596.387	2483.07
596.746	2495.73
597.104	2526.01
597.463	2480.81
597.822	2514.71
598.18	2512.45
598.538	2516.29
598.897	2513.58
599.255	2510.41
599.613	2516.29
599.972	2531.66
600.33	2548.15
600.688	2489.62
601.046	2532.11
601.404	2522.39
601.762	2500.92
602.12	2524.43
602.478	2539.57
602.836	2534.14
603.194	2503.18
603.552	2522.62
603.91	2519.91
604.268	2566.46
604.625	2516.52
604.983	2512.22
605.341	2504.76
605.698	2542.73
606.056	2522.84
606.413	2544.76
606.771	2537.08
607.128	2525.78
607.485	2534.14
607.843	2561.71
608.2	2550.64
608.557	2615.04
608.914	2531.88
609.272	2606
609.629	2562.16
609.986	2596.51
610.343	2582.5
610.7	2585.44
611.057	2591.54
611.414	2575.5
611.771	2583.63
612.127	2629.06
612.484	2592.22
612.841	2612.33
613.198	2584.54
613.554	2579.79
613.911	2604.42
614.267	2604.88
614.624	2610.3
614.98	2604.88
615.337	2627.93
615.693	2619.79
616.05	2616.85
616.406	2635.83
616.762	2616.4
617.118	2677.64
617.475	2635.38
617.831	2652.11
618.187	2667.92
618.543	2634.7
618.899	2637.19
619.255	2667.25
619.611	2652.56
619.967	2648.49
620.323	2643.52
620.678	2634.25
621.034	2625.21
621.39	2646
621.746	2617.98
622.101	2694.14
622.457	2627.47
622.812	2629.96
623.168	2672.44
623.523	2651.65
623.879	2627.93
624.234	2631.09
624.589	2651.88
624.945	2644.2
625.3	2662.5
625.655	2659.79
626.01	2645.1
626.365	2668.6
626.72	2639.9
627.075	2656.4
627.43	2640.13
627.785	2641.26
628.14	2653.69
628.495	2615.27
628.85	2635.16
629.205	2602.62
629.559	2622.28
629.914	2636.51
630.269	2612.78
630.623	2614.82
630.978	2631.77
631.332	2627.47
631.687	2638.77
632.041	2634.7
632.396	2580.92
632.75	2608.72
633.104	2621.15
633.459	2623.86
633.813	2638.09
634.167	2619.34
634.521	2601.49
634.875	2593.35
635.229	2595.16
635.583	2599.68
635.937	2600.58
636.291	2587.47
636.645	2612.11
636.999	2595.61
637.352	2591.77
637.706	2570.3
638.06	2616.17
638.413	2589.51
638.767	2571.43
639.121	2580.47
639.474	2574.82
639.828	2605.78
640.181	2632.22
640.534	2623.86
640.888	2601.94
641.241	2597.87
641.594	2597.42
641.947	2593.8
642.301	2591.77
642.654	2610.07
643.007	2637.42
643.36	2582.95
643.713	2578.44
644.066	2610.07
644.419	2593.12
644.771	2617.76
645.124	2597.19
645.477	2580.47
645.83	2574.59
646.182	2562.62
646.535	2537.08
646.888	2547.7
647.24	2551.09
647.593	2568.94
647.945	2567.81
648.298	2561.03
648.65	2554.25
649.002	2559.9
649.355	2588.6
649.707	2581.15
650.059	2584.54
650.411	2641.71
650.763	2646.46
651.115	2706.12
651.467	2703.63
651.819	2706.12
652.171	2683.07
652.523	2681.94
652.875	2726.45
653.227	2715.38
653.578	2772.1
653.93	2745.89
654.282	2748.83
654.633	2728.26
654.985	2698.88
655.337	2757.19
655.688	2744.53
656.039	2804.42
656.391	2754.48
656.742	2784.31
657.094	2806.23
657.445	2820.01
657.796	2818.2
658.147	2811.42
658.498	2832.67
658.849	2892.1
659.2	2830.18
659.551	2882.16
659.902	2863.17
660.253	2874.47
660.604	2897.97
660.955	2909.5
661.306	2945.66
661.656	2916.51
662.007	2948.14
662.358	2940.91
662.708	2959.89
663.059	2955.6
663.409	2974.36
663.76	3059.55
664.11	3023.62
664.461	3033.11
664.811	3030.4
665.161	3070.63
665.511	3085.54
665.862	3111.53
666.212	3151.08
666.562	3155.82
666.912	3170.74
667.262	3168.93
667.612	3175.48
667.962	3246.44
668.312	3227.46
668.662	3223.62
669.011	3253.45
669.361	3273.11
669.711	3281.92
670.06	3301.35
670.41	3340
670.76	3355.59
671.109	3359.88
671.459	3393.1
671.808	3394.01
672.157	3422.71
672.507	3375.93
672.856	3420.9
673.205	3479.65
673.554	3504.74
673.904	3530.27
674.253	3539.54
674.602	3518.52
674.951	3513.33
675.3	3537.73
675.649	3599.65
675.998	3626.77
676.346	3645.75
676.695	3677.84
677.044	3641.91
677.393	3731.4
677.741	3750.38
678.09	3782.02
678.438	3800.55
678.787	3801.68
679.135	3831.96
679.484	3807.78
679.832	3843.49
680.181	3877.38
680.529	3934.11
680.877	3959.19
681.225	3954.22
681.573	4003.93
681.922	4017.27
682.27	4014.56
682.618	4028.11
682.966	4049.58
683.314	4077.38
683.661	4116.93
684.009	4140.88
684.357	4090.26
684.705	4131.16
685.053	4182.69
685.4	4176.81
685.748	4234.89
686.095	4254.32
686.443	4251.39
686.79	4313.3
687.138	4353.76
687.485	4344.94
687.832	4316.47
688.18	4395.11
688.527	4376.35
688.874	4416.13
689.221	4419.97
689.568	4456.13
689.915	4439.86
690.262	4530.7
690.609	4518.95
690.956	4534.09
691.303	4489.57
691.65	4563.02
691.997	4539.29
692.344	4623.35
692.69	4625.61
693.037	4660.87
693.383	4574.09
693.73	4701.09
694.077	4723.46
694.423	4720.98
694.769	4743.8
695.116	4751.49
695.462	4736.57
695.808	4773.41
696.155	4813.18
696.501	4781.99
696.847	4878.04
697.193	4845.27
697.539	4880.07
697.885	4840.97
698.231	4863.12
698.577	4867.41
698.923	4955.77
699.269	4922.1
699.614	4919.84
699.96	4933.18
700.306	4977.69
700.651	4995.09
700.997	5015.89
701.342	5043
701.688	5017.92
702.033	5048.43
702.379	5089.33
702.724	5069.67
703.069	5123.68
703.415	5064.47
703.76	5124.58
704.105	5138.14
704.45	5125.94
704.795	5134.3
705.14	5189.89
705.485	5176.78
705.83	5198.25
706.175	5212.94
706.52	5222.43
706.865	5262.43
707.209	5268.08
707.554	5262.66
707.899	5277.57
708.243	5191.47
708.588	5270.34
708.932	5317.57
709.277	5265.6
709.621	5286.16
709.966	5300.85
710.31	5360.51
710.654	5317.57
710.998	5338.14
711.342	5369.55
711.687	5377.46
712.031	5324.13
712.375	5326.61
712.719	5380.4
713.063	5414.74
713.407	5391.69
713.75	5384.24
714.094	5410
714.438	5411.35
714.782	5439.38
715.125	5428.98
715.469	5451.81
715.812	5420.17
716.156	5400.06
716.499	5465.36
716.843	5480.96
717.186	5457.91
717.53	5519.83
717.873	5501.3
718.216	5488.42
718.559	5516.89
718.902	5472.37
719.246	5513.27
719.589	5497.68
719.932	5517.11
720.275	5532.26
720.617	5547.17
720.96	5510.34
721.303	5507.4
721.646	5553.95
721.989	5473.95
722.331	5503.56
722.674	5543.78
723.016	5563.89
723.359	5557.57
723.701	5646.38
724.044	5554.18
724.386	5558.02
724.729	5566.83
725.071	5547.62
725.413	5569.99
725.755	5570.67
726.097	5531.35
726.439	5534.74
726.782	5561.41
727.124	5593.72
727.465	5537
727.807	5567.73
728.149	5558.47
728.491	5567.73
728.833	5587.17
729.175	5588.53
729.516	5573.38
729.858	5607.28
730.199	5529.09
730.541	5623.33
730.882	5547.17
731.224	5605.7
731.565	5566.15
731.906	5590.79
732.248	5565.93
732.589	5551.69
732.93	5560.73
733.271	5591.01
733.612	5569.54
733.953	5581.29
734.294	5602.76
734.635	5574.51
734.976	5583.55
735.317	5568.19
735.658	5542.88
735.999	5551.01
736.339	5556.89
736.68	5555.76
737.021	5565.7
737.361	5500.62
737.702	5565.25
738.042	5518.24
738.383	5486.38
738.723	5528.64
739.063	5490.22
739.404	5521.41
739.744	5499.04
740.084	5520.28
740.424	5507.85
740.764	5524.57
741.104	5478.02
741.444	5443.67
741.784	5480.51
742.124	5472.37
742.464	5515.31
742.804	5486.61
743.143	5437.57
743.483	5466.95
743.823	5467.85
744.162	5491.58
744.502	5433.73
744.841	5466.27
745.181	5461.52
745.52	5458.36
745.86	5418.81
746.199	5410
746.538	5437.57
746.877	5459.94
747.216	5421.52
747.556	5394.86
747.895	5427.63
748.234	5396.67
748.573	5384.91
748.911	5376.55
749.25	5372.26
749.589	5331.58
749.928	5323.45
750.267	5346.95
750.605	5329.55
750.944	5355.76
751.283	5280.51
751.621	5354.18
751.96	5316.67
752.298	5301.75
752.636	5309.44
752.975	5248.87
753.313	5225.6
753.651	5279.38
753.989	5317.35
754.327	5246.39
754.666	5186.05
755.004	5190.12
755.342	5224.02
755.679	5211.59
756.017	5197.58
756.355	5230.12
756.693	5170.01
757.031	5223.34
757.368	5182.43
757.706	5154.64
758.044	5131.81
758.381	5164.36
758.719	5158.25
759.056	5152.15
759.394	5129.55
759.731	5074.19
760.068	5103.57
760.405	5020.86
760.743	5025.15
761.08	5004.81
761.417	5046.84
761.754	5008.65
762.091	4952.84
762.428	4978.15
762.765	4938.82
763.102	4926.62
763.438	4976.79
763.775	4910.8
764.112	4959.39
764.449	4889.33
764.785	4899.96
765.122	4873.52
765.458	4905.38
765.795	4819.73
766.131	4823.35
766.467	4804.37
766.804	4824.25
767.14	4790.81
767.476	4795.55
767.812	4790.13
768.148	4782.44
768.485	4759.39
768.821	4698.38
769.157	4683.46
769.492	4758.72
769.828	4699.96
770.164	4669.91
770.5	4652.05
770.836	4674.65
771.171	4619.51
771.507	4619.29
771.842	4588.1
772.178	4604.6
772.513	4597.82
772.849	4561.43
773.184	4551.49
773.519	4555.33
773.855	4494.09
774.19	4534.09
774.525	4477.59
774.86	4473.75
775.195	4484.6
775.53	4433.98
775.865	4396.69
776.2	4419.29
776.535	4414.32
776.87	4387.88
777.205	4353.08
777.539	4328.45
777.874	4360.54
778.209	4375.9
778.543	4310.14
778.878	4287.09
779.212	4311.04
779.547	4275.11
779.881	4323.7
780.215	4251.16
780.55	4238.73
780.884	4210.48
781.218	4199.18
781.552	4193.53
781.886	4190.6
782.22	4174.78
782.554	4159.64
782.888	4119.86
783.222	4104.5
783.556	4085.51
783.889	4099.07
784.223	4118.96
784.557	4091.84
784.89	4017.49
785.224	4052.97
785.557	4011.39
785.891	3996.02
786.224	3972.97
786.558	4036.7
786.891	3988.79
787.224	3970.04
787.557	3947.21
787.891	3901.11
788.224	3907.89
788.557	3991.73
788.89	3923.03
789.223	3954.67
789.556	3940.21
789.888	3879.19
790.221	3864.95
790.554	3838.74
790.887	3839.42
791.219	3814.56
791.552	3817.72
791.884	3801.91
792.217	3808.91
792.549	3788.35
792.882	3749.93
793.214	3744.73
793.546	3755.35
793.879	3738.18
794.211	3704.28
794.543	3765.97
794.875	3714.22
795.207	3681.23
795.539	3686.43
795.871	3718.97
796.203	3638.97
796.535	3635.36
796.867	3629.25
797.198	3654.56
797.53	3596.49
797.862	3569.82
798.193	3593.55
798.525	3589.26
798.856	3603.72
799.188	3533.44
799.519	3528.69
799.85	3506.77
800.182	3538.41
800.513	3522.14
800.844	3487.34
801.175	3488.24
801.506	3495.7
801.837	3464.97
802.168	3470.16
802.499	3457.06
802.83	3438.53
803.161	3485.76
803.491	3449.6
803.822	3446.21
804.153	3405.76
804.483	3378.19
804.814	3342.26
805.145	3380.9
805.475	3414.57
805.805	3391.97
806.136	3369.37
806.466	3367.57
806.796	3309.26
807.126	3309.04
807.457	3336.38
807.787	3319.88
808.117	3302.03
808.447	3310.62
808.777	3315.82
809.107	3282.82
809.436	3289.83
809.766	3288.7
810.096	3240.34
810.426	3244.86
810.755	3274.24
811.085	3270.39
811.414	3250.06
811.744	3286.21
812.073	3182.71
812.403	3231.07
812.732	3189.27
813.061	3158.76
813.39	3185.2
813.719	3180
814.049	3222.94
814.378	3154.01
814.707	3176.84
815.036	3184.29
815.365	3145.88
815.693	3147.91
816.022	3124.41
816.351	3143.62
816.68	3145.2
817.008	3137.52
817.337	3090.51
817.665	3080.34
817.994	3082.83
818.322	3084.41
818.651	3065.43
818.979	3043.28
819.307	3084.64
819.636	3064.75
819.964	3068.14
820.292	3048.93
820.62	3072.21
820.948	3052.32
821.276	3038.54
821.604	3062.04
821.932	3038.08
822.259	3051.87
822.587	3029.04
822.915	3045.32
823.243	3055.03
823.57	3038.54
823.898	3053.9
824.225	3054.81
824.553	3035.15
824.88	3034.69
825.207	3008.71
825.535	3033.34
825.862	3062.49
826.189	3038.76
826.516	3061.81
826.843	3044.19
827.17	3011.87
827.497	3065.2
827.824	3020.68
828.151	3052.55
828.478	3043.96
828.805	3056.39
829.131	3032.43
829.458	3014.36
829.785	3022.27
830.111	3034.47
830.438	3041.7
830.764	3039.44
831.09	3041.7
831.417	2982.27
831.743	3016.62
832.069	3027.46
832.395	3014.58
832.722	2983.4
833.048	2988.59
833.374	3008.48
833.7	3010.51
834.026	3031.53
834.351	2986.79
834.677	3004.41
835.003	3027.69
835.329	2974.81
835.654	3020.46
835.98	2982.94
836.306	2968.26
836.631	2989.05
836.956	2956.96
837.282	2978.2
837.607	2942.04
837.932	2973.45
838.258	2935.94
838.583	2972.32
838.908	2905.88
839.233	2942.95
839.558	2946.11
839.883	2946.56
840.208	2916.96
840.533	2941.14
840.858	2935.94
841.182	2906.56
841.507	2916.96
841.832	2892.33
842.156	2903.62
842.481	2897.3
842.805	2846.22
843.13	2876.73
843.454	2849.84
843.778	2843.96
844.103	2881.48
844.427	2833.8
844.751	2841.93
845.075	2843.51
845.399	2835.83
845.723	2830.18
846.047	2810.52
846.371	2829.5
846.695	2813.01
847.019	2766
847.343	2776.17
847.666	2746.57
847.99	2753.57
848.313	2794.47
848.637	2700.24
848.96	2733.69
849.284	2730.07
849.607	2747.24
849.931	2720.35
850.254	2671.77
850.577	2682.39
850.9	2701.82
851.223	2664.08
851.546	2631.99
851.869	2650.98
852.192	2639.9
852.515	2643.74
852.838	2653.91
853.161	2575.72
853.483	2624.54
853.806	2591.54
854.129	2597.64
854.451	2600.58
854.774	2600.13
855.096	2573.69
855.419	2541.15
855.741	2546.12
856.063	2529.17
856.385	2577.76
856.708	2543.18
857.03	2503.18
857.352	2518.78
857.674	2555.16
857.996	2491.66
858.318	2524.2
858.64	2496.4
858.961	2473.81
859.283	2485.56
859.605	2452.79
859.926	2466.57
860.248	2464.99
860.57	2464.31
860.891	2451.43
861.212	2427.25
861.534	2463.18
861.855	2434.26
862.176	2480.36
862.498	2467.48
862.819	2432.22
863.14	2422.73
863.461	2454.14
863.782	2441.72
864.103	2398.33
864.424	2441.72
864.745	2410.98
865.065	2395.16
865.386	2395.39
865.707	2396.74
866.027	2382.06
866.348	2390.19
866.668	2359.01
866.989	2351.1
867.309	2375.73
867.63	2348.61
867.95	2363.98
868.27	2390.64
868.59	2381.15
868.91	2365.11
869.23	2376.63
869.55	2360.36
869.87	2345.45
870.19	2326.46
870.51	2330.53
870.83	2317.2
871.15	2317.65
871.469	2326.01
871.789	2316.3
872.109	2330.76
872.428	2296.18
872.748	2302.06
873.067	2308.61
873.386	2344.54
873.706	2314.26
874.025	2314.26
874.344	2265.67
874.663	2294.15
874.982	2312.91
875.301	2286.92
875.62	2284.66
875.939	2307.93
876.258	2263.42
876.577	2284.21
876.896	2305.67
877.214	2277.88
877.533	2299.57
877.852	2285.79
878.17	2273.13
878.489	2237.2
878.807	2248.05
879.125	2274.26
879.444	2275.17
879.762	2216.64
880.08	2247.14
880.398	2227.26
880.716	2216.86
881.034	2244.66
881.352	2243.3
881.67	2245.56
881.988	2253.47
882.306	2175.28
882.624	2199.69
882.941	2222.74
883.259	2172.12
883.577	2188.39
883.894	2193.36
884.212	2192.91
884.529	2177.99
884.846	2186.13
885.164	2167.82
885.481	2180.71
885.798	2208.5
886.115	2198.11
886.432	2198.33
886.75	2143.87
887.067	2170.31
887.383	2157.66
887.7	2126.7
888.017	2124.44
888.334	2181.38
888.651	2146.58
888.967	2124.44
889.284	2148.39
889.6	2107.71
889.917	2065.45
890.233	2074.49
890.55	2083.98
890.866	2115.17
891.182	2094.83
891.498	2094.83
891.815	2065.91
892.131	2069.75
892.447	2068.62
892.763	2078.34
893.079	2086.7
893.395	2032.01
893.71	2038.79
894.026	2033.59
894.342	2055.06
894.657	2059.13
894.973	2011.44
895.289	2014.61
895.604	2023.42
895.92	1994.04
896.235	1997.21
896.55	1995.4
896.865	2004.66
897.181	1998.34
897.496	2026.81
897.811	1997.66
898.126	1953.37
898.441	1965.57
898.756	1982.29
899.071	1969.86
899.386	1975.51
899.7	1944.55
900.015	1937.77
900.33	1910.88
900.644	1923.76
900.959	1923.31
901.273	1932.58
901.588	1890.09
901.902	1892.35
902.216	1881.28
902.531	1938
902.845	1885.35
903.159	1886.7
903.473	1909.07
903.787	1870.43
904.101	1847.83
904.415	1868.62
904.729	1855.06
905.042	1839.7
905.356	1867.72
905.67	1844.44
905.984	1851
906.297	1839.92
906.611	1828.85
906.924	1828.62
907.237	1805.12
907.551	1824.1
907.864	1771.68
908.177	1791.56
908.491	1793.14
908.804	1809.87
909.117	1761.96
909.43	1781.17
909.743	1759.7
910.056	1749.53
910.368	1763.99
910.681	1742.75
910.994	1735.52
911.307	1732.58
911.619	1728.29
911.932	1737.78
912.244	1702.53
912.557	1706.82
912.869	1678.12
913.181	1684.67
913.494	1720.38
913.806	1700.49
914.118	1696.2
914.43	1646.71
914.742	1651.45
915.054	1678.12
915.366	1672.02
915.678	1639.02
915.99	1640.38
916.302	1653.49
916.613	1644.67
916.925	1636.31
917.236	1631.57
917.548	1607.39
917.859	1608.07
918.171	1634.51
918.482	1614.84
918.794	1589.53
919.105	1584.79
919.416	1574.85
919.727	1600.38
920.038	1563.55
920.349	1558.35
920.66	1574.39
920.971	1558.12
921.282	1547.95
921.593	1559.03
921.903	1558.8
922.214	1524
922.525	1523.77
922.835	1553.6
923.146	1533.04
923.456	1534.62
923.767	1524.9
924.077	1522.42
924.387	1494.85
924.697	1505.24
925.008	1486.26
925.318	1474.96
925.628	1486.49
925.938	1481.06
926.248	1458.24
926.558	1454.4
926.867	1458.01
927.177	1487.16
927.487	1462.76
927.796	1441.29
928.106	1448.07
928.416	1465.7
928.725	1440.16
929.034	1435.41
929.344	1411.46
929.653	1426.15
929.962	1415.53
930.271	1394.29
930.581	1392.7
930.89	1394.96
931.199	1408.75
931.508	1374.62
931.817	1398.81
932.125	1380.27
932.434	1391.35
932.743	1356.09
933.051	1334.17
933.36	1367.62
933.669	1333.27
933.977	1350.9
934.286	1376.88
934.594	1339.6
934.902	1352.93
935.21	1340.73
935.519	1315.42
935.827	1322.87
936.135	1347.28
936.443	1346.83
936.751	1306.6
937.059	1315.19
937.367	1301.18
937.674	1282.88
937.982	1310.67
938.29	1282.2
938.597	1311.35
938.905	1285.36
939.213	1287.62
939.52	1258.92
939.827	1261.86
940.135	1248.53
940.442	1235.42
940.749	1293.95
941.056	1260.73
941.363	1255.53
941.67	1241.3
941.977	1251.01
942.284	1220.96
942.591	1249.43
942.898	1227.28
943.205	1244.46
943.511	1208.08
943.818	1214.86
944.125	1187.74
944.431	1201.52
944.738	1207.62
945.044	1204.01
945.35	1228.41
945.657	1205.36
945.963	1180.96
946.269	1180.05
946.575	1175.99
946.881	1188.42
947.187	1167.85
947.493	1181.41
947.799	1185.03
948.105	1182.54
948.41	1183.9
948.716	1135.54
949.022	1145.93
949.327	1140.28
949.633	1126.95
949.938	1136.21
950.244	1124.24
950.549	1117.91
950.854	1120.62
951.16	1099.38
951.465	1137.57
951.77	1125.37
952.075	1125.59
952.38	1117.68
952.685	1092.82
952.99	1110.9
953.294	1092.37
953.599	1093.05
953.904	1085.14
954.209	1084.24
954.513	1098.93
954.818	1088.53
955.122	1092.15
955.426	1085.37
955.731	1070.68
956.035	1051.92
956.339	1071.58
956.643	1032.49
956.948	1037.46
957.252	1053.96
957.556	1054.63
957.86	1062.09
958.163	1066.84
958.467	1052.83
958.771	1027.74
959.075	1024.13
959.378	1035.88
959.682	1010.79
959.985	1027.74
960.289	1055.99
960.592	1004.24
960.896	1019.61
961.199	1006.05
961.502	1008.08
961.805	1000.85
962.108	997.91
962.411	985.03
962.714	986.16
963.017	963.34
963.32	1008.98
963.623	968.99
963.926	977.12
964.228	988.42
964.531	971.02
964.833	972.38
965.136	964.47
965.438	961.75
965.741	950.23
966.043	960.62
966.345	941.64
966.648	963.11
966.95	938.48
967.252	943.45
967.554	961.75
967.856	959.27
968.158	912.26
968.46	929.44
968.761	940.06
969.063	945.94
969.365	896.45
969.666	931.25
969.968	904.35
970.269	932.83
970.571	908.2
970.872	930.79
971.174	905.48
971.475	917.24
971.776	900.29
972.077	869.78
972.378	889.89
972.679	899.61
972.98	878.37
973.281	902.77
973.582	888.99
973.883	866.39
974.183	862.32
974.484	865.03
974.785	876.78
975.085	874.75
975.386	885.6
975.686	887.86
975.986	846.96
976.287	848.54
976.587	850.12
976.887	839.05
977.187	852.38
977.487	822.77
977.787	842.21
978.087	818.93
978.387	838.59
978.687	839.72
978.987	826.84
979.286	849.44
979.586	832.94
979.885	835.88
980.185	825.94
980.484	813.28
980.784	839.5
981.083	817.13
981.382	819.39
981.682	791.14
981.981	796.11
982.28	803.34
982.579	819.16
982.878	815.32
983.177	801.53
983.475	789.78
983.774	787.07
984.073	797.46
984.372	781.87
984.67	783.68
984.969	804.92
985.267	810.12
985.566	785.26
985.864	796.79
986.162	765.6
986.461	769.22
986.759	780.06
987.057	762.66
987.355	786.84
987.653	766.28
987.951	755.88
988.249	770.12
988.547	745.94
988.844	764.02
989.142	763.79
989.44	745.49
989.737	749.33
990.035	743.91
990.332	722.89
990.63	751.14
990.927	729.67
991.224	729.22
991.521	733.29
991.819	727.86
992.116	733.74
992.413	728.99
992.71	721.53
993.006	724.7
993.303	734.87
993.6	731.48
993.897	709.56
994.193	726.96
994.49	729.44
994.787	712.27
995.083	700.52
995.379	709.11
995.676	713.63
995.972	696.45
996.268	714.3
996.565	706.85
996.861	682.44
997.157	692.38
997.453	711.14
997.749	695.55
998.044	671.82
998.34	683.8
998.636	675.21
998.932	684.93
999.227	702.78
999.523	691.03
999.818	679.73
1000.114	677.02
1000.409	679.5
1000.704	653.29
1001	677.24
1001.295	662.55
1001.59	653.74
1001.885	666.17
1002.18	653.97
1002.475	665.72
1002.77	656.9
1003.065	651.71
1003.359	638.6
1003.654	652.84
1003.949	658.71
1004.243	653.06
1004.538	648.77
1004.832	637.92
1005.127	646.73
1005.421	638.6
1005.715	629.56
1006.009	641.76
1006.304	612.16
1006.598	635.44
1006.892	628.43
1007.186	606.74
1007.48	628.43
1007.773	613.97
1008.067	610.13
1008.361	599.05
1008.655	625.04
1008.948	603.57
1009.242	596.34
1009.535	585.72
1009.829	608.77
1010.122	580.75
1010.415	612.61
1010.708	583.01
1011.001	595.21
1011.295	570.8
1011.588	605.61
1011.881	591.37
1012.173	588.66
1012.466	598.83
1012.759	578.71
1013.052	584.82
1013.344	561.99
1013.637	597.92
1013.93	568.77
1014.222	606.51
1014.514	585.95
1014.807	566.28
1015.099	545.27
1015.391	576
1015.683	555.44
1015.976	568.09
1016.268	557.47
1016.56	553.4
1016.851	562.44
1017.143	549.11
1017.435	573.52
1017.727	550.24
1018.018	566.74
1018.31	530.81
1018.602	548.43
1018.893	531.94
1019.185	530.58
1019.476	526.74
1019.767	539.39
1020.058	543.91
1020.35	519.96
1020.641	562.89
1020.932	529
1021.223	525.83
1021.514	521.77
1021.804	519.73
1022.095	528.32
1022.386	538.04
1022.677	516.57
1022.967	519.51
1023.258	523.57
1023.548	519.96
1023.839	530.81
1024.129	510.24
1024.419	533.29
1024.709	504.59
1025	502.11
1025.29	493.07
1025.58	502.33
1025.87	500.75
1026.16	499.17
1026.449	510.01
1026.739	502.11
1027.029	523.8
1027.319	490.81
1027.608	475.44
1027.898	502.56
1028.187	495.1
1028.477	487.87
1028.766	471.37
1029.055	474.08
1029.344	451.26
1029.634	482.22
1029.923	467.98
1030.212	477.25
1030.501	490.58
1030.79	484.25
1031.078	460.98
1031.367	508.43
1031.656	469.11
1031.945	472.28
1032.233	454.2
1032.522	463.46
1032.81	468.66
1033.099	455.1
1033.387	464.82
1033.675	466.17
1033.963	478.6
1034.251	471.82
1034.54	442.67
1034.828	443.12
1035.116	446.97
1035.403	435.89
1035.691	474.08
1035.979	446.51
1036.267	443.58
1036.554	432.28
1036.842	448.1
1037.129	439.28
1037.417	446.06
1037.704	437.25
1037.992	427.31
1038.279	434.31
1038.566	423.01
1038.853	423.01
1039.14	423.01
