Data from carpet_green_FLMS001491_00069.txt Node
Date: Wed Feb 08 10:35:42 GMT 2017
User: dcchb
Spectrometer: FLMS00149
Trigger mode: 0
Integration Time (sec): 2.000000E-2
Scans to average: 10
Electric dark correction enabled: true
Nonlinearity correction enabled: false
Boxcar width: 0
XAxis mode: Wavelengths
Number of Pixels in Spectrum: 2048
>>>>>Begin Spectral Data<<<<<
341.393	-5.69
341.776	-5.69
342.16	-5.69
342.543	-57.22
342.927	-61.06
343.31	-55.41
343.693	-91.79
344.077	-67.16
344.46	-59.93
344.843	-37.33
345.226	-48.85
345.61	-17.22
345.993	-23.32
346.376	9.9
346.759	17.13
347.142	21.2
347.525	36.34
347.908	51.93
348.291	66.85
348.674	80.41
349.057	117.24
349.44	108.2
349.823	137.36
350.206	142.55
350.588	156.11
350.971	189.11
351.354	187.3
351.737	198.82
352.119	263
352.502	258.03
352.884	236.11
353.267	239.95
353.65	270.68
354.032	270.23
354.414	271.81
354.797	302.1
355.179	279.05
355.562	292.83
355.944	287.86
356.326	295.32
356.709	305.71
357.091	338.03
357.473	291.48
357.855	323.56
358.238	324.69
358.62	316.11
359.002	305.26
359.384	330.34
359.766	305.26
360.148	295.54
360.53	317.24
360.912	324.92
361.294	305.03
361.676	320.18
362.057	314.75
362.439	282.89
362.821	285.15
363.203	298.71
363.584	286.96
363.966	307.75
364.348	306.84
364.729	292.15
365.111	294.64
365.493	303.9
365.874	296
366.256	286.05
366.637	287.86
367.019	277.01
367.4	279.27
367.781	285.15
368.163	285.37
368.544	272.94
368.925	276.79
369.306	285.6
369.688	274.53
370.069	269.78
370.45	299.61
370.831	281.76
371.212	263.45
371.593	262.1
371.974	273.17
372.355	297.58
372.736	280.4
373.117	291.48
373.498	302.55
373.879	274.75
374.26	279.72
374.641	285.83
375.021	308.2
375.402	292.61
375.783	293.96
376.163	293.51
376.544	289.22
376.925	291.25
377.305	298.71
377.686	286.05
378.066	279.72
378.447	288.76
378.827	272.72
379.208	308.88
379.588	292.61
379.968	288.99
380.349	299.84
380.729	279.72
381.109	292.38
381.489	278.82
381.87	288.09
382.25	277.46
382.63	329.21
383.01	270.01
383.39	289.44
383.77	299.61
384.15	307.07
384.53	305.03
384.91	287.86
385.29	296.67
385.67	304.58
386.049	309.78
386.429	317.69
386.809	309.78
387.189	304.58
387.568	307.29
387.948	300.97
388.328	315.2
388.707	285.83
389.087	311.36
389.466	312.72
389.846	291.93
390.225	306.84
390.605	300.29
390.984	317.24
391.363	302.1
391.743	312.72
392.122	301.42
392.501	297.12
392.881	304.58
393.26	291.7
393.639	304.81
394.018	323.79
394.397	319.5
394.776	307.75
395.155	313.17
395.534	314.53
395.913	331.93
396.292	319.05
396.671	306.84
397.05	318.59
397.429	327.86
397.808	302.32
398.186	328.08
398.565	331.93
398.944	310.46
399.323	308.88
399.701	313.62
400.08	301.87
400.458	319.72
400.837	312.94
401.215	319.27
401.594	331.7
401.972	314.3
402.351	315.88
402.729	330.34
403.107	312.27
403.486	322.21
403.864	321.08
404.242	309.55
404.62	334.19
404.999	331.47
405.377	318.59
405.755	328.08
406.133	330.12
406.511	342.32
406.889	348.65
407.267	348.2
407.645	327.63
408.023	330.8
408.401	334.19
408.779	335.99
409.156	337.12
409.534	318.59
409.912	309.1
410.29	330.12
410.667	319.95
411.045	340.97
411.422	336.22
411.8	331.02
412.178	329.89
412.555	349.1
412.933	340.29
413.31	365.37
413.687	350.91
414.065	364.24
414.442	336.45
414.819	340.74
415.197	353.39
415.574	352.72
415.951	333.06
416.328	349.78
416.705	364.47
417.082	338.48
417.46	350.46
417.837	338.93
418.214	331.7
418.591	348.42
418.967	346.39
419.344	339.84
419.721	332.6
420.098	338.93
420.475	362.89
420.852	341.19
421.228	345.26
421.605	345.26
421.982	339.16
422.358	351.81
422.735	335.54
423.111	371.02
423.488	351.36
423.864	354.98
424.241	340.51
424.617	369.44
424.994	350
425.37	358.59
425.746	346.16
426.123	354.3
426.499	364.92
426.875	372.83
427.251	377.35
427.627	370.8
428.003	371.25
428.379	367.41
428.756	380.74
429.132	351.36
429.507	371.7
429.883	376.22
430.259	371.93
430.635	380.96
431.011	372.38
431.387	379.16
431.763	386.16
432.138	387.52
432.514	366.5
432.89	396.56
433.265	392.04
433.641	365.82
434.016	394.52
434.392	374.19
434.767	395.2
435.143	379.83
435.518	384.81
435.894	374.41
436.269	406.73
436.644	392.04
437.02	390.68
437.395	394.3
437.77	394.07
438.145	392.49
438.52	408.99
438.895	387.29
439.271	385.48
439.646	412.38
440.021	396.78
440.395	399.5
440.77	405.14
441.145	395.65
441.52	415.99
441.895	417.12
442.27	410.79
442.645	426.16
443.019	416.44
443.394	402.66
443.769	418.03
444.143	417.8
444.518	454.18
444.892	430
445.267	425.03
445.641	444.69
446.016	441.98
446.39	406.05
446.764	427.97
447.139	430.91
447.513	433.39
447.887	435.65
448.262	423.22
448.636	418.25
449.01	420.96
449.384	418.03
449.758	395.43
450.132	443.79
450.506	425.71
450.88	431.58
451.254	434.75
451.628	429.55
452.002	437.69
452.376	425.03
452.75	436.78
453.123	461.87
453.497	462.54
453.871	450.34
454.244	452.38
454.618	452.6
454.992	466.16
455.365	469.55
455.739	476.33
456.112	465.71
456.486	500.96
456.859	470
457.232	474.07
457.606	475.88
457.979	471.81
458.352	470
458.725	484.69
459.099	489.21
459.472	486.95
459.845	498.48
460.218	489.89
460.591	495.76
460.964	480.62
461.337	488.98
461.71	521.3
462.083	504.58
462.456	508.19
462.829	504.58
463.201	523.56
463.574	509.55
463.947	521.98
464.32	532.15
464.692	514.75
465.065	514.97
465.438	540.51
465.81	528.76
466.183	558.81
466.555	522.2
466.928	549.55
467.3	559.04
467.672	551.81
468.045	573.05
468.417	560.85
468.789	554.07
469.161	573.95
469.534	565.14
469.906	570.34
470.278	568.3
470.65	574.86
471.022	602.2
471.394	588.64
471.766	598.13
472.138	601.52
472.51	617.57
472.882	610.11
473.253	619.6
473.625	642.65
473.997	619.38
474.369	620.28
474.74	649.88
475.112	656.89
475.484	646.27
475.855	653.5
476.227	660.51
476.598	679.49
476.97	691.69
477.341	675.42
477.713	695.53
478.084	697.11
478.455	720.84
478.827	719.94
479.198	710
479.569	723.33
479.94	741.63
480.311	739.83
480.682	750.45
481.053	751.12
481.424	791.12
481.795	796.32
482.166	783.67
482.537	795.87
482.908	819.6
483.279	822.31
483.65	798.13
484.021	834.51
484.391	825.92
484.762	839.26
485.133	874.96
485.503	866.15
485.874	868.18
486.244	864.79
486.615	891.69
486.985	897.34
487.356	917.9
487.726	908.86
488.097	907.73
488.467	932.59
488.837	928.52
489.207	953.83
489.578	972.59
489.948	959.48
490.318	967.84
490.688	970.33
491.058	987.05
491.428	991.57
491.798	1017.11
492.168	1009.42
492.538	1040.61
492.908	1008.52
493.278	1031.34
493.648	1051
494.017	1059.14
494.387	1053.49
494.757	1056.2
495.126	1092.36
495.496	1054.85
495.866	1083.09
496.235	1097.56
496.605	1106.82
496.974	1092.81
497.344	1126.48
497.713	1095.97
498.082	1125.8
498.452	1115.18
498.821	1121.96
499.19	1130.55
499.559	1116.76
499.928	1128.06
500.298	1165.58
500.667	1169.64
501.036	1183.43
501.405	1170.55
501.774	1178.01
502.143	1182.53
502.512	1183.88
502.88	1191.34
503.249	1180.94
503.618	1206.93
503.987	1227.04
504.356	1184.11
504.724	1217.33
505.093	1215.74
505.462	1250.32
505.83	1230.89
506.199	1242.18
506.567	1248.06
506.936	1236.08
507.304	1249.64
507.672	1270.43
508.041	1268.17
508.409	1229.76
508.777	1273.37
509.145	1295.74
509.514	1286.93
509.882	1307.49
510.25	1291
510.618	1263.2
510.986	1294.39
511.354	1320.6
511.722	1287.83
512.09	1347.49
512.458	1317.66
512.826	1324.89
513.193	1309.08
513.561	1315.63
513.929	1360.15
514.297	1352.69
514.664	1358.34
515.032	1344.56
515.4	1371.22
515.767	1346.36
516.135	1337.55
516.502	1377.32
516.869	1367.61
517.237	1388.17
517.604	1379.81
517.972	1403.31
518.339	1401.95
518.706	1380.71
519.073	1416.64
519.44	1401.95
519.808	1409.19
520.175	1394.72
520.542	1416.87
520.909	1433.82
521.276	1436.98
521.643	1455.29
522.009	1449.64
522.376	1473.37
522.743	1434.95
523.11	1458.45
523.477	1458.68
523.843	1479.24
524.21	1470.65
524.577	1495.06
524.943	1520.6
525.31	1507.94
525.676	1514.95
526.043	1506.13
526.409	1509.97
526.776	1513.82
527.142	1544.32
527.508	1518.79
527.874	1517.43
528.241	1522.63
528.607	1547.71
528.973	1559.69
529.339	1556.53
529.705	1576.64
530.071	1538.67
530.437	1564.21
530.803	1584.32
531.169	1579.58
531.535	1564.66
531.901	1575.28
532.267	1600.59
532.632	1577.77
532.998	1603.98
533.364	1552.91
533.73	1601.5
534.095	1580.71
534.461	1600.37
534.826	1597.2
535.192	1625.23
535.557	1611.21
535.923	1595.17
536.288	1593.36
536.653	1605.57
537.019	1619.35
537.384	1566.24
537.749	1597.88
538.114	1606.24
538.479	1612.34
538.845	1630.88
539.21	1590.88
539.575	1585.23
539.94	1613.25
540.305	1636.07
540.67	1603.31
541.034	1627.49
541.399	1599.01
541.764	1622.06
542.129	1594.94
542.494	1618.22
542.858	1623.87
543.223	1613.93
543.587	1629.97
543.952	1634.26
544.316	1628.39
544.681	1599.92
545.045	1645.11
545.41	1615.96
545.774	1638.56
546.138	1662.06
546.503	1619.12
546.867	1639.91
547.231	1642.63
547.595	1672
547.959	1657.99
548.324	1638.56
548.688	1620.03
549.052	1660.93
549.416	1632.68
549.779	1653.7
550.143	1650.31
550.507	1659.58
550.871	1635.39
551.235	1664.77
551.599	1656.64
551.962	1677.88
552.326	1646.24
552.689	1694.38
553.053	1649.41
553.417	1672.68
553.78	1692.57
554.143	1665.45
554.507	1679.24
554.87	1688.27
555.234	1714.49
555.597	1701.38
555.96	1707.26
556.323	1685.11
556.686	1701.38
557.05	1722.4
557.413	1704.55
557.776	1716.97
558.139	1715.62
558.502	1680.82
558.865	1716.07
559.228	1732.12
559.59	1700.25
559.953	1704.09
560.316	1739.8
560.679	1730.08
561.041	1733.02
561.404	1733.7
561.767	1755.17
562.129	1725.56
562.492	1721.95
562.854	1747.26
563.217	1744.09
563.579	1752
563.941	1770.98
564.304	1772.79
564.666	1775.96
565.028	1784.32
565.39	1758.33
565.753	1787.03
566.115	1773.7
566.477	1784.77
566.839	1791.32
567.201	1821.83
567.563	1770.08
567.925	1828.16
568.287	1794.03
568.648	1783.64
569.01	1783.19
569.372	1792.45
569.734	1789.74
570.095	1781.61
570.457	1798.55
570.819	1805.11
571.18	1813.92
571.542	1813.24
571.903	1787.93
572.265	1802.85
572.626	1842.4
572.987	1811.44
573.349	1841.49
573.71	1834.49
574.071	1847.14
574.432	1814.6
574.794	1833.13
575.155	1817.76
575.516	1820.02
575.877	1806.01
576.238	1778.44
576.599	1838.33
576.96	1820.02
577.32	1827.25
577.681	1815.96
578.042	1818.67
578.403	1820.02
578.763	1796.29
579.124	1807.82
579.485	1833.13
579.845	1820.25
580.206	1820.93
580.566	1830.87
580.927	1789.52
581.287	1795.62
581.648	1819.12
582.008	1778.67
582.368	1810.98
582.728	1775.5
583.089	1807.14
583.449	1772.34
583.809	1781.83
584.169	1773.7
584.529	1791.55
584.889	1790.87
585.249	1773.7
585.609	1783.41
585.969	1761.95
586.329	1798.1
586.688	1785.67
587.048	1770.98
587.408	1749.74
587.768	1769.63
588.127	1773.7
588.487	1753.36
588.846	1789.52
589.206	1748.84
589.565	1755.62
589.925	1774.6
590.284	1745.67
590.643	1750.87
591.003	1746.13
591.362	1742.28
591.721	1750.65
592.08	1726.24
592.44	1752.68
592.799	1752.45
593.158	1763.75
593.517	1725.79
593.876	1745.67
594.235	1727.14
594.593	1729.86
594.952	1730.31
595.311	1730.31
595.67	1739.57
596.029	1733.92
596.387	1722.62
596.746	1764.66
597.104	1740.7
597.463	1714.94
597.822	1746.58
598.18	1761.04
598.538	1753.13
598.897	1691.89
599.255	1721.49
599.613	1714.71
599.972	1719.46
600.33	1745.67
600.688	1735.73
601.046	1721.27
601.404	1750.87
601.762	1736.64
602.12	1721.72
602.478	1719.01
602.836	1749.29
603.194	1737.09
603.552	1753.13
603.91	1709.52
604.268	1765.11
604.625	1735.05
604.983	1761.95
605.341	1752
605.698	1749.29
606.056	1770.98
606.413	1716.07
606.771	1768.72
607.128	1721.95
607.485	1735.28
607.843	1758.33
608.2	1756.75
608.557	1750.87
608.914	1750.19
609.272	1766.69
609.629	1783.64
609.986	1781.83
610.343	1756.75
610.7	1740.25
611.057	1730.31
611.414	1741.38
611.771	1763.3
612.127	1763.3
612.484	1784.09
612.841	1750.65
613.198	1767.37
613.554	1783.41
613.911	1754.26
614.267	1768.95
614.624	1763.3
614.98	1805.11
615.337	1787.48
615.693	1793.58
616.05	1809.4
616.406	1782.51
616.762	1816.18
617.118	1789.52
617.475	1782.51
617.831	1794.49
618.187	1782.74
618.543	1781.38
618.899	1816.63
619.255	1802.62
619.611	1804.88
619.967	1812.11
620.323	1777.99
620.678	1802.17
621.034	1805.79
621.39	1782.51
621.746	1795.84
622.101	1800.59
622.457	1767.59
622.812	1814.6
623.168	1785.9
623.523	1797.2
623.879	1822.73
624.234	1804.43
624.589	1794.49
624.945	1819.8
625.3	1813.47
625.655	1771.44
626.01	1791.32
626.365	1765.79
626.72	1784.54
627.075	1754.26
627.43	1796.75
627.785	1800.81
628.14	1784.77
628.495	1761.04
628.85	1789.06
629.205	1774.6
629.559	1807.59
629.914	1782.51
630.269	1763.75
630.623	1789.74
630.978	1773.02
631.332	1778.89
631.687	1798.55
632.041	1785.9
632.396	1780.02
632.75	1805.56
633.104	1800.36
633.459	1770.53
633.813	1766.92
634.167	1758.1
634.521	1756.97
634.875	1783.19
635.229	1755.39
635.583	1768.27
635.937	1733.7
636.291	1752.91
636.645	1738.44
636.999	1745
637.352	1748.84
637.706	1746.35
638.06	1761.04
638.413	1758.56
638.767	1756.97
639.121	1744.09
639.474	1772.57
639.828	1744.54
640.181	1747.71
640.534	1750.87
640.888	1745.22
641.241	1773.7
641.594	1727.37
641.947	1721.04
642.301	1750.19
642.654	1732.57
643.007	1775.96
643.36	1734.83
643.713	1743.19
644.066	1736.86
644.419	1760.59
644.771	1757.43
645.124	1747.48
645.477	1759.01
645.83	1740.93
646.182	1731.44
646.535	1735.96
646.888	1740.02
647.24	1714.94
647.593	1734.15
647.945	1735.73
648.298	1753.36
648.65	1740.02
649.002	1733.25
649.355	1760.14
649.707	1730.99
650.059	1738.44
650.411	1736.41
650.763	1779.8
651.115	1806.69
651.467	1802.85
651.819	1790.65
652.171	1807.14
652.523	1796.07
652.875	1787.93
653.227	1808.27
653.578	1788.84
653.93	1796.07
654.282	1829.74
654.633	1803.53
654.985	1806.01
655.337	1826.58
655.688	1822.28
656.039	1867.71
656.391	1849.63
656.742	1868.38
657.094	1878.1
657.445	1883.52
657.796	1898.21
658.147	1893.24
658.498	1881.26
658.849	1888.04
659.2	1946.35
659.551	1937.76
659.902	1937.31
660.253	1908.38
660.604	1963.97
660.955	1929.4
661.306	1966.69
661.656	1970.3
662.007	1973.24
662.358	1983.18
662.708	1991.54
663.059	1992
663.409	1974.14
663.76	2007.14
664.11	2001.94
664.461	2035.38
664.811	2040.81
665.161	2066.12
665.511	2072.9
665.862	2095.27
666.212	2109.05
666.562	2100.69
666.912	2113.8
667.262	2135.27
667.612	2160.13
667.962	2104.99
668.312	2184.08
668.662	2196.96
669.011	2194.93
669.361	2226.11
669.711	2189.96
670.06	2223.18
670.41	2233.8
670.76	2292.33
671.109	2281.71
671.459	2292.78
671.808	2302.5
672.157	2301.82
672.507	2304.98
672.856	2338.2
673.205	2316.51
673.554	2346.56
673.904	2392.44
674.253	2359.67
674.602	2414.58
674.951	2382.95
675.3	2395.37
675.649	2424.3
675.998	2452.55
676.346	2493
676.695	2505.43
677.044	2494.13
677.393	2562.15
677.741	2561.7
678.09	2552.88
678.438	2568.93
678.787	2598.31
679.135	2620.91
679.484	2608.25
679.832	2625.43
680.181	2652.77
680.529	2707.01
680.877	2726.67
681.225	2733.22
681.573	2743.61
681.922	2769.15
682.27	2762.37
682.618	2766.21
682.966	2806.89
683.314	2836.49
683.661	2862.48
684.009	2832.2
684.357	2886.21
684.705	2852.99
685.053	2931.63
685.4	2956.26
685.748	2938.86
686.095	2988.13
686.443	2986.77
686.79	3022.25
687.138	3031.52
687.485	3047.79
687.832	3024.06
688.18	3079.65
688.527	3109.71
688.874	3111.06
689.221	3167.11
689.568	3193.77
689.915	3138.86
690.262	3205.52
690.609	3225.18
690.956	3240.32
691.303	3276.03
691.65	3266.09
691.997	3283.71
692.344	3323.49
692.69	3348.34
693.037	3382.24
693.383	3354.22
693.73	3429.25
694.077	3464.73
694.423	3410.94
694.769	3458.62
695.116	3525.51
695.462	3512.86
695.808	3491.84
696.155	3563.48
696.501	3556.02
696.847	3569.58
697.193	3587.43
697.539	3648.22
697.885	3657.49
698.231	3634.21
698.577	3659.52
698.923	3733.42
699.269	3678.5
699.614	3723.02
699.96	3757.37
700.306	3784.94
700.651	3747.43
700.997	3818.84
701.342	3859.07
701.688	3851.61
702.033	3937.03
702.379	3890.25
702.724	3856.13
703.069	3905.84
703.415	3929.35
703.76	3953.07
704.105	3990.81
704.45	3983.81
704.795	4044.82
705.14	4014.99
705.485	4024.26
705.83	4119.62
706.175	4105.84
706.52	4162.79
706.865	4156.91
707.209	4132.28
707.554	4190.36
707.899	4201.88
708.243	4224.25
708.588	4224.25
708.932	4240.98
709.277	4243.01
709.621	4286.85
709.966	4324.14
710.31	4325.04
710.654	4341.31
710.998	4337.47
711.342	4389.9
711.687	4362.55
712.031	4382.67
712.375	4419.5
712.719	4440.07
713.063	4443.68
713.407	4494.75
713.75	4481.42
714.094	4526.39
714.438	4472.16
714.782	4519.61
715.125	4486.85
715.469	4540.4
715.812	4508.31
716.156	4535.21
716.499	4614.53
716.843	4592.83
717.186	4597.35
717.53	4647.29
717.873	4660.63
718.216	4692.26
718.559	4662.89
718.902	4647.07
719.246	4701.53
719.589	4689.33
719.932	4710.34
720.275	4739.27
720.617	4737.69
720.96	4744.69
721.303	4770
721.646	4765.26
721.989	4757.57
722.331	4797.12
722.674	4775.88
723.016	4816.33
723.359	4811.36
723.701	4772.94
724.044	4810.9
724.386	4794.63
724.729	4861.3
725.071	4873.5
725.413	4859.26
725.755	4861.98
726.097	4835.08
726.439	4879.6
726.782	4881.64
727.124	4906.5
727.465	4856.1
727.807	4882.99
728.149	4887.74
728.491	4928.42
728.833	4898.59
729.175	4901.75
729.516	4931.35
729.858	4880.51
730.199	4930.45
730.541	4962.31
730.882	5000.05
731.224	4964.35
731.565	4959.15
731.906	4939.26
732.248	4948.98
732.589	4957.12
732.93	4943.33
733.271	4963.44
733.612	4957.79
733.953	4957.34
734.294	5002.76
734.635	4950.11
734.976	4977.23
735.317	4945.14
735.658	4962.09
735.999	4960.96
736.339	4960.28
736.68	4959.15
737.021	4978.81
737.361	5001.18
737.702	4990.56
738.042	4991.01
738.383	4944.01
738.723	4948.3
739.063	4944.23
739.404	4992.82
739.744	4984.91
740.084	4950.79
740.424	5002.09
740.764	4968.64
741.104	4972.48
741.444	4923.44
741.784	4964.57
742.124	4966.38
742.464	4998.47
742.804	5005.48
743.143	4926.83
743.483	4939.26
743.823	4944.91
744.162	5024.46
744.502	4942.2
744.841	4913.73
745.181	4978.81
745.52	4963.67
745.86	4930.9
746.199	4937.68
746.538	4925.93
746.877	4947.85
747.216	4918.47
747.556	4947.17
747.895	4906.5
748.234	4911.24
748.573	4913.95
748.911	4870.56
749.25	4926.61
749.589	4872.15
749.928	4864.69
750.267	4908.3
750.605	4882.99
750.944	4894.52
751.283	4830.34
751.621	4864.69
751.96	4828.76
752.298	4837.12
752.636	4841.64
752.975	4884.8
753.313	4825.37
753.651	4804.58
753.989	4800.74
754.327	4802.09
754.666	4760.96
755.004	4831.69
755.342	4794.86
755.679	4791.92
756.017	4774.07
756.355	4806.16
756.693	4754.41
757.031	4762.32
757.368	4732.71
757.706	4719.38
758.044	4742.21
758.381	4699.27
758.719	4680.96
759.056	4746.95
759.394	4673.28
759.731	4661.76
760.068	4658.14
760.405	4664.02
760.743	4644.58
761.08	4663.56
761.417	4616.56
761.754	4580.63
762.091	4650.68
762.428	4599.16
762.765	4571.81
763.102	4584.7
763.438	4563.45
763.775	4546.5
764.112	4523.45
764.449	4541.99
764.785	4530.46
765.122	4481.2
765.458	4474.42
765.795	4460.63
766.131	4458.82
766.467	4456.34
766.804	4428.77
767.14	4423.8
767.476	4416.56
767.812	4366.4
768.148	4406.4
768.485	4339.5
768.821	4357.58
769.157	4310.35
769.492	4321.2
769.828	4313.97
770.164	4294.08
770.5	4256.79
770.836	4299.73
771.171	4243.24
771.507	4264.7
771.842	4232.16
772.178	4265.16
772.513	4238.04
772.849	4207.3
773.184	4163.46
773.519	4167.98
773.855	4186.29
774.19	4145.84
774.525	4148.1
774.86	4130.24
775.195	4120.3
775.53	4107.42
775.865	4102.45
776.2	4026.07
776.535	4057.7
776.87	4054.54
777.205	3986.29
777.539	4016.35
777.874	3985.84
778.209	3951.04
778.543	3985.39
778.878	3987.65
779.212	3961.89
779.547	3932.51
779.881	3917.82
780.215	3931.38
780.55	3948.55
780.884	3862.68
781.218	3880.08
781.552	3848.22
781.886	3854.09
782.22	3818.39
782.554	3843.02
782.888	3798.5
783.222	3816.81
783.556	3762.57
783.889	3752.85
784.223	3754.21
784.557	3756.92
784.89	3738.62
785.224	3718.96
785.557	3742.91
785.891	3721.89
786.224	3671.05
786.558	3688.67
786.891	3663.36
787.224	3675.34
787.557	3645.96
787.891	3627.88
788.224	3613.2
788.557	3604.83
788.89	3622.69
789.223	3618.62
789.556	3570.94
789.888	3561.45
790.221	3623.14
790.554	3533.88
790.887	3543.59
791.219	3516.48
791.552	3525.29
791.884	3501.33
792.217	3482.35
792.549	3477.15
792.882	3459.53
793.214	3447.32
793.546	3490.26
793.879	3429.7
794.211	3454.33
794.543	3441.22
794.875	3440.77
795.207	3427.66
795.539	3412.3
795.871	3390.38
796.203	3367.1
796.535	3357.38
796.867	3350.6
797.198	3344.95
797.53	3285.52
797.862	3306.31
798.193	3344.5
798.525	3282.81
798.856	3332.98
799.188	3267.22
799.519	3315.12
799.85	3263.15
800.182	3262.7
800.513	3287.55
800.844	3234.9
801.175	3267.89
801.506	3251.4
801.837	3205.75
802.168	3229.7
802.499	3234
802.83	3193.77
803.161	3199.42
803.491	3224.96
803.822	3171.4
804.153	3165.75
804.483	3113.32
804.814	3158.97
805.145	3157.61
805.475	3140.89
805.805	3094.34
806.136	3143.15
806.466	3099.76
806.796	3099.99
807.126	3062.48
807.457	3091.63
807.787	3102.47
808.117	3076.49
808.447	3016.38
808.777	3060.44
809.107	3058.86
809.436	3033.1
809.766	3042.59
810.096	3069.26
810.426	3017.51
810.755	3028.8
811.085	3019.09
811.414	3004.62
811.744	2987.68
812.073	2961.69
812.403	2975.47
812.732	2928.02
813.061	2978.18
813.39	2993.1
813.719	2930.28
814.049	2955.81
814.378	2937.28
814.707	2909.94
815.036	2927.79
815.365	2900.45
815.693	2893.44
816.022	2901.35
816.351	2878.75
816.68	2883.27
817.008	2902.93
817.337	2891.41
817.665	2853.22
817.994	2867.23
818.322	2848.02
818.651	2827.91
818.979	2836.27
819.307	2851.63
819.636	2809.83
819.964	2798.3
820.292	2854.12
820.62	2838.53
820.948	2801.47
821.276	2822.93
821.604	2829.26
821.932	2823.16
822.259	2880.11
822.587	2841.46
822.915	2789.04
823.243	2849.15
823.57	2827.68
823.898	2828.81
824.225	2780.9
824.553	2777.51
824.88	2776.38
825.207	2818.19
825.535	2784.74
825.862	2790.62
826.189	2831.97
826.516	2797.4
826.843	2802.37
827.17	2820
827.497	2809.38
827.824	2803.05
828.151	2810.51
828.478	2806.89
828.805	2811.64
829.131	2768.47
829.458	2791.3
829.785	2766.21
830.111	2780
830.438	2802.6
830.764	2806.21
831.09	2769.38
831.417	2769.38
831.743	2780.68
832.069	2805.08
832.395	2775.48
832.722	2790.62
833.048	2777.29
833.374	2780.45
833.7	2777.06
834.026	2785.2
834.351	2772.31
834.677	2823.39
835.003	2778.64
835.329	2796.04
835.654	2784.52
835.98	2788.36
836.306	2750.39
836.631	2757.85
836.956	2747
837.282	2774.57
837.607	2755.82
837.932	2771.41
838.258	2736.61
838.583	2722.15
838.908	2729.38
839.233	2726.89
839.558	2743.39
839.883	2691.19
840.208	2691.86
840.533	2699.32
840.858	2692.54
841.182	2704.07
841.507	2697.51
841.832	2680.57
842.156	2683.73
842.481	2680.11
842.805	2660.45
843.13	2671.98
843.454	2696.61
843.778	2671.3
844.103	2625.43
844.427	2636.72
844.751	2657.06
845.075	2632.43
845.399	2619.32
845.723	2623.17
846.047	2615.26
846.371	2603.28
846.695	2621.13
847.019	2578.42
847.343	2543.62
847.666	2601.02
847.99	2543.85
848.313	2555.14
848.637	2570.96
848.96	2498.42
849.284	2526.67
849.607	2493
849.931	2471.31
850.254	2514.02
850.577	2463.62
850.9	2481.02
851.223	2456.16
851.546	2481.7
851.869	2467.69
852.192	2469.5
852.515	2486.22
852.838	2429.95
853.161	2455.26
853.483	2397.18
853.806	2425.2
854.129	2377.3
854.451	2387.01
854.774	2369.61
855.096	2362.83
855.419	2375.04
855.741	2369.16
856.063	2400.8
856.385	2326
856.708	2330.29
857.03	2334.59
857.352	2367.58
857.674	2321.03
857.996	2323.51
858.318	2350.86
858.64	2322.38
858.961	2326.22
859.283	2320.8
859.605	2267.24
859.926	2285.1
860.248	2298.65
860.57	2261.37
860.891	2276.06
861.212	2294.13
861.534	2306.34
861.855	2281.71
862.176	2292.1
862.498	2255.72
862.819	2297.07
863.14	2230.18
863.461	2257.07
863.782	2234.25
864.103	2267.02
864.424	2238.32
864.745	2277.86
865.065	2217.75
865.386	2177.75
865.707	2252.78
866.027	2222.05
866.348	2219.11
866.668	2189.96
866.989	2220.24
867.309	2169.62
867.63	2179.11
867.95	2192.67
868.27	2167.36
868.59	2182.95
868.91	2161.26
869.23	2206.91
869.55	2156.51
869.87	2173.69
870.19	2177.75
870.51	2161.03
870.83	2156.06
871.15	2163.97
871.469	2198.77
871.789	2177.98
872.109	2147.02
872.428	2140.24
872.748	2162.16
873.067	2150.86
873.386	2127.36
873.706	2155.16
874.025	2147.02
874.344	2103.41
874.663	2136.17
874.982	2118.55
875.301	2096.4
875.62	2118.77
875.939	2110.64
876.258	2134.14
876.577	2103.86
876.896	2091.2
877.214	2081.71
877.533	2093.69
877.852	2087.81
878.17	2105.66
878.489	2088.94
878.807	2077.19
879.125	2083.52
879.444	2075.84
879.762	2121.26
880.08	2077.64
880.398	2044.65
880.716	2061.82
881.034	2083.52
881.352	2089.62
881.67	2044.42
881.988	2078.32
882.306	2038.32
882.624	2055.95
882.941	2071.77
883.259	2045.55
883.577	2060.24
883.894	2044.88
884.212	2034.93
884.529	2055.95
884.846	2031.54
885.164	2000.13
885.481	2021.15
885.798	2026.12
886.115	2007.81
886.432	2009.62
886.75	1974.14
887.067	2016.85
887.383	1990.19
887.7	1951.54
888.017	2004.2
888.334	2027.02
888.651	1991.32
888.967	1966.46
889.284	1962.39
889.6	1966.46
889.917	1959.68
890.233	1961.26
890.55	1947.93
890.866	1927.14
891.182	1945.22
891.498	1908.61
891.815	1916.29
892.131	1931.88
892.447	1924.65
892.763	1888.5
893.079	1910.19
893.395	1892.34
893.71	1877.65
894.026	1900.7
894.342	1892.11
894.657	1874.94
894.973	1879
895.289	1894.15
895.604	1873.58
895.92	1872.9
896.235	1832.45
896.55	1854.6
896.865	1869.51
897.181	1851.66
897.496	1828.84
897.811	1833.81
898.126	1870.19
898.441	1832
898.756	1812.57
899.071	1811.89
899.386	1809.63
899.7	1834.03
900.015	1796.75
900.33	1827.71
900.644	1775.05
900.959	1799.91
901.273	1779.35
901.588	1769.18
901.902	1752.45
902.216	1743.64
902.531	1781.83
902.845	1741.38
903.159	1781.61
903.473	1741.15
903.787	1728.73
904.101	1718.78
904.415	1737.09
904.729	1720.36
905.042	1692.34
905.356	1698.67
905.67	1720.82
905.984	1721.72
906.297	1698.44
906.611	1669.97
906.924	1681.72
907.237	1677.43
907.551	1687.6
907.864	1685.11
908.177	1671.55
908.491	1676.52
908.804	1630.42
909.117	1650.31
909.43	1639.46
909.743	1635.62
910.056	1630.42
910.368	1595.62
910.681	1604.66
910.994	1601.95
911.307	1601.95
911.619	1614.83
911.932	1602.18
912.244	1610.08
912.557	1578.45
912.869	1547.26
913.181	1581.38
913.494	1590.42
913.806	1580.93
914.118	1552.01
914.43	1554.04
914.742	1541.61
915.054	1538.22
915.366	1537.09
915.678	1537.32
915.99	1514.72
916.302	1512.46
916.613	1508.62
916.925	1507.49
917.236	1525.12
917.548	1493.7
917.859	1479.92
918.171	1487.15
918.482	1488.73
918.794	1493.7
919.105	1481.73
919.416	1467.04
919.727	1483.76
920.038	1463.87
920.349	1452.57
920.66	1460.26
920.971	1446.02
921.282	1422.75
921.593	1408.96
921.903	1439.47
922.214	1438.56
922.525	1427.72
922.835	1408.51
923.146	1437.66
923.456	1394.72
923.767	1409.86
924.077	1407.15
924.387	1399.02
924.697	1382.75
925.008	1353.82
925.318	1371.45
925.628	1358.11
925.938	1397.21
926.248	1366.02
926.558	1378.23
926.867	1347.27
927.177	1345.68
927.487	1351.56
927.796	1338.68
928.106	1355.18
928.416	1322.86
928.725	1349.53
929.034	1323.09
929.344	1318.34
929.653	1328.28
929.962	1308.17
930.271	1314.5
930.581	1341.17
930.89	1298.91
931.199	1295.74
931.508	1274.27
931.817	1281.05
932.125	1284.67
932.434	1274.95
932.743	1277.89
933.051	1270.66
933.36	1262.75
933.669	1250.55
933.977	1265.24
934.286	1266.59
934.594	1269.75
934.902	1263.88
935.21	1236.54
935.519	1235.86
935.827	1244.9
936.135	1233.6
936.443	1225.91
936.751	1231.79
937.059	1208.97
937.367	1198.12
937.674	1172.36
937.982	1208.06
938.29	1206.48
938.597	1229.3
938.905	1204.45
939.213	1198.12
939.52	1194.28
939.827	1172.13
940.135	1191.56
940.442	1203.99
940.749	1151.79
941.056	1142.07
941.363	1136.2
941.67	1151.79
941.977	1143.43
942.284	1153.6
942.591	1131.45
942.898	1156.99
943.205	1145.01
943.511	1140.49
943.818	1131.23
944.125	1156.09
944.431	1129.42
944.738	1151.79
945.044	1110.44
945.35	1126.93
945.657	1114.73
945.963	1100.04
946.269	1116.76
946.575	1114.5
946.881	1089.19
947.187	1090.55
947.493	1088.06
947.799	1079.7
948.105	1080.38
948.41	1063.66
948.716	1064.56
949.022	1075.64
949.327	1074.96
949.633	1054.17
949.938	1076.77
950.244	1046.94
950.549	1047.84
950.854	1044.45
951.16	1043.55
951.465	1073.38
951.77	1031.12
952.075	1032.7
952.38	1028.86
952.685	1056.88
952.99	1038.57
953.294	1006.94
953.599	1029.76
953.904	1020.72
954.209	986.6
954.513	998.12
954.818	1039.93
955.122	999.03
955.426	1003.77
955.731	995.19
956.035	998.58
956.339	982.3
956.643	1010.55
956.948	971.46
957.252	995.86
957.556	993.38
957.86	956.32
958.163	956.77
958.467	995.19
958.771	951.12
959.075	970.33
959.378	977.33
959.682	956.09
959.985	950.44
960.289	947.5
960.592	951.8
960.896	942.08
961.199	950.67
961.502	956.32
961.805	931.46
962.108	926.94
962.411	939.37
962.714	952.93
963.017	907.5
963.32	906.83
963.623	906.83
963.926	930.33
964.228	912.7
964.531	936.43
964.833	914.28
965.136	912.25
965.438	926.94
965.741	922.19
966.043	903.89
966.345	928.97
966.648	900.95
966.95	874.28
967.252	869.54
967.554	902.08
967.856	869.77
968.158	862.53
968.46	868.64
968.761	878.13
969.063	879.93
969.365	858.69
969.666	876.09
969.968	843.55
970.269	842.65
970.571	852.36
970.872	860.73
971.174	852.36
971.475	837
971.776	839.48
972.077	870.22
972.378	832.03
972.679	828.86
972.98	836.09
973.281	850.78
973.582	833.38
973.883	832.93
974.183	840.16
974.484	817.34
974.785	811.69
975.085	823.66
975.386	810.78
975.686	804.91
975.986	804.68
976.287	817.11
976.587	813.04
976.887	781.86
977.187	814.4
977.487	766.27
977.787	799.94
978.087	792.48
978.387	785.7
978.687	782.76
978.987	811.46
979.286	782.76
979.586	788.19
979.885	780.5
980.185	779.37
980.484	780.28
980.784	793.61
981.083	809.88
981.382	772.59
981.682	775.98
981.981	767.4
982.28	767.17
982.579	750.9
982.878	768.52
983.177	741.41
983.475	734.85
983.774	759.94
984.073	737.57
984.372	740.5
984.67	756.55
984.969	746.38
985.267	742.76
985.566	750.45
985.864	762.88
986.162	745.93
986.461	741.18
986.759	725.36
987.057	715.87
987.355	730.11
987.653	710
987.951	738.24
988.249	741.41
988.547	721.52
988.844	703.44
989.142	711.35
989.44	713.16
989.737	695.76
990.035	710
990.332	699.83
990.63	715.42
990.927	695.98
991.224	695.53
991.521	701.86
991.819	717
992.116	687.85
992.413	668.87
992.71	701.63
993.006	688.3
993.303	677.23
993.6	674.74
993.897	664.35
994.193	686.27
994.49	653.05
994.787	666.38
995.083	673.39
995.379	679.49
995.676	672.03
995.972	648.08
996.268	660.05
996.565	652.37
996.861	680.17
997.157	659.83
997.453	642.43
997.749	652.14
998.044	641.52
998.34	651.24
998.636	644.69
998.932	637.91
999.227	638.81
999.523	619.83
999.818	625.03
1000.114	646.27
1000.409	650.56
1000.704	641.52
1001	638.81
1001.295	642.2
1001.59	621.41
1001.885	621.41
1002.18	622.31
1002.475	604.91
1002.77	618.92
1003.065	641.3
1003.359	609.43
1003.654	606.04
1003.949	609.89
1004.243	628.87
1004.538	603.33
1004.832	610.56
1005.127	595.2
1005.421	593.61
1005.715	604.69
1006.009	611.69
1006.304	603.78
1006.598	609.66
1006.892	582.32
1007.186	582.54
1007.48	612.82
1007.773	566.27
1008.067	575.31
1008.361	598.81
1008.655	580.51
1008.948	575.76
1009.242	566.72
1009.535	582.77
1009.829	573.73
1010.122	559.04
1010.415	546.38
1010.708	561.52
1011.001	595.87
1011.295	578.93
1011.588	562.2
1011.881	556.33
1012.173	563.33
1012.466	554.52
1012.759	550
1013.052	546.16
1013.344	547.06
1013.637	567.4
1013.93	567.85
1014.222	554.97
1014.514	533.5
1014.807	547.97
1015.099	554.07
1015.391	561.52
1015.683	545.25
1015.976	536.21
1016.268	550.9
1016.56	525.82
1016.851	564.46
1017.143	508.19
1017.435	509.32
1017.727	550.23
1018.018	533.73
1018.31	524.69
1018.602	536.44
1018.893	516.78
1019.185	502.32
1019.476	509.55
1019.767	523.79
1020.058	517.46
1020.35	526.72
1020.641	498.93
1020.932	526.72
1021.223	505.03
1021.514	498.25
1021.804	495.99
1022.095	516.33
1022.386	495.31
1022.677	517.01
1022.967	495.09
1023.258	489.44
1023.548	497.57
1023.839	489.89
1024.129	491.24
1024.419	480.4
1024.709	481.07
1025	498.93
1025.29	490.34
1025.58	493.05
1025.87	491.24
1026.16	495.31
1026.449	488.53
1026.739	483.33
1027.029	478.36
1027.319	465.03
1027.608	476.56
1027.898	459.61
1028.187	469.32
1028.477	487.85
1028.766	476.33
1029.055	481.3
1029.344	448.99
1029.634	464.35
1029.923	450.34
1030.212	471.81
1030.501	471.58
1030.79	433.17
1031.078	439.72
1031.367	448.08
1031.656	427.74
1031.945	457.35
1032.233	451.7
1032.522	433.17
1032.81	453.96
1033.099	444.69
1033.387	437.91
1033.675	446.73
1033.963	449.44
1034.251	447.4
1034.54	435.65
1034.828	421.42
1035.116	455.76
1035.403	449.21
1035.691	428.65
1035.979	427.97
1036.267	455.09
1036.554	439.72
1036.842	432.26
1037.129	405.6
1037.417	407.4
1037.704	420.96
1037.992	406.95
1038.279	418.7
1038.566	433.62
1038.853	433.62
1039.14	433.62
