Data from carpet_green_FLMS001491_00061.txt Node
Date: Wed Feb 08 10:35:41 GMT 2017
User: dcchb
Spectrometer: FLMS00149
Trigger mode: 0
Integration Time (sec): 2.000000E-2
Scans to average: 10
Electric dark correction enabled: true
Nonlinearity correction enabled: false
Boxcar width: 0
XAxis mode: Wavelengths
Number of Pixels in Spectrum: 2048
>>>>>Begin Spectral Data<<<<<
341.393	-27.54
341.776	-27.54
342.16	-27.54
342.543	-60.76
342.927	-57.6
343.31	-75.22
343.693	-70.03
344.077	-72.06
344.46	-55.79
344.843	-55.56
345.226	-37.48
345.61	-41.55
345.993	-22.8
346.376	3.64
346.759	20.14
347.142	14.04
347.525	45.45
347.908	58.33
348.291	83.87
348.674	101.95
349.057	103.08
349.44	135.62
349.823	138.78
350.206	160.02
350.588	166.35
350.971	173.81
351.354	180.81
351.737	194.83
352.119	211.32
352.502	230.53
352.884	242.73
353.267	259
353.65	245.22
354.032	291.32
354.414	286.8
354.797	291.55
355.179	271.43
355.562	286.8
355.944	299.46
356.326	299
356.709	298.1
357.091	301.49
357.473	301.94
357.855	301.72
358.238	299
358.62	310.53
359.002	311.43
359.384	311.21
359.766	321.38
360.148	292.9
360.53	321.38
360.912	295.61
361.294	297.87
361.676	302.62
362.057	302.62
362.439	284.54
362.821	289.06
363.203	284.99
363.584	278.44
363.966	280.25
364.348	304.88
364.729	284.31
365.111	303.75
365.493	303.52
365.874	284.09
366.256	267.14
366.637	285.44
367.019	292.9
367.4	284.09
367.781	280.7
368.163	279.79
368.544	280.7
368.925	296.74
369.306	282.96
369.688	301.04
370.069	267.82
370.45	276.41
370.831	268.27
371.212	277.08
371.593	272.56
371.974	287.25
372.355	276.86
372.736	279.79
373.117	291.55
373.498	300.13
373.879	287.48
374.26	286.35
374.641	285.67
375.021	274.82
375.402	277.31
375.783	288.61
376.163	287.7
376.544	309.62
376.925	285.44
377.305	289.96
377.686	302.85
378.066	282.05
378.447	295.61
378.827	286.35
379.208	280.92
379.588	314.82
379.968	295.39
380.349	296.97
380.729	304.43
381.109	288.38
381.489	303.98
381.87	280.47
382.25	276.18
382.63	301.72
383.01	297.87
383.39	290.64
383.77	287.93
384.15	290.87
384.53	286.35
384.91	284.99
385.29	280.7
385.67	280.7
386.049	306.46
386.429	290.42
386.809	295.84
387.189	321.15
387.568	310.3
387.948	313.47
388.328	312.34
388.707	300.81
389.087	294.71
389.466	301.72
389.846	298.55
390.225	289.74
390.605	323.64
390.984	301.94
391.363	295.39
391.743	292.45
392.122	308.04
392.501	311.66
392.881	304.88
393.26	317.08
393.639	301.72
394.018	275.05
394.397	293.13
394.776	320.25
395.155	315.73
395.534	307.59
395.913	301.49
396.292	309.17
396.671	309.85
397.05	303.3
397.429	302.17
397.808	308.04
398.186	303.3
398.565	325.44
398.944	305.78
399.323	327.03
399.701	310.3
400.08	314.14
400.458	313.92
400.837	307.36
401.215	315.73
401.594	317.76
401.972	330.42
402.351	315.05
402.729	299.68
403.107	316.4
403.486	328.61
403.864	320.02
404.242	341.49
404.62	316.63
404.999	316.4
405.377	339.45
405.755	330.64
406.133	337.19
406.511	336.74
406.889	331.09
407.267	320.92
407.645	326.57
408.023	345.1
408.401	328.38
408.779	315.5
409.156	335.16
409.534	343.75
409.912	342.39
410.29	349.85
410.667	336.06
411.045	351.21
411.422	329.06
411.8	342.62
412.178	333.13
412.555	327.03
412.933	342.84
413.31	340.36
413.687	332.9
414.065	341.26
414.442	321.83
414.819	325.44
415.197	346.69
415.574	324.54
415.951	343.3
416.328	362.96
416.705	341.04
417.082	336.06
417.46	339.91
417.837	346.23
418.214	323.86
418.591	335.16
418.967	332.22
419.344	340.58
419.721	350.3
420.098	339.23
420.475	349.4
420.852	349.17
421.228	351.88
421.605	362.5
421.982	349.85
422.358	338.32
422.735	345.33
423.111	361.83
423.488	344.88
423.864	351.21
424.241	358.66
424.617	359.34
424.994	353.24
425.37	357.98
425.746	362.5
426.123	360.47
426.499	380.13
426.875	367.7
427.251	380.13
427.627	363.41
428.003	368.15
428.379	365.89
428.756	373.58
429.132	354.6
429.507	362.05
429.883	362.5
430.259	369.51
430.635	376.52
431.011	378.78
431.387	370.41
431.763	391.2
432.138	377.87
432.514	382.84
432.89	374.26
433.265	392.11
433.641	371.77
434.016	388.27
434.392	402.28
434.767	399.57
435.143	372.22
435.518	383.52
435.894	373.35
436.269	388.27
436.644	383.07
437.02	370.87
437.395	385.55
437.77	384.42
438.145	413.8
438.52	397.31
438.895	392.33
439.271	395.05
439.646	366.57
440.021	434.59
440.395	396.85
440.77	402.05
441.145	419.68
441.52	402.96
441.895	394.82
442.27	393.69
442.645	416.06
443.019	412.45
443.394	437.76
443.769	402.5
444.143	434.82
444.518	411.09
444.892	421.26
445.267	414.25
445.641	423.52
446.016	409.96
446.39	438.89
446.764	404.09
447.139	419.23
447.513	432.79
447.887	426.68
448.262	421.94
448.636	432.11
449.01	444.08
449.384	430.75
449.758	411.54
450.132	430.75
450.506	420.13
450.88	436.17
451.254	430.3
451.628	433.69
452.002	450.19
452.376	456.29
452.75	440.69
453.123	443.18
453.497	442.28
453.871	449.06
454.244	442.5
454.618	450.41
454.992	473.69
455.365	468.94
455.739	443.18
456.112	480.92
456.486	472.33
456.859	475.72
457.232	474.82
457.606	474.82
457.979	474.82
458.352	481.15
458.725	483.41
459.099	470.3
459.472	503.07
459.845	483.18
460.218	508.49
460.591	482.5
460.964	502.84
461.337	521.37
461.71	498.55
462.083	524.08
462.456	494.25
462.829	509.85
463.201	512.78
463.574	496.06
463.947	520.24
464.32	501.71
464.692	529.51
465.065	509.39
465.438	537.19
465.81	507.36
466.183	521.6
466.555	544.19
466.928	548.26
467.3	548.71
467.672	539.45
468.045	552.1
468.417	559.79
468.789	549.84
469.161	552.1
469.534	567.47
469.906	576.96
470.278	580.35
470.65	593.91
471.022	574.93
471.394	597.98
471.766	602.95
472.138	593.46
472.51	603.63
472.882	618.32
473.253	620.12
473.625	633.46
473.997	630.52
474.369	630.52
474.74	633.01
475.112	623.97
475.484	655.83
475.855	637.53
476.227	669.16
476.598	661.93
476.97	685.21
477.341	688.37
477.713	691.54
478.084	668.94
478.455	698.54
478.827	721.14
479.198	733.34
479.569	712.78
479.94	736.73
480.311	754.81
480.682	757.75
481.053	757.52
481.424	777.41
481.795	796.84
482.166	814.47
482.537	809.05
482.908	795.94
483.279	807.01
483.65	819.44
484.021	848.82
484.391	824.41
484.762	848.59
485.133	865.32
485.503	849.5
485.874	870.29
486.244	868.25
486.615	887.01
486.985	900.12
487.356	923.17
487.726	924.52
488.097	940.34
488.467	962.04
488.837	933.56
489.207	950.51
489.578	969.04
489.948	974.69
490.318	963.17
490.688	990.28
491.058	1023.73
491.428	1029.38
491.798	1019.66
492.168	1020.11
492.538	1037.52
492.908	1029.38
493.278	1047.01
493.648	1050.62
494.017	1071.19
494.387	1075.93
494.757	1058.08
495.126	1079.77
495.496	1086.78
495.866	1069.83
496.235	1096.95
496.605	1101.92
496.974	1119.09
497.344	1130.62
497.713	1120.22
498.082	1137.17
498.452	1144.4
498.821	1149.83
499.19	1169.04
499.559	1145.53
499.928	1171.97
500.298	1169.72
500.667	1187.34
501.036	1176.72
501.405	1164.52
501.774	1196.38
502.143	1196.61
502.512	1191.41
502.88	1205.19
503.249	1185.08
503.618	1204.06
503.987	1213.1
504.356	1230.73
504.724	1212.88
505.093	1223.05
505.462	1242.71
505.83	1242.26
506.199	1236.61
506.567	1235.93
506.936	1231.86
507.304	1283.38
507.672	1281.58
508.041	1250.62
508.409	1256.27
508.777	1280.67
509.145	1286.1
509.514	1290.16
509.882	1281.35
510.25	1295.81
510.618	1287.9
510.986	1308.69
511.354	1281.12
511.722	1303.5
512.09	1332.65
512.458	1333.33
512.826	1351.18
513.193	1311.63
513.561	1342.14
513.929	1378.52
514.297	1358.64
514.664	1355.47
515.032	1378.07
515.4	1367
515.767	1364.96
516.135	1371.97
516.502	1355.92
516.869	1380.33
517.237	1398.64
517.604	1373.55
517.972	1397.73
518.339	1412.19
518.706	1384.4
519.073	1396.83
519.44	1413.1
519.808	1409.03
520.175	1406.09
520.542	1436.6
520.909	1428.92
521.276	1432.53
521.643	1457.84
522.009	1457.39
522.376	1474.79
522.743	1452.87
523.11	1441.35
523.477	1485.41
523.843	1497.84
524.21	1492.19
524.577	1489.48
524.943	1527.22
525.31	1476.6
525.676	1492.42
526.043	1529.71
526.409	1503.27
526.776	1534.9
527.142	1506.88
527.508	1545.3
527.874	1520.21
528.241	1573.09
528.607	1575.13
528.973	1581
529.339	1552.76
529.705	1576.03
530.071	1559.76
530.437	1550.95
530.803	1585.98
531.169	1599.76
531.535	1577.61
531.901	1578.07
532.267	1579.42
532.632	1592.3
532.998	1594.11
533.364	1591.17
533.73	1598.4
534.095	1613.77
534.461	1613.55
534.826	1601.34
535.192	1623.71
535.557	1636.6
535.923	1590.27
536.288	1621.91
536.653	1620.32
537.019	1630.49
537.384	1627.1
537.749	1633.43
538.114	1620.32
538.479	1634.34
538.845	1628.01
539.21	1602.47
539.575	1620.32
539.94	1628.69
540.305	1637.95
540.67	1622.81
541.034	1613.32
541.399	1614.45
541.764	1626.43
542.129	1633.66
542.494	1594.79
542.858	1622.36
543.223	1652.87
543.587	1642.02
543.952	1637.27
544.316	1615.35
544.681	1630.27
545.045	1643.37
545.41	1622.81
545.774	1654.67
546.138	1643.6
546.503	1634.79
546.867	1639.76
547.231	1666.65
547.595	1652.41
547.959	1661.68
548.324	1650.38
548.688	1679.31
549.052	1631.17
549.416	1666.88
549.779	1657.39
550.143	1648.35
550.507	1681.11
550.871	1674.11
551.235	1663.04
551.599	1687.44
551.962	1656.03
552.326	1679.53
552.689	1694.45
553.053	1679.76
553.417	1682.47
553.78	1677.72
554.143	1690.15
554.507	1719.98
554.87	1689.93
555.234	1672.3
555.597	1704.39
555.96	1700.55
556.323	1683.15
556.686	1722.69
557.05	1704.16
557.413	1705.07
557.776	1720.89
558.139	1706.2
558.502	1733.99
558.865	1755.46
559.228	1712.75
559.59	1724.28
559.953	1713.43
560.316	1750.26
560.679	1750.26
561.041	1740.32
561.404	1776.93
561.767	1744.62
562.129	1733.32
562.492	1756.82
562.854	1755.46
563.217	1745.75
563.579	1762.47
563.941	1767.89
564.304	1759.08
564.666	1799.98
565.028	1783.94
565.39	1780.09
565.753	1802.01
566.115	1777.38
566.477	1760.43
566.839	1761.56
567.201	1804.05
567.563	1791.39
567.925	1779.42
568.287	1806.08
568.648	1842.47
569.01	1805.4
569.372	1830.94
569.734	1826.19
570.095	1817.16
570.457	1817.61
570.819	1826.42
571.18	1804.95
571.542	1818.06
571.903	1827.1
572.265	1841.11
572.626	1851.28
572.987	1825.74
573.349	1821.68
573.71	1827.1
574.071	1849.7
574.432	1839.3
574.794	1828.91
575.155	1856.25
575.516	1825.29
575.877	1829.81
576.238	1838.85
576.599	1845.4
576.96	1842.47
577.32	1852.18
577.681	1822.35
578.042	1828.23
578.403	1812.18
578.763	1832.07
579.124	1819.19
579.485	1815.12
579.845	1810.38
580.206	1832.75
580.566	1846.99
580.927	1825.97
581.287	1811.05
581.648	1817.16
582.008	1821.45
582.368	1793.43
582.728	1820.55
583.089	1779.19
583.449	1773.99
583.809	1776.25
584.169	1772.41
584.529	1777.38
584.889	1827.32
585.249	1769.25
585.609	1762.24
585.969	1788.23
586.329	1751.62
586.688	1755.69
587.048	1775.35
587.408	1787.78
587.768	1745.97
588.127	1752.75
588.487	1763.82
588.846	1755.24
589.206	1766.76
589.565	1738.29
589.925	1722.02
590.284	1748.23
590.643	1764.28
591.003	1734.45
591.362	1771.28
591.721	1753.2
592.08	1745.52
592.44	1715.01
592.799	1756.37
593.158	1759.53
593.517	1747.55
593.876	1760.21
594.235	1750.94
594.593	1719.98
594.952	1760.21
595.311	1733.77
595.67	1740.32
596.029	1739.64
596.387	1738.74
596.746	1733.99
597.104	1753.65
597.463	1748.46
597.822	1751.62
598.18	1694.9
598.538	1688.8
598.897	1751.62
599.255	1694.45
599.613	1752.07
599.972	1750.72
600.33	1745.75
600.688	1737.84
601.046	1764.5
601.404	1738.29
601.762	1761.11
602.12	1719.31
602.478	1742.36
602.836	1745.52
603.194	1728.34
603.552	1761.34
603.91	1774.22
604.268	1737.84
604.625	1772.19
604.983	1775.35
605.341	1743.94
605.698	1749.59
606.056	1764.05
606.413	1758.63
606.771	1737.84
607.128	1741
607.485	1759.98
607.843	1753.65
608.2	1755.24
608.557	1779.19
608.914	1754.78
609.272	1769.25
609.629	1779.19
609.986	1780.32
610.343	1764.05
610.7	1794.11
611.057	1783.03
611.414	1800.21
611.771	1778.74
612.127	1810.15
612.484	1813.77
612.841	1787.33
613.198	1779.64
613.554	1765.41
613.911	1806.08
614.267	1806.31
614.624	1822.35
614.98	1821
615.337	1784.39
615.693	1788.91
616.05	1822.58
616.406	1813.54
616.762	1789.59
617.118	1767.21
617.475	1791.62
617.831	1825.74
618.187	1832.97
618.543	1810.15
618.899	1784.84
619.255	1798.4
619.611	1787.1
619.967	1800.66
620.323	1799.3
620.678	1815.12
621.034	1825.74
621.39	1828.68
621.746	1788.68
622.101	1852.63
622.457	1796.14
622.812	1762.69
623.168	1818.96
623.523	1804.73
623.879	1845.18
624.234	1797.27
624.589	1832.97
624.945	1818.06
625.3	1792.3
625.655	1809.25
626.01	1790.94
626.365	1800.66
626.72	1804.5
627.075	1779.19
627.43	1822.81
627.785	1807.44
628.14	1803.37
628.495	1816.48
628.85	1801.34
629.205	1767.21
629.559	1765.63
629.914	1812.18
630.269	1793.88
630.623	1776.03
630.978	1791.39
631.332	1790.72
631.687	1791.85
632.041	1804.73
632.396	1791.39
632.75	1760.43
633.104	1797.5
633.459	1782.35
633.813	1798.4
634.167	1790.49
634.521	1785.52
634.875	1768.12
635.229	1785.74
635.583	1762.92
635.937	1781.45
636.291	1788
636.645	1754.78
636.999	1736.48
637.352	1771.51
637.706	1757.27
638.06	1740.55
638.413	1751.39
638.767	1748.68
639.121	1786.2
639.474	1771.73
639.828	1793.2
640.181	1755.24
640.534	1767.89
640.888	1778.06
641.241	1738.74
641.594	1729.25
641.947	1776.48
642.301	1752.3
642.654	1773.54
643.007	1771.06
643.36	1758.17
643.713	1780.55
644.066	1755.01
644.419	1766.31
644.771	1731.28
645.124	1758.85
645.477	1719.53
645.83	1720.66
646.182	1723.15
646.535	1723.37
646.888	1713.43
647.24	1769.47
647.593	1761.56
647.945	1741.68
648.298	1750.72
648.65	1738.97
649.002	1769.7
649.355	1750.26
649.707	1750.72
650.059	1763.15
650.411	1756.82
650.763	1783.94
651.115	1826.87
651.467	1804.5
651.819	1808.12
652.171	1838.62
652.523	1817.38
652.875	1818.96
653.227	1806.31
653.578	1832.52
653.93	1833.2
654.282	1823.94
654.633	1879.3
654.985	1851.05
655.337	1829.81
655.688	1873.65
656.039	1864.16
656.391	1862.13
656.742	1870.26
657.094	1881.11
657.445	1914.55
657.796	1865.97
658.147	1911.16
658.498	1906.19
658.849	1895.57
659.2	1894.44
659.551	1912.97
659.902	1922.24
660.253	1933.76
660.604	1940.32
660.955	1939.64
661.306	1986.64
661.656	1959.07
662.007	1961.56
662.358	2004.72
662.708	2005.17
663.059	2009.92
663.409	2013.31
663.76	2026.19
664.11	2061.22
664.461	2053.53
664.811	2052.18
665.161	2053.76
665.511	2047.21
665.862	2113.64
666.212	2107.77
666.562	2132.63
666.912	2114.77
667.262	2106.19
667.612	2103.02
667.962	2166.75
668.312	2185.51
668.662	2206.3
669.011	2214.66
669.361	2185.96
669.711	2194.09
670.06	2199.29
670.41	2253.08
670.76	2266.18
671.109	2292.4
671.459	2261.89
671.808	2262.34
672.157	2323.13
672.507	2344.6
672.856	2328.33
673.205	2347.09
673.554	2350.25
673.904	2372.17
674.253	2414.88
674.602	2420.08
674.951	2413.3
675.3	2412.85
675.649	2476.8
675.998	2449.91
676.346	2465.27
676.695	2533.75
677.044	2492.17
677.393	2559.51
677.741	2540.07
678.09	2558.38
678.438	2594.54
678.787	2600.64
679.135	2653.74
679.484	2643.8
679.832	2693.29
680.181	2653.97
680.529	2685.16
680.877	2724.02
681.225	2720.63
681.573	2768.32
681.922	2737.58
682.27	2776.23
682.618	2811.71
682.966	2823.23
683.314	2844.47
683.661	2858.26
684.009	2868.2
684.357	2922.89
684.705	2913.17
685.053	2959.72
685.4	2976.22
685.748	2984.13
686.095	2992.72
686.443	2990.23
686.79	3017.8
687.138	3069.78
687.485	3084.24
687.832	3072.72
688.18	3070.91
688.527	3101.42
688.874	3101.64
689.221	3180.06
689.568	3181.87
689.915	3184.13
690.262	3207.63
690.609	3193.39
690.956	3252.37
691.303	3250.11
691.65	3299.6
691.997	3326.27
692.344	3288.76
692.69	3347.51
693.037	3373.5
693.383	3334.63
693.73	3429.54
694.077	3410.56
694.423	3432.03
694.769	3462.76
695.116	3463.44
695.462	3526.94
695.808	3546.38
696.155	3572.82
696.501	3587.73
696.847	3586.6
697.193	3633.38
697.539	3636.77
697.885	3638.8
698.231	3676.99
698.577	3675.41
698.923	3745.92
699.269	3702.08
699.614	3724
699.96	3761.96
700.306	3779.82
700.651	3800.83
700.997	3805.35
701.342	3845.12
701.688	3861.62
702.033	3901.17
702.379	3870.43
702.724	3925.8
703.069	3967.38
703.415	3935.29
703.76	3976.42
704.105	3994.27
704.45	4050.09
704.795	4032.01
705.14	4074.72
705.485	4036.76
705.83	4070.2
706.175	4135.29
706.52	4150.88
706.865	4113.14
707.209	4200.82
707.554	4190.43
707.899	4210.09
708.243	4184.33
708.588	4257.54
708.932	4226.13
709.277	4253.25
709.621	4253.48
709.966	4290.08
710.31	4319.91
710.654	4299.35
710.998	4347.71
711.342	4355.62
711.687	4384.77
712.031	4363.3
712.375	4391.78
712.719	4431.55
713.063	4429.06
713.407	4472.9
713.75	4485.33
714.094	4512.68
714.438	4554.94
714.782	4538.67
715.125	4544.77
715.469	4554.26
715.812	4570.53
716.156	4555.16
716.499	4616.63
716.843	4603.97
717.186	4626.35
717.53	4655.5
717.873	4676.74
718.216	4703.41
718.559	4628.83
718.902	4680.13
719.246	4686.01
719.589	4720.13
719.932	4693.69
720.275	4726.46
720.617	4727.36
720.96	4755.38
721.303	4781.37
721.646	4739.34
721.989	4759.45
722.331	4810.75
722.674	4804.87
723.016	4820.47
723.359	4791.09
723.701	4839.68
724.044	4816.17
724.386	4828.38
724.729	4839.9
725.071	4813.01
725.413	4905.21
725.755	4864.31
726.097	4911.09
726.439	4848.94
726.782	4854.82
727.124	4931.42
727.465	4871.31
727.807	4891.88
728.149	4900.24
728.491	4894.59
728.833	4903.18
729.175	4949.28
729.516	4887.58
729.858	4937.75
730.199	4953.57
730.541	4908.83
730.882	4933.01
731.224	4974.81
731.565	4953.34
731.906	4951.08
732.248	4970.52
732.589	4964.42
732.93	4916.96
733.271	4946.79
733.612	4962.16
733.953	4997.64
734.294	4990.18
734.635	4921.03
734.976	5043.29
735.317	4972.55
735.658	4950.86
735.999	4948.82
736.339	5003.29
736.68	5028.37
737.021	4935.72
737.361	4987.24
737.702	5006.68
738.042	4955.38
738.383	4978.2
738.723	4992.44
739.063	4994.47
739.404	5024.53
739.744	4938.43
740.084	4964.19
740.424	5026.11
740.764	4980.91
741.104	5022.27
741.444	4947.02
741.784	4937.3
742.124	5010.97
742.464	4947.24
742.804	4910.18
743.143	4944.08
743.483	5006.45
743.823	4931.88
744.162	4988.15
744.502	4949.5
744.841	4953.8
745.181	4956.28
745.52	4951.99
745.86	4923.29
746.199	4967.81
746.538	4940.24
746.877	4957.41
747.216	4928.94
747.556	4907.92
747.895	4927.13
748.234	4922.84
748.573	4922.61
748.911	4921.03
749.25	4935.72
749.589	4865.89
749.928	4890.52
750.267	4901.59
750.605	4909.28
750.944	4868.6
751.283	4874.93
751.621	4859.34
751.96	4900.24
752.298	4918.99
752.636	4827.7
752.975	4833.12
753.313	4825.44
753.651	4806.91
753.989	4822.95
754.327	4806.91
754.666	4816.17
755.004	4821.82
755.342	4838.77
755.679	4777.98
756.017	4735.95
756.355	4740.02
756.693	4732.79
757.031	4729.62
757.368	4735.04
757.706	4731.88
758.044	4690.07
758.381	4705.67
758.719	4661.15
759.056	4722.84
759.394	4719.45
759.731	4696.18
760.068	4664.31
760.405	4646.91
760.743	4648.04
761.08	4628.61
761.417	4618.89
761.754	4611.43
762.091	4601.26
762.428	4575.05
762.765	4526.69
763.102	4543.41
763.438	4568.5
763.775	4539.34
764.112	4546.35
764.449	4546.8
764.785	4523.3
765.122	4506.58
765.458	4466.58
765.795	4465.45
766.131	4425
766.467	4444.88
766.804	4429.97
767.14	4404.21
767.476	4406.01
767.812	4367.6
768.148	4424.09
768.485	4373.7
768.821	4353.81
769.157	4380.03
769.492	4340.48
769.828	4309.07
770.164	4290.76
770.5	4272.46
770.836	4281.27
771.171	4203.76
771.507	4278.11
771.842	4200.6
772.178	4225.68
772.513	4227.26
772.849	4214.38
773.184	4204.21
773.519	4153.82
773.855	4132.35
774.19	4135.74
774.525	4141.84
774.86	4090.77
775.195	4126.93
775.53	4074.05
775.865	4062.97
776.2	4064.33
776.535	4028.62
776.87	4051.22
777.205	3968.74
777.539	3994.27
777.874	4026.82
778.209	3977.1
778.543	3991.56
778.878	3980.71
779.212	3942.3
779.547	3961.73
779.881	3909.3
780.215	3891.23
780.55	3936.42
780.884	3873.15
781.218	3881.28
781.552	3909.3
781.886	3878.57
782.22	3841.28
782.554	3810.32
782.888	3798.35
783.222	3784.56
783.556	3725.81
783.889	3822.07
784.223	3764.9
784.557	3738.91
784.89	3776.2
785.224	3765.8
785.557	3684.68
785.891	3728.29
786.224	3723.77
786.558	3658.24
786.891	3690.78
787.224	3647.84
787.557	3678.12
787.891	3641.97
788.224	3696.65
788.557	3647.39
788.89	3609.42
789.223	3615.3
789.556	3564
789.888	3557
790.221	3571.23
790.554	3550.9
790.887	3557.45
791.219	3535.53
791.552	3514.29
791.884	3489.2
792.217	3507.51
792.549	3480.61
792.882	3494.63
793.214	3467.51
793.546	3532.59
793.879	3428.41
794.211	3421.41
794.543	3441.75
794.875	3439.49
795.207	3393.39
795.539	3385.7
795.871	3378.92
796.203	3434.51
796.535	3369.43
796.867	3373.27
797.198	3343.67
797.53	3332.14
797.862	3324.23
798.193	3340.05
798.525	3315.65
798.856	3317.91
799.188	3255.54
799.519	3288.08
799.85	3251.69
800.182	3253.28
800.513	3243.11
800.844	3213.96
801.175	3254.86
801.506	3223.45
801.837	3247.85
802.168	3221.86
802.499	3229.32
802.83	3172.37
803.161	3225.71
803.491	3181.87
803.822	3170.11
804.153	3192.03
804.483	3125.82
804.814	3146.84
805.145	3138.25
805.475	3138.48
805.805	3146.84
806.136	3112.26
806.466	3138.48
806.796	3121.3
807.126	3089.44
807.457	3109.55
807.787	3098.48
808.117	3057.35
808.447	3063.68
808.777	3069.55
809.107	3109.1
809.436	3006.05
809.766	3062.09
810.096	3038.59
810.426	2992.72
810.755	3018.25
811.085	3014.64
811.414	3008.54
811.744	2992.49
812.073	2978.26
812.403	3020.06
812.732	2920.18
813.061	2960.85
813.39	2945.71
813.719	2940.06
814.049	2952.04
814.378	2945.26
814.707	2938.26
815.036	2949.78
815.365	2895.32
815.693	2889.67
816.022	2909.78
816.351	2924.47
816.68	2867.07
817.008	2900.52
817.337	2861.87
817.665	2855.32
817.994	2902.1
818.322	2834.76
818.651	2828.43
818.979	2863.68
819.307	2837.69
819.636	2843.57
819.964	2806.73
820.292	2819.16
820.62	2838.6
820.948	2807.64
821.276	2811.48
821.604	2804.47
821.932	2813.51
822.259	2809.9
822.587	2836.34
822.915	2798.37
823.243	2839.5
823.57	2802.44
823.898	2811.71
824.225	2804.25
824.553	2776.23
824.88	2793.18
825.207	2767.64
825.535	2780.52
825.862	2792.5
826.189	2796.79
826.516	2788.88
826.843	2778.49
827.17	2831.14
827.497	2755.66
827.824	2810.8
828.151	2819.84
828.478	2794.08
828.805	2799.73
829.131	2811.25
829.458	2785.27
829.785	2755.44
830.111	2766.74
830.438	2763.57
830.764	2770.12
831.09	2792.05
831.417	2771.93
831.743	2762.89
832.069	2786.85
832.395	2781.88
832.722	2810.12
833.048	2741.43
833.374	2790.24
833.7	2771.71
834.026	2773.74
834.351	2780.97
834.677	2781.65
835.003	2750.46
835.329	2764.25
835.654	2737.58
835.98	2782.55
836.306	2771.48
836.631	2737.81
836.956	2746.17
837.282	2707.08
837.607	2747.53
837.932	2740.07
838.258	2736.23
838.583	2734.19
838.908	2716.79
839.233	2751.37
839.558	2724.48
839.883	2726.96
840.208	2691.71
840.533	2683.12
840.858	2678.83
841.182	2730.13
841.507	2701.65
841.832	2709.11
842.156	2695.32
842.481	2699.17
842.805	2631.6
843.13	2680.18
843.454	2644.48
843.778	2647.87
844.103	2643.35
844.427	2649.22
844.751	2668.21
845.075	2627.08
845.399	2604.93
845.723	2637.02
846.047	2616.68
846.371	2581.43
846.695	2596.8
847.019	2546.18
847.343	2577.14
847.666	2571.94
847.99	2532.62
848.313	2568.1
848.637	2540.07
848.96	2527.42
849.284	2526.97
849.607	2513.18
849.931	2496.46
850.254	2481.09
850.577	2509.34
850.9	2460.53
851.223	2459.4
851.546	2450.36
851.869	2473.64
852.192	2440.19
852.515	2470.02
852.838	2425.73
853.161	2413.07
853.483	2423.02
853.806	2409.46
854.129	2369.23
854.451	2397.48
854.774	2404.03
855.096	2372.4
855.419	2383.69
855.741	2385.28
856.063	2347.76
856.385	2347.54
856.708	2311.61
857.03	2358.16
857.352	2336.01
857.674	2341.44
857.996	2322
858.318	2311.83
858.64	2312.51
858.961	2290.14
859.283	2284.04
859.605	2288.56
859.926	2310.93
860.248	2300.98
860.57	2276.13
860.891	2304.15
861.212	2284.26
861.534	2278.16
861.855	2240.87
862.176	2277.03
862.498	2264.15
862.819	2265.05
863.14	2269.12
863.461	2281.1
863.782	2249.46
864.103	2244.04
864.424	2225.73
864.745	2257.14
865.065	2208.33
865.386	2236.58
865.707	2211.5
866.027	2257.82
866.348	2223.92
866.668	2227.77
866.989	2212.4
867.309	2220.76
867.63	2188.67
867.95	2189.35
868.27	2189.35
868.59	2176.47
868.91	2189.8
869.23	2183.93
869.55	2182.57
869.87	2176.02
870.19	2165.62
870.51	2164.27
870.83	2163.36
871.15	2154.32
871.469	2154.77
871.789	2169.46
872.109	2168.11
872.428	2155.9
872.748	2166.3
873.067	2144.38
873.386	2168.11
873.706	2171.27
874.025	2105.96
874.344	2118.39
874.663	2144.83
874.982	2145.51
875.301	2138.5
875.62	2118.39
875.939	2088.11
876.258	2099.86
876.577	2114.55
876.896	2153.87
877.214	2122.68
877.533	2109.13
877.852	2087.21
878.17	2095.34
878.489	2091.72
878.807	2058.96
879.125	2100.09
879.444	2105.51
879.762	2083.14
880.08	2092.4
880.398	2073.65
880.716	2062.35
881.034	2083.59
881.352	2049.24
881.67	2042.69
881.988	2053.53
882.306	2053.08
882.624	2042.23
882.941	2053.31
883.259	2041.78
883.577	2068.9
883.894	2016.47
884.212	2058.05
884.529	2044.27
884.846	2042.69
885.164	2021.44
885.481	2011.5
885.798	2016.47
886.115	2002.46
886.432	1969.47
886.75	1987.09
887.067	2011.27
887.383	2004.27
887.7	2008.11
888.017	1977.6
888.334	1999.98
888.651	1973.08
888.967	1941.9
889.284	1956.36
889.6	1959.75
889.917	1967.66
890.233	1978.73
890.55	1936.25
890.866	1936.02
891.182	1933.08
891.498	1954.1
891.815	1927.21
892.131	1929.92
892.447	1910.26
892.763	1925.4
893.079	1911.84
893.395	1914.55
893.71	1877.94
894.026	1893.09
894.342	1877.49
894.657	1889.92
894.973	1856.93
895.289	1865.97
895.604	1853.31
895.92	1864.84
896.235	1854.67
896.55	1872.75
896.865	1871.62
897.181	1856.02
897.496	1819.64
897.811	1841.79
898.126	1815.12
898.441	1854.22
898.756	1803.6
899.071	1794.33
899.386	1819.64
899.7	1796.59
900.015	1800.21
900.33	1779.19
900.644	1773.09
900.959	1789.13
901.273	1778.96
901.588	1791.85
901.902	1753.65
902.216	1759.3
902.531	1739.19
902.845	1741.23
903.159	1736.93
903.473	1745.97
903.787	1748.23
904.101	1725.63
904.415	1690.15
904.729	1705.29
905.042	1708.23
905.356	1705.07
905.67	1719.98
905.984	1689.93
906.297	1700.1
906.611	1672.53
906.924	1684.5
907.237	1647.67
907.551	1670.49
907.864	1622.81
908.177	1652.19
908.491	1656.71
908.804	1681.57
909.117	1665.75
909.43	1602.02
909.743	1638.63
910.056	1605.64
910.368	1607.67
910.681	1639.99
910.994	1628.01
911.307	1599.76
911.619	1581.46
911.932	1574
912.244	1589.59
912.557	1582.59
912.869	1576.26
913.181	1560.67
913.494	1531.74
913.806	1533.55
914.118	1547.11
914.43	1549.59
914.742	1546.88
915.054	1528.12
915.366	1526.09
915.678	1520.44
915.99	1525.86
916.302	1508.69
916.613	1546.2
916.925	1503.27
917.236	1509.37
917.548	1501.01
917.859	1486.77
918.171	1503.49
918.482	1483.15
918.794	1457.39
919.105	1485.41
919.416	1478.63
919.727	1464.85
920.038	1463.49
920.349	1439.31
920.66	1443.38
920.971	1444.51
921.282	1422.14
921.593	1434.79
921.903	1421.91
922.214	1425.53
922.525	1413.55
922.835	1399.31
923.146	1393.21
923.456	1396.6
923.767	1426.88
924.077	1394.12
924.387	1383.95
924.697	1386.88
925.008	1380.33
925.318	1393.66
925.628	1377.62
925.938	1381.69
926.248	1350.05
926.558	1362.93
926.867	1367.9
927.177	1369.48
927.487	1350.73
927.796	1348.69
928.106	1337.39
928.416	1331.97
928.725	1346.89
929.034	1326.77
929.344	1340.11
929.653	1312.54
929.962	1307.79
930.271	1320.9
930.581	1307.11
930.89	1303.95
931.199	1298.07
931.508	1304.63
931.817	1284.29
932.125	1284.29
932.434	1264.4
932.743	1260.11
933.051	1282.48
933.36	1267.11
933.669	1249.94
933.977	1232.09
934.286	1254.23
934.594	1281.12
934.902	1239.32
935.21	1238.19
935.519	1251.97
935.827	1236.83
936.135	1227.57
936.443	1246.1
936.751	1213.56
937.059	1206.55
937.367	1195.48
937.674	1206.1
937.982	1223.72
938.29	1195.7
938.597	1198.41
938.905	1169.94
939.213	1192.77
939.52	1162.71
939.827	1193.22
940.135	1150.73
940.442	1198.41
940.749	1144.63
941.056	1158.19
941.363	1150.28
941.67	1153.44
941.977	1161.35
942.284	1146.44
942.591	1120.68
942.898	1138.3
943.205	1131.75
943.511	1125.65
943.818	1119.77
944.125	1133.11
944.431	1117.06
944.738	1107.34
945.044	1107.12
945.35	1123.61
945.657	1109.15
945.963	1111.64
946.269	1088.81
946.575	1095.82
946.881	1118.64
947.187	1099.66
947.493	1076.84
947.799	1087.23
948.105	1064.63
948.41	1080
948.716	1070.28
949.022	1098.53
949.327	1065.54
949.633	1067.12
949.938	1060.57
950.244	1081.13
950.549	1082.49
950.854	1068.47
951.16	1061.7
951.465	1037.06
951.77	1040.23
952.075	1043.84
952.38	1027.35
952.685	1030.06
952.99	1009.72
953.294	1015.82
953.599	1014.46
953.904	1014.69
954.209	1001.58
954.513	1013.11
954.818	999.55
955.122	997.52
955.426	976.05
955.731	1003.84
956.035	1000.68
956.339	988.02
956.643	1003.39
956.948	967.91
957.252	974.47
957.556	978.76
957.86	981.7
958.163	950.74
958.467	953.45
958.771	987.35
959.075	978.76
959.378	936.73
959.682	965.2
959.985	962.04
960.289	936.27
960.592	945.54
960.896	962.94
961.199	966.78
961.502	926.78
961.805	929.72
962.108	935.14
962.411	944.41
962.714	947.8
963.017	915.48
963.32	938.76
963.623	928.59
963.926	926.56
964.228	950.29
964.531	903.28
964.833	892.89
965.136	911.64
965.438	915.94
965.741	884.98
966.043	879.55
966.345	880.91
966.648	890.4
966.95	900.34
967.252	902.38
967.554	855.6
967.856	877.52
968.158	889.27
968.46	878.42
968.761	880.46
969.063	870.97
969.365	881.81
969.666	860.8
969.968	863.51
970.269	884.3
970.571	854.02
970.872	841.81
971.174	843.4
971.475	837.75
971.776	844.53
972.077	833.45
972.378	830.06
972.679	826.67
972.98	825.09
973.281	816.73
973.582	826.22
973.883	836.84
974.183	841.14
974.484	819.67
974.785	802.72
975.085	816.05
975.386	826.45
975.686	821.48
975.986	822.83
976.287	818.76
976.587	817.86
976.887	812.89
977.187	810.85
977.487	822.61
977.787	792.55
978.087	815.83
978.387	798.65
978.687	775.6
978.987	806.33
979.286	788.48
979.586	785.32
979.885	799.33
980.185	808.14
980.484	781.02
980.784	752.55
981.083	773.57
981.382	754.13
981.682	759.56
981.981	763.4
982.28	731.53
982.579	763.85
982.878	766.56
983.177	752.55
983.475	761.59
983.774	746.45
984.073	745.09
984.372	725.43
984.67	758.88
984.969	771.08
985.267	731.99
985.566	718.65
985.864	739.67
986.162	726.11
986.461	708.48
986.759	730.18
987.057	734.7
987.355	741.93
987.653	722.95
987.951	746
988.249	736.96
988.547	738.31
988.844	737.64
989.142	711.2
989.44	726.79
989.737	720.69
990.035	717.75
990.332	692.21
990.63	717.52
990.927	715.49
991.224	687.69
991.521	689.95
991.819	731.99
992.116	691.08
992.413	685.89
992.71	664.87
993.006	684.08
993.303	691.08
993.6	687.47
993.897	667.13
994.193	691.54
994.49	671.65
994.787	659.45
995.083	671.2
995.379	673.23
995.676	668.94
995.972	668.26
996.268	664.19
996.565	654.25
996.861	655.6
997.157	661.25
997.453	671.2
997.749	654.02
998.044	645.89
998.34	640.24
998.636	644.76
998.932	642.27
999.227	632.55
999.523	633.01
999.818	631.2
1000.114	652.21
1000.409	632.1
1000.704	616.06
1001	652.67
1001.295	635.94
1001.59	638.66
1001.885	631.65
1002.18	615.61
1002.475	603.18
1002.77	639.56
1003.065	649.28
1003.359	596.17
1003.654	613.57
1003.949	609.96
1004.243	600.92
1004.538	594.36
1004.832	645.66
1005.127	613.12
1005.421	627.36
1005.715	626.45
1006.009	600.24
1006.304	590.07
1006.598	614.02
1006.892	602.5
1007.186	589.62
1007.48	588.49
1007.773	580.13
1008.067	594.81
1008.361	598.2
1008.655	609.28
1008.948	570.63
1009.242	594.59
1009.535	590.97
1009.829	586.91
1010.122	575.61
1010.415	609.73
1010.708	588.26
1011.001	561.6
1011.295	564.08
1011.588	555.49
1011.881	564.99
1012.173	558.88
1012.466	565.66
1012.759	553.46
1013.052	576.06
1013.344	574.48
1013.637	540.13
1013.93	559.79
1014.222	535.83
1014.514	547.13
1014.807	557.08
1015.099	542.61
1015.391	564.31
1015.683	558.21
1015.976	544.87
1016.268	528.38
1016.56	534.25
1016.851	551.2
1017.143	538.77
1017.435	539.22
1017.727	550.97
1018.018	510.98
1018.31	530.86
1018.602	519.56
1018.893	511.88
1019.185	515.04
1019.476	526.57
1019.767	535.83
1020.058	526.79
1020.35	485.89
1020.641	532.67
1020.932	512.33
1021.223	505.33
1021.514	520.69
1021.804	489.05
1022.095	501.94
1022.386	532.44
1022.677	502.39
1022.967	499
1023.258	500.81
1023.548	491.77
1023.839	488.15
1024.129	488.38
1024.419	481.6
1024.709	480.69
1025	491.09
1025.29	499
1025.58	473.24
1025.87	470.75
1026.16	480.02
1026.449	481.82
1026.739	487.7
1027.029	477.76
1027.319	466
1027.608	496.29
1027.898	466.23
1028.187	473.46
1028.477	465.78
1028.766	484.08
1029.055	452.67
1029.344	471.2
1029.634	466.46
1029.923	474.37
1030.212	455.16
1030.501	468.94
1030.79	446.34
1031.078	475.27
1031.367	465.1
1031.656	453.12
1031.945	453.12
1032.233	448.38
1032.522	439.79
1032.81	463.74
1033.099	432.79
1033.387	439.34
1033.675	449.28
1033.963	452.9
1034.251	445.89
1034.54	433.24
1034.828	454.48
1035.116	446.8
1035.403	449.28
1035.691	442.05
1035.979	437.53
1036.267	433.01
1036.554	436.85
1036.842	460.36
1037.129	428.49
1037.417	433.24
1037.704	417.42
1037.992	442.95
1038.279	445.21
1038.566	429.85
1038.853	429.85
1039.14	429.85
