Data from carpet_green_FLMS001491_00074.txt Node
Date: Wed Feb 08 10:35:50 GMT 2017
User: dcchb
Spectrometer: FLMS00149
Trigger mode: 0
Integration Time (sec): 2.000000E-2
Scans to average: 10
Electric dark correction enabled: true
Nonlinearity correction enabled: false
Boxcar width: 0
XAxis mode: Wavelengths
Number of Pixels in Spectrum: 2048
>>>>>Begin Spectral Data<<<<<
341.393	8.33
341.776	8.33
342.16	8.33
342.543	-60.14
342.927	-38.45
343.31	-46.58
343.693	-66.02
344.077	-55.62
344.46	-68.05
344.843	-42.51
345.226	-46.58
345.61	-52.91
345.993	-19.24
346.376	-11.33
346.759	23.93
347.142	13.98
347.525	32.97
347.908	71.83
348.291	71.83
348.674	77.94
349.057	116.35
349.44	112.96
349.823	126.75
350.206	157.03
350.588	186.18
350.971	185.5
351.354	197.03
351.737	218.05
352.119	221.89
352.502	245.39
352.884	247.42
353.267	234.99
353.65	260.3
354.032	274.54
354.414	272.73
354.797	268.89
355.179	294.65
355.562	284.94
355.944	306.86
356.326	296.46
356.709	304.6
357.091	307.53
357.473	329.23
357.855	311.38
358.238	301.43
358.62	312.73
359.002	300.08
359.384	296.91
359.766	310.7
360.148	309.79
360.53	307.08
360.912	304.6
361.294	305.5
361.676	308.66
362.057	311.83
362.439	292.85
362.821	299.4
363.203	291.94
363.584	298.95
363.966	300.98
364.348	297.82
364.729	283.35
365.111	282.68
365.493	272.28
365.874	293.52
366.256	285.61
366.637	265.05
367.019	308.44
367.4	272.05
367.781	284.26
368.163	292.17
368.544	278.61
368.925	282.68
369.306	272.73
369.688	276.35
370.069	280.87
370.45	290.59
370.831	267.99
371.212	278.61
371.593	279.29
371.974	286.74
372.355	284.48
372.736	292.39
373.117	262.79
373.498	273.18
373.879	289.46
374.26	286.29
374.641	282.68
375.021	291.49
375.402	297.37
375.783	286.07
376.163	279.96
376.544	266.63
376.925	276.8
377.305	300.3
377.686	289.23
378.066	283.35
378.447	277.93
378.827	305.73
379.208	313.41
379.588	287.87
379.968	288.33
380.349	268.67
380.729	298.72
381.109	288.33
381.489	285.16
381.87	304.14
382.25	285.39
382.63	293.75
383.01	302.34
383.39	314.31
383.77	301.66
384.15	277.7
384.53	298.04
384.91	326.29
385.29	272.28
385.67	292.85
386.049	305.05
386.429	298.49
386.809	286.74
387.189	301.66
387.568	283.13
387.948	311.83
388.328	285.84
388.707	315.9
389.087	304.14
389.466	310.02
389.846	324.26
390.225	316.8
390.605	325.61
390.984	322.22
391.363	328.1
391.743	305.05
392.122	299.85
392.501	296.69
392.881	307.76
393.26	318.38
393.639	301.88
394.018	301.66
394.397	302.79
394.776	300.98
395.155	311.15
395.534	313.86
395.913	308.66
396.292	326.06
396.671	320.87
397.05	319.74
397.429	337.14
397.808	329.68
398.186	310.7
398.565	296.46
398.944	312.96
399.323	315.67
399.701	319.51
400.08	321.09
400.458	332.84
400.837	337.82
401.215	340.75
401.594	316.35
401.972	306.18
402.351	321.09
402.729	311.15
403.107	340.3
403.486	338.95
403.864	328.32
404.242	323.13
404.62	329
404.999	309.34
405.377	327.42
405.755	328.32
406.133	323.35
406.511	338.49
406.889	325.84
407.267	301.88
407.645	343.47
408.023	335.33
408.401	332.62
408.779	345.73
409.156	334.2
409.534	347.76
409.912	329.23
410.29	335.78
410.667	340.53
411.045	352.73
411.422	341.88
411.8	343.24
412.178	344.37
412.555	380.07
412.933	334.43
413.31	338.49
413.687	337.36
414.065	364.03
414.442	350.7
414.819	343.69
415.197	344.14
415.574	338.27
415.951	349.34
416.328	342.56
416.705	359.28
417.082	343.47
417.46	367.19
417.837	387.98
418.214	347.76
418.591	359.96
418.967	378.72
419.344	353.86
419.721	345.5
420.098	366.52
420.475	359.96
420.852	360.87
421.228	361.77
421.605	366.97
421.982	361.77
422.358	378.49
422.735	359.28
423.111	366.06
423.488	362.45
423.864	362.22
424.241	366.29
424.617	364.48
424.994	376.69
425.37	351.6
425.746	377.59
426.123	388.89
426.499	401.09
426.875	376.91
427.251	394.76
427.627	399.74
428.003	380.53
428.379	377.36
428.756	378.04
429.132	399.06
429.507	371.71
429.883	390.7
430.259	406.74
430.635	373.75
431.011	405.38
431.387	393.41
431.763	400.19
432.138	398.83
432.514	386.18
432.89	398.38
433.265	393.63
433.641	401.54
434.016	396.35
434.392	399.51
434.767	398.83
435.143	415.1
435.518	402.22
435.894	427.08
436.269	402.22
436.644	434.99
437.02	428.89
437.395	442.9
437.77	420.07
438.145	406.29
438.52	412.16
438.895	414.65
439.271	400.19
439.646	416.46
440.021	424.14
440.395	440.41
440.77	445.16
441.145	422.11
441.52	463.91
441.895	463.24
442.27	446.29
442.645	449.23
443.019	451.49
443.394	452.16
443.769	466.85
444.143	453.07
444.518	473.41
444.892	451.71
445.267	446.06
445.641	472.73
446.016	450.13
446.39	464.59
446.764	470.02
447.139	447.42
447.513	473.86
447.887	464.82
448.262	476.34
448.636	480.86
449.01	487.42
449.384	500.52
449.758	473.63
450.132	484.93
450.506	478.38
450.88	459.39
451.254	501.65
451.628	495.33
452.002	472.28
452.376	502.78
452.75	489
453.123	504.14
453.497	510.01
453.871	514.53
454.244	508.66
454.618	508.43
454.992	519.28
455.365	507.98
455.739	513.18
456.112	524.48
456.486	516.57
456.859	534.42
457.232	520.18
457.606	566.51
457.979	537.36
458.352	554.76
458.725	543.69
459.099	536.23
459.472	560.86
459.845	570.13
460.218	554.76
460.591	571.48
460.964	564.48
461.337	588.66
461.71	575.78
462.083	582.78
462.456	574.42
462.829	572.84
463.201	578.71
463.574	603.57
463.947	603.57
464.32	605.38
464.692	636.34
465.065	622.33
465.438	607.64
465.81	632.5
466.183	629.79
466.555	631.14
466.928	644.25
467.3	639.73
467.672	647.41
468.045	657.36
468.417	669.78
468.789	640.18
469.161	664.59
469.534	658.49
469.906	679.05
470.278	676.34
470.65	701.2
471.022	710.69
471.394	721.31
471.766	698.03
472.138	742.55
472.51	717.24
472.882	750.46
473.253	754.08
473.625	738.03
473.997	766.73
474.369	768.09
474.74	768.77
475.112	781.87
475.484	803.11
475.855	811.25
476.227	816.67
476.598	819.16
476.97	833.85
477.341	833.85
477.713	807.18
478.084	861.42
478.455	866.84
478.827	860.74
479.198	888.99
479.569	903.68
479.94	912.04
480.311	930.34
480.682	936.44
481.053	925.6
481.424	959.72
481.795	961.3
482.166	946.84
482.537	988.87
482.908	990.23
483.279	1025.26
483.65	1049.66
484.021	1044.92
484.391	1048.08
484.762	1066.84
485.133	1058.93
485.503	1079.27
485.874	1089.89
486.244	1140.28
486.615	1134.86
486.985	1109.32
487.356	1151.58
487.726	1140.51
488.097	1167.62
488.467	1182.54
488.837	1201.97
489.207	1188.19
489.578	1223.89
489.948	1228.41
490.318	1251.46
490.688	1249.88
491.058	1280.84
491.428	1271.58
491.798	1302.76
492.168	1303.44
492.538	1312.25
492.908	1327.85
493.278	1347.73
493.648	1323.78
494.017	1332.82
494.387	1373.04
494.757	1376.21
495.126	1378.92
495.496	1384.34
495.866	1428.41
496.235	1431.35
496.605	1423.89
496.974	1437.67
497.344	1420.27
497.713	1465.47
498.082	1453.27
498.452	1476.54
498.821	1470.89
499.19	1475.64
499.559	1525.13
499.928	1498.69
500.298	1523.1
500.667	1505.47
501.036	1517.9
501.405	1539.37
501.774	1572.13
502.143	1564.68
502.512	1605.35
502.88	1549.76
503.249	1576.88
503.618	1565.13
503.987	1589.31
504.356	1607.16
504.724	1607.39
505.093	1611
505.462	1621.85
505.83	1644.22
506.199	1625.92
506.567	1671.57
506.936	1671.79
507.304	1673.83
507.672	1672.92
508.041	1685.58
508.409	1688.51
508.777	1694.16
509.145	1738.01
509.514	1664.56
509.882	1756.54
510.25	1702.75
510.618	1708.85
510.986	1741.17
511.354	1761.73
511.722	1755.86
512.09	1756.54
512.458	1787.5
512.826	1787.27
513.193	1782.52
513.561	1755.18
513.929	1789.08
514.297	1816.87
514.664	1855.29
515.032	1830.43
515.4	1841.28
515.767	1850.32
516.135	1840.6
516.502	1822.07
516.869	1882.86
517.237	1884.67
517.604	1869.3
517.972	1886.48
518.339	1890.54
518.706	1907.27
519.073	1915.85
519.44	1923.76
519.808	1926.25
520.175	1961.05
520.542	1975.06
520.909	1945.01
521.276	1985.68
521.643	1968.96
522.009	1989.07
522.376	1991.78
522.743	1987.04
523.11	2009.64
523.477	2052.8
523.843	2033.36
524.21	2075.62
524.577	2070.2
524.943	2086.7
525.31	2060.26
525.676	2075.62
526.043	2121.95
526.409	2091.22
526.776	2103.87
527.142	2146.36
527.508	2130.31
527.874	2152.68
528.241	2154.04
528.607	2179.58
528.973	2157.43
529.339	2163.76
529.705	2203.53
530.071	2195.39
530.437	2196.3
530.803	2205.56
531.169	2198.11
531.535	2204.66
531.901	2203.08
532.267	2226.35
532.632	2206.24
532.998	2202.85
533.364	2226.81
533.73	2239.91
534.095	2232.23
534.461	2257.31
534.826	2264.09
535.192	2233.13
535.557	2293.02
535.923	2276.97
536.288	2307.71
536.653	2298.67
537.019	2272.68
537.384	2275.84
537.749	2286.92
538.114	2279.69
538.479	2290.08
538.845	2293.02
539.21	2261.16
539.575	2303.87
539.94	2267.71
540.305	2299.8
540.67	2304.32
541.034	2290.31
541.399	2331.21
541.764	2301.15
542.129	2314.94
542.494	2296.63
542.858	2339.57
543.223	2343.41
543.587	2314.49
543.952	2325.56
544.316	2352
544.681	2354.49
545.045	2350.87
545.41	2350.42
545.774	2331.21
546.138	2341.83
546.503	2344.99
546.867	2335.05
547.231	2359.23
547.595	2354.49
547.959	2360.14
548.324	2377.54
548.688	2356.97
549.052	2343.86
549.416	2385.67
549.779	2353.36
550.143	2344.54
550.507	2402.85
550.871	2372.34
551.235	2395.39
551.599	2354.49
551.962	2375.95
552.326	2375.5
552.689	2405.56
553.053	2383.64
553.417	2382.96
553.78	2426.35
554.143	2419.8
554.507	2405.33
554.87	2455.27
555.234	2435.39
555.597	2439.68
555.96	2450.75
556.323	2418.67
556.686	2445.33
557.05	2473.13
557.413	2477.65
557.776	2470.42
558.139	2460.25
558.502	2449.17
558.865	2512.9
559.228	2509.06
559.59	2475.39
559.953	2473.58
560.316	2516.52
560.679	2504.76
561.041	2522.39
561.404	2511.32
561.767	2569.4
562.129	2508.83
562.492	2544.76
562.854	2572.56
563.217	2520.36
563.579	2545.89
563.941	2582.95
564.304	2568.49
564.666	2569.62
565.028	2560.13
565.39	2611.2
565.753	2578.21
566.115	2591.32
566.477	2583.41
566.839	2599.23
567.201	2627.7
567.563	2622.28
567.925	2619.56
568.287	2608.94
568.648	2646.23
569.01	2608.72
569.372	2645.1
569.734	2644.87
570.095	2645.33
570.457	2674.7
570.819	2635.83
571.18	2659.56
571.542	2687.13
571.903	2663.4
572.265	2663.63
572.626	2705.66
572.987	2683.52
573.349	2658.66
573.71	2700.47
574.071	2708.6
574.432	2669.96
574.794	2721.93
575.155	2658.66
575.516	2644.87
575.877	2693.23
576.238	2708.38
576.599	2677.42
576.96	2675.16
577.32	2672.9
577.681	2696.4
578.042	2698.21
578.403	2655.95
578.763	2675.61
579.124	2643.74
579.485	2669.05
579.845	2657.98
580.206	2674.25
580.566	2624.54
580.927	2658.21
581.287	2676.96
581.648	2662.73
582.008	2682.16
582.368	2694.59
582.728	2667.7
583.089	2653.69
583.449	2686.23
583.809	2661.82
584.169	2623.63
584.529	2627.7
584.889	2656.63
585.249	2649.17
585.609	2603.75
585.969	2607.81
586.329	2646.46
586.688	2644.87
587.048	2603.07
587.408	2605.1
587.768	2602.84
588.127	2603.97
588.487	2624.31
588.846	2624.76
589.206	2592.9
589.565	2613.46
589.925	2598.32
590.284	2601.03
590.643	2615.04
591.003	2607.36
591.362	2621.6
591.721	2577.08
592.08	2599
592.44	2584.54
592.799	2593.58
593.158	2614.37
593.517	2574.82
593.876	2556.29
594.235	2571.66
594.593	2603.75
594.952	2611.65
595.311	2574.14
595.67	2560.36
596.029	2584.31
596.387	2607.13
596.746	2634.7
597.104	2571.43
597.463	2553.12
597.822	2579.11
598.18	2622.73
598.538	2599.9
598.897	2602.39
599.255	2606.23
599.613	2599.68
599.972	2614.82
600.33	2584.76
600.688	2594.48
601.046	2625.89
601.404	2610.3
601.762	2608.04
602.12	2624.76
602.478	2614.14
602.836	2619.34
603.194	2592.67
603.552	2623.18
603.91	2603.97
604.268	2634.93
604.625	2644.2
604.983	2613.46
605.341	2640.13
605.698	2651.2
606.056	2624.76
606.413	2608.04
606.771	2612.11
607.128	2655.04
607.485	2627.02
607.843	2624.31
608.2	2612.56
608.557	2632.9
608.914	2669.96
609.272	2668.15
609.629	2661.14
609.986	2664.99
610.343	2641.48
610.7	2694.59
611.057	2690.97
611.414	2689.17
611.771	2668.83
612.127	2667.25
612.484	2689.84
612.841	2714.48
613.198	2738.2
613.554	2701.14
613.911	2719.9
614.267	2714.02
614.624	2719.67
614.98	2700.92
615.337	2713.12
615.693	2719.45
616.05	2730.75
616.406	2736.62
616.762	2731.65
617.118	2715.38
617.475	2702.05
617.831	2716.28
618.187	2753.35
618.543	2708.15
618.899	2738.2
619.255	2716.96
619.611	2741.14
619.967	2780.69
620.323	2721.03
620.678	2734.36
621.034	2771.88
621.39	2720.35
621.746	2741.59
622.101	2760.8
622.457	2729.84
622.812	2708.15
623.168	2747.02
623.523	2744.98
623.879	2760.58
624.234	2715.83
624.589	2748.37
624.945	2725.32
625.3	2772.55
625.655	2743.85
626.01	2732.56
626.365	2720.58
626.72	2725.1
627.075	2770.75
627.43	2720.8
627.785	2710.41
628.14	2728.49
628.495	2708.15
628.85	2712.89
629.205	2685.32
629.559	2736.62
629.914	2678.55
630.269	2737.98
630.623	2706.34
630.978	2720.13
631.332	2713.8
631.687	2714.48
632.041	2715.38
632.396	2728.71
632.75	2674.7
633.104	2657.3
633.459	2649.39
633.813	2701.82
634.167	2678.77
634.521	2689.39
634.875	2671.31
635.229	2653.69
635.583	2679.9
635.937	2707.02
636.291	2663.86
636.645	2668.15
636.999	2691.65
637.352	2693.69
637.706	2647.13
638.06	2665.44
638.413	2695.95
638.767	2703.18
639.121	2656.4
639.474	2679.68
639.828	2674.03
640.181	2667.02
640.534	2643.52
640.888	2633.8
641.241	2655.04
641.594	2641.71
641.947	2683.97
642.301	2711.99
642.654	2688.94
643.007	2677.64
643.36	2686.91
643.713	2673.8
644.066	2690.75
644.419	2692.78
644.771	2706.34
645.124	2638.55
645.477	2664.99
645.83	2650.75
646.182	2644.42
646.535	2668.38
646.888	2658.88
647.24	2656.17
647.593	2669.05
647.945	2680.81
648.298	2654.37
648.65	2674.25
649.002	2642.84
649.355	2666.57
649.707	2690.52
650.059	2698.21
650.411	2742.27
650.763	2749.28
651.115	2750.86
651.467	2782.95
651.819	2776.4
652.171	2819.33
652.523	2806.23
652.875	2779.33
653.227	2807.81
653.578	2803.97
653.93	2800.8
654.282	2829.5
654.633	2793.57
654.985	2844.64
655.337	2843.06
655.688	2848.94
656.039	2888.03
656.391	2853.91
656.742	2877.18
657.094	2897.97
657.445	2899.78
657.796	2906.79
658.147	2922.61
658.498	2935.04
658.849	2954.7
659.2	2942.27
659.551	2940.91
659.902	2962.83
660.253	2958.76
660.604	3006.67
660.955	2985.88
661.306	2991.53
661.656	3031.08
662.007	3001.47
662.358	3062.94
662.708	3062.49
663.059	3122.15
663.409	3067.24
663.76	3104.07
664.11	3115.82
664.461	3110.62
664.811	3172.32
665.161	3140
665.511	3156.27
665.862	3154.92
666.212	3213.45
666.562	3193.56
666.912	3259.32
667.262	3250.06
667.612	3269.94
667.962	3304.52
668.312	3329.83
668.662	3347.23
669.011	3364.63
669.361	3382.48
669.711	3377.28
670.06	3391.97
670.41	3408.02
670.76	3426.32
671.109	3415.7
671.459	3455.7
671.808	3518.52
672.157	3466.1
672.507	3491.41
672.856	3519.65
673.205	3556.04
673.554	3595.58
673.904	3579.76
674.253	3657.5
674.602	3646.43
674.951	3590.39
675.3	3588.13
675.649	3711.51
675.998	3692.3
676.346	3710.61
676.695	3772.08
677.044	3774.56
677.393	3831.06
677.741	3783.15
678.09	3856.82
678.438	3833.32
678.787	3868.57
679.135	3888.01
679.484	3916.7
679.832	3968.45
680.181	3964.16
680.529	3977.49
680.877	4015.23
681.225	4018.62
681.573	4038.28
681.922	4025.85
682.27	4079.64
682.618	4082.35
682.966	4112.18
683.314	4154.44
683.661	4190.37
684.009	4165.74
684.357	4186.98
684.705	4223.14
685.053	4235.11
685.4	4283.47
685.748	4238.96
686.095	4335.68
686.443	4282.35
686.79	4325.73
687.138	4347.65
687.485	4395.34
687.832	4421.32
688.18	4444.37
688.527	4419.52
688.874	4443.02
689.221	4479.18
689.568	4483.24
689.915	4544.49
690.262	4555.56
690.609	4529.12
690.956	4591.26
691.303	4556.24
691.65	4634.2
691.997	4573.41
692.344	4600.3
692.69	4675.33
693.037	4698.83
693.383	4647.53
693.73	4695.22
694.077	4697.93
694.423	4704.93
694.769	4754.42
695.116	4799.39
695.462	4805.5
695.808	4823.35
696.155	4877.81
696.501	4840.97
696.847	4904.25
697.193	4867.64
697.539	4917.58
697.885	4925.49
698.231	4931.14
698.577	4954.64
698.923	4960.07
699.269	4976.34
699.614	5026.51
699.96	5003.91
700.306	4991.03
700.651	5081.65
700.997	5067.18
701.342	5050.69
701.688	5098.59
702.033	5149.67
702.379	5159.16
702.724	5153.51
703.069	5229.44
703.415	5189.21
703.76	5188.31
704.105	5218.14
704.45	5271.25
704.795	5242.09
705.14	5251.59
705.485	5255.43
705.83	5229.89
706.175	5259.95
706.52	5342.88
706.865	5344.46
707.209	5334.52
707.554	5329.1
707.899	5370
708.243	5346.27
708.588	5457.91
708.932	5365.71
709.277	5393.05
709.621	5416.55
709.966	5430.79
710.31	5468.08
710.654	5482.09
710.998	5465.36
711.342	5467.85
711.687	5491.8
712.031	5501.07
712.375	5542.88
712.719	5612.48
713.063	5554.63
713.407	5575.87
713.75	5531.8
714.094	5609.54
714.438	5571.12
714.782	5643.21
715.125	5598.69
715.469	5612.71
715.812	5609.32
716.156	5651.35
716.499	5627.17
716.843	5623.55
717.186	5651.12
717.53	5711.91
717.873	5720.05
718.216	5698.35
718.559	5723.89
718.902	5661.97
719.246	5729.31
719.589	5734.96
719.932	5708.75
720.275	5763.44
720.617	5755.07
720.96	5750.33
721.303	5756.43
721.646	5814.73
721.989	5798.01
722.331	5789.88
722.674	5777.9
723.016	5768.86
723.359	5807.28
723.701	5776.32
724.044	5797.79
724.386	5790.78
724.729	5801.18
725.071	5788.52
725.413	5802.08
725.755	5840.5
726.097	5769.54
726.439	5788.07
726.782	5870.78
727.124	5868.07
727.465	5803.43
727.807	5809.31
728.149	5836.43
728.491	5823.55
728.833	5823.32
729.175	5810.44
729.516	5831
729.858	5847.5
730.199	5813.38
730.541	5858.57
730.882	5864
731.224	5881.17
731.565	5863.32
731.906	5783.55
732.248	5881.85
732.589	5830.1
732.93	5845.69
733.271	5845.69
733.612	5833.04
733.953	5840.27
734.294	5866.94
734.635	5896.77
734.976	5838.01
735.317	5875.07
735.658	5814.96
735.999	5849.08
736.339	5857.9
736.68	5852.25
737.021	5872.59
737.361	5840.5
737.702	5882.53
738.042	5884.11
738.383	5809.76
738.723	5856.09
739.063	5839.59
739.404	5841.63
739.744	5848.18
740.084	5816.09
740.424	5856.77
740.764	5781.06
741.104	5830.55
741.444	5831.23
741.784	5814.06
742.124	5855.19
742.464	5828.07
742.804	5813.6
743.143	5828.97
743.483	5803.43
743.823	5768.41
744.162	5774.51
744.502	5742.19
744.841	5764.11
745.181	5784.23
745.52	5722.08
745.86	5772.48
746.199	5748.3
746.538	5720.27
746.877	5799.37
747.216	5791.23
747.556	5744
747.895	5735.19
748.234	5732.48
748.573	5718.69
748.911	5702.19
749.25	5701.06
749.589	5634.85
749.928	5688.86
750.267	5667.17
750.605	5648.64
750.944	5651.12
751.283	5643.67
751.621	5663.33
751.96	5580.16
752.298	5630.33
752.636	5615.87
752.975	5566.15
753.313	5546.27
753.651	5594.17
753.989	5594.85
754.327	5567.51
754.666	5548.3
755.004	5539.49
755.342	5525.25
755.679	5499.94
756.017	5560.05
756.355	5491.35
756.693	5547.17
757.031	5523.67
757.368	5466.72
757.706	5499.04
758.044	5453.16
758.381	5456.33
758.719	5497.68
759.056	5387.63
759.394	5388.76
759.731	5407.51
760.068	5342.66
760.405	5367.51
760.743	5344.46
761.08	5351.7
761.417	5361.41
761.754	5353.05
762.091	5327.06
762.428	5330.68
762.765	5306.27
763.102	5281.19
763.438	5264.24
763.775	5210.23
764.112	5230.34
764.449	5233.96
764.785	5195.99
765.122	5191.47
765.458	5137.92
765.795	5118.48
766.131	5143.79
766.467	5155.09
766.804	5098.37
767.14	5120.52
767.476	5064.02
767.812	5065.15
768.148	5095.66
768.485	5046.17
768.821	5026.96
769.157	5021.31
769.492	5004.81
769.828	5006.85
770.164	4931.59
770.5	4961.88
770.836	4944.93
771.171	4929.79
771.507	4916.23
771.842	4888.88
772.178	4853.4
772.513	4867.64
772.849	4827.64
773.184	4816.79
773.519	4806.85
773.855	4758.26
774.19	4756.68
774.525	4771.6
774.86	4784.7
775.195	4736.34
775.53	4757.36
775.865	4691.6
776.2	4670.36
776.535	4664.48
776.87	4674.88
777.205	4635.1
777.539	4620.64
777.874	4645.27
778.209	4613.64
778.543	4609.57
778.878	4555.78
779.212	4575.67
779.547	4579.74
779.881	4550.59
780.215	4531.6
780.55	4481.66
780.884	4477.37
781.218	4493.64
781.552	4472.62
781.886	4441.89
782.22	4412.29
782.554	4454.54
782.888	4372.51
783.222	4376.81
783.556	4376.81
783.889	4354.43
784.223	4315.79
784.557	4285.51
784.89	4382.68
785.224	4283.47
785.557	4258.16
785.891	4239.18
786.224	4271.05
786.558	4266.07
786.891	4231.72
787.224	4198.05
787.557	4212.97
787.891	4224.95
788.224	4192.86
788.557	4177.49
788.89	4188.34
789.223	4128.9
789.556	4104.72
789.888	4138.62
790.221	4080.54
790.554	4095.91
790.887	4068.11
791.219	4094.78
791.552	4045.52
791.884	4049.13
792.217	3996.93
792.549	3991.51
792.882	3997.38
793.214	3982.92
793.546	3979.3
793.879	3967.1
794.211	3947.66
794.543	3980.21
794.875	3911.96
795.207	3928.46
795.539	3893.88
795.871	3875.8
796.203	3929.36
796.535	3871.28
796.867	3878.74
797.198	3838.06
797.53	3841.68
797.862	3864.5
798.193	3807.78
798.525	3828.8
798.856	3798.06
799.188	3780.21
799.519	3787.22
799.85	3757.39
800.182	3754.22
800.513	3756.71
800.844	3672.19
801.175	3727.33
801.506	3721
801.837	3688.01
802.168	3684.39
802.499	3690.04
802.83	3694.79
803.161	3659.08
803.491	3650.5
803.822	3654.56
804.153	3623.61
804.483	3630.16
804.814	3666.99
805.145	3623.15
805.475	3615.24
805.805	3587
806.136	3593.1
806.466	3604.85
806.796	3570.5
807.126	3531.18
807.457	3525.53
807.787	3548.13
808.117	3511.52
808.447	3519.2
808.777	3500.9
809.107	3517.62
809.436	3480.56
809.766	3483.95
810.096	3490.05
810.426	3457.51
810.755	3471.74
811.085	3426.32
811.414	3460.45
811.744	3422.71
812.073	3396.72
812.403	3382.03
812.732	3382.03
813.061	3386.55
813.39	3406.21
813.719	3364.86
814.049	3389.04
814.378	3371.63
814.707	3361.92
815.036	3333.44
815.365	3372.31
815.693	3369.37
816.022	3303.16
816.351	3268.81
816.68	3294.57
817.008	3308.59
817.337	3305.2
817.665	3274.46
817.994	3292.99
818.322	3256.84
818.651	3251.64
818.979	3215.48
819.307	3263.39
819.636	3254.8
819.964	3231.98
820.292	3200.11
820.62	3233.56
820.948	3244.18
821.276	3220.45
821.604	3228.59
821.932	3281.02
822.259	3210.28
822.587	3241.24
822.915	3220.9
823.243	3225.2
823.57	3192.66
823.898	3200.57
824.225	3206.22
824.553	3205.99
824.88	3210.51
825.207	3215.48
825.535	3217.06
825.862	3201.47
826.189	3191.98
826.516	3235.82
826.843	3207.57
827.17	3220
827.497	3230.62
827.824	3203.05
828.151	3207.12
828.478	3227.01
828.805	3193.56
829.131	3254.8
829.458	3216.38
829.785	3215.25
830.111	3176.84
830.438	3251.41
830.764	3182.03
831.09	3250.06
831.417	3204.41
831.743	3213.22
832.069	3221.58
832.395	3201.47
832.722	3180.68
833.048	3147.46
833.374	3255.48
833.7	3197.4
834.026	3195.59
834.351	3234.69
834.677	3176.16
835.003	3194.46
835.329	3204.63
835.654	3189.04
835.98	3145.65
836.306	3182.03
836.631	3156.27
836.956	3174.13
837.282	3162.6
837.607	3179.78
837.932	3156.72
838.258	3144.3
838.583	3126.22
838.908	3114.92
839.233	3143.84
839.558	3122.38
839.883	3105.88
840.208	3105.43
840.533	3094.81
840.858	3101.36
841.182	3149.49
841.507	3124.41
841.832	3106.78
842.156	3104.75
842.481	3061.36
842.805	3096.61
843.13	3085.54
843.454	3039.44
843.778	3036.05
844.103	3033.56
844.427	3032.66
844.751	3028.14
845.075	3041.47
845.399	3026.56
845.723	2988.59
846.047	3025.2
846.371	2963.51
846.695	2954.7
847.019	3022.27
847.343	2936.39
847.666	2921.02
847.99	2932.32
848.313	2911.76
848.637	2932.1
848.96	2887.58
849.284	2903.4
849.607	2894.58
849.931	2889.16
850.254	2843.51
850.577	2871.08
850.9	2808.49
851.223	2862.27
851.546	2817.07
851.869	2792.89
852.192	2816.39
852.515	2797.41
852.838	2762.16
853.161	2802.61
853.483	2763.06
853.806	2758.77
854.129	2731.88
854.451	2737.53
854.774	2722.39
855.096	2708.6
855.419	2721.03
855.741	2675.38
856.063	2683.74
856.385	2671.77
856.708	2710.41
857.03	2693.91
857.352	2636.96
857.674	2663.86
857.996	2648.26
858.318	2674.03
858.64	2636.51
858.961	2666.79
859.283	2631.99
859.605	2629.73
859.926	2616.4
860.248	2603.97
860.57	2574.82
860.891	2610.75
861.212	2603.97
861.534	2592.67
861.855	2576.85
862.176	2635.16
862.498	2569.17
862.819	2604.2
863.14	2557.64
863.461	2599.68
863.782	2566.46
864.103	2554.25
864.424	2566.68
864.745	2534.59
865.065	2521.04
865.386	2526.01
865.707	2504.99
866.027	2536.85
866.348	2534.14
866.668	2502.96
866.989	2548.38
867.309	2501.15
867.63	2513.58
867.95	2491.88
868.27	2503.86
868.59	2518.1
868.91	2500.7
869.23	2489.4
869.55	2479.45
869.87	2475.16
870.19	2472
870.51	2495.05
870.83	2495.5
871.15	2460.7
871.469	2490.3
871.789	2453.01
872.109	2460.25
872.428	2462.28
872.748	2458.44
873.067	2455.5
873.386	2433.81
873.706	2426.8
874.025	2437.2
874.344	2430.64
874.663	2425.44
874.982	2440.13
875.301	2432.45
875.62	2419.8
875.939	2387.93
876.258	2410.3
876.577	2439.46
876.896	2434.48
877.214	2398.33
877.533	2418.21
877.852	2368.27
878.17	2428.83
878.489	2418.67
878.807	2370.08
879.125	2400.36
879.444	2403.07
879.762	2374.15
880.08	2368.95
880.398	2376.86
880.716	2364.2
881.034	2367.14
881.352	2373.69
881.67	2371.89
881.988	2380.25
882.306	2333.92
882.624	2322.4
882.941	2348.61
883.259	2373.24
883.577	2321.04
883.894	2337.54
884.212	2335.96
884.529	2363.3
884.846	2293.47
885.164	2313.81
885.481	2322.17
885.798	2318.55
886.115	2290.53
886.432	2277.2
886.75	2267.03
887.067	2316.52
887.383	2273.81
887.7	2290.08
888.017	2268.84
888.334	2246.24
888.651	2256.64
888.967	2275.17
889.284	2246.24
889.6	2243.75
889.917	2219.57
890.233	2245.34
890.55	2226.81
890.866	2215.28
891.182	2218.44
891.498	2209.41
891.815	2175.51
892.131	2176.64
892.447	2171.67
892.763	2180.03
893.079	2148.84
893.395	2172.8
893.71	2168.05
894.026	2200.82
894.342	2170.99
894.657	2168.05
894.973	2168.73
895.289	2131.44
895.604	2137.32
895.92	2140.48
896.235	2127.37
896.55	2107.26
896.865	2108.39
897.181	2107.94
897.496	2137.99
897.811	2119.01
898.126	2089.18
898.441	2062.52
898.756	2098.9
899.071	2069.3
899.386	2081.5
899.7	2058.67
900.015	2028.62
900.33	2031.33
900.644	2047.15
900.959	2040.6
901.273	2056.87
901.588	2041.95
901.902	2001.73
902.216	1981.61
902.531	1975.96
902.845	1999.24
903.159	1964.67
903.473	1993.82
903.787	1971.45
904.101	1929.41
904.415	1984.1
904.729	1970.77
905.042	1939.58
905.356	1968.73
905.67	1921.5
905.984	1956.98
906.297	1942.97
906.611	1946.14
906.924	1931.22
907.237	1925.34
907.551	1899.36
907.864	1893.03
908.177	1904.33
908.491	1869.08
908.804	1896.42
909.117	1884.89
909.43	1866.59
909.743	1865.91
910.056	1858.68
910.368	1858.68
910.681	1833.37
910.994	1828.62
911.307	1848.74
911.619	1820.26
911.932	1795.4
912.244	1818.68
912.557	1829.53
912.869	1802.64
913.181	1754.95
913.494	1800.83
913.806	1773.94
914.118	1785.69
914.43	1757.89
914.742	1759.7
915.054	1769.64
915.366	1751.34
915.678	1727.16
915.99	1733.71
916.302	1738.91
916.613	1725.8
916.925	1722.86
917.236	1696.42
917.548	1699.36
917.859	1697.33
918.171	1687.16
918.482	1687.16
918.794	1686.93
919.105	1695.52
919.416	1675.63
919.727	1676.31
920.038	1658.23
920.349	1639.93
920.66	1644.9
920.971	1651
921.282	1646.93
921.593	1596.99
921.903	1623.21
922.214	1620.95
922.525	1623.88
922.835	1588.4
923.146	1554.06
923.456	1608.52
923.767	1566.48
924.077	1605.35
924.387	1591.57
924.697	1574.85
925.008	1555.41
925.318	1561.06
925.628	1527.62
925.938	1553.6
926.248	1571.68
926.558	1549.99
926.867	1528.75
927.177	1542.08
927.487	1558.57
927.796	1506.37
928.106	1516.99
928.416	1514.51
928.725	1531
929.034	1503.89
929.344	1496.2
929.653	1537.56
929.962	1507.73
930.271	1490.55
930.581	1476.77
930.89	1491.23
931.199	1483.55
931.508	1467.73
931.817	1463.21
932.125	1469.09
932.434	1441.52
932.743	1442.19
933.051	1439.26
933.36	1440.16
933.669	1417.79
933.977	1413.49
934.286	1406.04
934.594	1437.9
934.902	1409.88
935.21	1375.53
935.519	1420.27
935.827	1411.91
936.135	1384.12
936.443	1367.39
936.751	1376.43
937.059	1395.42
937.367	1349.31
937.674	1369.2
937.982	1385.47
938.29	1335.53
938.597	1346.38
938.905	1332.82
939.213	1342.31
939.52	1322.2
939.827	1366.72
940.135	1335.98
940.442	1313.38
940.749	1329.65
941.056	1325.81
941.363	1325.81
941.67	1317.45
941.977	1286.04
942.284	1317.9
942.591	1287.85
942.898	1286.72
943.205	1311.12
943.511	1283.78
943.818	1282.65
944.125	1276.32
944.431	1253.27
944.738	1284.01
945.044	1234.52
945.35	1265.7
945.657	1245.81
945.963	1242.42
946.269	1254.85
946.575	1235.19
946.881	1243.33
947.187	1224.57
947.493	1236.1
947.799	1229.54
948.105	1216.89
948.41	1211.24
948.716	1225.7
949.022	1180.28
949.327	1208.3
949.633	1201.52
949.938	1186.83
950.244	1206.27
950.549	1207.17
950.854	1171.47
951.16	1188.87
951.465	1193.61
951.77	1179.38
952.075	1148.19
952.38	1168.53
952.685	1146.38
952.99	1143.44
953.294	1160.39
953.599	1144.35
953.904	1147.51
954.209	1147.96
954.513	1130.56
954.818	1146.61
955.122	1132.6
955.426	1157.68
955.731	1124.46
956.035	1107.51
956.339	1121.98
956.643	1091.24
956.948	1133.28
957.252	1102.54
957.556	1118.13
957.86	1080.85
958.163	1091.02
958.467	1079.04
958.771	1097.8
959.075	1087.63
959.378	1080.17
959.682	1081.3
959.985	1054.41
960.289	1063.22
960.592	1082.43
960.896	1060.96
961.199	1044.24
961.502	1077.91
961.805	1045.82
962.108	1044.01
962.411	1069.77
962.714	1050.11
963.017	1013.73
963.32	1059.6
963.623	1045.37
963.926	1020.96
964.228	1038.81
964.531	1015.54
964.833	1023.45
965.136	1018.48
965.438	999.49
965.741	1003.56
966.043	1002.66
966.345	1006.27
966.648	985.93
966.95	1015.31
967.252	1002.21
967.554	972.83
967.856	976.67
968.158	976.22
968.46	970.57
968.761	960.62
969.063	969.44
969.365	956.1
969.666	979.38
969.968	955.65
970.269	961.08
970.571	953.17
970.872	935.09
971.174	959.04
971.475	964.24
971.776	939.61
972.077	941.64
972.378	940.96
972.679	935.99
972.98	926.5
973.281	931.02
973.582	928.76
973.883	954.52
974.183	920.17
974.484	923.11
974.785	924.92
975.085	899.38
975.386	902.32
975.686	898.48
975.986	912.49
976.287	915.43
976.587	903.22
976.887	881.3
977.187	878.14
977.487	881.53
977.787	908.65
978.087	884.69
978.387	870.01
978.687	883.34
978.987	895.54
979.286	880.85
979.586	878.82
979.885	858.25
980.185	870.91
980.484	872.27
980.784	882.21
981.083	864.81
981.382	852.15
981.682	862.32
981.981	849.67
982.28	848.09
982.579	829.33
982.878	852.38
983.177	840.4
983.475	840.18
983.774	832.72
984.073	851.47
984.372	822.32
984.67	833.17
984.969	838.59
985.267	816.22
985.566	830.23
985.864	817.13
986.162	827.52
986.461	816
986.759	781.42
987.057	811.48
987.355	794.98
987.653	792.04
987.951	770.35
988.249	784.58
988.547	799.27
988.844	786.84
989.142	775.54
989.44	787.3
989.737	780.52
990.035	771.93
990.332	782.55
990.63	768.09
990.927	782.55
991.224	773.28
991.521	772.15
991.819	769.9
992.116	760.86
992.413	749.56
992.71	758.82
993.006	773.06
993.303	767.41
993.6	741.42
993.897	755.43
994.193	734.19
994.49	767.41
994.787	748.88
995.083	763.34
995.379	736.9
995.676	749.78
995.972	747.3
996.268	729.9
996.565	724.02
996.861	720.18
997.157	729.67
997.453	737.81
997.749	736.45
998.044	724.47
998.34	717.24
998.636	699.39
998.932	724.02
999.227	724.25
999.523	700.52
999.818	719.73
1000.114	709.78
1000.409	672.5
1000.704	675.89
1001	699.84
1001.295	695.77
1001.59	684.47
1001.885	691.7
1002.18	672.5
1002.475	668.65
1002.77	686.73
1003.065	690.58
1003.359	685.15
1003.654	668.2
1003.949	672.72
1004.243	678.37
1004.538	657.36
1004.832	666.85
1005.127	667.98
1005.421	650.35
1005.715	659.62
1006.009	675.43
1006.304	657.36
1006.598	642.21
1006.892	658.03
1007.186	644.47
1007.48	640.86
1007.773	632.05
1008.067	619.16
1008.361	639.5
1008.655	646.51
1008.948	661.65
1009.242	617.81
1009.535	634.08
1009.829	620.29
1010.122	617.36
1010.415	627.07
1010.708	617.36
1011.001	606.51
1011.295	625.04
1011.588	624.59
1011.881	613.51
1012.173	600.18
1012.466	582.78
1012.759	587.3
1013.052	614.87
1013.344	589.11
1013.637	610.35
1013.93	603.35
1014.222	588.66
1014.514	588.88
1014.807	596.57
1015.099	600.18
1015.391	603.35
1015.683	574.87
1015.976	589.56
1016.268	551.14
1016.56	583.46
1016.851	582.33
1017.143	572.39
1017.435	582.1
1017.727	553.86
1018.018	569.9
1018.31	563.35
1018.602	559.05
1018.893	550.69
1019.185	541.88
1019.476	560.18
1019.767	581.65
1020.058	556.79
1020.35	543.01
1020.641	554.53
1020.932	569.22
1021.223	538.26
1021.514	551.14
1021.804	559.05
1022.095	533.74
1022.386	558.38
1022.677	542.56
1022.967	536.91
1023.258	543.69
1023.548	537.36
1023.839	538.71
1024.129	513.4
1024.419	514.53
1024.709	544.82
1025	499.62
1025.29	499.62
1025.58	500.98
1025.87	519.05
1026.16	499.62
1026.449	524.7
1026.739	515.66
1027.029	493.97
1027.319	497.81
1027.608	498.72
1027.898	510.92
1028.187	486.51
1028.477	535.55
1028.766	504.37
1029.055	518.6
1029.344	501.2
1029.634	486.06
1029.923	458.94
1030.212	488.09
1030.501	493.52
1030.79	491.48
1031.078	481.54
1031.367	457.13
1031.656	494.87
1031.945	478.6
1032.233	499.85
1032.522	475.89
1032.81	468.43
1033.099	478.83
1033.387	475.21
1033.675	452.16
1033.963	477.02
1034.251	472.5
1034.54	475.44
1034.828	460.3
1035.116	460.75
1035.403	470.02
1035.691	484.93
1035.979	472.95
1036.267	465.5
1036.554	432.95
1036.842	441.32
1037.129	470.02
1037.417	472.5
1037.704	447.19
1037.992	447.64
1038.279	453.52
1038.566	449.45
1038.853	449.45
1039.14	449.45
