Data from carpet_green_FLMS001491_00090.txt Node
Date: Wed Feb 08 10:35:59 GMT 2017
User: dcchb
Spectrometer: FLMS00149
Trigger mode: 0
Integration Time (sec): 2.000000E-2
Scans to average: 10
Electric dark correction enabled: true
Nonlinearity correction enabled: false
Boxcar width: 0
XAxis mode: Wavelengths
Number of Pixels in Spectrum: 2048
>>>>>Begin Spectral Data<<<<<
341.393	-10.9
341.776	-10.9
342.16	-10.9
342.543	-50.45
342.927	-46.38
343.31	-79.6
343.693	-70.34
344.077	-73.73
344.46	-66.95
344.843	-37.57
345.226	-54.52
345.61	-34.18
345.993	-3.22
346.376	-16.55
346.759	10.11
347.142	38.81
347.525	51.69
347.908	44.24
348.291	75.87
348.674	96.66
349.057	119.26
349.44	118.81
349.823	156.78
350.206	151.35
350.588	178.24
350.971	198.58
351.354	168.98
351.737	196.55
352.119	227.73
352.502	248.3
352.884	242.65
353.267	232.48
353.65	274.06
354.032	268.64
354.414	269.77
354.797	286.04
355.179	291.91
355.562	285.59
355.944	300.05
356.326	325.58
356.709	314.96
357.091	307.51
357.473	299.14
357.855	324
358.238	329.88
358.62	311.8
359.002	310.67
359.384	321.97
359.766	304.12
360.148	321.52
360.53	331.01
360.912	314.29
361.294	328.52
361.676	293.04
362.057	308.18
362.439	299.37
362.821	308.41
363.203	299.37
363.584	274.96
363.966	300.95
364.348	282.87
364.729	302.99
365.111	298.24
365.493	306.6
365.874	291.24
366.256	278.35
366.637	287.62
367.019	277
367.4	285.36
367.781	300.73
368.163	291.91
368.544	283.33
368.925	281.07
369.306	283.55
369.688	284.46
370.069	277.9
370.45	287.17
370.831	271.35
371.212	285.59
371.593	285.81
371.974	286.04
372.355	295.75
372.736	283.1
373.117	258.02
373.498	289.2
373.879	279.94
374.26	276.09
374.641	289.2
375.021	291.01
375.402	288.52
375.783	293.5
376.163	283.33
376.544	288.75
376.925	301.63
377.305	288.98
377.686	304.79
378.066	304.79
378.447	308.64
378.827	280.16
379.208	270.67
379.588	295.53
379.968	288.3
380.349	297.56
380.729	288.52
381.109	299.6
381.489	290.11
381.87	301.63
382.25	290.56
382.63	287.85
383.01	308.64
383.39	296.66
383.77	298.47
384.15	285.36
384.53	294.17
384.91	301.18
385.29	258.02
385.67	297.56
386.049	304.79
386.429	316.32
386.809	308.41
387.189	309.31
387.568	292.14
387.948	292.82
388.328	303.21
388.707	300.73
389.087	290.33
389.466	311.35
389.846	302.08
390.225	320.84
390.605	306.38
390.984	305.92
391.363	295.3
391.743	307.05
392.122	275.42
392.501	303.44
392.881	323.78
393.26	304.57
393.639	316.09
394.018	309.77
394.397	300.95
394.776	304.57
395.155	311.35
395.534	295.08
395.913	320.16
396.292	301.18
396.671	307.05
397.05	323.55
397.429	300.73
397.808	306.83
398.186	277.9
398.565	305.25
398.944	327.62
399.323	306.15
399.701	310.22
400.08	314.74
400.458	304.34
400.837	331.23
401.215	321.29
401.594	307.51
401.972	314.96
402.351	328.07
402.729	330.78
403.107	319.71
403.486	311.12
403.864	323.55
404.242	338.24
404.62	301.18
404.999	311.57
405.377	312.48
405.755	316.32
406.133	307.51
406.511	333.04
406.889	324.45
407.267	316.32
407.645	326.04
408.023	310.9
408.401	311.57
408.779	330.78
409.156	299.37
409.534	328.3
409.912	324.45
410.29	333.95
410.667	320.39
411.045	319.26
411.422	316.55
411.8	328.75
412.178	339.37
412.555	327.62
412.933	333.04
413.31	335.98
413.687	335.75
414.065	318.35
414.442	336.21
414.819	354.06
415.197	348.86
415.574	331.91
415.951	324.68
416.328	346.15
416.705	343.21
417.082	316.55
417.46	336.43
417.837	328.07
418.214	330.33
418.591	349.99
418.967	326.94
419.344	332.82
419.721	347.73
420.098	318.81
420.475	336.88
420.852	340.5
421.228	355.87
421.605	333.27
421.982	363.78
422.358	340.5
422.735	362.65
423.111	337.79
423.488	345.02
423.864	336.88
424.241	344.79
424.617	347.5
424.994	347.05
425.37	353.83
425.746	371.69
426.123	362.19
426.499	334.17
426.875	347.96
427.251	368.07
427.627	363.1
428.003	354.74
428.379	377.33
428.756	368.3
429.132	366.49
429.507	348.41
429.883	359.26
430.259	362.19
430.635	371.01
431.011	343.89
431.387	357.67
431.763	387.73
432.138	360.16
432.514	344.57
432.89	355.41
433.265	384.34
433.641	372.36
434.016	373.94
434.392	376.2
434.767	373.49
435.143	363.1
435.518	384.11
435.894	366.49
436.269	385.02
436.644	370.78
437.02	375.3
437.395	366.04
437.77	365.58
438.145	353.83
438.52	373.04
438.895	379.14
439.271	377.33
439.646	392.25
440.021	382.31
440.395	383.66
440.77	387.73
441.145	392.93
441.52	400.61
441.895	392.02
442.27	388.63
442.645	389.09
443.019	373.94
443.394	376.88
443.769	394.28
444.143	392.02
444.518	404.23
444.892	405.58
445.267	375.75
445.641	375.98
446.016	381.18
446.39	405.58
446.764	401.06
447.139	415.3
447.513	411.68
447.887	397.9
448.262	404
448.636	408.97
449.01	408.97
449.384	422.76
449.758	378.01
450.132	394.28
450.506	401.51
450.88	404.68
451.254	418.01
451.628	405.81
452.002	392.48
452.376	433.83
452.75	434.51
453.123	424.79
453.497	439.25
453.871	409.2
454.244	423.44
454.618	431.57
454.992	418.24
455.365	418.24
455.739	431.34
456.112	419.82
456.486	427.95
456.859	415.3
457.232	419.14
457.606	439.03
457.979	436.77
458.352	442.19
458.725	440.61
459.099	438.8
459.472	442.64
459.845	463.43
460.218	465.47
460.591	450.1
460.964	455.3
461.337	459.82
461.71	452.36
462.083	460.5
462.456	450.55
462.829	456.88
463.201	469.08
463.574	469.31
463.947	479.7
464.32	472.47
464.692	473.83
465.065	474.28
465.438	474.28
465.81	467.95
466.183	481.06
466.555	479.93
466.928	475.64
467.3	491
467.672	494.39
468.045	496.88
468.417	496.2
468.789	497.78
469.161	478.12
469.534	495.52
469.906	512.02
470.278	524.9
470.65	503.66
471.022	530.1
471.394	527.84
471.766	527.16
472.138	541.17
472.51	533.94
472.882	553.6
473.253	565.35
473.625	567.16
473.997	564.9
474.369	571.23
474.74	568.74
475.112	565.8
475.484	575.3
475.855	566.26
476.227	575.3
476.598	593.15
476.97	585.92
477.341	619.81
477.713	606.26
478.084	592.24
478.455	617.1
478.827	611
479.198	616.88
479.569	639.7
479.94	635.41
480.311	646.48
480.682	660.04
481.053	659.59
481.424	665.91
481.795	695.29
482.166	683.32
482.537	685.12
482.908	727.38
483.279	723.54
483.65	698.23
484.021	687.16
484.391	706.37
484.762	735.07
485.133	721.05
485.503	719.7
485.874	749.75
486.244	742.52
486.615	729.87
486.985	760.83
487.356	763.99
487.726	777.32
488.097	781.84
488.467	782.52
488.837	802.18
489.207	812.35
489.578	800.37
489.948	809.87
490.318	822.29
490.688	827.27
491.058	806.7
491.428	852.8
491.798	855.51
492.168	854.16
492.538	868.17
492.908	863.42
493.278	865.01
493.648	892.8
494.017	896.42
494.387	897.32
494.757	897.77
495.126	904.55
495.496	922.63
495.866	929.18
496.235	905
496.605	913.82
496.974	916.08
497.344	928.05
497.713	945.68
498.082	930.54
498.452	962.18
498.821	954.27
499.19	938.22
499.559	951.56
499.928	962.4
500.298	958.11
500.667	990.65
501.036	972.35
501.405	981.61
501.774	998.56
502.143	946.81
502.512	989.52
502.88	995.17
503.249	992.46
503.618	992.01
503.987	994.95
504.356	1015.06
504.724	1019.8
505.093	1002.4
505.462	991.1
505.83	1003.98
506.199	1021.39
506.567	1055.06
506.936	1035.4
507.304	1065.23
507.672	1043.31
508.041	1069.29
508.409	1045.79
508.777	1034.72
509.145	1066.58
509.514	1069.75
509.882	1066.36
510.25	1078.56
510.618	1063.64
510.986	1075.85
511.354	1060.25
511.722	1077.2
512.09	1073.14
512.458	1091.44
512.826	1088.05
513.193	1090.76
513.561	1100.93
513.929	1114.04
514.297	1113.59
514.664	1106.58
515.032	1139.57
515.4	1128.05
515.767	1114.04
516.135	1119.46
516.502	1130.76
516.869	1143.87
517.237	1139.8
517.604	1111.33
517.972	1171.89
518.339	1159.91
518.706	1161.72
519.073	1177.31
519.44	1165.34
519.808	1173.7
520.175	1184.55
520.542	1164.21
520.909	1187.71
521.276	1189.06
521.643	1189.06
522.009	1199.69
522.376	1200.14
522.743	1213.24
523.11	1225.45
523.477	1207.6
523.843	1215.05
524.21	1242.62
524.577	1239.68
524.943	1238.33
525.31	1232.45
525.676	1244.2
526.043	1238.78
526.409	1237.65
526.776	1265.67
527.142	1261.83
527.508	1256.41
527.874	1280.14
528.241	1288.05
528.607	1272.45
528.973	1268.16
529.339	1271.32
529.705	1256.41
530.071	1279.68
530.437	1285.56
530.803	1299.57
531.169	1295.73
531.535	1292.79
531.901	1302.96
532.267	1297.99
532.632	1322.85
532.998	1309.06
533.364	1330.3
533.73	1303.86
534.095	1287.59
534.461	1306.8
534.826	1316.29
535.192	1312
535.557	1311.77
535.923	1331.43
536.288	1303.41
536.653	1330.3
537.019	1309.97
537.384	1337.76
537.749	1330.3
538.114	1291.89
538.479	1339.8
538.845	1323.07
539.21	1303.19
539.575	1308.38
539.94	1371.88
540.305	1308.38
540.67	1303.19
541.034	1334.82
541.399	1348.38
541.764	1326.01
542.129	1316.75
542.494	1327.82
542.858	1329.4
543.223	1338.67
543.587	1316.52
543.952	1326.24
544.316	1308.38
544.681	1347.7
545.045	1347.03
545.41	1347.25
545.774	1344.99
546.138	1321.49
546.503	1328.5
546.867	1329.63
547.231	1340.47
547.595	1370.08
547.959	1346.8
548.324	1332.11
548.688	1357.42
549.052	1357.2
549.416	1348.38
549.779	1376.4
550.143	1355.84
550.507	1360.13
550.871	1375.05
551.235	1389.96
551.599	1386.12
551.962	1360.81
552.326	1363.98
552.689	1337.31
553.053	1374.37
553.417	1367.59
553.78	1360.81
554.143	1408.49
554.507	1368.72
554.87	1391.09
555.234	1380.7
555.597	1373.92
555.96	1383.86
556.323	1403.52
556.686	1413.69
557.05	1371.66
557.413	1369.4
557.776	1400.13
558.139	1410.08
558.502	1378.44
558.865	1407.82
559.228	1424.31
559.59	1391.77
559.953	1420.7
560.316	1435.61
560.679	1419.57
561.041	1429.51
561.404	1409.62
561.767	1437.65
562.129	1406.23
562.492	1428.83
562.854	1442.62
563.217	1450.07
563.579	1427.93
563.941	1434.93
564.304	1447.36
564.666	1457.08
565.028	1468.38
565.39	1455.05
565.753	1454.82
566.115	1471.09
566.477	1431.32
566.839	1468.38
567.201	1465.89
567.563	1460.02
567.925	1469.06
568.287	1469.28
568.648	1488.94
569.01	1481.71
569.372	1507.47
569.734	1474.71
570.095	1479.9
570.457	1490.75
570.819	1500.47
571.18	1481.03
571.542	1448.94
571.903	1490.07
572.265	1508.6
572.626	1499.34
572.987	1460.7
573.349	1494.14
573.71	1470.19
574.071	1473.8
574.432	1519.23
574.794	1495.05
575.155	1469.96
575.516	1495.72
575.877	1484.88
576.238	1484.42
576.599	1497.76
576.96	1517.64
577.32	1503.86
577.681	1491.66
578.042	1499.11
578.403	1484.65
578.763	1495.05
579.124	1480.81
579.485	1451.88
579.845	1484.2
580.206	1469.74
580.566	1462.73
580.927	1490.53
581.287	1503.18
581.648	1490.3
582.008	1485.55
582.368	1474.03
582.728	1472.9
583.089	1502.05
583.449	1468.83
583.809	1458.21
584.169	1482.39
584.529	1476.29
584.889	1484.42
585.249	1449.4
585.609	1445.56
585.969	1483.29
586.329	1458.66
586.688	1449.62
587.048	1445.56
587.408	1416.63
587.768	1440.36
588.127	1469.96
588.487	1431.32
588.846	1465.67
589.206	1457.53
589.565	1450.3
589.925	1459.34
590.284	1441.04
590.643	1435.61
591.003	1421.6
591.362	1442.39
591.721	1450.53
592.08	1428.38
592.44	1446.91
592.799	1424.99
593.158	1423.18
593.517	1429.51
593.876	1429.74
594.235	1412.11
594.593	1448.49
594.952	1409.85
595.311	1424.99
595.67	1438.32
596.029	1429.96
596.387	1419.79
596.746	1435.84
597.104	1453.69
597.463	1428.15
597.822	1450.3
598.18	1419.34
598.538	1412.11
598.897	1435.61
599.255	1410.08
599.613	1445.78
599.972	1466.12
600.33	1419.57
600.688	1422.5
601.046	1454.59
601.404	1429.74
601.762	1435.16
602.12	1464.54
602.478	1464.31
602.836	1465.22
603.194	1419.79
603.552	1402.62
603.91	1438.78
604.268	1443.3
604.625	1439.68
604.983	1464.09
605.341	1437.42
605.698	1451.2
606.056	1453.46
606.413	1453.24
606.771	1465.89
607.128	1461.37
607.485	1455.5
607.843	1436.97
608.2	1458.44
608.557	1442.39
608.914	1418.44
609.272	1451.43
609.629	1468.38
609.986	1464.76
610.343	1441.49
610.7	1468.61
611.057	1465.67
611.414	1464.54
611.771	1474.03
612.127	1467.02
612.484	1449.85
612.841	1458.44
613.198	1459.79
613.554	1486.23
613.911	1499.34
614.267	1462.05
614.624	1488.49
614.98	1500.7
615.337	1475.16
615.693	1491.43
616.05	1478.1
616.406	1482.84
616.762	1503.18
617.118	1487.14
617.475	1496.63
617.831	1506.57
618.187	1492.79
618.543	1475.38
618.899	1482.84
619.255	1502.28
619.611	1472.45
619.967	1490.53
620.323	1491.2
620.678	1482.16
621.034	1500.92
621.39	1488.94
621.746	1489.4
622.101	1505.44
622.457	1508.6
622.812	1491.88
623.168	1486.46
623.523	1495.72
623.879	1503.63
624.234	1495.5
624.589	1519.9
624.945	1507.25
625.3	1505.67
625.655	1470.41
626.01	1486.68
626.365	1504.08
626.72	1484.88
627.075	1471.54
627.43	1493.92
627.785	1475.61
628.14	1470.87
628.495	1446.91
628.85	1485.1
629.205	1492.33
629.559	1493.24
629.914	1479.68
630.269	1505.21
630.623	1460.02
630.978	1466.12
631.332	1463.63
631.687	1481.03
632.041	1475.16
632.396	1486.68
632.75	1466.12
633.104	1492.11
633.459	1481.26
633.813	1459.11
634.167	1482.62
634.521	1449.4
634.875	1435.16
635.229	1452.33
635.583	1442.84
635.937	1464.99
636.291	1469.28
636.645	1451.2
636.999	1451.43
637.352	1473.58
637.706	1464.76
638.06	1468.61
638.413	1471.32
638.767	1499.11
639.121	1487.36
639.474	1476.74
639.828	1449.4
640.181	1457.98
640.534	1477.42
640.888	1449.62
641.241	1454.82
641.594	1467.25
641.947	1475.16
642.301	1487.59
642.654	1481.49
643.007	1485.55
643.36	1450.53
643.713	1469.28
644.066	1456.4
644.419	1452.79
644.771	1448.49
645.124	1474.93
645.477	1459.34
645.83	1449.4
646.182	1472
646.535	1441.71
646.888	1468.61
647.24	1440.36
647.593	1479.23
647.945	1476.51
648.298	1443.75
648.65	1474.03
649.002	1476.51
649.355	1477.64
649.707	1479.45
650.059	1465.44
650.411	1475.38
650.763	1488.27
651.115	1527.59
651.467	1490.07
651.819	1502.5
652.171	1509.51
652.523	1518.1
652.875	1514.48
653.227	1509.73
653.578	1533.91
653.93	1545.44
654.282	1543.86
654.633	1513.35
654.985	1561.03
655.337	1556.51
655.688	1570.75
656.039	1566.23
656.391	1556.29
656.742	1580.47
657.094	1559.22
657.445	1561.94
657.796	1589.28
658.147	1593.57
658.498	1590.18
658.849	1582.05
659.2	1600.58
659.551	1607.81
659.902	1623.86
660.253	1597.19
660.604	1652.1
660.955	1626.34
661.306	1605.78
661.656	1656.62
662.007	1659.33
662.358	1641.71
662.708	1688.26
663.059	1702.5
663.409	1664.08
663.76	1700.01
664.11	1697.3
664.461	1727.58
664.811	1754.25
665.161	1739.78
665.511	1723.06
665.862	1756.73
666.212	1779.56
666.562	1769.39
666.912	1792.66
667.262	1801.03
667.612	1780.01
667.962	1816.62
668.312	1830.86
668.662	1825.66
669.011	1872.44
669.361	1844.87
669.711	1862.04
670.06	1858.2
670.41	1886.45
670.76	1888.93
671.109	1916.5
671.459	1924.86
671.808	1936.84
672.157	1962.15
672.507	1970.51
672.856	1964.64
673.205	1950.17
673.554	2016.84
673.904	2009.83
674.253	2015.94
674.602	2034.47
674.951	2066.1
675.3	2051.19
675.649	2084.41
675.998	2058.65
676.346	2071.3
676.695	2123.05
677.044	2094.35
677.393	2123.96
677.741	2156.95
678.09	2163.5
678.438	2169.15
678.787	2236.72
679.135	2209.6
679.484	2216.38
679.832	2257.96
680.181	2236.27
680.529	2245.53
680.877	2323.72
681.225	2310.17
681.573	2321.24
681.922	2314.68
682.27	2361.01
682.618	2358.07
682.966	2356.04
683.314	2398.75
683.661	2401.01
684.009	2429.03
684.357	2421.35
684.705	2463.61
685.053	2454.79
685.4	2464.51
685.748	2472.19
686.095	2519.2
686.443	2507.67
686.79	2506.54
687.138	2524.4
687.485	2596.03
687.832	2604.62
688.18	2591.29
688.527	2626.54
688.874	2654.11
689.221	2664.51
689.568	2643.94
689.915	2668.12
690.262	2713.77
690.609	2702.47
690.956	2698.86
691.303	2749.25
691.65	2753.09
691.997	2778.63
692.344	2806.88
692.69	2765.97
693.037	2812.3
693.383	2809.36
693.73	2881
694.077	2877.83
694.423	2850.04
694.769	2852.52
695.116	2881.45
695.462	2936.36
695.808	2903.37
696.155	2883.71
696.501	2956.93
696.847	2944.95
697.193	2961.9
697.539	2990.15
697.885	3014.55
698.231	3037.83
698.577	3080.09
698.923	3084.38
699.269	3086.42
699.614	3091.61
699.96	3098.39
700.306	3088.45
700.651	3101.56
700.997	3147.66
701.342	3175.68
701.688	3165.96
702.033	3186.75
702.379	3227.43
702.724	3220.2
703.069	3291.16
703.415	3224.94
703.76	3231.5
704.105	3271.04
704.45	3290.25
704.795	3295.68
705.14	3309.46
705.485	3291.16
705.83	3349.01
706.175	3347.65
706.52	3355.56
706.865	3376.35
707.209	3370.02
707.554	3409.57
707.899	3422.9
708.243	3389.23
708.588	3418.16
708.932	3440.31
709.277	3436.01
709.621	3485.28
709.966	3455.45
710.31	3486.86
710.654	3477.82
710.998	3474.43
711.342	3480.53
711.687	3502.45
712.031	3508.33
712.375	3534.77
712.719	3537.93
713.063	3542.9
713.407	3574.99
713.75	3583.35
714.094	3589.23
714.438	3614.99
714.782	3616.35
715.125	3619.06
715.469	3641.43
715.812	3643.01
716.156	3633.29
716.499	3646.63
716.843	3668.32
717.186	3672.39
717.53	3702.22
717.873	3722.11
718.216	3718.04
718.559	3725.04
718.902	3698.38
719.246	3707.64
719.589	3711.48
719.932	3734.53
720.275	3749.68
720.617	3732.95
720.96	3772.95
721.303	3753.29
721.646	3790.8
721.989	3773.18
722.331	3767.98
722.674	3776.57
723.016	3812.5
723.359	3809.11
723.701	3805.27
724.044	3795.78
724.386	3825.38
724.729	3822.44
725.071	3819.5
725.413	3833.97
725.755	3817.7
726.097	3832.39
726.439	3848.66
726.782	3847.53
727.124	3951.48
727.465	3831.71
727.807	3869.67
728.149	3873.51
728.491	3848.43
728.833	3878.71
729.175	3869.22
729.516	3873.51
729.858	3877.58
730.199	3855.89
730.541	3861.08
730.882	3898.6
731.224	3873.97
731.565	3861.99
731.906	3949.67
732.248	3903.57
732.589	3865.83
732.93	3871.48
733.271	3915.55
733.612	3938.15
733.953	3920.97
734.294	3908.09
734.635	3928.65
734.976	3919.16
735.317	3905.38
735.658	3925.49
735.999	3904.93
736.339	3908.54
736.68	3922.78
737.021	3878.03
737.361	3925.04
737.702	3904.25
738.042	3923.23
738.383	3922.33
738.723	3948.77
739.063	3905.83
739.404	3942.44
739.744	3934.08
740.084	3908.32
740.424	3932.95
740.764	3909.67
741.104	3920.29
741.444	3864.93
741.784	3905.15
742.124	3922.1
742.464	3949.67
742.804	3858.37
743.143	3890.46
743.483	3905.6
743.823	3847.07
744.162	3902.21
744.502	3855.89
744.841	3881.65
745.181	3850.24
745.52	3898.6
745.86	3927.07
746.199	3872.61
746.538	3870.8
746.877	3911.93
747.216	3860.86
747.556	3856.79
747.895	3887.3
748.234	3845.72
748.573	3883.91
748.911	3810.24
749.25	3845.72
749.589	3827.19
749.928	3847.75
750.267	3856.79
750.605	3801.88
750.944	3808.88
751.283	3808.2
751.621	3820.86
751.96	3805.95
752.298	3812.95
752.636	3811.82
752.975	3789.45
753.313	3737.47
753.651	3789
753.989	3780.41
754.327	3747.42
754.666	3750.81
755.004	3767.98
755.342	3765.49
755.679	3737.92
756.017	3737.25
756.355	3749.68
756.693	3729.56
757.031	3720.75
757.368	3735.44
757.706	3684.59
758.044	3701.09
758.381	3724.14
758.719	3648.89
759.056	3684.82
759.394	3685.95
759.731	3627.64
760.068	3659.51
760.405	3654.31
760.743	3632.84
761.08	3624.48
761.417	3615.22
761.754	3585.84
762.091	3605.5
762.428	3620.87
762.765	3569.57
763.102	3586.52
763.438	3537.48
763.775	3558.27
764.112	3541.32
764.449	3534.99
764.785	3539.51
765.122	3500.19
765.458	3508.33
765.795	3493.18
766.131	3540.19
766.467	3477.82
766.804	3484.37
767.14	3483.24
767.476	3482.79
767.812	3419.97
768.148	3495.67
768.485	3424.71
768.821	3412.96
769.157	3467.87
769.492	3382.45
769.828	3419.74
770.164	3377.48
770.5	3387.43
770.836	3372.74
771.171	3390.14
771.507	3361.21
771.842	3341.1
772.178	3346.07
772.513	3308.33
772.849	3305.17
773.184	3311.72
773.519	3279.63
773.855	3288.67
774.19	3300.87
774.525	3243.7
774.86	3269.01
775.195	3207.77
775.53	3276.92
775.865	3243.93
776.2	3200.99
776.535	3231.27
776.87	3205.51
777.205	3170.48
777.539	3166.41
777.874	3145.17
778.209	3147.43
778.543	3156.47
778.878	3124.83
779.212	3148.79
779.547	3116.47
779.881	3135.23
780.215	3085.29
780.55	3109.47
780.884	3057.72
781.218	3075.79
781.552	3099.97
781.886	3073.54
782.22	3044.61
782.554	3042.58
782.888	3010.71
783.222	3022.91
783.556	2996.93
783.889	2986.08
784.223	2959.41
784.557	2958.28
784.89	2987.21
785.224	2946.53
785.557	2987.89
785.891	2915.57
786.224	2949.92
786.558	2923.71
786.891	2891.39
787.224	2919.64
787.557	2882.81
787.891	2909.92
788.224	2900.88
788.557	2865.4
788.89	2870.83
789.223	2883.03
789.556	2855.91
789.888	2903.82
790.221	2798.51
790.554	2828.34
790.887	2802.58
791.219	2829.47
791.552	2783.37
791.884	2808.23
792.217	2809.59
792.549	2802.36
792.882	2744.05
793.214	2770.27
793.546	2764.84
793.879	2756.03
794.211	2678.97
794.543	2724.39
794.875	2702.47
795.207	2693.21
795.539	2748.12
795.871	2721
796.203	2664.51
796.535	2654.56
796.867	2669.7
797.198	2681.91
797.53	2643.49
797.862	2646.65
798.193	2674.22
798.525	2635.13
798.856	2627.45
799.188	2597.62
799.519	2608.24
799.85	2587.45
800.182	2635.81
800.513	2579.31
800.844	2583.38
801.175	2646.43
801.506	2584.28
801.837	2573.66
802.168	2568.69
802.499	2543.38
802.83	2534.34
803.161	2538.63
803.491	2550.16
803.822	2507.9
804.153	2532.98
804.483	2479.2
804.814	2490.95
805.145	2477.17
805.475	2533.21
805.805	2470.16
806.136	2510.84
806.466	2479.2
806.796	2466.09
807.126	2483.27
807.457	2459.31
807.787	2463.16
808.117	2458.64
808.447	2433.55
808.777	2475.81
809.107	2429.03
809.436	2427.45
809.766	2428.58
810.096	2414.34
810.426	2399.2
810.755	2436.49
811.085	2441.24
811.414	2418.19
811.744	2364.63
812.073	2420.44
812.403	2375.25
812.732	2358.07
813.061	2355.59
813.39	2342.25
813.719	2396.49
814.049	2387.68
814.378	2347.45
814.707	2347
815.036	2307
815.365	2341.35
815.693	2333.44
816.022	2325.31
816.351	2311.07
816.68	2291.63
817.008	2338.64
817.337	2302.48
817.665	2308.36
817.994	2300.67
818.322	2306.55
818.651	2274.23
818.979	2304.97
819.307	2299.54
819.636	2283.73
819.964	2250.51
820.292	2285.76
820.62	2274.69
820.948	2257.51
821.276	2257.96
821.604	2268.13
821.932	2271.3
822.259	2275.82
822.587	2261.35
822.915	2276.04
823.243	2274.46
823.57	2269.26
823.898	2265.42
824.225	2273.1
824.553	2258.42
824.88	2265.19
825.207	2229.49
825.535	2258.42
825.862	2263.61
826.189	2213.9
826.516	2283.5
826.843	2272.88
827.17	2271.75
827.497	2254.12
827.824	2247.57
828.151	2244.18
828.478	2270.39
828.805	2270.84
829.131	2235.59
829.458	2254.57
829.785	2214.12
830.111	2240.56
830.438	2270.62
830.764	2250.51
831.09	2266.78
831.417	2239.88
831.743	2269.71
832.069	2242.37
832.395	2231.98
832.722	2242.14
833.048	2206.67
833.374	2235.59
833.7	2259.09
834.026	2248.25
834.351	2241.24
834.677	2238.53
835.003	2207.34
835.329	2231.75
835.654	2234.01
835.98	2219.32
836.306	2235.82
836.631	2183.39
836.956	2199.43
837.282	2241.69
837.607	2193.56
837.932	2180
838.258	2206.89
838.583	2186.1
838.908	2161.92
839.233	2200.56
839.558	2175.48
839.883	2180.23
840.208	2170.73
840.533	2179.77
840.858	2184.07
841.182	2159.89
841.507	2186.78
841.832	2162.82
842.156	2151.53
842.481	2137.74
842.805	2170.28
843.13	2169.6
843.454	2181.58
843.778	2124.63
844.103	2138.64
844.427	2135.48
844.751	2157.4
845.075	2118.76
845.399	2115.59
845.723	2104.07
846.047	2124.18
846.371	2078.53
846.695	2085.99
847.019	2113.56
847.343	2079.89
847.666	2054.35
847.99	2045.31
848.313	2064.52
848.637	2059.78
848.96	2049.16
849.284	2031.75
849.607	2025.43
849.931	2023.17
850.254	2001.7
850.577	1974.13
850.9	2003.96
851.223	2006.44
851.546	1995.82
851.869	1976.61
852.192	1994.92
852.515	1982.26
852.838	1981.36
853.161	1943.4
853.483	1965.54
853.806	1930.29
854.129	1930.06
854.451	1942.49
854.774	1952.89
855.096	1957.86
855.419	1931.64
855.741	1924.41
856.063	1918.76
856.385	1904.3
856.708	1895.49
857.03	1877.18
857.352	1898.88
857.674	1900.68
857.996	1881.7
858.318	1886.67
858.64	1882.38
858.961	1864.08
859.283	1878.09
859.605	1852.1
859.926	1877.63
860.248	1860.23
860.57	1864.3
860.891	1852.1
861.212	1886.22
861.534	1821.82
861.855	1835.38
862.176	1864.98
862.498	1849.84
862.819	1840.35
863.14	1803.06
863.461	1827.01
863.782	1836.73
864.103	1838.09
864.424	1842.61
864.745	1779.11
865.065	1824.53
865.386	1800.57
865.707	1817.52
866.027	1795.15
866.348	1815.94
866.668	1800.12
866.989	1809.16
867.309	1773.23
867.63	1763.96
867.95	1762.84
868.27	1780.46
868.59	1787.02
868.91	1783.4
869.23	1786.56
869.55	1775.72
869.87	1764.42
870.19	1781.59
870.51	1757.86
870.83	1766.68
871.15	1754.25
871.469	1779.11
871.789	1765.09
872.109	1735.04
872.428	1740.46
872.748	1755.83
873.067	1766.22
873.386	1759.9
873.706	1723.51
874.025	1751.76
874.344	1733.46
874.663	1748.15
874.982	1743.4
875.301	1738.2
875.62	1718.77
875.939	1703.18
876.258	1710.86
876.577	1733.23
876.896	1735.49
877.214	1702.95
877.533	1707.24
877.852	1706.57
878.17	1715.83
878.489	1707.02
878.807	1707.24
879.125	1709.5
879.444	1714.47
879.762	1695.49
880.08	1709.73
880.398	1683.52
880.716	1719.45
881.034	1690.75
881.352	1686.9
881.67	1714.02
881.988	1690.97
882.306	1674.25
882.624	1646.91
882.941	1683.97
883.259	1662.5
883.577	1658.2
883.894	1657.98
884.212	1673.8
884.529	1657.08
884.846	1674.93
885.164	1646.23
885.481	1638.54
885.798	1665.66
886.115	1639.67
886.432	1622.27
886.75	1648.71
887.067	1649.39
887.383	1635.38
887.7	1611.65
888.017	1631.54
888.334	1652.1
888.651	1627.02
888.967	1645.78
889.284	1602.61
889.6	1613.23
889.917	1611.43
890.233	1600.81
890.55	1576.85
890.866	1620.47
891.182	1592.22
891.498	1590.64
891.815	1594.25
892.131	1559.22
892.447	1559.68
892.763	1589.73
893.079	1557.64
893.395	1578.21
893.71	1568.94
894.026	1532.33
894.342	1537.08
894.657	1502.73
894.973	1553.12
895.289	1580.01
895.604	1521.71
895.92	1543.18
896.235	1515.16
896.55	1558.09
896.865	1536.17
897.181	1532.11
897.496	1538.66
897.811	1519.45
898.126	1483.75
898.441	1493.01
898.756	1481.94
899.071	1495.5
899.386	1475.38
899.7	1464.31
900.015	1487.59
900.33	1451.66
900.644	1473.35
900.959	1467.02
901.273	1457.08
901.588	1465.89
901.902	1434.03
902.216	1442.62
902.531	1452.56
902.845	1449.4
903.159	1413.92
903.473	1458.21
903.787	1400.81
904.101	1425.22
904.415	1444.88
904.729	1431.32
905.042	1410.98
905.356	1390.19
905.67	1405.1
905.984	1426.35
906.297	1401.49
906.611	1405.56
906.924	1396.29
907.237	1397.65
907.551	1394.71
907.864	1377.76
908.177	1381.15
908.491	1372.34
908.804	1377.08
909.117	1343.19
909.43	1356.52
909.743	1343.19
910.056	1352
910.368	1374.14
910.681	1349.74
910.994	1368.04
911.307	1306.35
911.619	1320.36
911.932	1347.93
912.244	1296.18
912.557	1316.52
912.869	1309.74
913.181	1300.7
913.494	1308.38
913.806	1273.36
914.118	1296.86
914.43	1279.91
914.742	1298.44
915.054	1300.93
915.366	1293.24
915.678	1295.5
915.99	1267.25
916.302	1262.28
916.613	1255.96
916.925	1265.22
917.236	1271.77
917.548	1267.48
917.859	1215.5
918.171	1227.93
918.482	1205.34
918.794	1233.13
919.105	1230.87
919.416	1216.41
919.727	1229.52
920.038	1204.43
920.349	1204.43
920.66	1182.51
920.971	1215.5
921.282	1217.99
921.593	1203.75
921.903	1174.6
922.214	1192.45
922.525	1188.39
922.835	1211.44
923.146	1168.5
923.456	1190.65
923.767	1140.03
924.077	1161.49
924.387	1165.79
924.697	1152
925.008	1170.08
925.318	1107.49
925.628	1171.89
925.938	1147.26
926.248	1128.73
926.558	1143.87
926.867	1147.26
927.177	1112.91
927.487	1116.75
927.796	1110.65
928.106	1103.19
928.416	1116.75
928.725	1124.21
929.034	1122.85
929.344	1091.44
929.653	1099.8
929.962	1093.25
930.271	1099.12
930.581	1094.15
930.89	1098.9
931.199	1092.34
931.508	1104.32
931.817	1072.01
932.125	1073.36
932.434	1053.48
932.743	1096.19
933.051	1075.17
933.36	1061.16
933.669	1062.06
933.977	1048.05
934.286	1049.41
934.594	1091.44
934.902	1038.33
935.21	1038.11
935.519	1040.82
935.827	1044.21
936.135	1060.71
936.443	1039.92
936.751	1048.73
937.059	1024.55
937.367	1034.72
937.674	1025.68
937.982	1007.37
938.29	1008.05
938.597	1026.13
938.905	1005.57
939.213	1007.15
939.52	1012.12
939.827	1020.48
940.135	1000.14
940.442	1007.15
940.749	1005.57
941.056	983.87
941.363	981.61
941.67	1023.42
941.977	980.26
942.284	994.27
942.591	967.6
942.898	958.56
943.205	963.99
943.511	963.08
943.818	971.22
944.125	964.21
944.431	943.65
944.738	969.86
945.044	954.95
945.35	958.56
945.657	952.69
945.963	930.09
946.269	925.12
946.575	936.87
946.881	939.35
947.187	950.88
947.493	912.91
947.799	929.18
948.105	910.88
948.41	913.59
948.716	911.56
949.022	920.15
949.327	911.78
949.633	906.13
949.938	888.06
950.244	893.93
950.549	879.02
950.854	890.09
951.16	885.8
951.465	888.96
951.77	865.68
952.075	874.04
952.38	876.3
952.685	896.19
952.99	876.3
953.294	888.06
953.599	894.16
953.904	876.76
954.209	888.51
954.513	852.58
954.818	873.37
955.122	862.97
955.426	877.21
955.731	850.77
956.035	865.01
956.339	845.57
956.643	836.98
956.948	828.62
957.252	842.41
957.556	818.23
957.86	833.82
958.163	840.15
958.467	835.63
958.771	835.18
959.075	832.92
959.378	834.95
959.682	803.99
959.985	842.86
960.289	819.58
960.592	793.14
960.896	813.93
961.199	814.39
961.502	792.47
961.805	807.83
962.108	792.47
962.411	816.19
962.714	821.84
963.017	816.19
963.32	811.45
963.623	791.56
963.926	791.34
964.228	759.02
964.531	773.48
964.833	764.22
965.136	786.14
965.438	780.04
965.741	780.49
966.043	762.64
966.345	770.54
966.648	759.7
966.95	772.35
967.252	771.45
967.554	779.58
967.856	771.22
968.158	763.54
968.46	764.9
968.761	732.35
969.063	775.29
969.365	741.17
969.666	747.72
969.968	735.97
970.269	752.01
970.571	750.66
970.872	753.82
971.174	728.96
971.475	728.51
971.776	736.2
972.077	739.13
972.378	715.86
972.679	747.95
972.98	731.68
973.281	722.64
973.582	747.72
973.883	722.64
974.183	729.42
974.484	699.36
974.785	709.3
975.085	717.44
975.386	700.49
975.686	700.49
975.986	709.76
976.287	702.75
976.587	712.24
976.887	695.52
977.187	696.2
977.487	670.43
977.787	691.45
978.087	709.98
978.387	700.49
978.687	684.9
978.987	676.08
979.286	681.06
979.586	691.68
979.885	700.04
980.185	687.16
980.484	682.41
980.784	669.76
981.083	676.08
981.382	673.15
981.682	662.75
981.981	670.89
982.28	665.01
982.579	658.91
982.878	663.88
983.177	676.54
983.475	655.07
983.774	650.55
984.073	668.17
984.372	653.94
984.67	657.33
984.969	640.6
985.267	664.56
985.566	657.55
985.864	643.54
986.162	638.57
986.461	682.86
986.759	634.73
987.057	638.8
987.355	640.38
987.653	633.37
987.951	646.03
988.249	646.48
988.547	623.88
988.844	619.14
989.142	623.43
989.44	636.08
989.737	631.57
990.035	630.66
990.332	635.18
990.63	625.24
990.927	606.71
991.224	632.7
991.521	609.64
991.819	596.31
992.116	612.13
992.413	624.33
992.71	623.43
993.006	605.13
993.303	633.37
993.6	620.27
993.897	608.29
994.193	592.92
994.49	592.47
994.787	614.84
995.083	597.89
995.379	592.24
995.676	606.03
995.972	620.49
996.268	583.21
996.565	588.85
996.861	577.56
997.157	607.84
997.453	578.91
997.749	590.89
998.044	585.01
998.34	604.22
998.636	556.54
998.932	590.44
999.227	585.24
999.523	593.15
999.818	558.57
1000.114	559.02
1000.409	569.87
1000.704	581.85
1001	569.65
1001.295	563.32
1001.59	586.59
1001.885	583.66
1002.18	571
1002.475	561.28
1002.77	559.02
1003.065	535.52
1003.359	560.83
1003.654	576.43
1003.949	544.11
1004.243	556.54
1004.538	561.06
1004.832	549.08
1005.127	554.51
1005.421	533.26
1005.715	540.95
1006.009	546.82
1006.304	549.31
1006.598	520.61
1006.892	549.31
1007.186	524.9
1007.48	541.62
1007.773	541.62
1008.067	527.16
1008.361	536.43
1008.655	530.1
1008.948	528.74
1009.242	540.72
1009.535	543.88
1009.829	539.14
1010.122	528.52
1010.415	543.21
1010.708	527.16
1011.001	496.2
1011.295	512.47
1011.588	525.35
1011.881	515.41
1012.173	512.02
1012.466	521.06
1012.759	509.08
1013.052	514.73
1013.344	497.33
1013.637	498.91
1013.93	504.56
1014.222	488.97
1014.514	493.94
1014.807	500.95
1015.099	503.66
1015.391	502.76
1015.683	502.76
1015.976	500.95
1016.268	488.07
1016.56	502.98
1016.851	491
1017.143	509.99
1017.435	500.5
1017.727	487.61
1018.018	484
1018.31	468.86
1018.602	505.24
1018.893	482.87
1019.185	490.33
1019.476	502.08
1019.767	482.87
1020.058	486.48
1020.35	496.88
1020.641	486.94
1020.932	478.57
1021.223	474.96
1021.514	476.99
1021.804	461.63
1022.095	460.95
1022.386	455.07
1022.677	453.04
1022.967	435.86
1023.258	473.15
1023.548	454.39
1023.839	462.53
1024.129	448.52
1024.419	461.63
1024.709	432.47
1025	467.28
1025.29	449.88
1025.58	463.89
1025.87	442.87
1026.16	438.8
1026.449	462.98
1026.739	446.26
1027.029	442.42
1027.319	445.81
1027.608	445.36
1027.898	440.16
1028.187	446.26
1028.477	423.44
1028.766	440.84
1029.055	424.79
1029.344	451.68
1029.634	426.6
1029.923	430.67
1030.212	432.93
1030.501	448.07
1030.79	439.71
1031.078	415.98
1031.367	424.57
1031.656	427.5
1031.945	402.87
1032.233	403.1
1032.522	423.66
1032.81	429.76
1033.099	407.84
1033.387	431.12
1033.675	427.95
1033.963	422.08
1034.251	416.2
1034.54	403.1
1034.828	420.95
1035.116	385.7
1035.403	415.07
1035.691	396.09
1035.979	417.33
1036.267	415.75
1036.554	408.75
1036.842	401.06
1037.129	389.09
1037.417	407.39
1037.704	411.68
1037.992	400.38
1038.279	414.4
1038.566	439.03
1038.853	439.03
1039.14	439.03
