Data from carpet_green_FLMS001491_00095.txt Node
Date: Wed Feb 08 10:36:07 GMT 2017
User: dcchb
Spectrometer: FLMS00149
Trigger mode: 0
Integration Time (sec): 2.000000E-2
Scans to average: 10
Electric dark correction enabled: true
Nonlinearity correction enabled: false
Boxcar width: 0
XAxis mode: Wavelengths
Number of Pixels in Spectrum: 2048
>>>>>Begin Spectral Data<<<<<
341.393	-14.73
341.776	-14.73
342.16	-14.73
342.543	-79.81
342.927	-71.9
343.31	-64.45
343.693	-64.22
344.077	-77.1
344.46	-66.93
344.843	-36.2
345.226	-65.8
345.61	-35.52
345.993	-18.35
346.376	-4.11
346.759	1.99
347.142	33.18
347.525	54.19
347.908	55.55
348.291	66.85
348.674	104.81
349.057	116.11
349.44	108.2
349.823	122.21
350.206	150.01
350.588	185.49
350.971	207.86
351.354	196.56
351.737	195.88
352.119	208.09
352.502	234.75
352.884	251.48
353.267	236.79
353.65	262.1
354.032	288.99
354.414	272.72
354.797	295.77
355.179	288.31
355.562	288.76
355.944	303.23
356.326	315.66
356.709	319.72
357.091	315.88
357.473	313.62
357.855	320.18
358.238	304.81
358.62	317.69
359.002	299.16
359.384	306.16
359.766	294.64
360.148	311.81
360.53	308.42
360.912	308.88
361.294	309.55
361.676	306.16
362.057	306.62
362.439	309.1
362.821	293.06
363.203	301.64
363.584	294.41
363.966	285.83
364.348	290.8
364.729	284.92
365.111	281.76
365.493	290.12
365.874	280.85
366.256	285.15
366.637	291.7
367.019	275.66
367.4	285.83
367.781	290.12
368.163	290.57
368.544	286.5
368.925	284.24
369.306	288.09
369.688	283.34
370.069	277.46
370.45	290.12
370.831	288.76
371.212	282.44
371.593	285.6
371.974	262.32
372.355	266.17
372.736	285.15
373.117	274.75
373.498	280.18
373.879	297.12
374.26	277.92
374.641	287.63
375.021	278.14
375.402	270.46
375.783	299.38
376.163	260.52
376.544	284.7
376.925	307.07
377.305	262.1
377.686	298.03
378.066	296.9
378.447	273.4
378.827	291.7
379.208	294.64
379.588	305.49
379.968	299.61
380.349	306.16
380.729	314.98
381.109	289.22
381.489	293.51
381.87	286.96
382.25	298.03
382.63	296
383.01	298.03
383.39	328.99
383.77	293.06
384.15	307.75
384.53	289.22
384.91	306.16
385.29	303.68
385.67	310.68
386.049	293.06
386.429	303
386.809	296
387.189	315.88
387.568	306.39
387.948	295.54
388.328	293.06
388.707	300.29
389.087	300.06
389.466	310.01
389.846	296
390.225	298.25
390.605	331.02
390.984	300.74
391.363	286.73
391.743	302.1
392.122	305.26
392.501	306.16
392.881	305.03
393.26	316.33
393.639	300.06
394.018	294.41
394.397	312.27
394.776	322.89
395.155	309.78
395.534	316.11
395.913	309.33
396.292	316.79
396.671	321.98
397.05	289.44
397.429	321.31
397.808	316.11
398.186	311.14
398.565	305.94
398.944	299.38
399.323	308.88
399.701	323.79
400.08	317.24
400.458	326.73
400.837	315.43
401.215	312.94
401.594	309.78
401.972	315.2
402.351	307.97
402.729	318.59
403.107	322.44
403.486	313.17
403.864	313.85
404.242	324.02
404.62	326.05
404.999	331.25
405.377	322.66
405.755	315.88
406.133	322.66
406.511	322.66
406.889	330.34
407.267	338.48
407.645	312.27
408.023	329.67
408.401	337.35
408.779	308.88
409.156	328.76
409.534	328.76
409.912	324.69
410.29	330.12
410.667	342.1
411.045	355.43
411.422	340.29
411.8	323.34
412.178	338.25
412.555	340.97
412.933	350.46
413.31	334.19
413.687	364.24
414.065	341.87
414.442	341.19
414.819	339.38
415.197	326.28
415.574	349.33
415.951	357.91
416.328	349.1
416.705	344.58
417.082	365.37
417.46	351.59
417.837	344.81
418.214	334.41
418.591	365.15
418.967	346.84
419.344	359.27
419.721	350
420.098	345.49
420.475	333.06
420.852	360.85
421.228	359.27
421.605	361.08
421.982	358.59
422.358	366.95
422.735	371.25
423.111	360.17
423.488	330.57
423.864	349.78
424.241	372.38
424.617	374.86
424.994	366.28
425.37	341.42
425.746	354.98
426.123	360.85
426.499	365.37
426.875	388.65
427.251	369.44
427.627	366.05
428.003	379.38
428.379	381.87
428.756	389.55
429.132	375.99
429.507	392.94
429.883	373.28
430.259	390.46
430.635	369.67
431.011	398.82
431.387	379.83
431.763	377.12
432.138	368.54
432.514	380.51
432.89	390.91
433.265	394.75
433.641	389.78
434.016	394.07
434.392	403.11
434.767	414.86
435.143	402.43
435.518	405.82
435.894	410.12
436.269	392.94
436.644	412.38
437.02	400.85
437.395	401.53
437.77	418.25
438.145	432.04
438.52	415.77
438.895	405.14
439.271	439.49
439.646	426.39
440.021	414.64
440.395	421.64
440.77	422.77
441.145	425.94
441.52	429.78
441.895	442.21
442.27	438.82
442.645	467.52
443.019	450.79
443.394	478.36
443.769	449.21
444.143	439.04
444.518	439.72
444.892	446.73
445.267	453.51
445.641	438.36
446.016	458.25
446.39	459.15
446.764	436.33
447.139	475.43
447.513	466.61
447.887	452.6
448.262	474.52
448.636	468.42
449.01	447.4
449.384	470.45
449.758	466.39
450.132	472.26
450.506	479.72
450.88	483.79
451.254	463.67
451.628	486.05
452.002	484.24
452.376	479.04
452.75	481.98
453.123	487.4
453.497	486.72
453.871	481.75
454.244	504.13
454.618	495.09
454.992	519.04
455.365	512.03
455.739	511.36
456.112	515.2
456.486	533.73
456.859	515.2
457.232	532.6
457.606	503.9
457.979	530.79
458.352	503.9
458.725	542.09
459.099	532.15
459.472	550.9
459.845	531.47
460.218	550.9
460.591	571.24
460.964	533.73
461.337	557.68
461.71	571.24
462.083	571.02
462.456	572.15
462.829	588.19
463.201	613.5
463.574	595.42
463.947	572.15
464.32	592.71
464.692	609.66
465.065	596.78
465.438	605.82
465.81	615.99
466.183	616.66
466.555	613.05
466.928	633.39
467.3	619.6
467.672	628.19
468.045	646.95
468.417	632.03
468.789	640.84
469.161	653.95
469.534	642.65
469.906	675.65
470.278	666.38
470.65	675.19
471.022	703.44
471.394	676.1
471.766	712.48
472.138	693.05
472.51	715.42
472.882	683.1
473.253	717.9
473.625	742.09
473.997	739.37
474.369	742.09
474.74	747.51
475.112	749.09
475.484	767.62
475.855	778.02
476.227	796.77
476.598	786.6
476.97	808.52
477.341	820.05
477.713	810.11
478.084	842.42
478.455	831.35
478.827	846.49
479.198	867.96
479.569	884.68
479.94	897.34
480.311	885.36
480.682	919.26
481.053	912.48
481.424	935.07
481.795	949.09
482.166	936.2
482.537	964.23
482.908	971.68
483.279	1002.64
483.65	999.03
484.021	1002.64
484.391	1018.91
484.762	1025.02
485.133	1043.77
485.503	1054.17
485.874	1062.98
486.244	1070.21
486.615	1061.62
486.985	1094.84
487.356	1135.07
487.726	1135.75
488.097	1157.22
488.467	1146.82
488.837	1161.28
489.207	1173.03
489.578	1186.37
489.948	1178.23
490.318	1217.33
490.688	1240.38
491.058	1230.21
491.428	1260.49
491.798	1249.19
492.168	1278.34
492.538	1301.17
492.908	1306.36
493.278	1307.49
493.648	1312.47
494.017	1331.45
494.387	1335.74
494.757	1314.95
495.126	1367.83
495.496	1372.8
495.866	1378.9
496.235	1387.04
496.605	1378.9
496.974	1405.34
497.344	1405.12
497.713	1422.97
498.082	1428.39
498.452	1475.17
498.821	1448.73
499.19	1444.89
499.559	1448.28
499.928	1447.83
500.298	1487.15
500.667	1493.7
501.036	1506.13
501.405	1510.2
501.774	1523.08
502.143	1518.79
502.512	1545
502.88	1521.95
503.249	1536.41
503.618	1556.98
503.987	1543.65
504.356	1565.34
504.724	1591.1
505.093	1584.32
505.462	1565.57
505.83	1606.02
506.199	1611.67
506.567	1625.23
506.936	1589.52
507.304	1630.88
507.672	1642.17
508.041	1648.28
508.409	1655.73
508.777	1657.54
509.145	1640.59
509.514	1653.25
509.882	1665
510.25	1683.53
510.618	1697.54
510.986	1695.96
511.354	1711.1
511.722	1736.64
512.09	1732.79
512.458	1740.02
512.826	1730.31
513.193	1759.46
513.561	1732.57
513.929	1752.23
514.297	1790.42
514.664	1769.4
515.032	1801.27
515.4	1777.31
515.767	1805.33
516.135	1829.97
516.502	1779.35
516.869	1802.85
517.237	1833.58
517.604	1821.6
517.972	1841.49
518.339	1841.27
518.706	1878.78
519.073	1878.55
519.44	1889.17
519.808	1880.81
520.175	1910.19
520.542	1914.94
520.909	1895.95
521.276	1935.27
521.643	1939.12
522.009	1928.27
522.376	1981.6
522.743	1954.93
523.11	1982.96
523.477	1950.64
523.843	1985.22
524.21	2000.58
524.577	1997.87
524.943	2006.46
525.31	2034.71
525.676	2054.37
526.043	2030.41
526.409	2045.1
526.776	2075.61
527.142	2061.37
527.508	2077.19
527.874	2079.68
528.241	2075.84
528.607	2100.24
528.973	2126.68
529.339	2116.74
529.705	2097.3
530.071	2118.09
530.437	2124.87
530.803	2128.72
531.169	2165.32
531.535	2117.64
531.901	2142.73
532.267	2135.04
532.632	2148.38
532.998	2144.53
533.364	2170.52
533.73	2182.95
534.095	2208.26
534.461	2171.2
534.826	2177.53
535.192	2193.12
535.557	2226.79
535.923	2182.05
536.288	2190.63
536.653	2227.7
537.019	2196.06
537.384	2177.75
537.749	2207.58
538.114	2208.26
538.479	2229.05
538.845	2224.76
539.21	2200.35
539.575	2243.06
539.94	2273.8
540.305	2234.93
540.67	2221.37
541.034	2246.68
541.399	2242.84
541.764	2236.06
542.129	2259.33
542.494	2215.72
542.858	2251.2
543.223	2239.67
543.587	2238.99
543.952	2249.84
544.316	2276.73
544.681	2234.02
545.045	2248.03
545.41	2259.11
545.774	2290.29
546.138	2267.02
546.503	2243.74
546.867	2242.61
547.231	2258.66
547.595	2294.13
547.959	2275.83
548.324	2278.09
548.688	2271.08
549.052	2309.05
549.416	2278.09
549.779	2281.25
550.143	2317.18
550.507	2326.68
550.871	2323.29
551.235	2299.33
551.599	2312.44
551.962	2331.65
552.326	2328.48
552.689	2333
553.053	2319.44
553.417	2325.77
553.78	2364.87
554.143	2336.17
554.507	2330.29
554.87	2368.48
555.234	2350.86
555.597	2333.23
555.96	2332.78
556.323	2349.73
556.686	2356.96
557.05	2367.58
557.413	2370.06
557.776	2393.34
558.139	2384.08
558.502	2396.96
558.865	2370.52
559.228	2377.97
559.59	2383.85
559.953	2413.23
560.316	2393.34
560.679	2397.86
561.041	2419.33
561.404	2410.29
561.767	2441.25
562.129	2444.19
562.492	2445.09
562.854	2440.57
563.217	2423.62
563.579	2451.64
563.941	2481.25
564.304	2484.19
564.666	2466.56
565.028	2469.95
565.39	2478.54
565.753	2488.25
566.115	2497.29
566.477	2437.63
566.839	2514.47
567.201	2461.14
567.563	2499.33
567.925	2553.79
568.287	2532.32
568.648	2516.5
569.01	2572.77
569.372	2542.94
569.734	2529.61
570.095	2560.34
570.457	2566.22
570.819	2555.14
571.18	2593.56
571.542	2572.77
571.903	2526.9
572.265	2561.7
572.626	2545.43
572.987	2565.77
573.349	2538.87
573.71	2590.62
574.071	2577.74
574.432	2556.95
574.794	2569.83
575.155	2557.63
575.516	2536.16
575.877	2567.57
576.238	2557.86
576.599	2569.83
576.96	2561.7
577.32	2535.26
577.681	2571.64
578.042	2581.36
578.403	2580.91
578.763	2562.83
579.124	2575.03
579.485	2560.12
579.845	2543.39
580.206	2499.1
580.566	2550.63
580.927	2543.62
581.287	2561.92
581.648	2536.39
582.008	2559.21
582.368	2538.65
582.728	2527.8
583.089	2545.65
583.449	2553.56
583.809	2544.98
584.169	2535.26
584.529	2481.47
584.889	2535.94
585.249	2516.95
585.609	2503.85
585.969	2515.37
586.329	2506.56
586.688	2496.84
587.048	2483.51
587.408	2518.31
587.768	2530.06
588.127	2495.26
588.487	2503.85
588.846	2505.43
589.206	2487.12
589.565	2473.79
589.925	2484.64
590.284	2493.68
590.643	2517.41
591.003	2512.43
591.362	2507.46
591.721	2486.22
592.08	2505.65
592.44	2488.25
592.799	2513.79
593.158	2477.41
593.517	2481.93
593.876	2481.93
594.235	2488.48
594.593	2499.1
594.952	2485.09
595.311	2493
595.67	2502.72
596.029	2502.49
596.387	2508.37
596.746	2464.3
597.104	2490.74
597.463	2473.34
597.822	2490.29
598.18	2478.31
598.538	2462.94
598.897	2522.6
599.255	2473.34
599.613	2530.06
599.972	2469.5
600.33	2510.85
600.688	2507.01
601.046	2516.28
601.404	2522.38
601.762	2510.4
602.12	2538.87
602.478	2505.2
602.836	2503.85
603.194	2509.27
603.552	2502.49
603.91	2495.94
604.268	2525.09
604.625	2491.19
604.983	2508.82
605.341	2556.05
605.698	2542.94
606.056	2525.77
606.413	2529.61
606.771	2533.9
607.128	2532.77
607.485	2560.12
607.843	2544.3
608.2	2544.07
608.557	2607.8
608.914	2533.9
609.272	2590.4
609.629	2559.66
609.986	2587.01
610.343	2607.35
610.7	2570.96
611.057	2561.02
611.414	2590.62
611.771	2549.72
612.127	2614.58
612.484	2582.94
612.841	2594.92
613.198	2627.91
613.554	2596.73
613.911	2606.67
614.267	2561.47
614.624	2591.98
614.98	2600.34
615.337	2623.39
615.693	2587.91
616.05	2606.44
616.406	2621.58
616.762	2619.55
617.118	2644.18
617.475	2636.95
617.831	2661.81
618.187	2659.55
618.543	2673.33
618.899	2653.67
619.255	2637.63
619.611	2663.84
619.967	2613.45
620.323	2631.75
620.678	2628.59
621.034	2649.61
621.39	2626.1
621.746	2627.23
622.101	2626.78
622.457	2609.83
622.812	2605.09
623.168	2639.89
623.523	2667.46
623.879	2659.55
624.234	2607.8
624.589	2660.23
624.945	2601.25
625.3	2654.8
625.655	2618.42
626.01	2648.93
626.365	2617.97
626.72	2586.56
627.075	2619.32
627.43	2596.95
627.785	2601.92
628.14	2618.19
628.495	2616.84
628.85	2567.57
629.205	2599.44
629.559	2615.93
629.914	2585.88
630.269	2600.57
630.623	2606.44
630.978	2594.24
631.332	2569.16
631.687	2634.69
632.041	2613.22
632.396	2613.22
632.75	2608.25
633.104	2577.07
633.459	2606.67
633.813	2597.63
634.167	2596.73
634.521	2575.48
634.875	2601.25
635.229	2553.34
635.583	2555.37
635.937	2547.01
636.291	2579.78
636.645	2546.33
636.999	2559.21
637.352	2582.04
637.706	2566.9
638.06	2605.31
638.413	2545.88
638.767	2582.26
639.121	2606.22
639.474	2578.19
639.828	2569.38
640.181	2579.1
640.534	2575.94
640.888	2572.09
641.241	2576.84
641.594	2570.96
641.947	2604.41
642.301	2556.27
642.654	2606.44
643.007	2584.75
643.36	2582.71
643.713	2545.88
644.066	2575.03
644.419	2595.14
644.771	2579.78
645.124	2547.24
645.477	2601.25
645.83	2556.27
646.182	2559.44
646.535	2564.41
646.888	2541.81
647.24	2504.52
647.593	2520.34
647.945	2545.43
648.298	2537.29
648.65	2515.15
649.002	2563.51
649.355	2592.88
649.707	2578.19
650.059	2574.58
650.411	2603.5
650.763	2634.69
651.115	2649.61
651.467	2647.57
651.819	2678.53
652.171	2703.84
652.523	2695.93
652.875	2727.34
653.227	2653.67
653.578	2725.31
653.93	2694.58
654.282	2734.57
654.633	2728.47
654.985	2711.52
655.337	2716.04
655.688	2751.07
656.039	2779.77
656.391	2770.73
656.742	2770.05
657.094	2747.46
657.445	2797.85
657.796	2805.99
658.147	2819.09
658.498	2855.02
658.849	2834.69
659.2	2862.48
659.551	2854.12
659.902	2870.39
660.253	2863.16
660.604	2869.03
660.955	2841.92
661.306	2905.64
661.656	2904.51
662.007	2932.31
662.358	2964.85
662.708	2928.92
663.059	2964.4
663.409	2936.38
663.76	2982.93
664.11	3040.78
664.461	3027.22
664.811	3023.83
665.161	3029.03
665.511	3050.05
665.862	3064.96
666.212	3109.71
666.562	3143.6
666.912	3139.31
667.262	3181.79
667.612	3178.18
667.962	3200.1
668.312	3195.35
668.662	3194.45
669.011	3274.9
669.361	3285.97
669.711	3255.01
670.06	3267.22
670.41	3315.12
670.76	3326.42
671.109	3344.5
671.459	3358.29
671.808	3378.4
672.157	3370.72
672.507	3389.92
672.856	3424.95
673.205	3460.88
673.554	3472.86
673.904	3479.41
674.253	3570.49
674.602	3519.64
674.951	3481.67
675.3	3514.22
675.649	3579.75
675.998	3590.37
676.346	3631.5
676.695	3665.17
677.044	3666.08
677.393	3688
677.741	3739.07
678.09	3709.01
678.438	3783.36
678.787	3789.24
679.135	3858.61
679.484	3801.44
679.832	3868.78
680.181	3804.6
680.529	3906.3
680.877	3862.68
681.225	3892.06
681.573	3999.17
681.922	4005.95
682.27	3977.48
682.618	4017.93
682.966	4053.86
683.314	4109.23
683.661	4104.03
684.009	4149.68
684.357	4125.5
684.705	4127.08
685.053	4113.75
685.4	4182.22
685.748	4216.34
686.095	4247.53
686.443	4235.78
686.79	4259.28
687.138	4284.14
687.485	4318.94
687.832	4324.59
688.18	4350.13
688.527	4355.32
688.874	4389.22
689.221	4391.03
689.568	4424.7
689.915	4498.37
690.262	4466.96
690.609	4502.89
690.956	4525.26
691.303	4570.01
691.65	4559.39
691.997	4551.25
692.344	4580.63
692.69	4541.99
693.037	4645.94
693.383	4603
693.73	4670.12
694.077	4683.9
694.423	4716.67
694.769	4689.1
695.116	4723
695.462	4775.65
695.808	4753.73
696.155	4828.98
696.501	4840.06
696.847	4822.2
697.193	4847.97
697.539	4900.85
697.885	4852.71
698.231	4828.31
698.577	4865.59
698.923	4916.44
699.269	4892.48
699.614	4901.3
699.96	4960.96
700.306	5021.52
700.651	4992.14
700.997	4966.38
701.342	5005.7
701.688	5053.38
702.033	5046.38
702.379	5078.69
702.724	5063.1
703.069	5087.06
703.415	5046.6
703.76	5082.54
704.105	5117.79
704.45	5153.49
704.795	5085.93
705.14	5175.64
705.485	5192.82
705.83	5191.01
706.175	5189.88
706.52	5203.89
706.865	5203.44
707.209	5194.85
707.554	5259.71
707.899	5298.58
708.243	5264.45
708.588	5310.1
708.932	5282.08
709.277	5269.2
709.621	5319.14
709.966	5310.33
710.31	5347.84
710.654	5254.96
710.998	5331.34
711.342	5325.92
711.687	5413.6
712.031	5296.77
712.375	5285.92
712.719	5368.4
713.063	5396.88
713.407	5410.66
713.75	5392.13
714.094	5428.74
714.438	5404.79
714.782	5411.34
715.125	5423.77
715.469	5451.34
715.812	5412.7
716.156	5405.24
716.499	5442.3
716.843	5445.01
717.186	5463.32
717.53	5492.02
717.873	5504.45
718.216	5481.4
718.559	5506.03
718.902	5421.96
719.246	5573.6
719.589	5525.01
719.932	5509.19
720.275	5526.59
720.617	5548.96
720.96	5511.23
721.303	5558.91
721.646	5528.17
721.989	5494.05
722.331	5555.74
722.674	5525.24
723.016	5577.66
723.359	5567.27
723.701	5606.14
724.044	5540.6
724.386	5541.73
724.729	5632.58
725.071	5579.47
725.413	5550.32
725.755	5548.29
726.097	5594.84
726.439	5564.78
726.782	5483.2
727.124	5546.48
727.465	5540.6
727.807	5556.87
728.149	5546.03
728.491	5558.46
728.833	5594.61
729.175	5591.68
729.516	5541.96
729.858	5559.13
730.199	5544.44
730.541	5587.61
730.882	5584.67
731.224	5601.62
731.565	5548.29
731.906	5609.08
732.248	5618.11
732.589	5574.05
732.93	5552.35
733.271	5545.8
733.612	5533.82
733.953	5588.96
734.294	5539.25
734.635	5529.3
734.976	5610.43
735.317	5506.71
735.658	5532.92
735.999	5544.44
736.339	5509.64
736.68	5587.16
737.021	5513.26
737.361	5555.74
737.702	5548.51
738.042	5534.28
738.383	5479.81
738.723	5549.87
739.063	5513.94
739.404	5532.47
739.744	5531.34
740.084	5510.77
740.424	5518.23
740.764	5492.24
741.104	5496.76
741.444	5507.16
741.784	5467.16
742.124	5479.14
742.464	5426.93
742.804	5487.72
743.143	5471.9
743.483	5436.65
743.823	5440.94
744.162	5435.75
744.502	5452.02
744.841	5410.44
745.181	5431
745.52	5490.66
745.86	5475.52
746.199	5419.93
746.538	5383.77
746.877	5420.61
747.216	5403.66
747.556	5434.39
747.895	5377.22
748.234	5365.47
748.573	5353.94
748.911	5365.92
749.25	5364.11
749.589	5368.86
749.928	5378.57
750.267	5408.4
750.605	5314.17
750.944	5339.25
751.283	5302.64
751.621	5320.04
751.96	5282.08
752.298	5291.8
752.636	5322.98
752.975	5275.53
753.313	5247.28
753.651	5225.36
753.989	5244.79
754.327	5223.1
754.666	5201.63
755.004	5204.34
755.342	5204.34
755.679	5195.08
756.017	5186.71
756.355	5220.16
756.693	5139.26
757.031	5187.62
757.368	5130.22
757.706	5138.81
758.044	5144.68
758.381	5152.82
758.719	5114.85
759.056	5099.94
759.394	5092.48
759.731	5017.23
760.068	5049.54
760.405	5057.23
760.743	5004.8
761.08	5049.32
761.417	5024.46
761.754	4997.57
762.091	5021.07
762.428	4960.05
762.765	4967.74
763.102	4963.22
763.438	4923.22
763.775	4922.31
764.112	4953.73
764.449	4890.68
764.785	4906.95
765.122	4856.33
765.458	4882.09
765.795	4888.42
766.131	4814.29
766.467	4857.68
766.804	4754.86
767.14	4788.08
767.476	4795.99
767.812	4793.5
768.148	4756.67
768.485	4767.97
768.821	4710.57
769.157	4671.02
769.492	4678.93
769.828	4704.24
770.164	4642.1
770.5	4647.07
770.836	4648.2
771.171	4705.14
771.507	4641.19
771.842	4610.91
772.178	4605.03
772.513	4629.21
772.849	4555.77
773.184	4544.47
773.519	4527.75
773.855	4511.93
774.19	4521.19
774.525	4522.32
774.86	4523.91
775.195	4498.14
775.53	4463.8
775.865	4422.89
776.2	4428.54
776.535	4359.39
776.87	4388.09
777.205	4351.48
777.539	4361.88
777.874	4322.78
778.209	4316.23
778.543	4325.95
778.878	4285.95
779.212	4250.02
779.547	4250.92
779.881	4306.51
780.215	4252.95
780.55	4249.34
780.884	4217.93
781.218	4214.08
781.552	4186.29
781.886	4185.61
782.22	4165.05
782.554	4097.93
782.888	4182.67
783.222	4143.8
783.556	4107.42
783.889	4091.15
784.223	4086.18
784.557	4058.83
784.89	4037.59
785.224	4046.18
785.557	4026.07
785.891	3987.42
786.224	3992.85
786.558	3953.07
786.891	3964.6
787.224	3977.93
787.557	3896.13
787.891	3972.06
788.224	3981.32
788.557	3943.81
788.89	3883.47
789.223	3948.1
789.556	3887.99
789.888	3869.01
790.221	3855
790.554	3825.85
790.887	3809.12
791.219	3798.5
791.552	3808.9
791.884	3808.45
792.217	3815.22
792.549	3756.02
792.882	3760.54
793.214	3727.32
793.546	3710.14
793.879	3712.63
794.211	3750.14
794.543	3733.64
794.875	3722.35
795.207	3713.53
795.539	3723.02
795.871	3704.04
796.203	3655
796.535	3655.23
796.867	3646.19
797.198	3625.17
797.53	3596.7
797.862	3586.98
798.193	3581.11
798.525	3599.86
798.856	3588.79
799.188	3513.31
799.519	3546.08
799.85	3535.23
800.182	3546.98
800.513	3530.94
800.844	3492.97
801.175	3528
801.506	3518.74
801.837	3544.27
802.168	3497.04
802.499	3461.11
802.83	3469.02
803.161	3447.78
803.491	3435.12
803.822	3428.57
804.153	3452.07
804.483	3391.96
804.814	3432.41
805.145	3358.51
805.475	3360.55
805.805	3352.64
806.136	3361.23
806.466	3354.9
806.796	3374.33
807.126	3331.17
807.457	3341.11
807.787	3338.4
808.117	3332.98
808.447	3296.14
808.777	3292.98
809.107	3353.77
809.436	3251.17
809.766	3290.04
810.096	3248.91
810.426	3262.7
810.755	3263.37
811.085	3247.56
811.414	3239.42
811.744	3217.27
812.073	3208.23
812.403	3227.44
812.732	3175.69
813.061	3213.66
813.39	3157.39
813.719	3138.18
814.049	3219.76
814.378	3162.13
814.707	3140.44
815.036	3126.43
815.365	3126.2
815.693	3114.23
816.022	3130.04
816.351	3079.2
816.68	3126.43
817.008	3123.27
817.337	3081.91
817.665	3099.31
817.994	3117.16
818.322	3058.41
818.651	3061.35
818.979	3057.05
819.307	3096.37
819.636	3076.26
819.964	3038.97
820.292	3051.63
820.62	3033.55
820.948	3030.84
821.276	3059.09
821.604	3036.94
821.932	3050.72
822.259	3034.68
822.587	3060.89
822.915	3044.4
823.243	3057.05
823.57	3028.13
823.898	3029.03
824.225	3036.26
824.553	3019.09
824.88	3042.59
825.207	3042.36
825.535	3012.31
825.862	3028.58
826.189	3015.02
826.516	3058.86
826.843	3077.39
827.17	3051.18
827.497	3038.97
827.824	3043.27
828.151	3058.41
828.478	3065.41
828.805	3023.83
829.131	3006.43
829.458	2998.3
829.785	3042.14
830.111	3038.07
830.438	3031.06
830.764	2974.57
831.09	3028.58
831.417	3001.91
831.743	2992.42
832.069	3056.6
832.395	3013.89
832.722	3031.29
833.048	3006.43
833.374	3006.66
833.7	2998.75
834.026	3022.7
834.351	2963.5
834.677	3031.74
835.003	3016.6
835.329	2962.14
835.654	3003.95
835.98	2961.24
836.306	3014.12
836.631	2961.91
836.956	2995.81
837.282	2951.74
837.607	2989.48
837.932	2949.26
838.258	2952.65
838.583	2937.06
838.908	2966.43
839.233	2913.33
839.558	2943.84
839.883	2930.95
840.208	2905.19
840.533	2931.41
840.858	2943.16
841.182	2927.79
841.507	2899.54
841.832	2922.82
842.156	2901.8
842.481	2931.86
842.805	2894.12
843.13	2887.79
843.454	2902.93
843.778	2847.34
844.103	2851.18
844.427	2850.96
844.751	2870.39
845.075	2852.76
845.399	2831.97
845.723	2817.06
846.047	2827
846.371	2831.07
846.695	2823.39
847.019	2780.68
847.343	2814.35
847.666	2765.76
847.99	2739.77
848.313	2774.12
848.637	2756.27
848.96	2774.57
849.284	2714.69
849.607	2751.3
849.931	2667.68
850.254	2690.51
850.577	2662.49
850.9	2661.81
851.223	2677.85
851.546	2638.98
851.869	2640.34
852.192	2627.91
852.515	2648.02
852.838	2598.76
853.161	2623.62
853.483	2605.54
853.806	2596.05
854.129	2622.04
854.451	2561.25
854.774	2545.65
855.096	2543.85
855.419	2562.6
855.741	2549.5
856.063	2562.6
856.385	2534.81
856.708	2483.51
857.03	2524.86
857.352	2500
857.674	2496.84
857.996	2470.4
858.318	2481.25
858.64	2487.58
858.961	2511.3
859.283	2467.01
859.605	2466.33
859.926	2471.76
860.248	2497.75
860.57	2418.88
860.891	2444.64
861.212	2434.47
861.534	2438.76
861.855	2420.91
862.176	2452.32
862.498	2418.43
862.819	2444.87
863.14	2478.76
863.461	2403.74
863.782	2442.38
864.103	2432.66
864.424	2411.65
864.745	2427.24
865.065	2402.38
865.386	2411.87
865.707	2401.02
866.027	2413.68
866.348	2403.28
866.668	2372.78
866.989	2387.47
867.309	2352.89
867.63	2362.38
867.95	2366.45
868.27	2362.38
868.59	2387.24
868.91	2330.97
869.23	2371.19
869.55	2343.85
869.87	2359.67
870.19	2329.61
870.51	2368.48
870.83	2302.5
871.15	2314.47
871.469	2319.22
871.789	2339.11
872.109	2335.26
872.428	2323.74
872.748	2291.42
873.067	2294.59
873.386	2317.64
873.706	2294.81
874.025	2290.52
874.344	2311.99
874.663	2319.9
874.982	2302.95
875.301	2308.6
875.62	2282.38
875.939	2251.42
876.258	2297.07
876.577	2269.73
876.896	2279.9
877.214	2294.59
877.533	2265.43
877.852	2264.98
878.17	2258.2
878.489	2215.94
878.807	2265.66
879.125	2253.91
879.444	2259.79
879.762	2229.28
880.08	2271.08
880.398	2264.53
880.716	2236.96
881.034	2234.48
881.352	2232.89
881.67	2225.66
881.988	2229.28
882.306	2197.19
882.624	2229.96
882.941	2204.65
883.259	2198.54
883.577	2181.14
883.894	2204.65
884.212	2167.81
884.529	2185.89
884.846	2179.79
885.164	2187.7
885.481	2177.3
885.798	2159.67
886.115	2122.61
886.432	2199.67
886.75	2138.43
887.067	2166.23
887.383	2142.5
887.7	2128.26
888.017	2121.03
888.334	2120.58
888.651	2118.77
888.967	2109.51
889.284	2097.08
889.6	2100.92
889.917	2108.15
890.233	2126.46
890.55	2119.68
890.866	2110.18
891.182	2088.94
891.498	2104.08
891.815	2060.92
892.131	2084.87
892.447	2102.05
892.763	2065.21
893.079	2097.98
893.395	2066.12
893.71	2046.01
894.026	2060.24
894.342	2073.8
894.657	2038.1
894.973	2059.11
895.289	2055.72
895.604	2040.13
895.92	1995.16
896.235	2001.71
896.55	1991.09
896.865	2003.52
897.181	1959.68
897.496	1971.21
897.811	1988.38
898.126	1990.41
898.441	1980.24
898.756	1983.18
899.071	1942.05
899.386	1952.67
899.7	1912.9
900.015	1904.54
900.33	1946.35
900.644	1911.09
900.959	1914.26
901.273	1914.48
901.588	1897.99
901.902	1908.83
902.216	1909.96
902.531	1906.57
902.845	1908.83
903.159	1902.05
903.473	1871.77
903.787	1883.07
904.101	1882.39
904.415	1872.9
904.729	1829.74
905.042	1823.19
905.356	1830.87
905.67	1813.02
905.984	1837.65
906.297	1819.12
906.611	1808.5
906.924	1820.02
907.237	1798.78
907.551	1801.49
907.864	1777.76
908.177	1758.33
908.491	1815.5
908.804	1783.41
909.117	1774.37
909.43	1792.45
909.743	1745.9
910.056	1753.81
910.368	1776.18
910.681	1749.06
910.994	1743.41
911.307	1722.62
911.619	1728.27
911.932	1741.38
912.244	1694.38
912.557	1701.61
912.869	1696.18
913.181	1677.65
913.494	1702.96
913.806	1688.5
914.118	1699.8
914.43	1689.63
914.742	1675.62
915.054	1658.45
915.366	1658.22
915.678	1672.91
915.99	1655.28
916.302	1665.45
916.613	1603.98
916.925	1632.23
917.236	1618.45
917.548	1620.71
917.859	1632.91
918.171	1622.74
918.482	1616.64
918.794	1596.53
919.105	1565.79
919.416	1577.77
919.727	1575.96
920.038	1580.03
920.349	1586.81
920.66	1570.99
920.971	1573.25
921.282	1597.43
921.593	1569.41
921.903	1549.07
922.214	1550.43
922.525	1524.44
922.835	1509.52
923.146	1523.99
923.456	1536.41
923.767	1509.07
924.077	1490.09
924.387	1471.11
924.697	1474.95
925.008	1476.3
925.318	1480.6
925.628	1501.61
925.938	1511.33
926.248	1471.56
926.558	1455.06
926.867	1447.38
927.177	1495.96
927.487	1458
927.796	1461.16
928.106	1427.04
928.416	1451.9
928.725	1426.59
929.034	1428.62
929.344	1435.63
929.653	1414.38
929.962	1415.74
930.271	1447.38
930.581	1416.42
930.89	1396.98
931.199	1375.06
931.508	1384.1
931.817	1392.24
932.125	1377.55
932.434	1385.23
932.743	1375.06
933.051	1377.55
933.36	1351.79
933.669	1338
933.977	1377.55
934.286	1359.7
934.594	1370.54
934.902	1347.94
935.21	1367.38
935.519	1322.63
935.827	1329.87
936.135	1335.97
936.443	1323.76
936.751	1316.76
937.059	1298.45
937.367	1325.8
937.674	1292.35
937.982	1311.56
938.29	1291
938.597	1286.03
938.905	1271.11
939.213	1296.42
939.52	1282.18
939.827	1277.66
940.135	1282.18
940.442	1268.17
940.749	1267.27
941.056	1265.24
941.363	1291.68
941.67	1244.44
941.977	1237.89
942.284	1230.21
942.591	1239.7
942.898	1229.08
943.205	1211.9
943.511	1209.87
943.818	1231.56
944.125	1204.22
944.431	1246.48
944.738	1208.51
945.044	1202.19
945.35	1199.02
945.657	1159.93
945.963	1209.87
946.269	1187.5
946.575	1192.47
946.881	1175.75
947.187	1187.72
947.493	1168.74
947.799	1170.77
948.105	1171
948.41	1168.51
948.716	1155.86
949.022	1136.65
949.327	1144.11
949.633	1154.05
949.938	1166.71
950.244	1133.49
950.549	1113.83
950.854	1139.81
951.16	1112.7
951.465	1119.02
951.77	1104.34
952.075	1113.6
952.38	1131
952.685	1095.52
952.99	1107.5
953.294	1117.22
953.599	1098.46
953.904	1095.75
954.209	1126.93
954.513	1087.39
954.818	1067.5
955.122	1096.2
955.426	1069.31
955.731	1045.81
956.035	1067.95
956.339	1083.77
956.643	1060.04
956.948	1057.78
957.252	1036.31
957.556	1069.53
957.86	1065.69
958.163	1053.26
958.467	1053.26
958.771	1051.68
959.075	1070.89
959.378	1032.92
959.682	1029.76
959.985	1035.64
960.289	1005.81
960.592	1001.06
960.896	1008.07
961.199	1003.1
961.502	1022.53
961.805	1006.48
962.108	1006.48
962.411	1018.24
962.714	1014.85
963.017	987.95
963.32	968.75
963.623	981.4
963.926	982.08
964.228	987.95
964.531	977.79
964.833	986.82
965.136	978.91
965.438	954.51
965.741	950.44
966.043	945.47
966.345	950.67
966.648	952.7
966.95	935.53
967.252	975.07
967.554	964.45
967.856	939.59
968.158	943.44
968.46	920.39
968.761	909.99
969.063	908.18
969.365	926.26
969.666	928.29
969.968	913.15
970.269	928.29
970.571	924.23
970.872	922.19
971.174	910.22
971.475	902.76
971.776	897.56
972.077	890.1
972.378	898.24
972.679	893.49
972.98	897.79
973.281	890.33
973.582	879.03
973.883	887.17
974.183	887.17
974.484	885.36
974.785	874.06
975.085	877.9
975.386	867.51
975.686	881.29
975.986	864.12
976.287	894.62
976.587	865.47
976.887	858.92
977.187	862.76
977.487	838.81
977.787	862.31
978.087	871.57
978.387	841.29
978.687	853.49
978.987	855.98
979.286	859.6
979.586	857.79
979.885	837.22
980.185	827.96
980.484	817.79
980.784	830.67
981.083	832.03
981.382	835.19
981.682	831.35
981.981	839.48
982.28	813.5
982.579	816.43
982.878	820.73
983.177	794.96
983.475	808.3
983.774	784.8
984.073	819.82
984.372	806.94
984.67	817.34
984.969	791.12
985.267	796.55
985.566	803.78
985.864	800.16
986.162	756.32
986.461	757.68
986.759	783.67
987.057	756.32
987.355	770.78
987.653	777.79
987.951	764.46
988.249	775.3
988.547	737.34
988.844	766.04
989.142	767.4
989.44	761.75
989.737	742.54
990.035	738.47
990.332	742.31
990.63	733.05
990.927	742.09
991.224	743.44
991.521	746.38
991.819	749.32
992.116	752.48
992.413	739.83
992.71	732.14
993.006	730.79
993.303	730.56
993.6	739.83
993.897	751.12
994.193	718.58
994.49	724.46
994.787	710.9
995.083	741.41
995.379	729.66
995.676	714.74
995.972	728.98
996.268	705.02
996.565	689.21
996.861	700.96
997.157	717.68
997.453	706.83
997.749	681.3
998.044	677.68
998.34	685.59
998.636	660.28
998.932	693.95
999.227	707.74
999.523	690.56
999.818	693.05
1000.114	694.63
1000.409	679.71
1000.704	674.52
1001	681.52
1001.295	681.07
1001.59	662.31
1001.885	684.91
1002.18	674.52
1002.475	655.53
1002.77	649.21
1003.065	649.66
1003.359	638.58
1003.654	655.76
1003.949	655.76
1004.243	639.26
1004.538	647.4
1004.832	639.49
1005.127	637.45
1005.421	625.93
1005.715	653.05
1006.009	636.78
1006.304	622.31
1006.598	625.03
1006.892	627.74
1007.186	606.5
1007.48	619.6
1007.773	627.29
1008.067	599.26
1008.361	602.2
1008.655	613.5
1008.948	602.88
1009.242	603.33
1009.535	609.21
1009.829	604.46
1010.122	610.79
1010.415	625.25
1010.708	599.49
1011.001	600.39
1011.295	583.45
1011.588	592.48
1011.881	600.39
1012.173	576.21
1012.466	603.11
1012.759	586.61
1013.052	588.42
1013.344	571.24
1013.637	589.77
1013.93	574.41
1014.222	596.1
1014.514	568.98
1014.807	575.54
1015.099	561.98
1015.391	555.42
1015.683	570.56
1015.976	567.4
1016.268	576.44
1016.56	565.14
1016.851	552.94
1017.143	558.14
1017.435	539.15
1017.727	543.9
1018.018	557.91
1018.31	542.77
1018.602	545.93
1018.893	571.02
1019.185	543.9
1019.476	540.06
1019.767	539.83
1020.058	521.53
1020.35	534.18
1020.641	517.01
1020.932	545.03
1021.223	540.28
1021.514	556.55
1021.804	514.29
1022.095	529.66
1022.386	536.89
1022.677	533.05
1022.967	504.8
1023.258	531.92
1023.548	533.5
1023.839	522.66
1024.129	525.59
1024.419	505.93
1024.709	505.26
1025	499.61
1025.29	493.96
1025.58	509.1
1025.87	488.98
1026.16	492.15
1026.449	515.42
1026.739	505.71
1027.029	506.38
1027.319	495.76
1027.608	508.64
1027.898	480.17
1028.187	507.51
1028.477	493.28
1028.766	481.53
1029.055	493.73
1029.344	470.45
1029.634	481.75
1029.923	476.33
1030.212	494.63
1030.501	478.59
1030.79	480.4
1031.078	479.27
1031.367	482.88
1031.656	484.24
1031.945	482.43
1032.233	475.65
1032.522	446.05
1032.81	484.46
1033.099	450.12
1033.387	474.75
1033.675	469.78
1033.963	457.12
1034.251	443.34
1034.54	446.05
1034.828	445.6
1035.116	460.51
1035.403	453.51
1035.691	457.12
1035.979	461.19
1036.267	446.73
1036.554	437.23
1036.842	468.19
1037.129	447.4
1037.417	441.53
1037.704	446.73
1037.992	434.07
1038.279	444.69
1038.566	439.27
1038.853	439.27
1039.14	439.27
