Data from carpet_green_FLMS001491_00083.txt Node
Date: Wed Feb 08 10:35:58 GMT 2017
User: dcchb
Spectrometer: FLMS00149
Trigger mode: 0
Integration Time (sec): 2.000000E-2
Scans to average: 10
Electric dark correction enabled: true
Nonlinearity correction enabled: false
Boxcar width: 0
XAxis mode: Wavelengths
Number of Pixels in Spectrum: 2048
>>>>>Begin Spectral Data<<<<<
341.393	0.71
341.776	0.71
342.16	0.71
342.543	-53.3
342.927	-68.44
343.31	-68.22
343.693	-60.76
344.077	-48.56
344.46	-60.08
344.843	-55.79
345.226	-34.55
345.61	-24.83
345.993	-23.47
346.376	-17.82
346.759	-11.04
347.142	32.8
347.525	33.47
347.908	65.34
348.291	80.93
348.674	81.61
349.057	110.99
349.44	136.3
349.823	130.65
350.206	164.77
350.588	169.29
350.971	181.72
351.354	202.73
351.737	203.19
352.119	227.37
352.502	237.08
352.884	242.51
353.267	247.03
353.65	251.55
354.032	277.31
354.414	268.5
354.797	269.17
355.179	300.59
355.562	295.61
355.944	284.77
356.326	294.48
356.709	297.87
357.091	305.1
357.473	322.96
357.855	310.08
358.238	301.94
358.62	327.03
359.002	309.85
359.384	312.56
359.766	322.51
360.148	301.72
360.53	317.99
360.912	303.07
361.294	305.78
361.676	304.65
362.057	292.68
362.439	291.32
362.821	292.45
363.203	297.2
363.584	294.26
363.966	298.1
364.348	301.94
364.729	289.74
365.111	285.9
365.493	273.24
365.874	281.38
366.256	290.87
366.637	278.21
367.019	279.57
367.4	302.85
367.781	288.38
368.163	284.54
368.544	276.41
368.925	278.21
369.306	287.25
369.688	269.63
370.069	281.15
370.45	291.77
370.831	283.64
371.212	281.38
371.593	289.51
371.974	287.48
372.355	276.63
372.736	268.5
373.117	269.63
373.498	299
373.879	295.61
374.26	268.04
374.641	284.99
375.021	281.38
375.402	261.04
375.783	280.7
376.163	274.37
376.544	298.1
376.925	278.89
377.305	274.82
377.686	287.7
378.066	270.98
378.447	261.72
378.827	295.84
379.208	301.72
379.588	282.51
379.968	288.61
380.349	287.03
380.729	289.29
381.109	287.48
381.489	283.41
381.87	318.66
382.25	275.5
382.63	282.96
383.01	313.92
383.39	286.12
383.77	287.03
384.15	273.47
384.53	272.56
384.91	298.55
385.29	279.12
385.67	284.54
386.049	296.29
386.429	276.18
386.809	279.12
387.189	304.43
387.568	304.43
387.948	294.94
388.328	289.51
388.707	307.82
389.087	289.51
389.466	292
389.846	317.53
390.225	318.89
390.605	321.38
390.984	287.25
391.363	296.97
391.743	312.34
392.122	301.26
392.501	308.72
392.881	293.13
393.26	307.36
393.639	300.13
394.018	290.19
394.397	316.63
394.776	308.27
395.155	304.43
395.534	303.98
395.913	289.74
396.292	321.15
396.671	294.03
397.05	296.97
397.429	297.65
397.808	295.16
398.186	320.92
398.565	312.11
398.944	301.72
399.323	290.87
399.701	308.72
400.08	306.23
400.458	308.04
400.837	287.25
401.215	303.3
401.594	306.46
401.972	297.2
402.351	309.17
402.729	302.85
403.107	308.04
403.486	315.95
403.864	323.86
404.242	311.21
404.62	316.18
404.999	324.31
405.377	319.34
405.755	310.75
406.133	318.66
406.511	319.79
406.889	317.53
407.267	328.61
407.645	329.06
408.023	312.34
408.401	319.34
408.779	315.27
409.156	311.88
409.534	310.53
409.912	310.98
410.29	331.09
410.667	328.83
411.045	304.88
411.422	347.36
411.8	323.41
412.178	317.76
412.555	314.37
412.933	323.64
413.31	318.89
413.687	325.22
414.065	316.63
414.442	322.28
414.819	316.18
415.197	322.05
415.574	336.97
415.951	333.58
416.328	336.74
416.705	330.42
417.082	322.28
417.46	326.57
417.837	325.44
418.214	353.47
418.591	347.59
418.967	332.67
419.344	347.59
419.721	338.32
420.098	342.39
420.475	340.81
420.852	346.01
421.228	362.5
421.605	333.13
421.982	325.67
422.358	345.78
422.735	343.07
423.111	360.92
423.488	340.58
423.864	343.97
424.241	357.53
424.617	351.21
424.994	341.71
425.37	353.69
425.746	347.14
426.123	346.91
426.499	369.06
426.875	330.42
427.251	346.46
427.627	341.94
428.003	353.47
428.379	360.24
428.756	343.75
429.132	360.47
429.507	359.34
429.883	343.75
430.259	352.34
430.635	340.13
431.011	368.61
431.387	346.46
431.763	347.14
432.138	350.98
432.514	356.63
432.89	370.64
433.265	360.02
433.641	348.95
434.016	354.6
434.392	368.38
434.767	384.42
435.143	350.53
435.518	369.51
435.894	370.41
436.269	376.29
436.644	359.34
437.02	369.51
437.395	355.27
437.77	360.47
438.145	383.97
438.52	392.11
438.895	401.83
439.271	368.61
439.646	368.15
440.021	380.58
440.395	381.26
440.77	393.24
441.145	394.82
441.52	363.18
441.895	379.45
442.27	402.28
442.645	353.01
443.019	387.81
443.394	363.63
443.769	397.31
444.143	379.91
444.518	408.83
444.892	383.3
445.267	403.41
445.641	409.51
446.016	412.67
446.39	398.89
446.764	379.23
447.139	406.35
447.513	400.7
447.887	405.67
448.262	396.63
448.636	405.67
449.01	416.29
449.384	422.16
449.758	397.08
450.132	389.62
450.506	409.51
450.88	409.96
451.254	390.98
451.628	429.4
452.002	402.96
452.376	414.48
452.75	416.97
453.123	417.87
453.497	417.42
453.871	423.52
454.244	426.91
454.618	431.43
454.992	430.07
455.365	439.11
455.739	436.4
456.112	430.75
456.486	412.67
456.859	432.33
457.232	425.78
457.606	437.53
457.979	423.75
458.352	437.3
458.725	423.29
459.099	423.07
459.472	433.24
459.845	443.63
460.218	452.9
460.591	456.74
460.964	433.46
461.337	462.61
461.71	437.08
462.083	461.03
462.456	457.19
462.829	482.5
463.201	471.88
463.574	461.26
463.947	460.36
464.32	474.59
464.692	466
465.065	461.26
465.438	483.41
465.81	472.11
466.183	481.15
466.555	481.37
466.928	488.15
467.3	504.42
467.672	468.49
468.045	487.02
468.417	507.36
468.789	489.28
469.161	503.52
469.534	508.94
469.906	526.12
470.278	506
470.65	505.55
471.022	534.25
471.394	511.88
471.766	543.52
472.138	529.96
472.51	520.92
472.882	527.47
473.253	539.45
473.625	567.24
473.997	553.69
474.369	533.57
474.74	561.82
475.112	565.89
475.484	571.76
475.855	561.82
476.227	582.16
476.598	595.27
476.97	578.32
477.341	589.84
477.713	610.63
478.084	629.62
478.455	604.31
478.827	608.37
479.198	612.67
479.569	635.72
479.94	641.14
480.311	645.44
480.682	654.25
481.053	645.89
481.424	647.02
481.795	658.99
482.166	672.33
482.537	680.46
482.908	665.1
483.279	677.3
483.65	698.31
484.021	697.64
484.391	705.32
484.762	708.94
485.133	724.98
485.503	704.87
485.874	713.46
486.244	736.28
486.615	751.87
486.985	750.97
487.356	748.94
487.726	776.51
488.097	765.66
488.467	793.23
488.837	782.15
489.207	814.02
489.578	787.35
489.948	809.05
490.318	818.09
490.688	826.45
491.058	855.15
491.428	823.74
491.798	843.4
492.168	882.94
492.538	846.79
492.908	865.54
493.278	888.14
493.648	874.36
494.017	882.04
494.387	881.14
494.757	890.63
495.126	907.35
495.496	940.34
495.866	920.23
496.235	913.45
496.605	920
496.974	917.52
497.344	923.62
497.713	955.26
498.082	925.2
498.452	972.88
498.821	939.21
499.19	961.58
499.559	962.26
499.928	951.42
500.298	971.75
500.667	967.91
501.036	975.14
501.405	969.95
501.774	962.49
502.143	971.3
502.512	979.89
502.88	988.7
503.249	986.44
503.618	973.34
503.987	986.67
504.356	1008.82
504.724	1014.92
505.093	1015.37
505.462	1022.37
505.83	1025.31
506.199	1006.78
506.567	1054.69
506.936	1040
507.304	1049.49
507.672	1044.97
508.041	1058.31
508.409	1037.29
508.777	1061.24
509.145	1065.31
509.514	1072.32
509.882	1067.8
510.25	1054.92
510.618	1079.55
510.986	1068.25
511.354	1089.72
511.722	1076.61
512.09	1073.9
512.458	1087.91
512.826	1089.04
513.193	1104.18
513.561	1095.37
513.929	1107.12
514.297	1118.42
514.664	1107.34
515.032	1099.21
515.4	1096.04
515.767	1134.46
516.135	1123.61
516.502	1136.95
516.869	1142.37
517.237	1132.2
517.604	1131.75
517.972	1150.73
518.339	1159.55
518.706	1172.2
519.073	1136.5
519.44	1172.65
519.808	1142.15
520.175	1182.37
520.542	1170.84
520.909	1195.93
521.276	1183.05
521.643	1193.67
522.009	1165.87
522.376	1195.03
522.743	1196.83
523.11	1200
523.477	1204.97
523.843	1245.87
524.21	1232.76
524.577	1197.28
524.943	1231.18
525.31	1236.38
525.676	1219.43
526.043	1228.02
526.409	1256.94
526.776	1243.39
527.142	1257.4
527.508	1249.49
527.874	1266.44
528.241	1255.59
528.607	1271.18
528.973	1288.81
529.339	1263.27
529.705	1253.78
530.071	1285.42
530.437	1265.53
530.803	1271.18
531.169	1313.44
531.535	1287
531.901	1280.45
532.267	1305.3
532.632	1285.64
532.998	1317.06
533.364	1321.8
533.73	1294.23
534.095	1310.05
534.461	1295.81
534.826	1323.16
535.192	1309.6
535.557	1339.65
535.923	1325.42
536.288	1310.05
536.653	1293.33
537.019	1299.88
537.384	1302.37
537.749	1307.56
538.114	1308.92
538.479	1337.17
538.845	1331.52
539.21	1327.68
539.575	1315.7
539.94	1341.01
540.305	1338.98
540.67	1309.15
541.034	1334
541.399	1333.33
541.764	1322.25
542.129	1325.64
542.494	1343.72
542.858	1322.25
543.223	1336.26
543.587	1330.84
543.952	1344.85
544.316	1333.55
544.681	1313.44
545.045	1320.22
545.41	1348.92
545.774	1304.85
546.138	1346.21
546.503	1338.07
546.867	1345.3
547.231	1345.08
547.595	1345.08
547.959	1348.92
548.324	1358.41
548.688	1358.64
549.052	1353.21
549.416	1380.78
549.779	1357.96
550.143	1349.15
550.507	1352.08
550.871	1359.31
551.235	1347.79
551.599	1360.44
551.962	1367
552.326	1363.83
552.689	1380.33
553.053	1354.12
553.417	1378.3
553.78	1376.94
554.143	1361.35
554.507	1366.09
554.87	1365.87
555.234	1385.75
555.597	1378.07
555.96	1399.99
556.323	1394.79
556.686	1388.69
557.05	1380.33
557.413	1425.53
557.776	1357.73
558.139	1385.53
558.502	1396.15
558.865	1381.91
559.228	1413.1
559.59	1405.64
559.953	1417.62
560.316	1422.82
560.679	1406.77
561.041	1407.45
561.404	1412.19
561.767	1391.18
562.129	1411.74
562.492	1442.48
562.854	1420.56
563.217	1441.57
563.579	1434.57
563.941	1456.71
564.304	1443.38
564.666	1459.88
565.028	1426.88
565.39	1419.88
565.753	1444.96
566.115	1468.46
566.477	1450.61
566.839	1443.61
567.201	1447.9
567.563	1478.18
567.925	1487.22
568.287	1457.62
568.648	1475.24
569.01	1458.07
569.372	1488.35
569.734	1494.23
570.095	1479.76
570.457	1443.83
570.819	1484.06
571.18	1462.81
571.542	1447.22
571.903	1473.66
572.265	1494
572.626	1467.79
572.987	1463.27
573.349	1477.73
573.71	1487.67
574.071	1492.19
574.432	1473.21
574.794	1475.92
575.155	1479.31
575.516	1447
575.877	1512.3
576.238	1499.65
576.599	1461.23
576.96	1472.08
577.32	1475.02
577.681	1468.24
578.042	1485.86
578.403	1465.75
578.763	1464.85
579.124	1506.88
579.485	1458.97
579.845	1470.5
580.206	1484.51
580.566	1490.61
580.927	1459.65
581.287	1488.12
581.648	1458.75
582.008	1461.91
582.368	1468.24
582.728	1458.29
583.089	1467.11
583.449	1480.89
583.809	1458.07
584.169	1448.8
584.529	1461.68
584.889	1446.09
585.249	1463.94
585.609	1454.91
585.969	1453.1
586.329	1425.98
586.688	1440.89
587.048	1421.46
587.408	1439.76
587.768	1454
588.127	1453.1
588.487	1420.33
588.846	1415.81
589.206	1424.85
589.565	1405.19
589.925	1412.65
590.284	1435.7
590.643	1418.97
591.003	1439.09
591.362	1416.71
591.721	1426.43
592.08	1439.09
592.44	1410.16
592.799	1427.79
593.158	1422.82
593.517	1424.85
593.876	1402.93
594.235	1445.19
594.593	1415.81
594.952	1394.12
595.311	1407.9
595.67	1437.5
596.029	1438.86
596.387	1420.78
596.746	1405.19
597.104	1439.99
597.463	1411.97
597.822	1405.42
598.18	1405.87
598.538	1440.89
598.897	1415.13
599.255	1411.29
599.613	1445.41
599.972	1449.26
600.33	1445.41
600.688	1436.15
601.046	1437.05
601.404	1432.76
601.762	1411.29
602.12	1417.84
602.478	1446.09
602.836	1431.4
603.194	1426.88
603.552	1431.63
603.91	1451.52
604.268	1426.43
604.625	1460.78
604.983	1436.37
605.341	1430.05
605.698	1462.59
606.056	1446.77
606.413	1416.71
606.771	1431.86
607.128	1440.22
607.485	1431.18
607.843	1445.41
608.2	1486.54
608.557	1439.54
608.914	1453.32
609.272	1445.64
609.629	1453.32
609.986	1472.08
610.343	1449.93
610.7	1461.68
611.057	1458.75
611.414	1442.48
611.771	1463.49
612.127	1449.26
612.484	1448.58
612.841	1484.28
613.198	1443.83
613.554	1443.83
613.911	1467.79
614.267	1483.83
614.624	1488.58
614.98	1485.64
615.337	1463.72
615.693	1489.48
616.05	1469.82
616.406	1472.08
616.762	1481.12
617.118	1467.11
617.475	1457.62
617.831	1491.51
618.187	1473.89
618.543	1472.53
618.899	1499.65
619.255	1520.44
619.611	1493.1
619.967	1486.77
620.323	1482.93
620.678	1482.25
621.034	1469.59
621.39	1485.19
621.746	1474.34
622.101	1500.55
622.457	1494.45
622.812	1483.38
623.168	1488.35
623.523	1476.83
623.879	1472.31
624.234	1493.32
624.589	1475.7
624.945	1482.25
625.3	1479.09
625.655	1496.26
626.01	1482.25
626.365	1475.47
626.72	1485.41
627.075	1469.59
627.43	1520.44
627.785	1482.93
628.14	1465.53
628.495	1488.12
628.85	1492.19
629.205	1494.45
629.559	1474.79
629.914	1485.64
630.269	1468.46
630.623	1489.93
630.978	1458.75
631.332	1481.35
631.687	1454.45
632.041	1512.98
632.396	1477.05
632.75	1462.36
633.104	1480.67
633.459	1447.22
633.813	1458.29
634.167	1472.76
634.521	1463.27
634.875	1432.98
635.229	1464.4
635.583	1434.11
635.937	1452.87
636.291	1441.8
636.645	1468.46
636.999	1446.09
637.352	1442.25
637.706	1463.04
638.06	1464.85
638.413	1449.93
638.767	1482.93
639.121	1449.03
639.474	1423.72
639.828	1438.86
640.181	1455.81
640.534	1461.23
640.888	1464.85
641.241	1458.29
641.594	1440.22
641.947	1482.48
642.301	1465.75
642.654	1455.13
643.007	1439.09
643.36	1473.89
643.713	1461.46
644.066	1501.23
644.419	1456.04
644.771	1434.34
645.124	1442.02
645.477	1469.59
645.83	1444.51
646.182	1470.95
646.535	1431.18
646.888	1459.2
647.24	1412.19
647.593	1463.04
647.945	1435.24
648.298	1449.26
648.65	1449.93
649.002	1443.15
649.355	1449.03
649.707	1460.1
650.059	1471.18
650.411	1491.29
650.763	1470.5
651.115	1489.48
651.467	1525.64
651.819	1481.12
652.171	1505.07
652.523	1519.76
652.875	1510.27
653.227	1497.62
653.578	1503.27
653.93	1537.84
654.282	1553.66
654.633	1566.99
654.985	1550.95
655.337	1562.02
655.688	1544.17
656.039	1557.28
656.391	1564.05
656.742	1572.42
657.094	1585.98
657.445	1587.78
657.796	1579.87
658.147	1595.47
658.498	1577.61
658.849	1568.35
659.2	1606.54
659.551	1601.34
659.902	1623.49
660.253	1640.44
660.604	1621.68
660.955	1679.53
661.306	1637.95
661.656	1636.37
662.007	1680.66
662.358	1673.88
662.708	1670.72
663.059	1691.28
663.409	1701.68
663.76	1687.89
664.11	1703.94
664.461	1749.59
664.811	1730.6
665.161	1728.34
665.511	1720.21
665.862	1742.13
666.212	1782.58
666.562	1780.77
666.912	1800.66
667.262	1778.96
667.612	1783.71
667.962	1780.09
668.312	1813.09
668.662	1840.66
669.011	1849.47
669.361	1891.05
669.711	1896.48
670.06	1869.36
670.41	1879.07
670.76	1879.3
671.109	1886.08
671.459	1901.67
671.808	1934.67
672.157	1967.21
672.507	1979.19
672.856	1985.74
673.205	1964.04
673.554	1998.17
673.904	2007.43
674.253	2029.58
674.602	2047.88
674.951	1993.87
675.3	2017.15
675.649	2032.07
675.998	2058.28
676.346	2082.46
676.695	2093.53
677.044	2096.7
677.393	2120.2
677.741	2163.81
678.09	2169.91
678.438	2173.76
678.787	2213.98
679.135	2200.42
679.484	2206.07
679.832	2226.41
680.181	2229.57
680.529	2292.17
680.877	2267.77
681.225	2270.48
681.573	2315.22
681.922	2319.74
682.27	2303.02
682.618	2346.86
682.966	2390.02
683.314	2375.78
683.661	2404.94
684.009	2431.15
684.357	2448.1
684.705	2421.43
685.053	2463.24
685.4	2475.44
685.748	2445.84
686.095	2472.28
686.443	2512.73
686.79	2509.79
687.138	2533.75
687.485	2580.75
687.832	2549.11
688.18	2613.29
688.527	2606.51
688.874	2614.2
689.221	2654.2
689.568	2642.44
689.915	2645.16
690.262	2718.83
690.609	2680.18
690.956	2673.63
691.303	2738.04
691.65	2708.43
691.997	2761.31
692.344	2781.88
692.69	2779.39
693.037	2836.11
693.383	2828.65
693.73	2865.72
694.077	2821.65
694.423	2841.99
694.769	2873.85
695.116	2912.95
695.462	2900.52
695.808	2919.05
696.155	2967.41
696.501	2924.47
696.847	2945.49
697.193	2983.9
697.539	2985.26
697.885	3017.12
698.231	3072.04
698.577	3000.85
698.923	3056.67
699.269	3069.33
699.614	3059.61
699.96	3084.47
700.306	3098.03
700.651	3103.68
700.997	3139.38
701.342	3133.73
701.688	3192.03
702.033	3173.73
702.379	3187.97
702.724	3175.76
703.069	3214.41
703.415	3268.87
703.76	3246.5
704.105	3256.21
704.45	3258.25
704.795	3277.23
705.14	3286.27
705.485	3302.09
705.83	3277.46
706.175	3375.76
706.52	3343.67
706.865	3357.91
707.209	3382.76
707.554	3364.46
707.899	3411.46
708.243	3396.55
708.588	3432.71
708.932	3396.32
709.277	3450.78
709.621	3460.95
709.966	3464.12
710.31	3484.46
710.654	3478.13
710.998	3515.19
711.342	3488.75
711.687	3533.04
712.031	3538.01
712.375	3545.02
712.719	3538.92
713.063	3577.56
713.407	3589.54
713.75	3608.75
714.094	3600.61
714.438	3592.48
714.782	3605.81
715.125	3608.29
715.469	3592.25
715.812	3618.46
716.156	3617.79
716.499	3619.37
716.843	3668.86
717.186	3653.27
717.53	3665.69
717.873	3741.85
718.216	3740.72
718.559	3702.76
718.902	3724.68
719.246	3712.92
719.589	3704.79
719.932	3708.86
720.275	3736.65
720.617	3752.25
720.96	3736.88
721.303	3763.09
721.646	3773.71
721.989	3726.94
722.331	3743.21
722.674	3787.73
723.016	3792.02
723.359	3809.42
723.701	3812.13
724.044	3822.07
724.386	3831.79
724.729	3824.11
725.071	3790.66
725.413	3817.78
725.755	3820.04
726.097	3807.16
726.439	3806.26
726.782	3826.82
727.124	3895.07
727.465	3849.19
727.807	3850.32
728.149	3865.46
728.491	3847.38
728.833	3898.23
729.175	3880.6
729.516	3834.28
729.858	3865.92
730.199	3845.58
730.541	3838.35
730.882	3851.23
731.224	3894.84
731.565	3891
731.906	3890.55
732.248	3886.93
732.589	3865.24
732.93	3863.66
733.271	3905.24
733.612	3870.66
733.953	3905.91
734.294	3882.19
734.635	3888.29
734.976	3865.46
735.317	3934.61
735.658	3886.48
735.999	3905.69
736.339	3923.77
736.68	3918.12
737.021	3908.85
737.361	3906.82
737.702	3887.84
738.042	3891.68
738.383	3922.19
738.723	3893.49
739.063	3904.56
739.404	3920.15
739.744	3951.11
740.084	3883.54
740.424	3894.16
740.764	3889.64
741.104	3930.55
741.444	3905.46
741.784	3888.97
742.124	3892.13
742.464	3871.11
742.804	3899.81
743.143	3938.68
743.483	3884.45
743.823	3888.51
744.162	3873.15
744.502	3892.13
744.841	3872.92
745.181	3864.11
745.52	3871.79
745.86	3855.97
746.199	3851.23
746.538	3907.27
746.877	3917.21
747.216	3889.19
747.556	3824.56
747.895	3834.5
748.234	3829.76
748.573	3829.76
748.911	3838.35
749.25	3825.46
749.589	3853.26
749.928	3856.42
750.267	3828.4
750.605	3807.16
750.944	3791.57
751.283	3790.44
751.621	3818.91
751.96	3782.75
752.298	3799.7
752.636	3811.68
752.975	3805.8
753.313	3740.95
753.651	3808.74
753.989	3760.38
754.327	3789.31
754.666	3753.38
755.004	3731.23
755.342	3759.25
755.679	3726.48
756.017	3711.57
756.355	3749.99
756.693	3711.12
757.031	3746.6
757.368	3707.28
757.706	3743.66
758.044	3677.45
758.381	3690.78
758.719	3644
759.056	3657.56
759.394	3663.66
759.731	3652.81
760.068	3636.32
760.405	3602.87
760.743	3629.99
761.08	3610.78
761.417	3647.39
761.754	3602.87
762.091	3582.31
762.428	3573.27
762.765	3576.43
763.102	3589.09
763.438	3588.18
763.775	3542.53
764.112	3565.36
764.449	3541.18
764.785	3549.77
765.122	3521.97
765.458	3511.12
765.795	3476.1
766.131	3519.94
766.467	3534.62
766.804	3449.66
767.14	3421.41
767.476	3521.07
767.812	3448.98
768.148	3437.23
768.485	3464.34
768.821	3415.08
769.157	3440.62
769.492	3412.59
769.828	3376.89
770.164	3367.62
770.5	3354.29
770.836	3383.22
771.171	3376.89
771.507	3350.45
771.842	3349.32
772.178	3354.29
772.513	3304.57
772.849	3298.47
773.184	3296.44
773.519	3309.77
773.855	3283.33
774.19	3291.69
774.525	3249.89
774.86	3249.89
775.195	3258.7
775.53	3242.65
775.865	3219.38
776.2	3175.31
776.535	3179.15
776.87	3222.09
777.205	3158.36
777.539	3178.7
777.874	3187.52
778.209	3172.6
778.543	3136.22
778.878	3140.74
779.212	3141.87
779.547	3157.69
779.881	3138.02
780.215	3080.63
780.55	3081.76
780.884	3078.37
781.218	3069.78
781.552	3092.83
781.886	3054.41
782.22	3029.78
782.554	3041.53
782.888	3018.03
783.222	3001.08
783.556	2994.3
783.889	3039.04
784.223	2953.85
784.557	2955.88
784.89	2958.82
785.224	2933.28
785.557	2926.5
785.891	2942.1
786.224	2900.74
786.558	2934.87
786.891	2890.35
787.224	2894.19
787.557	2918.82
787.891	2880.63
788.224	2876.11
788.557	2878.37
788.89	2875.88
789.223	2868.88
789.556	2809.45
789.888	2830.69
790.221	2836.11
790.554	2837.02
790.887	2799.95
791.219	2791.37
791.552	2790.92
791.884	2768.99
792.217	2763.8
792.549	2785.94
792.882	2761.76
793.214	2729.22
793.546	2771.25
793.879	2720.86
794.211	2705.49
794.543	2757.02
794.875	2722.22
795.207	2720.41
795.539	2713.4
795.871	2705.95
796.203	2667.53
796.535	2650.58
796.867	2653.52
797.198	2635.67
797.53	2708.21
797.862	2639.73
798.193	2647.42
798.525	2635.67
798.856	2631.6
799.188	2573.07
799.519	2602.67
799.85	2570.58
800.182	2602.67
800.513	2589.79
800.844	2602.9
801.175	2573.97
801.506	2572.62
801.837	2559.06
802.168	2534.88
802.499	2544.82
802.83	2543.69
803.161	2530.36
803.491	2536.23
803.822	2505.5
804.153	2517.7
804.483	2515.22
804.814	2475.44
805.145	2517.93
805.475	2519.51
805.805	2487.19
806.136	2506.85
806.466	2474.54
806.796	2476.12
807.126	2468.44
807.457	2455.56
807.787	2468.66
808.117	2447.87
808.447	2402.22
808.777	2428.21
809.107	2414.2
809.436	2445.16
809.766	2409.46
810.096	2387.54
810.426	2416.91
810.755	2390.7
811.085	2406.29
811.414	2396.12
811.744	2366.97
812.073	2384.6
812.403	2353.41
812.732	2353.86
813.061	2367.65
813.39	2354.32
813.719	2340.76
814.049	2361.55
814.378	2376.24
814.707	2362.68
815.036	2327.65
815.365	2296.01
815.693	2295.34
816.022	2286.52
816.351	2316.35
816.68	2300.76
817.008	2282
817.337	2306.18
817.665	2319.52
817.994	2297.82
818.322	2290.14
818.651	2284.94
818.979	2283.36
819.307	2278.61
819.636	2303.7
819.964	2271.83
820.292	2286.07
820.62	2259.63
820.948	2280.87
821.276	2274.77
821.604	2268.44
821.932	2256.69
822.259	2265.96
822.587	2241.78
822.915	2255.56
823.243	2251.95
823.57	2245.62
823.898	2246.52
824.225	2230.7
824.553	2266.64
824.88	2231.38
825.207	2269.12
825.535	2229.12
825.862	2236.35
826.189	2271.38
826.516	2237.26
826.843	2263.92
827.17	2254.88
827.497	2260.31
827.824	2249.01
828.151	2288.56
828.478	2256.92
828.805	2263.92
829.131	2276.58
829.458	2238.16
829.785	2229.35
830.111	2262.12
830.438	2220.76
830.764	2249.01
831.09	2242.91
831.417	2232.06
831.743	2260.31
832.069	2219.63
832.395	2223.47
832.722	2245.62
833.048	2213.53
833.374	2241.55
833.7	2210.37
834.026	2227.99
834.351	2226.86
834.677	2227.54
835.003	2234.77
835.329	2218.73
835.654	2226.41
835.98	2210.37
836.306	2190.71
836.631	2213.76
836.956	2202.91
837.282	2214.43
837.607	2219.18
837.932	2192.06
838.258	2188.45
838.583	2191.38
838.908	2213.53
839.233	2199.29
839.558	2175.11
839.883	2185.28
840.208	2180.76
840.533	2178.28
840.858	2182.8
841.182	2185.51
841.507	2144.6
841.832	2168.78
842.156	2160.2
842.481	2169.24
842.805	2140.54
843.13	2113.64
843.454	2170.14
843.778	2138.96
844.103	2159.52
844.427	2140.99
844.751	2138.5
845.075	2127.66
845.399	2098.5
845.723	2101.22
846.047	2105.28
846.371	2098.28
846.695	2094.66
847.019	2084.49
847.343	2091.5
847.666	2056.7
847.99	2051.5
848.313	2053.76
848.637	2058.28
848.96	2022.8
849.284	2019.64
849.607	2029.81
849.931	2013.53
850.254	2025.06
850.577	2006.53
850.9	2017.6
851.223	1995.46
851.546	2012.63
851.869	1987.09
852.192	1937.6
852.515	1984.38
852.838	1961.11
853.161	1979.19
853.483	1962.46
853.806	1931.28
854.129	1931.95
854.451	1936.02
854.774	1928.34
855.096	1921.11
855.419	1895.12
855.741	1915.46
856.063	1936.7
856.385	1908.23
856.708	1906.19
857.03	1929.02
857.352	1902.58
857.674	1857.61
857.996	1898.06
858.318	1886.08
858.64	1868.45
858.961	1868.45
859.283	1863.26
859.605	1848.12
859.926	1856.25
860.248	1823.94
860.57	1821.9
860.891	1871.84
861.212	1873.43
861.534	1857.15
861.855	1852.18
862.176	1876.36
862.498	1819.64
862.819	1804.27
863.14	1820.55
863.461	1824.39
863.782	1813.77
864.103	1831.62
864.424	1823.71
864.745	1822.81
865.065	1797.95
865.386	1800.66
865.707	1828
866.027	1811.05
866.348	1796.14
866.668	1808.12
866.989	1795.01
867.309	1772.86
867.63	1785.97
867.95	1758.17
868.27	1755.91
868.59	1749.81
868.91	1746.87
869.23	1737.38
869.55	1767.44
869.87	1783.71
870.19	1741.9
870.51	1752.75
870.83	1750.26
871.15	1745.97
871.469	1759.08
871.789	1791.85
872.109	1729.25
872.428	1747.1
872.748	1733.77
873.067	1748.46
873.386	1776.93
873.706	1708.23
874.025	1728.34
874.344	1753.65
874.663	1764.28
874.982	1739.19
875.301	1736.03
875.62	1722.69
875.939	1702.81
876.258	1723.6
876.577	1718.18
876.896	1714.33
877.214	1699.64
877.533	1715.24
877.852	1704.62
878.17	1709.14
878.489	1694.22
878.807	1722.24
879.125	1691.51
879.444	1714.33
879.762	1739.64
880.08	1719.76
880.398	1702.81
880.716	1689.93
881.034	1671.4
881.352	1676.37
881.67	1670.72
881.988	1666.65
882.306	1715.01
882.624	1646.76
882.941	1666.43
883.259	1653.32
883.577	1680.66
883.894	1651.51
884.212	1686.99
884.529	1674.11
884.846	1623.04
885.164	1652.19
885.481	1673.66
885.798	1665.75
886.115	1618.29
886.432	1626.65
886.75	1635.24
887.067	1599.99
887.383	1612.64
887.7	1656.26
888.017	1628.23
888.334	1642.92
888.651	1620.32
888.967	1633.43
889.284	1579.65
889.6	1644.05
889.917	1601.79
890.233	1583.26
890.55	1591.17
890.866	1568.57
891.182	1573.77
891.498	1587.78
891.815	1603.83
892.131	1568.12
892.447	1571.29
892.763	1607.22
893.079	1560.44
893.395	1566.31
893.71	1552.53
894.026	1577.39
894.342	1558.63
894.657	1564.73
894.973	1545.75
895.289	1545.98
895.604	1528.12
895.92	1521.34
896.235	1537.39
896.55	1537.16
896.865	1517.5
897.181	1522.02
897.496	1526.54
897.811	1520.89
898.126	1480.44
898.441	1504.62
898.756	1495.36
899.071	1488.8
899.386	1510.05
899.7	1465.75
900.015	1486.32
900.33	1476.83
900.644	1451.97
900.959	1469.82
901.273	1450.16
901.588	1448.8
901.902	1470.5
902.216	1427.56
902.531	1439.76
902.845	1470.05
903.159	1425.75
903.473	1437.05
903.787	1411.06
904.101	1423.04
904.415	1403.83
904.729	1403.38
905.042	1416.26
905.356	1408.8
905.67	1374.91
905.984	1389.82
906.297	1385.98
906.611	1409.26
906.924	1397.51
907.237	1366.32
907.551	1377.62
907.864	1358.64
908.177	1345.76
908.491	1378.3
908.804	1338.3
909.117	1330.84
909.43	1362.48
909.743	1343.5
910.056	1320.45
910.368	1335.36
910.681	1351.86
910.994	1351.18
911.307	1339.65
911.619	1338.98
911.932	1312.76
912.244	1359.31
912.557	1291.52
912.869	1301.69
913.181	1308.02
913.494	1310.95
913.806	1300.56
914.118	1280.9
914.43	1291.07
914.742	1303.72
915.054	1280.45
915.366	1266.44
915.678	1263.05
915.99	1272.09
916.302	1272.54
916.613	1270.05
916.925	1240.45
917.236	1240.45
917.548	1244.74
917.859	1253.55
918.171	1235.7
918.482	1250.62
918.794	1235.48
919.105	1209.49
919.416	1223.72
919.727	1235.25
920.038	1196.38
920.349	1211.97
920.66	1223.5
920.971	1195.25
921.282	1215.59
921.593	1202.03
921.903	1181.69
922.214	1175.14
922.525	1215.14
922.835	1175.14
923.146	1178.75
923.456	1183.27
923.767	1143.73
924.077	1157.74
924.387	1159.55
924.697	1162.26
925.008	1159.77
925.318	1153.22
925.628	1150.51
925.938	1114.35
926.248	1129.04
926.558	1144.4
926.867	1129.26
927.177	1131.52
927.487	1122.03
927.796	1109.15
928.106	1136.04
928.416	1122.71
928.725	1110.28
929.034	1115.93
929.344	1093.56
929.653	1121.81
929.962	1112.54
930.271	1095.14
930.581	1082.03
930.89	1087.46
931.199	1072.09
931.508	1097.63
931.817	1099.21
932.125	1062.37
932.434	1085.42
932.743	1056.72
933.051	1081.58
933.36	1074.8
933.669	1047.46
933.977	1088.81
934.286	1054.01
934.594	1064.41
934.902	1058.31
935.21	1036.84
935.519	1044.52
935.827	1037.29
936.135	1025.09
936.443	1034.13
936.751	1021.47
937.059	1015.14
937.367	1018.98
937.674	1001.13
937.982	1034.8
938.29	1016.95
938.597	1007.23
938.905	989.83
939.213	982.83
939.52	1000
939.827	1007.01
940.135	1011.98
940.442	986.67
940.749	984.18
941.056	982.38
941.363	965.88
941.67	972.66
941.977	956.16
942.284	984.18
942.591	955.48
942.898	979.66
943.205	971.08
943.511	974.69
943.818	943.96
944.125	945.99
944.431	932.21
944.738	921.59
945.044	929.72
945.35	948.25
945.657	916.16
945.963	934.24
946.269	923.17
946.575	933.56
946.881	926.11
947.187	934.69
947.493	909.83
947.799	926.11
948.105	901.47
948.41	906.67
948.716	895.6
949.022	903.51
949.327	927.24
949.633	907.8
949.938	913.68
950.244	922.04
950.549	900.57
950.854	894.92
951.16	910.06
951.465	892.66
951.77	884.75
952.075	858.76
952.38	895.6
952.685	881.59
952.99	874.58
953.294	865.54
953.599	857.18
953.904	855.15
954.209	856.95
954.513	874.36
954.818	861.93
955.122	885.2
955.426	844.75
955.731	852.89
956.035	858.76
956.339	815.6
956.643	868.71
956.948	863.28
957.252	850.85
957.556	845.2
957.86	845.66
958.163	844.3
958.467	855.15
958.771	818.99
959.075	841.14
959.378	810.18
959.682	835.94
959.985	814.02
960.289	817.86
960.592	832.77
960.896	814.7
961.199	807.92
961.502	815.15
961.805	788.26
962.108	798.65
962.411	801.59
962.714	792.78
963.017	809.05
963.32	787.58
963.623	811.53
963.926	797.07
964.228	794.36
964.531	788.93
964.833	789.16
965.136	765.88
965.438	788.03
965.741	748.71
966.043	767.01
966.345	760.69
966.648	765.88
966.95	762.72
967.252	760.91
967.554	745.32
967.856	780.8
968.158	751.87
968.46	782.38
968.761	751.65
969.063	752.78
969.365	737.41
969.666	743.29
969.968	727.47
970.269	747.58
970.571	732.21
970.872	720.24
971.174	763.62
971.475	760.69
971.776	717.07
972.077	731.08
972.378	717.75
972.679	724.98
972.98	718.2
973.281	715.72
973.582	723.63
973.883	709.16
974.183	718.65
974.484	715.26
974.785	721.14
975.085	730.63
975.386	698.31
975.686	705.32
975.986	705.09
976.287	714.13
976.587	694.47
976.887	694.25
977.187	701.93
977.487	697.19
977.787	698.77
978.087	672.33
978.387	676.39
978.687	671.42
978.987	670.97
979.286	685.21
979.586	687.02
979.885	682.5
980.185	674.13
980.484	670.97
980.784	690.18
981.083	671.65
981.382	676.17
981.682	672.55
981.981	668.49
982.28	673.23
982.579	658.54
982.878	683.17
983.177	665.55
983.475	659.67
983.774	657.41
984.073	650.18
984.372	663.74
984.67	680.69
984.969	661.03
985.267	664.42
985.566	660.12
985.864	636.85
986.162	644.98
986.461	648.6
986.759	633.23
987.057	641.82
987.355	613.57
987.653	636.85
987.951	635.49
988.249	628.94
988.547	630.75
988.844	642.72
989.142	615.83
989.44	611.54
989.737	616.28
990.035	635.04
990.332	637.98
990.63	633.46
990.927	620.35
991.224	631.42
991.521	603.18
991.819	597.07
992.116	622.84
992.413	636.85
992.71	626.23
993.006	596.62
993.303	617.19
993.6	597.3
993.897	603.4
994.193	598.2
994.49	595.04
994.787	593.68
995.083	599.33
995.379	593.68
995.676	599.11
995.972	592.1
996.268	595.72
996.565	599.33
996.861	594.36
997.157	608.15
997.453	573.12
997.749	582.61
998.044	566.12
998.34	595.72
998.636	593.23
998.932	571.76
999.227	560.92
999.523	585.1
999.818	565.89
1000.114	559.34
1000.409	547.58
1000.704	577.87
1001	548.94
1001.295	558.66
1001.59	577.19
1001.885	544.42
1002.18	550.3
1002.475	542.61
1002.77	564.08
1003.065	541.93
1003.359	565.66
1003.654	577.19
1003.949	539.45
1004.243	558.88
1004.538	543.06
1004.832	571.99
1005.127	562.73
1005.421	528.38
1005.715	551.2
1006.009	539
1006.304	537.19
1006.598	530.64
1006.892	544.42
1007.186	526.12
1007.48	520.47
1007.773	541.03
1008.067	539.68
1008.361	533.12
1008.655	529.73
1008.948	532.44
1009.242	525.21
1009.535	518.88
1009.829	515.49
1010.122	514.59
1010.415	528.38
1010.708	537.64
1011.001	522.95
1011.295	520.47
1011.588	493.12
1011.881	506.68
1012.173	512.78
1012.466	495.38
1012.759	503.97
1013.052	488.6
1013.344	515.49
1013.637	491.31
1013.93	506.68
1014.222	504.87
1014.514	490.18
1014.807	494.7
1015.099	503.74
1015.391	492.44
1015.683	483.63
1015.976	493.35
1016.268	503.97
1016.56	508.49
1016.851	480.24
1017.143	487.02
1017.435	511.65
1017.727	471.88
1018.018	478.21
1018.31	468.04
1018.602	484.31
1018.893	463.07
1019.185	479.34
1019.476	452.45
1019.767	475.5
1020.058	450.86
1020.35	462.61
1020.641	467.81
1020.932	482.73
1021.223	449.73
1021.514	460.13
1021.804	454.48
1022.095	461.03
1022.386	457.64
1022.677	467.81
1022.967	451.77
1023.258	438.21
1023.548	475.5
1023.839	458.1
1024.129	470.98
1024.419	456.06
1024.709	463.74
1025	441.15
1025.29	459.68
1025.58	449.51
1025.87	451.09
1026.16	434.82
1026.449	458.55
1026.739	461.49
1027.029	434.14
1027.319	431.2
1027.608	453.8
1027.898	428.72
1028.187	433.01
1028.477	422.84
1028.766	429.4
1029.055	438.43
1029.344	435.72
1029.634	447.25
1029.923	432.79
1030.212	421.49
1030.501	426.68
1030.79	433.24
1031.078	427.14
1031.367	430.98
1031.656	433.69
1031.945	410.41
1032.233	421.03
1032.522	422.84
1032.81	402.5
1033.099	410.64
1033.387	423.52
1033.675	416.29
1033.963	416.97
1034.251	418.32
1034.54	409.73
1034.828	412.67
1035.116	403.63
1035.403	409.73
1035.691	419
1035.979	411.77
1036.267	390.53
1036.554	402.73
1036.842	409.06
1037.129	388.94
1037.417	396.4
1037.704	408.61
1037.992	407.93
1038.279	406.57
1038.566	404.31
1038.853	404.31
1039.14	404.31
