Data from carpet_green_FLMS001491_00001.txt Node
Date: Wed Feb 08 10:34:47 GMT 2017
User: dcchb
Spectrometer: FLMS00149
Trigger mode: 0
Integration Time (sec): 2.000000E-2
Scans to average: 10
Electric dark correction enabled: true
Nonlinearity correction enabled: false
Boxcar width: 0
XAxis mode: Wavelengths
Number of Pixels in Spectrum: 2048
>>>>>Begin Spectral Data<<<<<
341.393	0.27
341.776	0.27
342.16	0.27
342.543	-57.36
342.927	-61.88
343.31	-67.53
343.693	-66.4
344.077	-45.61
344.46	-63.68
344.843	-54.42
345.226	-42.67
345.61	-25.04
345.993	-32.73
346.376	-5.38
346.759	26.03
347.142	10.21
347.525	24
347.908	54.28
348.291	74.39
348.674	115.75
349.057	98.8
349.44	115.75
349.823	139.7
350.206	146.71
350.588	165.46
350.971	174.05
351.354	190.32
351.737	218.79
352.119	225.35
352.502	216.76
352.884	262.63
353.267	260.83
353.65	253.14
354.032	282.52
354.414	271.45
354.797	288.85
355.179	287.72
355.562	309.41
355.944	284.55
356.326	302.86
356.709	299.47
357.091	316.64
357.473	304.67
357.855	321.39
358.238	310.32
358.62	312.58
359.002	307.15
359.384	308.96
359.766	330.88
360.148	303.54
360.53	297.89
360.912	307.38
361.294	301.28
361.676	300.15
362.057	326.81
362.439	304.44
362.821	311.9
363.203	281.84
363.584	276.65
363.966	278.23
364.348	280.26
364.729	287.49
365.111	279.58
365.493	285.46
365.874	273.26
366.256	283.88
366.637	293.59
367.019	279.36
367.4	281.16
367.781	284.1
368.163	265.8
368.544	266.93
368.925	263.54
369.306	273.26
369.688	282.29
370.069	272.35
370.45	285.01
370.831	270.54
371.212	265.57
371.593	278
371.974	274.39
372.355	306.47
372.736	281.62
373.117	269.64
373.498	272.8
373.879	288.85
374.26	286.59
374.641	307.38
375.021	287.27
375.402	269.87
375.783	276.87
376.163	286.81
376.544	282.29
376.925	267.15
377.305	276.65
377.686	286.14
378.066	303.09
378.447	290.66
378.827	272.8
379.208	278.68
379.588	281.39
379.968	295.18
380.349	296.53
380.729	285.68
381.109	295.85
381.489	292.92
381.87	289.3
382.25	284.1
382.63	303.76
383.01	291.56
383.39	298.79
383.77	277.78
384.15	293.37
384.53	285.46
384.91	284.78
385.29	281.62
385.67	300.6
386.049	284.78
386.429	298.79
386.809	289.98
387.189	276.65
387.568	304.89
387.948	301.96
388.328	300.6
388.707	318.68
389.087	301.5
389.466	291.11
389.846	287.72
390.225	303.09
390.605	304.44
390.984	306.7
391.363	307.15
391.743	290.66
392.122	315.97
392.501	307.15
392.881	282.07
393.26	312.8
393.639	306.7
394.018	310.54
394.397	300.37
394.776	305.8
395.155	302.86
395.534	297.66
395.913	306.93
396.292	293.37
396.671	285.46
397.05	297.89
397.429	312.12
397.808	303.09
398.186	315.97
398.565	308.73
398.944	307.38
399.323	303.09
399.701	293.14
400.08	291.56
400.458	299.7
400.837	302.63
401.215	303.54
401.594	305.8
401.972	291.33
402.351	292.24
402.729	297.44
403.107	325.23
403.486	300.83
403.864	310.32
404.242	302.86
404.62	313.93
404.999	287.72
405.377	311.67
405.755	304.67
406.133	315.29
406.511	307.6
406.889	297.89
407.267	308.28
407.645	325.01
408.023	325.46
408.401	310.77
408.779	325.46
409.156	315.74
409.534	307.38
409.912	313.25
410.29	311.67
410.667	321.62
411.045	299.7
411.422	312.12
411.8	331.11
412.178	301.96
412.555	318.23
412.933	319.36
413.31	327.49
413.687	335.4
414.065	314.16
414.442	329.75
414.819	327.49
415.197	318.9
415.574	321.39
415.951	327.72
416.328	339.24
416.705	314.16
417.082	308.96
417.46	328.62
417.837	337.21
418.214	326.14
418.591	308.96
418.967	320.03
419.344	340.15
419.721	330.2
420.098	326.59
420.475	330.66
420.852	344.89
421.228	343.31
421.605	315.06
421.982	352.8
422.358	342.63
422.735	342.41
423.111	334.95
423.488	336.3
423.864	349.41
424.241	324.55
424.617	358.68
424.994	332.91
425.37	358
425.746	344.89
426.123	352.35
426.499	326.59
426.875	318.68
427.251	337.43
427.627	346.93
428.003	365
428.379	370.2
428.756	348.28
429.132	341.73
429.507	360.03
429.883	361.61
430.259	359.81
430.635	357.55
431.011	363.87
431.387	339.92
431.763	338.79
432.138	345.34
432.514	356.87
432.89	357.55
433.265	363.87
433.641	354.61
434.016	372.91
434.392	352.35
434.767	375.63
435.143	372.69
435.518	367.26
435.894	375.85
436.269	382.86
436.644	383.76
437.02	362.29
437.395	380.6
437.77	371.56
438.145	372.46
438.52	355.51
438.895	376.53
439.271	371.33
439.646	383.99
440.021	367.49
440.395	396.19
440.77	383.76
441.145	367.49
441.52	361.39
441.895	392.12
442.27	389.86
442.645	388.73
443.019	382.86
443.394	399.13
443.769	381.73
444.143	372.46
444.518	381.95
444.892	378.34
445.267	380.82
445.641	381.28
446.016	393.48
446.39	372.46
446.764	385.57
447.139	412.91
447.513	395.96
447.887	401.16
448.262	404.33
448.636	389.41
449.01	400.94
449.384	410.2
449.758	421.5
450.132	396.87
450.506	419.47
450.88	396.87
451.254	390.99
451.628	398.68
452.002	397.32
452.376	398.45
452.75	413.82
453.123	404.1
453.497	413.14
453.871	404.1
454.244	390.09
454.618	405.46
454.992	418.11
455.365	415.62
455.739	400.71
456.112	450.2
456.486	430.09
456.859	409.07
457.232	418.56
457.606	416.98
457.979	425.12
458.352	446.81
458.725	421.27
459.099	440.71
459.472	444.55
459.845	446.36
460.218	443.65
460.591	437.54
460.964	455.62
461.337	463.08
461.71	461.5
462.083	452.01
462.456	469.86
462.829	423.76
463.201	454.04
463.574	445.23
463.947	479.58
464.32	462.63
464.692	475.28
465.065	484.55
465.438	475.28
465.81	469.86
466.183	466.47
466.555	494.94
466.928	464.66
467.3	479.58
467.672	500.14
468.045	485.91
468.417	483.65
468.789	494.94
469.161	496.3
469.534	494.72
469.906	510.99
470.278	496.98
470.65	508.28
471.022	512.12
471.394	522.06
471.766	520.71
472.138	533.36
472.51	521.38
472.882	543.76
473.253	543.08
473.625	536.75
473.997	534.49
474.369	560.25
474.74	564.55
475.112	545.11
475.484	556.64
475.855	557.32
476.227	554.38
476.598	575.17
476.97	579.46
477.341	583.76
477.713	569.52
478.084	573.13
478.455	610.65
478.827	614.04
479.198	597.99
479.569	602.96
479.94	619.24
480.311	624.88
480.682	649.06
481.053	633.47
481.424	663.53
481.795	632.57
482.166	639.12
482.537	667.37
482.908	682.51
483.279	668.5
483.65	670.53
484.021	692.68
484.391	698.33
484.762	710.76
485.133	722.06
485.503	701.27
485.874	718.67
486.244	712.57
486.615	732.23
486.985	723.19
487.356	737.42
487.726	736.07
488.097	732.68
488.467	773.36
488.837	776.29
489.207	780.59
489.578	781.94
489.948	796.86
490.318	795.05
490.688	788.72
491.058	808.61
491.428	810.19
491.798	827.37
492.168	819.46
492.538	832.34
492.908	860.81
493.278	816.07
493.648	866.46
494.017	854.71
494.387	871.21
494.757	871.88
495.126	850.42
495.496	840.92
495.866	855.16
496.235	879.79
496.605	880.47
496.974	876.63
497.344	910.53
497.713	889.74
498.082	890.41
498.452	912.33
498.821	881.6
499.19	927.7
499.559	927.93
499.928	913.92
500.298	928.61
500.667	943.07
501.036	906.46
501.405	941.03
501.774	939.68
502.143	938.77
502.512	947.59
502.88	923.18
503.249	955.95
503.618	960.7
503.987	939.9
504.356	962.5
504.724	965.89
505.093	967.7
505.462	969.73
505.83	971.32
506.199	975.38
506.567	984.65
506.936	961.15
507.304	980.36
507.672	991.2
508.041	985.78
508.409	971.09
508.777	974.03
509.145	1010.19
509.514	1006.57
509.882	1008.83
510.25	992.56
510.618	1029.17
510.986	988.04
511.354	1037.08
511.722	1027.13
512.09	1046.57
512.458	1035.04
512.826	1048.6
513.193	1040.92
513.561	1045.21
513.929	1059.68
514.297	1070.97
514.664	1051.99
515.032	1056.74
515.4	1058.77
515.767	1051.77
516.135	1064.87
516.502	1060.81
516.869	1079.11
517.237	1079.11
517.604	1076.62
517.972	1086.79
518.339	1085.44
518.706	1093.12
519.073	1108.04
519.44	1084.76
519.808	1129.5
520.175	1102.39
520.542	1091.09
520.909	1099.22
521.276	1098.32
521.643	1112.33
522.009	1132.67
522.376	1124.98
522.743	1134.25
523.11	1155.27
523.477	1117.53
523.843	1158.43
524.21	1164.98
524.577	1148.49
524.943	1139
525.31	1166.11
525.676	1175.83
526.043	1166.79
526.409	1186.68
526.776	1176.96
527.142	1204.3
527.508	1195.94
527.874	1181.48
528.241	1203.17
528.607	1172.67
528.973	1198.88
529.339	1184.87
529.705	1239.56
530.071	1183.06
530.437	1181.25
530.803	1219.9
531.169	1207.92
531.535	1185.55
531.901	1215.83
532.267	1206.34
532.632	1222.61
532.998	1194.36
533.364	1223.51
533.73	1211.76
534.095	1197.3
534.461	1211.31
534.826	1199.56
535.192	1230.07
535.557	1226.22
535.923	1183.97
536.288	1207.69
536.653	1237.98
537.019	1234.81
537.384	1210.86
537.749	1244.98
538.114	1255.83
538.479	1236.85
538.845	1199.56
539.21	1229.61
539.575	1254.7
539.94	1238.65
540.305	1223.96
540.67	1244.08
541.034	1233
541.399	1243.63
541.764	1209.28
542.129	1233.91
542.494	1243.17
542.858	1237.75
543.223	1240.24
543.587	1215.15
543.952	1237.07
544.316	1243.4
544.681	1239.56
545.045	1212.21
545.41	1245.89
545.774	1262.83
546.138	1218.99
546.503	1227.58
546.867	1231.2
547.231	1226.9
547.595	1228.03
547.959	1242.04
548.324	1256.96
548.688	1234.36
549.052	1270.97
549.416	1256.05
549.779	1259.9
550.143	1267.13
550.507	1261.25
550.871	1276.17
551.235	1229.61
551.599	1245.43
551.962	1261.48
552.326	1256.73
552.689	1275.26
553.053	1262.16
553.417	1258.77
553.78	1262.83
554.143	1257.18
554.507	1250.63
554.87	1254.47
555.234	1283.17
555.597	1268.03
555.96	1302.83
556.323	1279.56
556.686	1273.91
557.05	1285.66
557.413	1285.21
557.776	1279.56
558.139	1297.64
558.502	1297.64
558.865	1295.15
559.228	1301.93
559.59	1295.6
559.953	1308.03
560.316	1284.75
560.679	1285.21
561.041	1326.56
561.404	1318.43
561.767	1328.37
562.129	1315.04
562.492	1337.18
562.854	1313
563.217	1297.64
563.579	1316.17
563.941	1320.46
564.304	1321.82
564.666	1312.32
565.028	1317.3
565.39	1342.38
565.753	1342.83
566.115	1338.76
566.477	1356.84
566.839	1360.46
567.201	1374.92
567.563	1349.16
567.925	1323.85
568.287	1365.66
568.648	1319.56
569.01	1366.56
569.372	1357.29
569.734	1382.6
570.095	1338.76
570.457	1359.1
570.819	1376.5
571.18	1399.33
571.542	1357.75
571.903	1353.68
572.265	1372.66
572.626	1367.24
572.987	1351.65
573.349	1366.79
573.71	1361.36
574.071	1369.05
574.432	1376.96
574.794	1362.04
575.155	1372.89
575.516	1362.49
575.877	1353.45
576.238	1372.21
576.599	1366.79
576.96	1374.47
577.32	1359.55
577.681	1388.93
578.042	1369.05
578.403	1357.97
578.763	1348.71
579.124	1371.53
579.485	1355.71
579.845	1366.79
580.206	1371.53
580.566	1375.6
580.927	1358.65
581.287	1394.13
581.648	1350.29
582.008	1366.79
582.368	1364.07
582.728	1361.36
583.089	1328.37
583.449	1356.62
583.809	1374.24
584.169	1326.11
584.529	1322.04
584.889	1350.52
585.249	1344.41
585.609	1328.14
585.969	1352.1
586.329	1336.96
586.688	1373.34
587.048	1346.9
587.408	1335.83
587.768	1325.43
588.127	1326.79
588.487	1323.17
588.846	1362.94
589.206	1341.7
589.565	1333.11
589.925	1355.26
590.284	1334.24
590.643	1342.83
591.003	1334.92
591.362	1339.22
591.721	1327.92
592.08	1313.68
592.44	1336.05
592.799	1327.47
593.158	1322.04
593.517	1326.11
593.876	1319.78
594.235	1351.42
594.593	1336.73
594.952	1345.09
595.311	1329.72
595.67	1300.12
596.029	1324.75
596.387	1339.44
596.746	1324.98
597.104	1312.32
597.463	1329.95
597.822	1336.73
598.18	1339.67
598.538	1321.14
598.897	1318.65
599.255	1307.8
599.613	1312.32
599.972	1328.14
600.33	1319.56
600.688	1314.13
601.046	1283.62
601.404	1338.54
601.762	1309.16
602.12	1337.18
602.478	1312.1
602.836	1325.88
603.194	1341.25
603.552	1343.51
603.91	1310.97
604.268	1341.93
604.625	1310.52
604.983	1347.8
605.341	1304.19
605.698	1332.66
606.056	1318.88
606.413	1353.23
606.771	1348.48
607.128	1347.35
607.485	1342.83
607.843	1359.33
608.2	1344.41
608.557	1345.32
608.914	1359.55
609.272	1354.36
609.629	1353
609.986	1359.1
610.343	1359.55
610.7	1355.71
611.057	1356.62
611.414	1363.17
611.771	1356.16
612.127	1353.68
612.484	1392.77
612.841	1378.09
613.198	1346.45
613.554	1365.66
613.911	1368.37
614.267	1392.1
614.624	1350.29
614.98	1378.76
615.337	1360.23
615.693	1382.83
616.05	1381.7
616.406	1385.32
616.762	1364.53
617.118	1375.15
617.475	1378.76
617.831	1385.54
618.187	1365.88
618.543	1378.76
618.899	1391.64
619.255	1374.7
619.611	1372.44
619.967	1366.33
620.323	1396.62
620.678	1368.59
621.034	1401.36
621.39	1389.16
621.746	1354.13
622.101	1389.61
622.457	1373.79
622.812	1382.83
623.168	1364.98
623.523	1361.59
623.879	1351.87
624.234	1349.61
624.589	1374.02
624.945	1368.59
625.3	1393.9
625.655	1382.6
626.01	1386.22
626.365	1364.3
626.72	1369.95
627.075	1380.35
627.43	1413.11
627.785	1373.79
628.14	1374.47
628.495	1393.45
628.85	1379.44
629.205	1376.28
629.559	1393.23
629.914	1395.49
630.269	1357.07
630.623	1374.47
630.978	1350.06
631.332	1379.22
631.687	1387.12
632.041	1370.63
632.396	1357.75
632.75	1357.97
633.104	1352.55
633.459	1359.33
633.813	1365.2
634.167	1363.62
634.521	1342.61
634.875	1349.84
635.229	1353
635.583	1333.34
635.937	1344.41
636.291	1355.94
636.645	1355.94
636.999	1342.61
637.352	1344.19
637.706	1346.45
638.06	1346.9
638.413	1371.76
638.767	1344.64
639.121	1344.41
639.474	1329.5
639.828	1345.54
640.181	1335.15
640.534	1374.47
640.888	1369.72
641.241	1361.81
641.594	1341.25
641.947	1359.1
642.301	1351.65
642.654	1344.87
643.007	1361.36
643.36	1331.53
643.713	1344.41
644.066	1361.36
644.419	1336.73
644.771	1324.08
645.124	1358.42
645.477	1343.96
645.83	1338.76
646.182	1321.82
646.535	1351.65
646.888	1343.74
647.24	1348.26
647.593	1356.62
647.945	1341.93
648.298	1345.09
648.65	1350.97
649.002	1331.76
649.355	1333.34
649.707	1380.35
650.059	1378.54
650.411	1353.45
650.763	1397.75
651.115	1378.54
651.467	1401.36
651.819	1412.66
652.171	1417.41
652.523	1414.92
652.875	1393.45
653.227	1402.27
653.578	1412.43
653.93	1437.52
654.282	1422.15
654.633	1428.93
654.985	1421.47
655.337	1429.84
655.688	1427.58
656.039	1456.05
656.391	1436.39
656.742	1471.19
657.094	1453.79
657.445	1456.95
657.796	1443.17
658.147	1473.45
658.498	1482.04
658.849	1475.48
659.2	1488.14
659.551	1498.99
659.902	1508.03
660.253	1528.82
660.604	1513.22
660.955	1518.19
661.306	1544.41
661.656	1542.15
662.007	1523.39
662.358	1505.09
662.708	1528.59
663.059	1560
663.409	1571.3
663.76	1576.05
664.11	1571.53
664.461	1602.71
664.811	1607.46
665.161	1593.67
665.511	1614.24
665.862	1633.45
666.212	1651.07
666.562	1675.03
666.912	1656.04
667.262	1702.6
667.612	1694.69
667.962	1692.88
668.312	1700.34
668.662	1738.3
669.011	1731.97
669.361	1750.73
669.711	1773.56
670.06	1752.09
670.41	1752.09
670.76	1787.34
671.109	1806.55
671.459	1802.25
671.808	1843.61
672.157	1829.15
672.507	1811.07
672.856	1837.51
673.205	1840.45
673.554	1893.78
673.904	1906.66
674.253	1910.05
674.602	1925.64
674.951	1912.53
675.3	1904.17
675.649	1958.86
675.998	1970.39
676.346	1981.46
676.695	2003.15
677.044	2011.29
677.393	2034.57
677.741	2043.83
678.09	2045.41
678.438	2067.33
678.787	2110.27
679.135	2087.45
679.484	2131.96
679.832	2113.66
680.181	2181.68
680.529	2196.14
680.877	2205.41
681.225	2221.23
681.573	2228.46
681.922	2219.42
682.27	2244.05
682.618	2286.31
682.966	2297.16
683.314	2299.64
683.661	2310.26
684.009	2319.76
684.357	2350.49
684.705	2333.99
685.053	2401.34
685.4	2371.28
685.748	2406.76
686.095	2427.1
686.443	2489.24
686.79	2476.59
687.138	2458.51
687.485	2527.89
687.832	2534.66
688.18	2571.5
688.527	2557.49
688.874	2555.46
689.221	2631.39
689.568	2618.05
689.915	2630.48
690.262	2646.07
690.609	2693.53
690.956	2700.31
691.303	2689.92
691.65	2732.4
691.997	2713.19
692.344	2784.6
692.69	2807.2
693.037	2816.47
693.383	2842.68
693.73	2837.26
694.077	2858.95
694.423	2832.51
694.769	2893.07
695.116	2890.81
695.462	2937.82
695.808	2944.37
696.155	2963.58
696.501	2997.7
696.847	3032.28
697.193	3027.99
697.539	3060.07
697.885	3019.17
698.231	3081.32
698.577	3133.07
698.923	3108.89
699.269	3133.29
699.614	3183.69
699.96	3176.46
700.306	3168.32
700.651	3207.19
700.997	3216.68
701.342	3243.8
701.688	3254.87
702.033	3281.76
702.379	3333.29
702.724	3264.59
703.069	3377.81
703.415	3347.3
703.76	3354.3
704.105	3350.01
704.45	3384.36
704.795	3396.56
705.14	3420.29
705.485	3456
705.83	3454.19
706.175	3497.35
706.52	3531.25
706.865	3516.56
707.209	3574.41
707.554	3564.69
707.899	3602.21
708.243	3645.37
708.588	3623.22
708.932	3609.66
709.277	3687.63
709.621	3694.18
709.966	3699.15
710.31	3696.67
710.654	3712.04
710.998	3748.87
711.342	3725.59
711.687	3753.16
712.031	3769.21
712.375	3767.63
712.719	3809.21
713.063	3818.25
713.407	3855.31
713.75	3875.65
714.094	3878.36
714.438	3871.35
714.782	3941.63
715.125	3888.98
715.469	3910
715.812	3914.74
716.156	3906.38
716.499	3968.3
716.843	3989.99
717.186	3967.62
717.53	4013.72
717.873	4043.1
718.216	4039.26
718.559	4020.05
718.902	3998.81
719.246	4035.42
719.589	4046.72
719.932	4020.05
720.275	4102.31
720.617	4105.7
720.96	4069.31
721.303	4148.41
721.646	4142.98
721.989	4141.85
722.331	4211.23
722.674	4147.28
723.016	4178.46
723.359	4181.63
723.701	4229.99
724.044	4138.46
724.386	4127.84
724.729	4204.23
725.071	4190.67
725.413	4224.56
725.755	4232.25
726.097	4228.86
726.439	4227.95
726.782	4227.28
727.124	4267.27
727.465	4285.35
727.807	4251.46
728.149	4257.56
728.491	4236.54
728.833	4312.47
729.175	4291
729.516	4272.47
729.858	4277.67
730.199	4300.49
730.541	4297.56
730.882	4318.12
731.224	4309.76
731.565	4328.97
731.906	4300.27
732.248	4333.26
732.589	4309.53
732.93	4328.29
733.271	4301.62
733.612	4324.45
733.953	4368.29
734.294	4406.03
734.635	4366.26
734.976	4328.74
735.317	4342.98
735.658	4355.63
735.999	4348.63
736.339	4378.91
736.68	4322.87
737.021	4397.67
737.361	4368.06
737.702	4366.71
738.042	4393.6
738.383	4397.21
738.723	4383.2
739.063	4361.96
739.404	4390.89
739.744	4387.5
740.084	4352.24
740.424	4345.92
740.764	4353.6
741.104	4346.37
741.444	4364.22
741.784	4356.31
742.124	4355.63
742.464	4354.28
742.804	4331.68
743.143	4324.45
743.483	4382.53
743.823	4301.85
744.162	4311.34
744.502	4366.03
744.841	4342.75
745.181	4341.4
745.52	4322.87
745.86	4336.65
746.199	4341.62
746.538	4349.98
746.877	4368.52
747.216	4377.33
747.556	4346.14
747.895	4319.93
748.234	4286.26
748.573	4300.27
748.911	4307.27
749.25	4319.25
749.589	4342.53
749.928	4336.43
750.267	4348.85
750.605	4263.66
750.944	4268.86
751.283	4272.7
751.621	4280.38
751.96	4295.52
752.298	4285.58
752.636	4234.51
752.975	4225.92
753.313	4251.23
753.651	4227.73
753.989	4226.6
754.327	4228.18
754.666	4203.55
755.004	4206.03
755.342	4224.56
755.679	4217.33
756.017	4186.6
756.355	4161.97
756.693	4198.58
757.031	4160.38
757.368	4173.94
757.706	4189.76
758.044	4159.48
758.381	4139.14
758.719	4080.39
759.056	4150.22
759.394	4107.28
759.731	4088.52
760.068	4140.5
760.405	4046.26
760.743	4062.53
761.08	4073.38
761.417	4050.56
761.754	4062.53
762.091	4062.76
762.428	3996.77
762.765	4013.27
763.102	4033.38
763.438	4007.85
763.775	3995.87
764.112	3978.24
764.449	3968.07
764.785	3969.66
765.122	3948.41
765.458	3950.9
765.795	3909.32
766.131	3936.89
766.467	3926.27
766.804	3853.5
767.14	3886.72
767.476	3861.64
767.812	3885.36
768.148	3862.54
768.485	3835.42
768.821	3842.65
769.157	3844.69
769.492	3825.48
769.828	3834.74
770.164	3769.66
770.5	3769.66
770.836	3796.1
771.171	3784.35
771.507	3745.71
771.842	3741.19
772.178	3715.88
772.513	3690.57
772.849	3669.32
773.184	3697.57
773.519	3712.04
773.855	3657.8
774.19	3681.3
774.525	3653.05
774.86	3641.3
775.195	3658.25
775.53	3647.86
775.865	3627.29
776.2	3583.68
776.535	3573.28
776.87	3584.35
777.205	3583.22
777.539	3569.89
777.874	3508.65
778.209	3542.55
778.543	3501.87
778.878	3493.51
779.212	3533.06
779.547	3457.58
779.881	3477.24
780.215	3455.54
780.55	3484.7
780.884	3411.48
781.218	3427.75
781.552	3426.62
781.886	3396.11
782.22	3401.08
782.554	3350.24
782.888	3357.69
783.222	3358.37
783.556	3307.75
783.889	3297.81
784.223	3284.7
784.557	3333.51
784.89	3287.64
785.224	3303.46
785.557	3301.88
785.891	3255.55
786.224	3303.91
786.558	3287.41
786.891	3247.19
787.224	3244.02
787.557	3195.44
787.891	3222.33
788.224	3168.32
788.557	3237.92
788.89	3204.03
789.223	3194.76
789.556	3131.49
789.888	3115.21
790.221	3148.21
790.554	3179.62
790.887	3124.71
791.219	3126.29
791.552	3103.01
791.884	3064.14
792.217	3057.14
792.549	3085.61
792.882	3042.45
793.214	3057.82
793.546	3057.82
793.879	3015.78
794.211	3004.26
794.543	3052.62
794.875	3031.38
795.207	3013.07
795.539	2991.15
795.871	3014.88
796.203	2991.15
796.535	2969
796.867	2980.3
797.198	2962.68
797.53	2984.14
797.862	2948.21
798.193	2945.28
798.525	2904.37
798.856	2958.16
799.188	2908.21
799.519	2893.75
799.85	2859.63
800.182	2873.41
800.513	2923.36
800.844	2856.92
801.175	2873.41
801.506	2863.24
801.837	2866.86
802.168	2844.26
802.499	2820.31
802.83	2827.76
803.161	2828.44
803.491	2837.48
803.822	2807.43
804.153	2774.66
804.483	2788.9
804.814	2773.3
805.145	2777.6
805.475	2729.01
805.805	2760.2
806.136	2778.05
806.466	2702.12
806.796	2723.59
807.126	2735.56
807.457	2727.43
807.787	2729.91
808.117	2734.21
808.447	2709.35
808.777	2715.23
809.107	2702.12
809.436	2691.5
809.766	2695.34
810.096	2710.93
810.426	2655.57
810.755	2669.12
811.085	2680.42
811.414	2689.92
811.744	2664.83
812.073	2671.16
812.403	2643.14
812.732	2634.1
813.061	2639.3
813.39	2609.01
813.719	2565.85
814.049	2617.6
814.378	2585.51
814.707	2565.17
815.036	2576.92
815.365	2548.45
815.693	2557.04
816.022	2540.09
816.351	2551.16
816.68	2591.61
817.008	2571.95
817.337	2527.89
817.665	2552.74
817.994	2521.78
818.322	2551.84
818.651	2483.82
818.979	2493.99
819.307	2476.81
819.636	2514.33
819.964	2485.17
820.292	2510.71
820.62	2482.69
820.948	2496.02
821.276	2477.04
821.604	2492.86
821.932	2472.29
822.259	2477.94
822.587	2480.66
822.915	2461.67
823.243	2486.3
823.57	2480.2
823.898	2480.88
824.225	2450.6
824.553	2479.53
824.88	2474.78
825.207	2493.31
825.535	2469.36
825.862	2488.11
826.189	2441.56
826.516	2446.31
826.843	2465.97
827.17	2493.54
827.497	2479.75
827.824	2476.59
828.151	2474.33
828.478	2481.33
828.805	2472.29
829.131	2465.51
829.458	2496.47
829.785	2472.07
830.111	2467.32
830.438	2511.16
830.764	2437.27
831.09	2465.97
831.417	2477.04
831.743	2471.39
832.069	2487.21
832.395	2441.11
832.722	2471.39
833.048	2486.3
833.374	2483.14
833.7	2431.39
834.026	2443.59
834.351	2457.6
834.677	2494.67
835.003	2464.16
835.329	2455.12
835.654	2427.55
835.98	2436.14
836.306	2431.62
836.631	2448.34
836.956	2451.5
837.282	2458.51
837.607	2444.27
837.932	2380.32
838.258	2435.91
838.583	2404.95
838.908	2406.31
839.233	2425.52
839.558	2439.75
839.883	2419.19
840.208	2383.03
840.533	2399.75
840.858	2400.43
841.182	2384.61
841.507	2383.71
841.832	2380.32
842.156	2360.21
842.481	2372.41
842.805	2368.79
843.13	2377.61
843.454	2367.66
843.778	2361.79
844.103	2329.25
844.427	2366.08
844.751	2334.22
845.075	2343.03
845.399	2320.21
845.723	2328.34
846.047	2316.37
846.371	2298.06
846.695	2318.4
847.019	2277.5
847.343	2319.3
847.666	2280.21
847.99	2243.15
848.313	2240.89
848.637	2206.09
848.96	2266.65
849.284	2213.09
849.607	2207.67
849.931	2218.29
850.254	2218.29
850.577	2207.89
850.9	2178.52
851.223	2156.6
851.546	2174.45
851.869	2156.14
852.192	2182.13
852.515	2184.39
852.838	2157.95
853.161	2149.36
853.483	2178.74
853.806	2126.77
854.129	2130.38
854.451	2141.23
854.774	2098.97
855.096	2098.74
855.419	2101.23
855.741	2100.1
856.063	2091.06
856.385	2103.94
856.708	2092.19
857.03	2061.23
857.352	2097.16
857.674	2049.25
857.996	2051.29
858.318	2024.4
858.64	2057.62
858.961	2053.77
859.283	2064.17
859.605	2031.85
859.926	2080.67
860.248	2027.11
860.57	2013.55
860.891	2016.49
861.212	1987.11
861.534	2009.26
861.855	1992.76
862.176	1996.6
862.498	2013.1
862.819	2038.86
863.14	2023.72
863.461	1975.81
863.782	1993.66
864.103	1979.43
864.424	1973.1
864.745	1995.24
865.065	1972.65
865.386	1981.69
865.707	1971.97
866.027	1963.38
866.348	1998.86
866.668	1959.54
866.989	1962.93
867.309	1939.2
867.63	1977.84
867.95	1968.13
868.27	1917.28
868.59	1924.96
868.91	1959.76
869.23	1950.5
869.55	1930.39
869.87	1951.86
870.19	1941.91
870.51	1946.66
870.83	1925.19
871.15	1905.75
871.469	1909.37
871.789	1923.16
872.109	1879.54
872.428	1902.14
872.748	1919.99
873.067	1921.35
873.386	1884.96
873.706	1927.68
874.025	1897.62
874.344	1893.55
874.663	1890.16
874.982	1906.88
875.301	1905.08
875.62	1870.5
875.939	1882.48
876.258	1852.65
876.577	1861.46
876.896	1903.72
877.214	1911.18
877.533	1869.15
877.852	1905.3
878.17	1860.56
878.489	1884.29
878.807	1840.45
879.125	1884.51
879.444	1860.11
879.762	1840.22
880.08	1837.73
880.398	1869.15
880.716	1852.88
881.034	1825.08
881.352	1842.03
881.67	1846.55
881.988	1833.21
882.306	1849.94
882.624	1828.24
882.941	1822.14
883.259	1817.62
883.577	1817.17
883.894	1828.02
884.212	1792.54
884.529	1807.23
884.846	1816.49
885.164	1790.5
885.481	1784.85
885.798	1779.88
886.115	1798.64
886.432	1778.98
886.75	1768.58
887.067	1781.24
887.383	1768.36
887.7	1770.62
888.017	1767
888.334	1756.15
888.651	1781.01
888.967	1735.82
889.284	1738.3
889.6	1756.38
889.917	1743.73
890.233	1760.9
890.55	1743.73
890.866	1710.51
891.182	1725.65
891.498	1733.1
891.815	1715.7
892.131	1713.44
892.447	1708.92
892.763	1710.96
893.079	1724.06
893.395	1703.73
893.71	1680.22
894.026	1707.57
894.342	1686.78
894.657	1677.29
894.973	1679.55
895.289	1684.74
895.604	1675.25
895.92	1687.46
896.235	1637.97
896.55	1666.44
896.865	1648.36
897.181	1648.13
897.496	1644.52
897.811	1627.12
898.126	1627.34
898.441	1628.02
898.756	1626.67
899.071	1622.37
899.386	1619.43
899.7	1622.15
900.015	1574.69
900.33	1617.17
900.644	1589.38
900.959	1590.96
901.273	1623.05
901.588	1571.98
901.902	1557.29
902.216	1529.95
902.531	1603.62
902.845	1561.13
903.159	1546.67
903.473	1567.01
903.787	1548.02
904.101	1534.01
904.415	1553.9
904.729	1550.51
905.042	1554.58
905.356	1519.55
905.67	1518.87
905.984	1508.93
906.297	1510.74
906.611	1506.67
906.924	1521.81
907.237	1515.26
907.551	1483.39
907.864	1498.08
908.177	1477.74
908.491	1484.3
908.804	1453.56
909.117	1456.05
909.43	1451.53
909.743	1456.73
910.056	1469.16
910.368	1456.05
910.681	1447.46
910.994	1460.57
911.307	1472.32
911.619	1435.48
911.932	1447.69
912.244	1404.07
912.557	1430.74
912.869	1399.1
913.181	1428.71
913.494	1422.6
913.806	1392.1
914.118	1405.88
914.43	1381.7
914.742	1390.74
915.054	1365.2
915.366	1368.82
915.678	1402.04
915.99	1364.75
916.302	1394.81
916.613	1377.86
916.925	1344.41
917.236	1315.49
917.548	1340.12
917.859	1351.19
918.171	1348.03
918.482	1334.24
918.794	1319.33
919.105	1308.71
919.416	1327.47
919.727	1301.7
920.038	1285.43
920.349	1297.86
920.66	1303.96
920.971	1262.83
921.282	1298.54
921.593	1296.05
921.903	1281.14
922.214	1261.93
922.525	1291.99
922.835	1275.72
923.146	1271.87
923.456	1265.09
923.767	1274.81
924.077	1250.18
924.387	1245.66
924.697	1239.56
925.008	1225.09
925.318	1238.65
925.628	1243.4
925.938	1219.67
926.248	1215.6
926.558	1203.85
926.867	1226.22
927.177	1185.1
927.487	1202.95
927.796	1179.9
928.106	1218.54
928.416	1197.3
928.725	1196.4
929.034	1194.36
929.344	1197.07
929.653	1217.86
929.962	1200.24
930.271	1198.65
930.581	1151.88
930.89	1148.26
931.199	1173.12
931.508	1153.23
931.817	1166.11
932.125	1157.07
932.434	1156.17
932.743	1165.89
933.051	1141.93
933.36	1158.43
933.669	1134.02
933.977	1128.6
934.286	1133.35
934.594	1120.92
934.902	1107.58
935.21	1109.17
935.519	1131.31
935.827	1122.72
936.135	1095.61
936.443	1080.69
936.751	1091.77
937.059	1087.92
937.367	1094.48
937.674	1091.77
937.982	1075.72
938.29	1085.44
938.597	1064.42
938.905	1079.79
939.213	1068.04
939.52	1074.36
939.827	1082.95
940.135	1055.16
940.442	1077.53
940.749	1061.26
941.056	1064.87
941.363	1034.82
941.67	1042.27
941.977	1044.53
942.284	1064.2
942.591	1027.81
942.898	1060.58
943.205	1030.3
943.511	1026
943.818	1020.35
944.125	1009.73
944.431	1043.4
944.738	1015.83
945.044	1003.18
945.35	1002.05
945.657	1014.93
945.963	999.34
946.269	999.11
946.575	1003.63
946.881	994.82
947.187	1000.47
947.493	984.65
947.799	990.3
948.105	964.99
948.41	960.24
948.716	978.32
949.022	969.73
949.327	947.59
949.633	950.07
949.938	967.02
950.244	966.12
950.549	948.49
950.854	922.05
951.16	947.81
951.465	966.57
951.77	945.1
952.075	951.43
952.38	945.33
952.685	936.97
952.99	933.35
953.294	940.36
953.599	912.33
953.904	923.63
954.209	901.04
954.513	894.71
954.818	926.12
955.122	920.92
955.426	898.1
955.731	892.22
956.035	917.76
956.339	907.14
956.643	906.01
956.948	893.8
957.252	910.3
957.556	890.41
957.86	872.79
958.163	882.51
958.467	899.23
958.771	875.73
959.075	872.56
959.378	870.75
959.682	877.53
959.985	871.21
960.289	869.17
960.592	879.57
960.896	872.56
961.199	856.74
961.502	856.97
961.805	864.88
962.108	871.43
962.411	840.92
962.714	847.25
963.017	845.9
963.32	831.21
963.623	855.84
963.926	824.2
964.228	858.78
964.531	839.79
964.833	830.3
965.136	843.86
965.438	815.39
965.741	825.11
966.043	816.52
966.345	852.68
966.648	798.89
966.95	805.44
967.252	785.11
967.554	796.63
967.856	817.65
968.158	805.22
968.46	800.7
968.761	814.94
969.063	808.61
969.365	793.02
969.666	809.06
969.968	808.16
970.269	770.87
970.571	776.75
970.872	789.4
971.174	766.12
971.475	788.72
971.776	775.39
972.077	759.12
972.378	766.12
972.679	767.48
972.98	777.42
973.281	778.55
973.582	770.64
973.883	743.07
974.183	752.79
974.484	775.39
974.785	775.62
975.085	760.93
975.386	764.54
975.686	731.32
975.986	743.3
976.287	737.42
976.587	740.59
976.887	736.97
977.187	735.39
977.487	753.92
977.787	716.41
978.087	712.79
978.387	742.4
978.687	725.9
978.987	727.93
979.286	724.09
979.586	722.28
979.885	697.88
980.185	725.67
980.484	713.92
980.784	707.14
981.083	714.15
981.382	705.79
981.682	717.54
981.981	717.09
982.28	705.79
982.579	715.28
982.878	721.15
983.177	703.3
983.475	680.02
983.774	697.88
984.073	701.94
984.372	681.15
984.67	683.19
984.969	708.72
985.267	701.72
985.566	673.92
985.864	662.17
986.162	670.99
986.461	672.12
986.759	671.66
987.057	662.17
987.355	678.89
987.653	694.26
987.951	672.79
988.249	658.33
988.547	664.43
988.844	658.78
989.142	667.37
989.44	662.85
989.737	656.75
990.035	633.92
990.332	640.03
990.63	675.05
990.927	651.32
991.224	645.9
991.521	642.06
991.819	653.13
992.116	650.87
992.413	667.82
992.71	626.69
993.006	644.77
993.303	623.98
993.6	636.41
993.897	628.5
994.193	633.47
994.49	632.34
994.787	620.14
995.083	617.2
995.379	626.24
995.676	617.2
995.972	632.79
996.268	617.43
996.565	624.43
996.861	607.94
997.157	602.51
997.453	593.93
997.749	610.42
998.044	577.88
998.34	614.04
998.636	593.7
998.932	618.11
999.227	579.46
999.523	597.99
999.818	594.6
1000.114	597.54
1000.409	607.71
1000.704	579.69
1001	564.77
1001.295	586.24
1001.59	557.54
1001.885	587.6
1002.18	580.82
1002.475	566.81
1002.77	575.39
1003.065	566.13
1003.359	606.81
1003.654	572.46
1003.949	574.49
1004.243	580.37
1004.538	568.61
1004.832	560.03
1005.127	557.99
1005.421	559.35
1005.715	573.13
1006.009	572.68
1006.304	554.38
1006.598	550.76
1006.892	547.37
1007.186	568.84
1007.48	541.05
1007.773	552.34
1008.067	567.94
1008.361	550.54
1008.655	550.31
1008.948	546.02
1009.242	549.41
1009.535	531.55
1009.829	546.02
1010.122	538.79
1010.415	533.36
1010.708	530.2
1011.001	522.97
1011.295	557.09
1011.588	534.27
1011.881	522.51
1012.173	542.18
1012.466	522.97
1012.759	520.03
1013.052	513.02
1013.344	505.11
1013.637	513.7
1013.93	518.9
1014.222	501.05
1014.514	530.42
1014.807	521.84
1015.099	489.97
1015.391	529.29
1015.683	509.86
1015.976	526.13
1016.268	494.27
1016.56	498.11
1016.851	512.8
1017.143	489.3
1017.435	482.06
1017.727	482.74
1018.018	480.26
1018.31	493.36
1018.602	494.72
1018.893	503.31
1019.185	479.58
1019.476	492.68
1019.767	502.63
1020.058	476.64
1020.35	486.13
1020.641	476.19
1020.932	479.8
1021.223	490.88
1021.514	466.02
1021.804	495.85
1022.095	481.84
1022.386	488.84
1022.677	447.94
1022.967	462.63
1023.258	480.93
1023.548	464.89
1023.839	484.55
1024.129	478.67
1024.419	456.3
1024.709	468.05
1025	466.02
1025.29	486.13
1025.58	476.87
1025.87	454.72
1026.16	448.39
1026.449	462.86
1026.739	452.46
1027.029	478.22
1027.319	443.65
1027.608	442.06
1027.898	439.8
1028.187	434.83
1028.477	467.15
1028.766	444.32
1029.055	435.51
1029.344	430.77
1029.634	431.67
1029.923	436.64
1030.212	432.12
1030.501	459.47
1030.79	453.14
1031.078	444.78
1031.367	432.35
1031.656	437.32
1031.945	427.15
1032.233	433.25
1032.522	436.19
1032.81	442.74
1033.099	432.35
1033.387	415.62
1033.675	419.47
1033.963	436.87
1034.251	433.25
1034.54	430.77
1034.828	424.44
1035.116	421.05
1035.403	427.15
1035.691	427.15
1035.979	412.91
1036.267	411.33
1036.554	415.62
1036.842	429.86
1037.129	411.78
1037.417	421.05
1037.704	405.68
1037.992	431.44
1038.279	403.42
1038.566	426.02
1038.853	426.02
1039.14	426.02
