Data from carpet_green_FLMS001491_00027.txt Node
Date: Wed Feb 08 10:35:08 GMT 2017
User: dcchb
Spectrometer: FLMS00149
Trigger mode: 0
Integration Time (sec): 2.000000E-2
Scans to average: 10
Electric dark correction enabled: true
Nonlinearity correction enabled: false
Boxcar width: 0
XAxis mode: Wavelengths
Number of Pixels in Spectrum: 2048
>>>>>Begin Spectral Data<<<<<
341.393	-24.41
341.776	-24.41
342.16	-24.41
342.543	-72.54
342.927	-76.38
343.31	-72.54
343.693	-59.66
344.077	-72.31
344.46	-65.99
344.843	-55.82
345.226	-32.77
345.61	-25.54
345.993	-31.86
346.376	-8.14
346.759	28.93
347.142	46.55
347.525	38.64
347.908	51.52
348.291	58.53
348.674	91.52
349.057	108.92
349.44	134.01
349.823	129.94
350.206	169.26
350.588	170.84
350.971	183.95
351.354	204.51
351.737	214.23
352.119	228.69
352.502	247.45
352.884	254
353.267	254
353.65	281.57
354.032	257.62
354.414	298.07
354.797	312.76
355.179	292.87
355.562	305.53
355.944	291.07
356.326	285.87
356.709	314.12
357.091	312.53
357.473	308.92
357.855	321.57
358.238	326.09
358.62	316.38
359.002	305.53
359.384	316.38
359.766	301.69
360.148	298.98
360.53	316.6
360.912	319.77
361.294	317.05
361.676	314.34
362.057	317.28
362.439	305.3
362.821	315.92
363.203	321.12
363.584	297.17
363.966	297.39
364.348	309.82
364.729	301.46
365.111	286.32
365.493	275.7
365.874	283.16
366.256	298.75
366.637	270.05
367.019	293.33
367.4	279.77
367.781	300.11
368.163	289.71
368.544	295.59
368.925	304.62
369.306	274.57
369.688	255.59
370.069	270.05
370.45	288.35
370.831	288.13
371.212	288.81
371.593	292.87
371.974	278.18
372.355	294.91
372.736	303.49
373.117	284.74
373.498	269.37
373.879	284.74
374.26	292.42
374.641	295.59
375.021	284.29
375.402	294.23
375.783	296.26
376.163	294.23
376.544	305.75
376.925	297.62
377.305	303.04
377.686	282.03
378.066	287.45
378.447	285.64
378.827	294.23
379.208	294.46
379.588	294.23
379.968	300.33
380.349	291.74
380.729	296.49
381.109	303.72
381.489	305.53
381.87	307.79
382.25	308.24
382.63	298.52
383.01	313.89
383.39	298.52
383.77	283.16
384.15	274.34
384.53	288.58
384.91	319.99
385.29	298.07
385.67	304.62
386.049	283.38
386.429	297.85
386.809	299.2
387.189	325.64
387.568	309.14
387.948	304.85
388.328	335.81
388.707	283.61
389.087	342.36
389.466	317.28
389.846	317.28
390.225	322.93
390.605	299.43
390.984	307.34
391.363	290.61
391.743	301.91
392.122	307.56
392.501	323.61
392.881	311.63
393.26	310.5
393.639	312.76
394.018	316.38
394.397	324.74
394.776	315.92
395.155	319.31
395.534	314.57
395.913	308.01
396.292	318.18
396.671	328.13
397.05	317.28
397.429	322.93
397.808	321.12
398.186	335.36
398.565	322.93
398.944	335.36
399.323	333.32
399.701	307.79
400.08	334.91
400.458	323.61
400.837	331.52
401.215	323.16
401.594	301.01
401.972	320.22
402.351	305.53
402.729	340.78
403.107	317.96
403.486	330.39
403.864	309.6
404.242	323.16
404.62	324.06
404.999	317.05
405.377	320.9
405.755	328.13
406.133	339.43
406.511	313.89
406.889	323.83
407.267	310.95
407.645	340.78
408.023	337.17
408.401	333.78
408.779	334
409.156	339.43
409.534	333.78
409.912	344.62
410.29	344.17
410.667	318.86
411.045	345.53
411.422	335.13
411.8	359.09
412.178	362.7
412.555	353.44
412.933	334.68
413.31	356.15
413.687	347.79
414.065	359.99
414.442	353.44
414.819	343.49
415.197	358.41
415.574	355.47
415.951	336.71
416.328	362.02
416.705	371.97
417.082	349.6
417.46	339.2
417.837	342.82
418.214	355.24
418.591	354.34
418.967	329.71
419.344	349.14
419.721	359.54
420.098	347.79
420.475	350.95
420.852	357.05
421.228	383.04
421.605	367.9
421.982	344.4
422.358	378.97
422.735	364.06
423.111	367
423.488	366.54
423.864	351.18
424.241	383.49
424.617	361.8
424.994	351.18
425.37	361.57
425.746	351.63
426.123	380.1
426.499	340.33
426.875	378.75
427.251	408.8
427.627	377.84
428.003	383.72
428.379	370.84
428.756	392.98
429.132	383.27
429.507	403.38
429.883	383.27
430.259	387.56
430.635	371.74
431.011	373.32
431.387	394.34
431.763	409.48
432.138	397.73
432.514	369.26
432.89	388.69
433.265	392.98
433.641	416.26
434.016	408.12
434.392	389.37
434.767	402.48
435.143	394.34
435.518	409.93
435.894	402.02
436.269	405.64
436.644	420.1
437.02	422.59
437.395	419.65
437.77	399.31
438.145	406.77
438.52	433.43
438.895	417.39
439.271	409.25
439.646	424.17
440.021	425.3
440.395	449.03
440.77	434.34
441.145	418.75
441.52	420.33
441.895	415.13
442.27	429.14
442.645	412.87
443.019	431.63
443.394	439.31
443.769	437.5
444.143	434.56
444.518	446.77
444.892	451.97
445.267	438.86
445.641	456.26
446.016	446.77
446.39	442.7
446.764	443.38
447.139	449.03
447.513	453.77
447.887	442.93
448.262	451.51
448.636	459.87
449.01	476.82
449.384	453.77
449.758	468.69
450.132	457.39
450.506	462.13
450.88	461
451.254	465.52
451.628	477.28
452.002	472.3
452.376	464.62
452.75	488.57
453.123	476.15
453.497	485.41
453.871	475.69
454.244	485.41
454.618	471.4
454.992	471.4
455.365	488.8
455.739	489.03
456.112	493.77
456.486	502.13
456.859	504.85
457.232	508.24
457.606	525.86
457.979	511.17
458.352	521.34
458.725	512.53
459.099	523.6
459.472	521.79
459.845	519.31
460.218	549.36
460.591	520.89
460.964	532.64
461.337	540.1
461.71	546.2
462.083	540.55
462.456	547.78
462.829	554.79
463.201	541
463.574	559.53
463.947	568.35
464.32	544.17
464.692	576.26
465.065	568.35
465.438	570.15
465.81	574
466.183	568.8
466.555	599.08
466.928	588.46
467.3	575.35
467.672	597.27
468.045	600.89
468.417	623.49
468.789	618.97
469.161	604.28
469.534	608.35
469.906	620.32
470.278	639.98
470.65	643.82
471.022	629.36
471.394	653.32
471.766	661.9
472.138	663.71
472.51	679.53
472.882	670.04
473.253	670.94
473.625	725.86
473.997	710.26
474.369	688.12
474.74	722.47
475.112	715.24
475.484	751.62
475.855	740.55
476.227	733.54
476.598	740.77
476.97	753.65
477.341	772.86
477.713	790.04
478.084	796.14
478.455	804.27
478.827	801.79
479.198	814.67
479.569	828.9
479.94	832.75
480.311	839.98
480.682	866.19
481.053	867.1
481.424	868.45
481.795	892.18
482.166	906.87
482.537	904.16
482.908	922.91
483.279	955.68
483.65	946.87
484.021	942.57
484.391	957.26
484.762	991.84
485.133	990.48
485.503	1003.14
485.874	1013.08
486.244	1028.9
486.615	1047.2
486.985	1056.02
487.356	1056.92
487.726	1069.35
488.097	1087.43
488.467	1095.79
488.837	1096.92
489.207	1115.68
489.578	1123.81
489.948	1144.83
490.318	1151.83
490.688	1157.26
491.058	1167.2
491.428	1186.64
491.798	1182.79
492.168	1191.38
492.538	1204.04
492.908	1226.18
493.278	1228.67
493.648	1217.6
494.017	1259.4
494.387	1282.9
494.757	1264.15
495.126	1286.07
495.496	1271.6
495.866	1298.27
496.235	1293.07
496.605	1310.47
496.974	1312.73
497.344	1327.87
497.713	1296.46
498.082	1329.91
498.452	1320.42
498.821	1352.05
499.19	1359.96
499.559	1374.65
499.928	1378.49
500.298	1341.89
500.667	1405.16
501.036	1417.59
501.405	1422.79
501.774	1425.73
502.143	1387.08
502.512	1415.33
502.88	1418.95
503.249	1413.52
503.618	1435.67
503.987	1437.7
504.356	1458.94
504.724	1473.63
505.093	1472.28
505.462	1466.4
505.83	1483.12
506.199	1474.99
506.567	1502.79
506.936	1469.57
507.304	1487.42
507.672	1508.43
508.041	1560.64
508.409	1543.69
508.777	1516.34
509.145	1532.16
509.514	1561.31
509.882	1536.23
510.25	1553.41
510.618	1544.37
510.986	1567.64
511.354	1563.35
511.722	1557.7
512.09	1587.3
512.458	1571.48
512.826	1583.46
513.193	1586.4
513.561	1620.3
513.929	1606.06
514.297	1629.11
514.664	1626.17
515.032	1629.56
515.4	1632.5
515.767	1640.18
516.135	1662.33
516.502	1644.25
516.869	1664.14
517.237	1673.85
517.604	1666.17
517.972	1682.89
518.339	1659.84
518.706	1667.3
519.073	1656.91
519.44	1698.26
519.808	1725.6
520.175	1723.34
520.542	1694.19
520.909	1739.39
521.276	1729.45
521.643	1743.91
522.009	1735.77
522.376	1750.01
522.743	1779.61
523.11	1783.68
523.477	1766.28
523.843	1766.51
524.21	1799.27
524.577	1785.49
524.943	1812.16
525.31	1829.1
525.676	1831.82
526.043	1830.91
526.409	1817.13
526.776	1838.14
527.142	1835.88
527.508	1837.47
527.874	1821.65
528.241	1858.71
528.607	1851.48
528.973	1860.74
529.339	1871.14
529.705	1874.98
530.071	1896.22
530.437	1858.93
530.803	1908.88
531.169	1904.81
531.535	1917.46
531.901	1910.23
532.267	1886.05
532.632	1884.7
532.998	1906.62
533.364	1924.24
533.73	1902.32
534.095	1912.27
534.461	1931.7
534.826	1929.21
535.192	1912.94
535.557	1905.71
535.923	1921.31
536.288	1922.66
536.653	1911.14
537.019	1931.25
537.384	1959.27
537.749	1962.66
538.114	1933.51
538.479	1939.61
538.845	1908.88
539.21	1943.23
539.575	1923.57
539.94	1935.99
540.305	1934.86
540.67	1934.41
541.034	1952.72
541.399	1945.26
541.764	1939.16
542.129	1954.75
542.494	1951.59
542.858	1929.44
543.223	1952.49
543.587	1927.18
543.952	1947.07
544.316	1950.23
544.681	1956.33
545.045	1945.49
545.41	1917.92
545.774	1957.69
546.138	1968.54
546.503	1939.38
546.867	1964.47
547.231	1956.11
547.595	1981.42
547.959	1969.89
548.324	1975.99
548.688	1954.07
549.052	1979.83
549.416	1962.66
549.779	1957.91
550.143	1993.62
550.507	2028.65
550.871	2017.57
551.235	1991.59
551.599	1986.61
551.962	1983
552.326	1974.86
552.689	2010.79
553.053	1994.52
553.417	1999.95
553.78	2027.29
554.143	1993.85
554.507	2005.82
554.87	2005.6
555.234	2018.03
555.597	2022.32
555.96	2055.31
556.323	2005.6
556.686	2012.6
557.05	2063
557.413	2058.7
557.776	2041.98
558.139	2040.17
558.502	2006.5
558.865	2030.46
559.228	2021.19
559.59	2063
559.953	2048.76
560.316	2063
560.679	2029.78
561.041	2083.11
561.404	2092.15
561.767	2090.34
562.129	2085.37
562.492	2060.74
562.854	2040.4
563.217	2078.14
563.579	2083.11
563.941	2119.94
564.304	2063.67
564.666	2088.53
565.028	2123.11
565.39	2098.02
565.753	2097.8
566.115	2107.97
566.477	2101.19
566.839	2111.58
567.201	2116.78
567.563	2111.81
567.925	2116.1
568.287	2143.67
568.648	2102.09
569.01	2129.44
569.372	2143.67
569.734	2132.6
570.095	2146.16
570.457	2164.01
570.819	2156.33
571.18	2140.28
571.542	2150.9
571.903	2153.84
572.265	2200.39
572.626	2109.55
572.987	2182.32
573.349	2171.02
573.71	2161.75
574.071	2167.17
574.432	2166.04
574.794	2152.26
575.155	2168.08
575.516	2155.42
575.877	2190.45
576.238	2175.76
576.599	2150.9
576.96	2147.29
577.32	2185.48
577.681	2125.59
578.042	2153.39
578.403	2164.24
578.763	2164.01
579.124	2162.43
579.485	2171.47
579.845	2153.16
580.206	2133.5
580.566	2141.86
580.927	2162.43
581.287	2151.13
581.648	2148.64
582.008	2103
582.368	2135.31
582.728	2142.09
583.089	2117.23
583.449	2121.53
583.809	2125.14
584.169	2120.4
584.529	2092.83
584.889	2096.22
585.249	2095.76
585.609	2119.49
585.969	2118.81
586.329	2061.19
586.688	2100.96
587.048	2105.93
587.408	2106.84
587.768	2085.59
588.127	2077.91
588.487	2056.9
588.846	2075.43
589.206	2048.99
589.565	2081.98
589.925	2082.21
590.284	2055.77
590.643	2056.9
591.003	2041.08
591.362	2060.06
591.721	2056.44
592.08	2027.29
592.44	2035.2
592.799	2038.14
593.158	2026.61
593.517	2043.11
593.876	2044.92
594.235	2018.93
594.593	2031.36
594.952	2012.6
595.311	2028.2
595.67	2041.75
596.029	2015.99
596.387	2011.25
596.746	2027.52
597.104	2020.96
597.463	2025.26
597.822	1999.72
598.18	2045.37
598.538	2027.52
598.897	2029.1
599.255	2008.08
599.613	2045.37
599.972	2027.97
600.33	2015.09
600.688	1995.88
601.046	2021.64
601.404	2016.22
601.762	2064.35
602.12	2038.14
602.478	2064.8
602.836	2048.76
603.194	2023
603.552	2020.96
603.91	2016.22
604.268	2060.51
604.625	1996.33
604.983	2034.97
605.341	2025.94
605.698	2038.82
606.056	2057.12
606.413	2022.32
606.771	2054.41
607.128	2044.24
607.485	2051.47
607.843	2022.09
608.2	2073.62
608.557	2060.06
608.914	2079.72
609.272	2097.57
609.629	2098.02
609.986	2070.45
610.343	2076.33
610.7	2094.41
611.057	2103
611.414	2092.83
611.771	2097.8
612.127	2076.1
612.484	2064.58
612.841	2130.11
613.198	2073.62
613.554	2100.51
613.911	2099.61
614.267	2095.54
614.624	2103
614.98	2109.32
615.337	2125.14
615.693	2131.92
616.05	2123.11
616.406	2143.9
616.762	2086.27
617.118	2110.45
617.475	2137.57
617.831	2102.09
618.187	2156.1
618.543	2124.46
618.899	2091.92
619.255	2131.47
619.611	2109.78
619.967	2133.73
620.323	2120.17
620.678	2161.3
621.034	2135.54
621.39	2140.51
621.746	2109.32
622.101	2153.62
622.457	2106.16
622.812	2087.18
623.168	2116.55
623.523	2133.96
623.879	2132.83
624.234	2117.91
624.589	2153.39
624.945	2132.6
625.3	2106.84
625.655	2124.01
626.01	2123.56
626.365	2119.49
626.72	2121.98
627.075	2092.6
627.43	2107.97
627.785	2117.91
628.14	2113.16
628.495	2135.31
628.85	2123.56
629.205	2102.32
629.559	2114.07
629.914	2115.42
630.269	2125.82
630.623	2104.13
630.978	2138.02
631.332	2135.99
631.687	2106.39
632.041	2102.77
632.396	2116.33
632.75	2135.54
633.104	2104.35
633.459	2093.28
633.813	2082.88
634.167	2086.05
634.521	2100.28
634.875	2091.7
635.229	2079.04
635.583	2067.06
635.937	2099.83
636.291	2069.1
636.645	2071.81
636.999	2069.78
637.352	2104.13
637.706	2100.96
638.06	2076.56
638.413	2082.88
638.767	2071.13
639.121	2108.87
639.474	2099.61
639.828	2065.71
640.181	2094.86
640.534	2100.28
640.888	2113.39
641.241	2096.44
641.594	2091.24
641.947	2113.84
642.301	2090.34
642.654	2097.12
643.007	2095.31
643.36	2066.39
643.713	2117.23
644.066	2093.73
644.419	2089.89
644.771	2074.97
645.124	2077.23
645.477	2105.71
645.83	2077.46
646.182	2050.79
646.535	2059.38
646.888	2078.59
647.24	2053.51
647.593	2092.83
647.945	2066.61
648.298	2065.48
648.65	2069.55
649.002	2067.74
649.355	2116.33
649.707	2111.81
650.059	2084.92
650.411	2150.68
650.763	2119.04
651.115	2166.5
651.467	2131.92
651.819	2159.04
652.171	2146.61
652.523	2169.43
652.875	2159.04
653.227	2161.98
653.578	2190.22
653.93	2191.58
654.282	2196.55
654.633	2160.85
654.985	2207.17
655.337	2223.9
655.688	2232.71
656.039	2259.83
656.391	2244.91
656.742	2246.72
657.094	2238.13
657.445	2258.47
657.796	2241.07
658.147	2267.74
658.498	2268.64
658.849	2278.81
659.2	2278.81
659.551	2310
659.902	2325.59
660.253	2337.79
660.604	2319.71
660.955	2350.9
661.306	2357.68
661.656	2392.48
662.007	2408.98
662.358	2375.76
662.708	2401.74
663.059	2416.66
663.409	2440.84
663.76	2455.98
664.11	2470.9
664.461	2466.15
664.811	2465.25
665.161	2498.69
665.511	2504.79
665.862	2523.78
666.212	2543.21
666.562	2555.41
666.912	2553.61
667.262	2570.33
667.612	2636.31
667.962	2623.66
668.312	2629.54
668.662	2662.3
669.011	2671.34
669.361	2675.41
669.711	2712.25
670.06	2756.76
670.41	2748.4
670.76	2730.1
671.109	2778.01
671.459	2778.01
671.808	2811.9
672.157	2848.96
672.507	2840.6
672.856	2877.66
673.205	2888.06
673.554	2924.22
673.904	2917.89
674.253	2931.67
674.602	3004.44
674.951	2975.97
675.3	2964.22
675.649	3024.78
675.998	3069.52
676.346	3061.16
676.695	3116.3
677.044	3099.58
677.393	3106.81
677.741	3133.25
678.09	3189.07
678.438	3178.67
678.787	3232.23
679.135	3251.44
679.484	3268.39
679.832	3309.52
680.181	3287.6
680.529	3318.78
680.877	3348.16
681.225	3380.02
681.573	3460.02
681.922	3426.8
682.27	3412.79
682.618	3538.44
682.966	3483.98
683.314	3486.24
683.661	3564.43
684.009	3556.06
684.357	3603.52
684.705	3578.66
685.053	3641.71
685.4	3661.37
685.748	3671.54
686.095	3711.77
686.443	3693.69
686.79	3708.15
687.138	3735.95
687.485	3772.33
687.832	3785.44
688.18	3777.08
688.527	3805.55
688.874	3879.22
689.221	3870.18
689.568	3897.98
689.915	3935.26
690.262	3955.6
690.609	3957.41
690.956	4044.64
691.303	4008.03
691.65	4064.53
691.997	4082.15
692.344	4085.32
692.69	4123.28
693.037	4149.27
693.383	4112.89
693.73	4149.72
694.077	4227.69
694.423	4192.21
694.769	4210.06
695.116	4244.18
695.462	4305.2
695.808	4306.55
696.155	4315.82
696.501	4330.73
696.847	4351.3
697.193	4352.88
697.539	4382.94
697.885	4449.37
698.231	4425.65
698.577	4473.78
698.923	4487.79
699.269	4495.93
699.614	4570.5
699.96	4566.89
700.306	4587.68
700.651	4591.07
700.997	4622.93
701.342	4597.85
701.688	4623.61
702.033	4664.74
702.379	4700.44
702.724	4710.38
703.069	4739.54
703.415	4732.98
703.76	4780.89
704.105	4813.88
704.45	4799.65
704.795	4786.99
705.14	4820.21
705.485	4817.73
705.83	4833.09
706.175	4875.13
706.52	4855.24
706.865	4849.14
707.209	4909.02
707.554	4961
707.899	4932.07
708.243	4965.29
708.588	5009.81
708.932	5003.26
709.277	4975.91
709.621	5066.53
709.966	5019.76
710.31	5097.04
710.654	5091.84
710.998	5091.62
711.342	5102.01
711.687	5130.71
712.031	5169.58
712.375	5153.76
712.719	5222.69
713.063	5167.1
713.407	5167.55
713.75	5209.81
714.094	5241.22
714.438	5195.8
714.782	5249.81
715.125	5240.77
715.469	5292.97
715.812	5278.96
716.156	5288.22
716.499	5232.86
716.843	5352.63
717.186	5301.1
717.53	5348.11
717.873	5338.84
718.216	5358.73
718.559	5367.77
718.902	5337.03
719.246	5343.36
719.589	5369.8
719.932	5381.55
720.275	5375.23
720.617	5462.91
720.96	5405.06
721.303	5419.52
721.646	5466.75
721.989	5399.18
722.331	5455.68
722.674	5414.77
723.016	5398.95
723.359	5481.89
723.701	5426.98
724.044	5445.96
724.386	5516.92
724.729	5533.41
725.071	5469.91
725.413	5500.42
725.755	5488.67
726.097	5467.43
726.439	5487.99
726.782	5541.78
727.124	5537.03
727.465	5476.01
727.807	5501.32
728.149	5525.5
728.491	5526.41
728.833	5502.91
729.175	5533.41
729.516	5525.96
729.858	5525.05
730.199	5547.65
730.541	5511.72
730.882	5565.28
731.224	5522.79
731.565	5512.85
731.906	5553.3
732.248	5573.19
732.589	5549.46
732.93	5534.77
733.271	5585.62
733.612	5566.86
733.953	5525.28
734.294	5530.7
734.635	5570.25
734.976	5577.71
735.317	5507.65
735.658	5532.06
735.999	5535.67
736.339	5545.16
736.68	5596.24
737.021	5531.38
737.361	5536.8
737.702	5552.4
738.042	5526.18
738.383	5603.24
738.723	5571.6
739.063	5562.79
739.404	5548.33
739.744	5553.75
740.084	5508.78
740.424	5515.56
740.764	5500.87
741.104	5526.18
741.444	5518.27
741.784	5531.61
742.124	5503.13
742.464	5525.5
742.804	5528.22
743.143	5532.51
743.483	5537.26
743.823	5506.52
744.162	5496.58
744.502	5536.13
744.841	5484.6
745.181	5520.53
745.52	5453.87
745.86	5499.29
746.199	5498.61
746.538	5418.39
746.877	5499.06
747.216	5496.8
747.556	5470.59
747.895	5461.1
748.234	5414.32
748.573	5462.46
748.911	5421.55
749.25	5474.88
749.589	5407.54
749.928	5446.41
750.267	5426.3
750.605	5413.42
750.944	5428.33
751.283	5360.54
751.621	5405.96
751.96	5372.51
752.298	5333.19
752.636	5394.43
752.975	5329.35
753.313	5350.82
753.651	5336.81
753.989	5300.2
754.327	5308.79
754.666	5312.18
755.004	5314.21
755.342	5254.33
755.679	5242.8
756.017	5239.86
756.355	5324.61
756.693	5205.96
757.031	5296.13
757.368	5197.38
757.706	5162.35
758.044	5178.85
758.381	5210.94
758.719	5199.86
759.056	5238.28
759.394	5187.66
759.731	5115.8
760.068	5133.88
760.405	5134.33
760.743	5099.75
761.08	5096.82
761.417	5069.25
761.754	5057.27
762.091	5027.66
762.428	5022.92
762.765	4989.7
763.102	5014.11
763.438	5001
763.775	5023.6
764.112	4999.64
764.449	4989.7
764.785	4977.95
765.122	4929.59
765.458	4888.46
765.795	4900.44
766.131	4872.87
766.467	4880.32
766.804	4902.92
767.14	4808.24
767.476	4845.75
767.812	4828.12
768.148	4842.81
768.485	4812.75
768.821	4808.24
769.157	4796.03
769.492	4765.3
769.828	4761
770.164	4701.35
770.5	4733.21
770.836	4710.84
771.171	4695.24
771.507	4701.57
771.842	4666.32
772.178	4655.47
772.513	4633.78
772.849	4636.04
773.184	4620.9
773.519	4613.21
773.855	4568.69
774.19	4604.62
774.525	4545.64
774.86	4546.32
775.195	4570.73
775.53	4502.93
775.865	4518.98
776.2	4482.82
776.535	4475.36
776.87	4426.78
777.205	4392.2
777.539	4419.77
777.874	4410.96
778.209	4398.75
778.543	4379.09
778.878	4372.09
779.212	4376.38
779.547	4329.15
779.881	4348.59
780.215	4319.66
780.55	4331.64
780.884	4275.14
781.218	4301.58
781.552	4277.63
781.886	4258.87
782.22	4247.57
782.554	4207.57
782.888	4188.82
783.222	4136.39
783.556	4175.26
783.889	4164.18
784.223	4107.24
784.557	4153.11
784.89	4138.87
785.224	4100.01
785.557	4104.75
785.891	4084.64
786.224	4043.06
786.558	4067.24
786.891	4067.24
787.224	4023.17
787.557	4036.5
787.891	4016.62
788.224	4025.66
788.557	3965.32
788.89	3968.26
789.223	3948.6
789.556	3969.61
789.888	3922.83
790.221	3924.64
790.554	3907.02
790.887	3889.62
791.219	3864.31
791.552	3867.02
791.884	3856.85
792.217	3850.07
792.549	3813.01
792.882	3844.19
793.214	3854.59
793.546	3825.66
793.879	3796.28
794.211	3790.18
794.543	3809.39
794.875	3770.07
795.207	3779.11
795.539	3748.15
795.871	3757.64
796.203	3710.41
796.535	3692.56
796.867	3714.25
797.198	3726.46
797.53	3686.46
797.862	3678.1
798.193	3657.76
798.525	3613.92
798.856	3638.77
799.188	3617.53
799.519	3586.8
799.85	3615.27
800.182	3627.25
800.513	3611.88
800.844	3561.71
801.175	3564.88
801.506	3603.07
801.837	3563.07
802.168	3511.55
802.499	3573.69
802.83	3501.38
803.161	3513.13
803.491	3516.07
803.822	3541.38
804.153	3505.67
804.483	3487.82
804.814	3453.47
805.145	3455.95
805.475	3446.01
805.805	3432.23
806.136	3437.88
806.466	3439.68
806.796	3438.33
807.126	3373.7
807.457	3428.61
807.787	3366.24
808.117	3385.67
808.447	3355.17
808.777	3401.04
809.107	3356.97
809.436	3346.13
809.766	3324.43
810.096	3311.1
810.426	3304.32
810.755	3283.08
811.085	3331.89
811.414	3296.18
811.744	3249.63
812.073	3335.05
812.403	3238.56
812.732	3260.03
813.061	3278.33
813.39	3263.87
813.719	3222.74
814.049	3194.49
814.378	3255.28
814.707	3249.18
815.036	3237.88
815.365	3167.37
815.693	3140.26
816.022	3173.02
816.351	3190.88
816.68	3155.85
817.008	3174.61
817.337	3165.57
817.665	3156.53
817.994	3156.53
818.322	3173.02
818.651	3117.43
818.979	3118.34
819.307	3145.45
819.636	3126.25
819.964	3112.91
820.292	3122.18
820.62	3116.08
820.948	3053.03
821.276	3086.92
821.604	3134.61
821.932	3121.27
822.259	3132.8
822.587	3129.86
822.915	3105.68
823.243	3096.87
823.57	3120.14
823.898	3107.71
824.225	3091.9
824.553	3112.91
824.88	3111.33
825.207	3098.45
825.535	3095.96
825.862	3084.21
826.189	3087.83
826.516	3123.31
826.843	3114.49
827.17	3096.19
827.497	3124.44
827.824	3114.04
828.151	3068.85
828.478	3059.58
828.805	3092.12
829.131	3105.68
829.458	3092.8
829.785	3058.45
830.111	3079.69
830.438	3068.85
830.764	3106.36
831.09	3114.49
831.417	3072.69
831.743	3092.12
832.069	3072.24
832.395	3058.45
832.722	3060.26
833.048	3076.3
833.374	3052.58
833.7	3046.25
834.026	3092.57
834.351	3062.07
834.677	3046.25
835.003	3058.22
835.329	3025.01
835.654	3053.48
835.98	3052.12
836.306	3007.38
836.631	3041.28
836.956	3029.07
837.282	3026.81
837.607	3018.9
837.932	3016.19
838.258	3023.42
838.583	3012.8
838.908	3039.47
839.233	3020.49
839.558	3005.57
839.883	2984.33
840.208	2999.02
840.533	2995.85
840.858	2967.83
841.182	2989.07
841.507	2980.49
841.832	2949.75
842.156	2943.88
842.481	2947.04
842.805	2937.55
843.13	2945.91
843.454	2946.59
843.778	2949.75
844.103	2913.6
844.427	2929.41
844.751	2908.4
845.075	2910.66
845.399	2907.49
845.723	2885.35
846.047	2868.63
846.371	2879.02
846.695	2864.33
847.019	2844.44
847.343	2836.08
847.666	2839.25
847.99	2818.46
848.313	2797.44
848.637	2779.36
848.96	2767.16
849.284	2763.09
849.607	2795.18
849.931	2778.46
850.254	2812.58
850.577	2741.4
850.9	2690.78
851.223	2724.9
851.546	2709.76
851.869	2693.71
852.192	2695.07
852.515	2678.8
852.838	2684.45
853.161	2662.3
853.483	2655.98
853.806	2659.82
854.129	2654.85
854.451	2660.5
854.774	2647.61
855.096	2588.41
855.419	2586.6
855.741	2575.3
856.063	2596.09
856.385	2619.82
856.708	2549.76
857.03	2567.84
857.352	2572.14
857.674	2573.27
857.996	2543.89
858.318	2547.96
858.64	2561.97
858.961	2568.52
859.283	2530.33
859.605	2517.9
859.926	2526.94
860.248	2518.35
860.57	2487.62
860.891	2517
861.212	2489.88
861.534	2492.82
861.855	2518.58
862.176	2507.28
862.498	2511.12
862.819	2483.78
863.14	2500.95
863.461	2466.83
863.782	2472.25
864.103	2474.51
864.424	2461.86
864.745	2501.4
865.065	2439.03
865.386	2445.13
865.707	2425.02
866.027	2448.75
866.348	2433.61
866.668	2449.2
866.989	2384.8
867.309	2403.1
867.63	2411.46
867.95	2436.77
868.27	2412.37
868.59	2403.1
868.91	2389.54
869.23	2424.79
869.55	2409.88
869.87	2387.96
870.19	2393.38
870.51	2411.46
870.83	2404
871.15	2396.77
871.469	2384.8
871.789	2361.07
872.109	2393.61
872.428	2368.53
872.748	2342.76
873.067	2369.66
873.386	2369.66
873.706	2345.25
874.025	2385.93
874.344	2348.41
874.663	2339.83
874.982	2361.29
875.301	2373.27
875.62	2332.59
875.939	2330.33
876.258	2344.35
876.577	2309.77
876.896	2315.42
877.214	2299.6
877.533	2323.55
877.852	2301.41
878.17	2326.27
878.489	2326.04
878.807	2274.52
879.125	2312.93
879.444	2313.39
879.762	2291.01
880.08	2267.74
880.398	2285.14
880.716	2272.48
881.034	2262.77
881.352	2237.46
881.67	2294.85
881.988	2249.43
882.306	2247.85
882.624	2230.22
882.941	2246.27
883.259	2242.88
883.577	2252.14
883.894	2221.64
884.212	2251.92
884.529	2214.63
884.846	2208.08
885.164	2194.97
885.481	2204.24
885.798	2211.92
886.115	2202.43
886.432	2204.46
886.75	2210.11
887.067	2196.33
887.383	2190.22
887.7	2201.75
888.017	2200.39
888.334	2179.38
888.651	2159.49
888.967	2168.53
889.284	2161.53
889.6	2156.55
889.917	2139.38
890.233	2135.76
890.55	2127.4
890.866	2136.89
891.182	2123.56
891.498	2136.67
891.815	2106.84
892.131	2108.65
892.447	2083.34
892.763	2154.52
893.079	2103
893.395	2108.42
893.71	2084.69
894.026	2087.63
894.342	2067.29
894.657	2093.5
894.973	2094.18
895.289	2049.44
895.604	2068.65
895.92	2062.77
896.235	2058.25
896.55	2064.13
896.865	2018.93
897.181	2024.13
897.496	2023.45
897.811	2036.1
898.126	2017.35
898.441	1995.88
898.756	1986.84
899.071	2014.64
899.386	1994.3
899.7	2013.96
900.015	1981.87
900.33	1960.17
900.644	1942.1
900.959	1944.13
901.273	1928.76
901.588	1961.53
901.902	1964.24
902.216	1939.84
902.531	1939.16
902.845	1946.16
903.159	1918.14
903.473	1897.58
903.787	1885.83
904.101	1908.2
904.415	1909.78
904.729	1911.14
905.042	1887.18
905.356	1882.66
905.67	1877.69
905.984	1862.78
906.297	1845.38
906.611	1865.04
906.924	1825.49
907.237	1825.94
907.551	1814.87
907.864	1803.34
908.177	1834.53
908.491	1818.48
908.804	1817.35
909.117	1817.81
909.43	1780.74
909.743	1808.99
910.056	1791.37
910.368	1772.83
910.681	1778.03
910.994	1766.06
911.307	1763.34
911.619	1731.25
911.932	1773.06
912.244	1748.88
912.557	1744.81
912.869	1747.52
913.181	1709.79
913.494	1696.45
913.806	1714.31
914.118	1682.89
914.43	1726.28
914.742	1706.85
915.054	1687.87
915.366	1695.55
915.678	1673.85
915.99	1672.05
916.302	1678.15
916.613	1665.49
916.925	1658.26
917.236	1642.89
917.548	1644.7
917.859	1658.04
918.171	1635.89
918.482	1620.3
918.794	1605.83
919.105	1639.05
919.416	1606.96
919.727	1609
920.038	1596.79
920.349	1602.44
920.66	1586.85
920.971	1595.44
921.282	1557.25
921.593	1576.91
921.903	1564.93
922.214	1542.33
922.525	1544.59
922.835	1544.14
923.146	1547.98
923.456	1534.42
923.767	1528.1
924.077	1526.06
924.387	1516.12
924.697	1527.64
925.008	1543.46
925.318	1498.49
925.628	1489.68
925.938	1506.63
926.248	1496.91
926.558	1496.23
926.867	1489.23
927.177	1502.11
927.487	1488.1
927.796	1452.84
928.106	1454.2
928.416	1460.53
928.725	1474.31
929.034	1443.8
929.344	1450.36
929.653	1467.31
929.962	1440.87
930.271	1409.23
930.581	1418.72
930.89	1434.09
931.199	1430.02
931.508	1409.45
931.817	1400.64
932.125	1435.67
932.434	1399.96
932.743	1373.07
933.051	1366.29
933.36	1369
933.669	1364.94
933.977	1379.85
934.286	1394.54
934.594	1340.08
934.902	1338.5
935.21	1331.72
935.519	1357.25
935.827	1348.44
936.135	1356.8
936.443	1339.17
936.751	1317.48
937.059	1321.77
937.367	1318.38
937.674	1309.57
937.982	1320.87
938.29	1306.63
938.597	1317.71
938.905	1304.37
939.213	1273.86
939.52	1289.23
939.827	1298.04
940.135	1278.61
940.442	1245.84
940.749	1267.09
941.056	1252.85
941.363	1267.99
941.67	1250.59
941.977	1256.24
942.284	1246.29
942.591	1242.23
942.898	1253.75
943.205	1236.8
943.511	1261.89
943.818	1234.77
944.125	1230.93
944.431	1245.17
944.738	1210.59
945.044	1216.01
945.35	1212.4
945.657	1207.65
945.963	1201.78
946.269	1202.45
946.575	1206.97
946.881	1200.42
947.187	1192.96
947.493	1183.25
947.799	1169.01
948.105	1168.56
948.41	1166.52
948.716	1167.43
949.022	1140.99
949.327	1173.3
949.633	1137.6
949.938	1184.83
950.244	1150.25
950.549	1170.36
950.854	1131.5
951.16	1136.47
951.465	1140.31
951.77	1122
952.075	1137.15
952.38	1109.58
952.685	1142.12
952.99	1126.98
953.294	1120.42
953.599	1110.71
953.904	1083.59
954.209	1097.37
954.513	1106.41
954.818	1101.67
955.122	1083.59
955.426	1067.99
955.731	1073.19
956.035	1082.23
956.339	1072.29
956.643	1046.07
956.948	1079.52
957.252	1049.46
957.556	1080.42
957.86	1067.99
958.163	1061.22
958.467	1030.71
958.771	1061.22
959.075	1048.79
959.378	1029.13
959.682	1039.52
959.985	1067.77
960.289	1009.24
960.592	1033.87
960.896	1035.68
961.199	1014.21
961.502	1019.86
961.805	1011.05
962.108	1001.33
962.411	990.48
962.714	1004.49
963.017	997.49
963.32	981.44
963.623	999.97
963.926	1020.54
964.228	985.06
964.531	985.28
964.833	981.44
965.136	981.9
965.438	1007.21
965.741	993.42
966.043	956.36
966.345	965.17
966.648	972.4
966.95	963.82
967.252	961.78
967.554	985.06
967.856	982.35
968.158	939.41
968.46	943.25
968.761	950.03
969.063	948.9
969.365	960.43
969.666	946.42
969.968	936.25
970.269	945.74
970.571	934.89
970.872	927.66
971.174	939.18
971.475	912.97
971.776	910.48
972.077	917.94
972.378	922.01
972.679	926.98
972.98	904.16
973.281	889.92
973.582	889.47
973.883	882.24
974.183	878.39
974.484	920.43
974.785	874.1
975.085	868.23
975.386	881.33
975.686	869.36
975.986	891.5
976.287	866.64
976.587	882.91
976.887	879.07
977.187	884.95
977.487	875.23
977.787	857.83
978.087	846.08
978.387	859.41
978.687	872.97
978.987	852.63
979.286	847.44
979.586	852.86
979.885	877.49
980.185	870.71
980.484	829.81
980.784	832.07
981.083	824.39
981.382	828.68
981.682	811.73
981.981	843.82
982.28	834.78
982.579	827.55
982.878	816.7
983.177	837.27
983.475	828.45
983.774	835.68
984.073	789.36
984.372	778.96
984.67	794.33
984.969	822.35
985.267	792.3
985.566	793.65
985.864	784.61
986.162	817.15
986.461	767.66
986.759	765.63
987.057	792.52
987.355	762.47
987.653	777.38
987.951	796.82
988.249	780.77
988.547	769.92
988.844	767.89
989.142	784.84
989.44	765.4
989.737	781
990.035	758.17
990.332	749.58
990.63	744.16
990.927	764.27
991.224	738.96
991.521	736.93
991.819	759.3
992.116	762.01
992.413	733.99
992.71	761.79
993.006	738.96
993.303	725.18
993.6	690.15
993.897	716.37
994.193	744.61
994.49	713.2
994.787	700.55
995.083	727.66
995.379	715.69
995.676	710.72
995.972	708.91
996.268	690.38
996.565	729.7
996.861	713.88
997.157	705.07
997.453	683.37
997.749	702.81
998.044	698.06
998.34	700.32
998.636	696.25
998.932	700.09
999.227	690.6
999.523	681.34
999.818	665.75
1000.114	659.87
1000.409	667.78
1000.704	695.8
1001	677.72
1001.295	691.73
1001.59	660.32
1001.885	666.65
1002.18	653.99
1002.475	664.84
1002.77	664.16
1003.065	672.75
1003.359	665.97
1003.654	648.57
1003.949	660.32
1004.243	655.8
1004.538	648.57
1004.832	638.18
1005.127	641.34
1005.421	642.69
1005.715	646.31
1006.009	640.21
1006.304	645.63
1006.598	610.38
1006.892	635.69
1007.186	640.44
1007.48	598.85
1007.773	626.2
1008.067	655.8
1008.361	633.66
1008.655	624.62
1008.948	612.19
1009.242	632.75
1009.535	604.73
1009.829	604.73
1010.122	610.15
1010.415	614.22
1010.708	591.62
1011.001	598.63
1011.295	600.89
1011.588	579.65
1011.881	580.1
1012.173	585.52
1012.466	583.49
1012.759	597.95
1013.052	571.74
1013.344	575.58
1013.637	587.56
1013.93	562.25
1014.222	595.01
1014.514	554.34
1014.807	582.81
1015.099	582.13
1015.391	566.31
1015.683	576.48
1015.976	549.36
1016.268	555.47
1016.56	571.96
1016.851	560.66
1017.143	556.6
1017.435	545.52
1017.727	555.01
1018.018	559.99
1018.31	559.31
1018.602	557.05
1018.893	557.73
1019.185	548.23
1019.476	563.6
1019.767	571.74
1020.058	556.6
1020.35	553.88
1020.641	547.56
1020.932	517.95
1021.223	533.32
1021.514	544.62
1021.804	518.86
1022.095	525.86
1022.386	521.57
1022.677	531.74
1022.967	526.77
1023.258	528.12
1023.548	506.65
1023.839	494.45
1024.129	516.14
1024.419	517.05
1024.709	494.45
1025	494
1025.29	490.16
1025.58	524.28
1025.87	530.16
1026.16	534.45
1026.449	517.05
1026.739	515.69
1027.029	494
1027.319	508.01
1027.608	515.69
1027.898	489.03
1028.187	492.87
1028.477	510.27
1028.766	488.8
1029.055	488.12
1029.344	503.72
1029.634	487.22
1029.923	466.43
1030.212	472.3
1030.501	510.27
1030.79	492.42
1031.078	463.49
1031.367	483.83
1031.656	465.07
1031.945	464.39
1032.233	485.18
1032.522	472.53
1032.81	485.64
1033.099	465.3
1033.387	471.85
1033.675	496.48
1033.963	479.31
1034.251	469.37
1034.54	469.14
1034.828	463.94
1035.116	465.52
1035.403	465.98
1035.691	442.47
1035.979	455.58
1036.267	453.55
1036.554	437.05
1036.842	448.58
1037.129	461
1037.417	442.93
1037.704	440.67
1037.992	457.84
1038.279	449.03
1038.566	447.67
1038.853	447.67
1039.14	447.67
