Data from carpet_green_FLMS001491_00023.txt Node
Date: Wed Feb 08 10:35:07 GMT 2017
User: dcchb
Spectrometer: FLMS00149
Trigger mode: 0
Integration Time (sec): 2.000000E-2
Scans to average: 10
Electric dark correction enabled: true
Nonlinearity correction enabled: false
Boxcar width: 0
XAxis mode: Wavelengths
Number of Pixels in Spectrum: 2048
>>>>>Begin Spectral Data<<<<<
341.393	-23.36
341.776	-23.36
342.16	-23.36
342.543	-51.38
342.927	-58.16
343.31	-78.5
343.693	-51.61
344.077	-62
344.46	-59.74
344.843	-61.33
345.226	-50.7
345.61	-40.31
345.993	-13.42
346.376	1.72
346.759	1.27
347.142	22.74
347.525	55.51
347.908	59.12
348.291	67.94
348.674	84.43
349.057	124.88
349.44	124.43
349.823	158.33
350.206	161.27
350.588	161.27
350.971	205.11
351.354	220.7
351.737	214.37
352.119	241.94
352.502	222.51
352.884	253.69
353.267	256.86
353.65	256.63
354.032	278.78
354.414	310.87
354.797	276.97
355.179	291.43
355.562	282.39
355.944	290.53
356.326	307.25
356.709	330.3
357.091	304.99
357.473	319.23
357.855	300.47
358.238	310.19
358.62	304.31
359.002	321.04
359.384	316.52
359.766	321.49
360.148	301.6
360.53	314.26
360.912	295.5
361.294	307.7
361.676	314.48
362.057	308.83
362.439	323.3
362.821	328.27
363.203	329.85
363.584	288.72
363.966	280.59
364.348	286.91
364.729	311.77
365.111	268.83
365.493	291.43
365.874	285.33
366.256	295.95
366.637	272.22
367.019	295.5
367.4	303.86
367.781	295.05
368.163	283.3
368.544	295.05
368.925	273.81
369.306	284.43
369.688	284.88
370.069	283.98
370.45	277.65
370.831	290.3
371.212	269.51
371.593	268.16
371.974	262.28
372.355	279.91
372.736	286.01
373.117	267.93
373.498	282.39
373.879	294.6
374.26	279.91
374.641	303.64
375.021	286.24
375.402	282.17
375.783	290.76
376.163	287.59
376.544	285.56
376.925	284.88
377.305	300.02
377.686	294.37
378.066	290.76
378.447	292.56
378.827	289.17
379.208	290.53
379.588	294.14
379.968	301.38
380.349	302.73
380.729	282.85
381.109	286.24
381.489	285.78
381.87	271.77
382.25	295.05
382.63	292.11
383.01	287.37
383.39	312
383.77	287.37
384.15	306.12
384.53	299.12
384.91	297.53
385.29	301.83
385.67	300.25
386.049	324.2
386.429	292.34
386.809	296.63
387.189	310.64
387.568	292.56
387.948	297.99
388.328	322.17
388.707	318.55
389.087	313.13
389.466	314.71
389.846	330.98
390.225	316.07
390.605	312.9
390.984	312.68
391.363	307.93
391.743	305.67
392.122	316.07
392.501	322.84
392.881	304.77
393.26	315.61
393.639	296.63
394.018	317.87
394.397	327.59
394.776	303.64
395.155	293.69
395.534	286.01
395.913	319.68
396.292	349.74
396.671	315.61
397.05	322.84
397.429	307.93
397.808	313.81
398.186	303.41
398.565	315.16
398.944	315.84
399.323	330.08
399.701	307.25
400.08	318.55
400.458	318.78
400.837	309.51
401.215	310.42
401.594	309.96
401.972	324.43
402.351	331.66
402.729	322.84
403.107	325.56
403.486	327.36
403.864	320.81
404.242	304.31
404.62	330.75
404.999	333.24
405.377	321.26
405.755	334.6
406.133	318.1
406.511	330.75
406.889	324.88
407.267	321.04
407.645	330.75
408.023	300.7
408.401	342.51
408.779	347.02
409.156	341.15
409.534	340.7
409.912	333.24
410.29	336.18
410.667	341.6
411.045	329.62
411.422	330.98
411.8	346.35
412.178	329.17
412.555	335.27
412.933	366.23
413.31	347.7
413.687	326.46
414.065	333.24
414.442	362.17
414.819	356.06
415.197	362.17
415.574	339.57
415.951	343.86
416.328	351.77
416.705	362.17
417.082	341.15
417.46	331.43
417.837	333.47
418.214	351.77
418.591	373.24
418.967	363.75
419.344	344.76
419.721	349.96
420.098	361.26
420.475	343.41
420.852	349.06
421.228	352.45
421.605	360.58
421.982	354.48
422.358	360.58
422.735	358.78
423.111	347.25
423.488	353.8
423.864	334.82
424.241	361.94
424.617	365.1
424.994	354.26
425.37	348.38
425.746	362.39
426.123	363.52
426.499	354.93
426.875	374.37
427.251	359.68
427.627	361.26
428.003	379.34
428.379	393.35
428.756	362.84
429.132	392.22
429.507	366.69
429.883	383.63
430.259	393.58
430.635	364.2
431.011	373.69
431.387	383.63
431.763	410.75
432.138	406.23
432.514	392.9
432.89	394.03
433.265	392.67
433.641	402.62
434.016	394.93
434.392	403.29
434.767	406.46
435.143	396.51
435.518	404.65
435.894	413.92
436.269	389.06
436.644	410.07
437.02	412.79
437.395	401.49
437.77	417.98
438.145	430.64
438.52	409.4
438.895	432.22
439.271	409.4
439.646	419.79
440.021	427.47
440.395	427.93
440.77	406.91
441.145	419.34
441.52	427.93
441.895	426.8
442.27	440.13
442.645	424.54
443.019	422.28
443.394	440.36
443.769	418.44
444.143	438.55
444.518	420.92
444.892	427.02
445.267	446.23
445.641	444.88
446.016	430.86
446.39	441.71
446.764	437.64
447.139	449.85
447.513	465.44
447.887	446.46
448.262	441.26
448.636	463.18
449.01	444.88
449.384	461.82
449.758	467.25
450.132	462.28
450.506	452.33
450.88	430.41
451.254	446.46
451.628	438.1
452.002	439
452.376	443.75
452.75	465.89
453.123	480.35
453.497	464.54
453.871	471.32
454.244	486.91
454.618	457.76
454.992	496.63
455.365	506.57
455.739	501.37
456.112	492.33
456.486	483.07
456.859	525.1
457.232	513.12
457.606	511.31
457.979	523.74
458.352	505.44
458.725	505.66
459.099	487.81
459.472	529.17
459.845	546.12
460.218	537.75
460.591	526.91
460.964	523.97
461.337	535.72
461.71	525.1
462.083	549.51
462.456	542.5
462.829	545.89
463.201	524.2
463.574	551.99
463.947	557.41
464.32	555.61
464.692	564.42
465.065	572.78
465.438	567.58
465.81	579.56
466.183	602.39
466.555	593.35
466.928	595.38
467.3	589.5
467.672	586.79
468.045	610.29
468.417	602.16
468.789	619.56
469.161	635.38
469.534	623.4
469.906	620.46
470.278	633.34
470.65	630.41
471.022	638.54
471.394	653.46
471.766	651.65
472.138	644.19
472.51	670.86
472.882	650.07
473.253	681.48
473.625	690.29
473.997	704.3
474.369	711.08
474.74	704.08
475.112	722.61
475.484	708.82
475.855	738.2
476.227	743.4
476.598	772.78
476.97	750.4
477.341	794.24
477.713	774.13
478.084	779.1
478.455	811.42
478.827	796.05
479.198	809.39
479.569	827.24
479.94	851.42
480.311	856.62
480.682	870.17
481.053	846.67
481.424	883.28
481.795	882.6
482.166	903.85
482.537	906.33
482.908	898.2
483.279	935.71
483.65	930.51
484.021	956.5
484.391	971.19
484.762	948.82
485.133	985.65
485.503	989.95
485.874	1003.73
486.244	1019.78
486.615	1018.19
486.985	1042.83
487.356	1051.64
487.726	1052.09
488.097	1072.66
488.467	1080.34
488.837	1063.39
489.207	1106.55
489.578	1117.17
489.948	1135.03
490.318	1102.94
490.688	1131.64
491.058	1151.3
491.428	1191.07
491.798	1197.4
492.168	1176.83
492.538	1208.25
492.908	1212.76
493.278	1241.69
493.648	1195.14
494.017	1223.61
494.387	1250.73
494.757	1238.98
495.126	1267
495.496	1302.25
495.866	1275.36
496.235	1302.03
496.605	1322.59
496.974	1323.72
497.344	1318.75
497.713	1303.16
498.082	1347
498.452	1358.52
498.821	1367.56
499.19	1380.67
499.559	1373.89
499.928	1384.06
500.298	1381.35
500.667	1358.52
501.036	1391.52
501.405	1408.47
501.774	1404.62
502.143	1406.88
502.512	1422.7
502.88	1435.81
503.249	1406.88
503.618	1444.85
503.987	1424.28
504.356	1422.93
504.724	1451.18
505.093	1467.9
505.462	1468.35
505.83	1438.52
506.199	1474.9
506.567	1487.79
506.936	1493.44
507.304	1520.1
507.672	1517.62
508.041	1505.64
508.409	1517.84
508.777	1520.78
509.145	1527.78
509.514	1548.35
509.882	1552.87
510.25	1548.35
510.618	1557.16
510.986	1552.42
511.354	1569.59
511.722	1592.64
512.09	1579.31
512.458	1590.16
512.826	1619.76
513.193	1605.52
513.561	1586.54
513.929	1642.81
514.297	1643.49
514.664	1644.62
515.032	1629.02
515.4	1636.03
515.767	1639.19
516.135	1645.52
516.502	1647.33
516.869	1657.72
517.237	1636.93
517.604	1661.57
517.972	1675.8
518.339	1661.11
518.706	1661.11
519.073	1682.58
519.44	1678.97
519.808	1663.37
520.175	1704.96
520.542	1715.35
520.909	1737.72
521.276	1729.59
521.643	1738.63
522.009	1753.09
522.376	1746.76
522.743	1735.24
523.11	1757.38
523.477	1770.49
523.843	1776.14
524.21	1773.2
524.577	1803.71
524.943	1788.34
525.31	1817.27
525.676	1798.06
526.043	1838.96
526.409	1819.75
526.776	1824.95
527.142	1822.24
527.508	1838.28
527.874	1849.81
528.241	1828.34
528.607	1856.36
528.973	1864.05
529.339	1848.68
529.705	1892.97
530.071	1879.19
530.437	1854.78
530.803	1863.6
531.169	1882.13
531.535	1896.59
531.901	1916.48
532.267	1900.88
532.632	1949.47
532.998	1899.07
533.364	1941.79
533.73	1901.56
534.095	1933.88
534.461	1903.37
534.826	1932.29
535.192	1910.83
535.557	1923.03
535.923	1936.14
536.288	1944.95
536.653	1956.93
537.019	1923.25
537.384	1933.42
537.749	1927.55
538.114	1933.2
538.479	1891.62
538.845	1937.49
539.21	1906.08
539.575	1961.22
539.94	1945.17
540.305	1984.27
540.67	1903.14
541.034	1915.57
541.399	1956.7
541.764	1929.81
542.129	1969.13
542.494	1948.79
542.858	1928.9
543.223	1929.36
543.587	1923.25
543.952	1939.53
544.316	1923.71
544.681	1944.72
545.045	1971.61
545.41	1976.59
545.774	1956.47
546.138	1928.45
546.503	1963.48
546.867	1964.16
547.231	1977.26
547.595	1943.82
547.959	1938.4
548.324	1944.72
548.688	1991.5
549.052	1977.49
549.416	1982.24
549.779	2010.26
550.143	1981.11
550.507	1989.69
550.871	1984.5
551.235	1955.12
551.599	2000.54
551.962	1981.56
552.326	1993.76
552.689	1978.85
553.053	1984.95
553.417	1993.08
553.78	1976.36
554.143	1984.27
554.507	2017.49
554.87	2016.59
555.234	2046.42
555.597	2019.98
555.96	2052.29
556.323	2027.88
556.686	2029.47
557.05	2021.33
557.413	2037.38
557.776	2018.62
558.139	2008
558.502	2057.04
558.865	2038.73
559.228	2031.73
559.59	2049.58
559.953	2047.09
560.316	2081.44
560.679	2036.92
561.041	2071.95
561.404	2057.49
561.767	2065.17
562.129	2047.55
562.492	2073.08
562.854	2078.5
563.217	2079.18
563.579	2091.84
563.941	2111.95
564.304	2089.8
564.666	2110.14
565.028	2098.62
565.39	2095.68
565.753	2090.26
566.115	2079.63
566.477	2080.09
566.839	2088.67
567.201	2134.77
567.563	2116.24
567.925	2136.58
568.287	2151.72
568.648	2122.8
569.01	2124.15
569.372	2135.9
569.734	2149.69
570.095	2156.69
570.457	2134.32
570.819	2177.26
571.18	2148.56
571.542	2161.89
571.903	2153.08
572.265	2181.33
572.626	2159.18
572.987	2162.34
573.349	2175.68
573.71	2164.83
574.071	2172.51
574.432	2170.93
574.794	2155.11
575.155	2129.12
575.516	2131.84
575.877	2177.03
576.238	2143.36
576.599	2190.82
576.96	2135.23
577.32	2133.64
577.681	2130.71
578.042	2153.98
578.403	2118.96
578.763	2141.78
579.124	2154.89
579.485	2189.24
579.845	2121.22
580.206	2132.06
580.566	2133.19
580.927	2138.84
581.287	2149.24
581.648	2124.38
582.008	2147.43
582.368	2108.56
582.728	2155.56
583.089	2151.72
583.449	2118.05
583.809	2136.58
584.169	2104.04
584.529	2076.02
584.889	2121.22
585.249	2095.91
585.609	2090.71
585.969	2097.26
586.329	2071.95
586.688	2104.04
587.048	2079.86
587.408	2081.44
587.768	2052.06
588.127	2065.17
588.487	2044.61
588.846	2065.4
589.206	2048.67
589.565	2022.23
589.925	2054.55
590.284	2033.76
590.643	2027.43
591.003	2048.45
591.362	2036.92
591.721	2066.75
592.08	2066.98
592.44	2036.92
592.799	2042.8
593.158	2069.01
593.517	2051.61
593.876	2039.64
594.235	2057.71
594.593	1984.27
594.952	2032.63
595.311	2003.03
595.67	2012.52
596.029	2037.6
596.387	2016.81
596.746	2048.9
597.104	2038.05
597.463	2021.78
597.822	2017.94
598.18	2024.72
598.538	1996.47
598.897	2007.32
599.255	2026.53
599.613	2030.6
599.972	2019.75
600.33	2022.91
600.688	2049.13
601.046	2068.34
601.404	2042.12
601.762	2046.42
602.12	2045.06
602.478	2055.91
602.836	2038.05
603.194	2040.09
603.552	2019.98
603.91	2049.58
604.268	2059.75
604.625	2025.4
604.983	2036.02
605.341	2017.04
605.698	2028.11
606.056	2061.56
606.413	2073.99
606.771	2038.96
607.128	2050.03
607.485	2079.63
607.843	2056.13
608.2	2059.97
608.557	2079.41
608.914	2066.53
609.272	2086.41
609.629	2092.97
609.986	2085.96
610.343	2078.73
610.7	2136.58
611.057	2096.58
611.414	2080.54
611.771	2071.95
612.127	2113.53
612.484	2103.36
612.841	2093.87
613.198	2092.29
613.554	2092.06
613.911	2115.79
614.267	2120.09
614.624	2119.18
614.98	2087.32
615.337	2104.94
615.693	2113.76
616.05	2104.27
616.406	2108.56
616.762	2109.24
617.118	2139.29
617.475	2094.32
617.831	2126.86
618.187	2122.35
618.543	2083.25
618.899	2125.28
619.255	2118.28
619.611	2132.74
619.967	2146.98
620.323	2174.1
620.678	2127.09
621.034	2130.93
621.39	2127.77
621.746	2098.62
622.101	2164.15
622.457	2128.67
622.812	2119.18
623.168	2151.5
623.523	2135.9
623.879	2120.31
624.234	2126.86
624.589	2108.79
624.945	2146.98
625.3	2116.7
625.655	2100.2
626.01	2132.97
626.365	2106.75
626.72	2085.51
627.075	2091.61
627.43	2082.35
627.785	2047.32
628.14	2132.06
628.495	2116.7
628.85	2118.05
629.205	2106.75
629.559	2123.25
629.914	2122.57
630.269	2110.14
630.623	2122.57
630.978	2102.01
631.332	2105.17
631.687	2112.18
632.041	2059.3
632.396	2093.42
632.75	2123.7
633.104	2090.93
633.459	2111.05
633.813	2091.61
634.167	2078.05
634.521	2102.68
634.875	2094.1
635.229	2084.83
635.583	2064.27
635.937	2073.76
636.291	2091.61
636.645	2095.91
636.999	2082.57
637.352	2104.04
637.706	2063.59
638.06	2093.19
638.413	2083.25
638.767	2089.58
639.121	2075.34
639.474	2090.71
639.828	2068.79
640.181	2076.24
640.534	2051.61
640.888	2079.86
641.241	2101.1
641.594	2111.05
641.947	2056.58
642.301	2065.62
642.654	2104.94
643.007	2101.55
643.36	2098.84
643.713	2083.93
644.066	2102.46
644.419	2117.37
644.771	2071.95
645.124	2071.05
645.477	2062.01
645.83	2084.61
646.182	2059.97
646.535	2060.65
646.888	2082.35
647.24	2073.76
647.593	2081.67
647.945	2035.12
648.298	2081.89
648.65	2096.36
649.002	2081.22
649.355	2092.29
649.707	2086.87
650.059	2106.75
650.411	2108.11
650.763	2106.3
651.115	2156.02
651.467	2156.02
651.819	2157.15
652.171	2191.04
652.523	2174.55
652.875	2215.68
653.227	2164.15
653.578	2182
653.93	2171.84
654.282	2213.64
654.633	2167.54
654.985	2247.77
655.337	2208.44
655.688	2204.38
656.039	2246.64
656.391	2231.95
656.742	2225.85
657.094	2239.86
657.445	2261.1
657.796	2280.31
658.147	2257.93
658.498	2275.11
658.849	2282.79
659.2	2300.87
659.551	2293.41
659.902	2293.87
660.253	2340.19
660.604	2329.12
660.955	2329.57
661.306	2382
661.656	2391.72
662.007	2370.25
662.358	2381.77
662.708	2424.71
663.059	2401.43
663.409	2404.15
663.76	2479.17
664.11	2529.11
664.461	2454.31
664.811	2483.01
665.161	2459.74
665.511	2485.05
665.862	2506.52
666.212	2558.94
666.562	2536.12
666.912	2560.75
667.262	2580.86
667.612	2586.29
667.962	2657.02
668.312	2618.6
668.662	2674.65
669.011	2644.14
669.361	2675.78
669.711	2722.1
670.06	2690.69
670.41	2743.8
670.76	2764.59
671.109	2775.66
671.459	2795.55
671.808	2796
672.157	2805.27
672.507	2877.35
672.856	2875.09
673.205	2911.03
673.554	2898.82
673.904	2908.09
674.253	2992.83
674.602	2995.54
674.951	2987.18
675.3	2960.74
675.649	3036.22
675.998	3073.96
676.346	3084.35
676.695	3092.49
677.044	3133.17
677.393	3123.9
677.741	3160.06
678.09	3166.16
678.438	3238.7
678.787	3206.16
679.135	3250.68
679.484	3276.89
679.832	3291.35
680.181	3301.98
680.529	3328.19
680.877	3354.4
681.225	3404.8
681.573	3427.17
681.922	3436.21
682.27	3461.07
682.618	3455.19
682.966	3479.6
683.314	3501.74
683.661	3512.59
684.009	3525.47
684.357	3559.37
684.705	3626.94
685.053	3629.88
685.4	3622.64
685.748	3662.64
686.095	3689.76
686.443	3703.77
686.79	3691.12
687.138	3748.29
687.485	3802.53
687.832	3804.79
688.18	3878.01
688.527	3834.16
688.874	3860.83
689.221	3897.21
689.568	3921.17
689.915	3920.94
690.262	4021.5
690.609	4008.4
690.956	3975.4
691.303	4022.86
691.65	4051.11
691.997	4087.27
692.344	4101.5
692.69	4115.97
693.037	4179.24
693.383	4115.51
693.73	4196.19
694.077	4190.31
694.423	4236.64
694.769	4234.61
695.116	4262.18
695.462	4321.84
695.808	4277.32
696.155	4356.86
696.501	4345.56
696.847	4389.63
697.193	4387.82
697.539	4428.73
697.885	4396.18
698.231	4403.87
698.577	4491.32
698.923	4464.43
699.269	4501.27
699.614	4532
699.96	4516.86
700.306	4532.45
700.651	4564.09
700.997	4572
701.342	4636.86
701.688	4631.43
702.033	4636.18
702.379	4669.17
702.724	4733.8
703.069	4704.2
703.415	4705.55
703.76	4748.49
704.105	4782.39
704.45	4785.55
704.795	4795.5
705.14	4835.95
705.485	4836.62
705.83	4846.57
706.175	4908.49
706.52	4854.02
706.865	4863.74
707.209	4895.15
707.554	4915.04
707.899	4948.49
708.243	4957.53
708.588	4989.16
708.932	4972.44
709.277	5019.9
709.621	5077.75
709.966	4996.62
710.31	5033.68
710.654	5047.24
710.998	5101.48
711.342	5101.93
711.687	5131.53
712.031	5082.72
712.375	5090.4
712.719	5158.88
713.063	5204.3
713.407	5229.61
713.75	5186.9
714.094	5199.55
714.438	5240.91
714.782	5253.34
715.125	5235.03
715.469	5235.26
715.812	5270.74
716.156	5280.23
716.499	5274.35
716.843	5312.77
717.186	5308.7
717.53	5318.87
717.873	5362.26
718.216	5353.22
718.559	5312.77
718.902	5292.43
719.246	5389.38
719.589	5348.7
719.932	5335.59
720.275	5400.68
720.617	5441.13
720.96	5372.43
721.303	5451.52
721.646	5421.02
721.989	5433.44
722.331	5474.57
722.674	5412.43
723.016	5445.42
723.359	5449.94
723.701	5473.22
724.044	5470.28
724.386	5474.12
724.729	5455.14
725.071	5491.07
725.413	5434.57
725.755	5467.12
726.097	5465.31
726.439	5487.91
726.782	5489.49
727.124	5522.26
727.465	5484.74
727.807	5512.54
728.149	5499.21
728.491	5493.78
728.833	5504.18
729.175	5543.05
729.516	5507.12
729.858	5497.62
730.199	5545.53
730.541	5588.69
730.882	5547.57
731.224	5567.9
731.565	5497.62
731.906	5555.25
732.248	5562.25
732.589	5517.51
732.93	5540.79
733.271	5564.29
733.612	5565.42
733.953	5595.7
734.294	5553.89
734.635	5563.61
734.976	5519.77
735.317	5498.53
735.658	5524.74
735.999	5512.54
736.339	5548.47
736.68	5530.17
737.021	5497.4
737.361	5548.02
737.702	5570.62
738.042	5505.99
738.383	5467.57
738.723	5529.94
739.063	5485.19
739.404	5569.03
739.744	5569.71
740.084	5527.45
740.424	5514.35
740.764	5519.09
741.104	5536.49
741.444	5516.83
741.784	5498.53
742.124	5540.11
742.464	5530.62
742.804	5466.66
743.143	5479.55
743.483	5509.37
743.823	5444.52
744.162	5487.68
744.502	5535.81
744.841	5505.76
745.181	5551.63
745.52	5490.84
745.86	5513.89
746.199	5501.69
746.538	5538.75
746.877	5494.69
747.216	5491.3
747.556	5473.44
747.895	5440.68
748.234	5423.5
748.573	5442.94
748.911	5411.07
749.25	5363.62
749.589	5404.07
749.928	5401.13
750.267	5451.3
750.605	5427.57
750.944	5381.92
751.283	5353.45
751.621	5362.94
751.96	5381.24
752.298	5298.53
752.636	5358.19
752.975	5312.54
753.313	5310.06
753.651	5349.15
753.989	5317.74
754.327	5313.9
754.666	5280.68
755.004	5255.6
755.342	5292.66
755.679	5293.79
756.017	5270.51
756.355	5248.36
756.693	5205.88
757.031	5267.57
757.368	5244.52
757.706	5204.3
758.044	5154.58
758.381	5159.33
758.719	5138.09
759.056	5196.61
759.394	5147.12
759.731	5113.68
760.068	5138.99
760.405	5080.46
760.743	5061.7
761.08	5052.44
761.417	5073.45
761.754	5080.23
762.091	5059.9
762.428	4992.55
762.765	5040.23
763.102	5026.68
763.438	4988.26
763.775	4987.81
764.112	5048.6
764.449	4961.82
764.785	4968.6
765.122	4921.59
765.458	4912.33
765.795	4895.83
766.131	4891.76
766.467	4886.11
766.804	4872.56
767.14	4830.52
767.476	4834.82
767.812	4850.18
768.148	4837.3
768.485	4774.7
768.821	4752.56
769.157	4809.73
769.492	4765.67
769.828	4779.9
770.164	4741.71
770.5	4708.72
770.836	4701.49
771.171	4703.07
771.507	4677.08
771.842	4649.51
772.178	4608.38
772.513	4670.98
772.849	4628.72
773.184	4588.72
773.519	4601.83
773.855	4586.91
774.19	4585.33
774.525	4553.24
774.86	4511.66
775.195	4582.62
775.53	4555.28
775.865	4502.4
776.2	4430.08
776.535	4454.94
776.87	4483.41
777.205	4415.84
777.539	4355.73
777.874	4429.63
778.209	4353.47
778.543	4402.29
778.878	4357.77
779.212	4338.78
779.547	4354.83
779.881	4358.9
780.215	4305.79
780.55	4306.92
780.884	4318.45
781.218	4259.92
781.552	4282.97
781.886	4248.17
782.22	4261.72
782.554	4199.13
782.888	4178.11
783.222	4228.28
783.556	4161.84
783.889	4166.59
784.223	4109.64
784.557	4119.81
784.89	4150.09
785.224	4094.72
785.557	4045.01
785.891	4072.12
786.224	4084.78
786.558	4048.4
786.891	4022.86
787.224	4038.45
787.557	4023.76
787.891	4016.53
788.224	3972.47
788.557	3971.11
788.89	3951
789.223	3981.51
789.556	3923.43
789.888	3943.99
790.221	3927.95
790.554	3910.32
790.887	3885.69
791.219	3894.28
791.552	3882.98
791.884	3858.34
792.217	3859.47
792.549	3859.25
792.882	3835.07
793.214	3787.16
793.546	3827.61
793.879	3803.88
794.211	3771.57
794.543	3810.21
794.875	3769.08
795.207	3756.65
795.539	3737.67
795.871	3775.86
796.203	3737.22
796.535	3701.96
796.867	3727.95
797.198	3689.54
797.53	3689.54
797.862	3656.32
798.193	3663.1
798.525	3631.68
798.856	3615.87
799.188	3609.99
799.519	3574.06
799.85	3553.49
800.182	3607.28
800.513	3621.97
800.844	3569.54
801.175	3631.46
801.506	3564.34
801.837	3515.08
802.168	3581.29
802.499	3522.99
802.83	3577.9
803.161	3498.58
803.491	3501.74
803.822	3534.74
804.153	3480.95
804.483	3427.4
804.814	3428.3
805.145	3429.2
805.475	3452.25
805.805	3419.94
806.136	3417.9
806.466	3412.03
806.796	3413.38
807.126	3399.6
807.457	3396.89
807.787	3382.43
808.117	3356.89
808.447	3343.33
808.777	3386.27
809.107	3358.25
809.436	3346.27
809.766	3334.74
810.096	3292.94
810.426	3326.38
810.755	3292.94
811.085	3320.73
811.414	3311.92
811.744	3251.58
812.073	3246.16
812.403	3274.18
812.732	3260.85
813.061	3266.95
813.39	3223.33
813.719	3251.81
814.049	3240.73
814.378	3240.73
814.707	3240.73
815.036	3181.53
815.365	3177.91
815.693	3173.84
816.022	3210.9
816.351	3176.33
816.68	3140.85
817.008	3161.87
817.337	3151.24
817.665	3111.7
817.994	3131.36
818.322	3139.95
818.651	3124.35
818.979	3105.6
819.307	3156.44
819.636	3103.34
819.964	3103.34
820.292	3142.43
820.62	3090.23
820.948	3113.96
821.276	3087.29
821.604	3125.03
821.932	3122.77
822.259	3105.37
822.587	3082.32
822.915	3099.04
823.243	3135.65
823.57	3085.26
823.898	3068.76
824.225	3084.35
824.553	3083.9
824.88	3075.77
825.207	3111.02
825.535	3091.81
825.862	3075.54
826.189	3075.54
826.516	3067.63
826.843	3101.53
827.17	3071.92
827.497	3057.91
827.824	3057.46
828.151	3094.75
828.478	3063.79
828.805	3097.69
829.131	3084.81
829.458	3091.81
829.785	3058.59
830.111	3093.39
830.438	3115.77
830.764	3106.5
831.09	3058.82
831.417	3067.63
831.743	3088.65
832.069	3071.25
832.395	3040.74
832.722	3083
833.048	3062.66
833.374	3081.19
833.7	3064.92
834.026	3051.81
834.351	3091.81
834.677	3062.66
835.003	3068.99
835.329	3047.29
835.654	3044.35
835.98	3043.9
836.306	3064.24
836.631	3031.25
836.956	3031.02
837.282	3039.84
837.607	3012.27
837.932	3025.37
838.258	3043.23
838.583	2986.73
838.908	2998.93
839.233	3009.33
839.558	2998.48
839.883	3005.71
840.208	3011.81
840.533	2945.15
840.858	3007.29
841.182	2970.23
841.507	2988.99
841.832	2974.3
842.156	2980.63
842.481	2989.44
842.805	2956
843.13	2951.02
843.454	2937.47
843.778	2952.61
844.103	2937.01
844.427	2892.95
844.751	2913.28
845.075	2915.32
845.399	2872.83
845.723	2872.83
846.047	2879.16
846.371	2902.89
846.695	2872.16
847.019	2850.01
847.343	2854.3
847.666	2821.08
847.99	2812.27
848.313	2825.15
848.637	2794.42
848.96	2808.43
849.284	2790.35
849.607	2772.27
849.931	2802.33
850.254	2757.58
850.577	2710.35
850.9	2719.62
851.223	2727.08
851.546	2725.95
851.869	2680.52
852.192	2708.09
852.515	2692.5
852.838	2648.66
853.161	2660.18
853.483	2664.48
853.806	2687.53
854.129	2652.27
854.451	2626.51
854.774	2632.61
855.096	2609.34
855.419	2623.35
855.741	2614.54
856.063	2623.35
856.385	2577.47
856.708	2574.31
857.03	2584.93
857.352	2593.07
857.674	2581.99
857.996	2545.39
858.318	2574.08
858.64	2542
858.961	2532.5
859.283	2561.2
859.605	2518.72
859.926	2502.22
860.248	2476.69
860.57	2494.31
860.891	2510.58
861.212	2514.43
861.534	2500.19
861.855	2472.84
862.176	2482.56
862.498	2489.34
862.819	2490.7
863.14	2469.45
863.461	2447.53
863.782	2496.57
864.103	2438.72
864.424	2440.76
864.745	2458.16
865.065	2451.15
865.386	2445.95
865.707	2455.22
866.027	2413.64
866.348	2428.1
866.668	2419.51
866.989	2418.38
867.309	2433.3
867.63	2411.6
867.95	2404.15
868.27	2409.12
868.59	2398.95
868.91	2413.19
869.23	2420.42
869.55	2371.38
869.87	2399.17
870.19	2408.44
870.51	2388.78
870.83	2381.77
871.15	2366.41
871.469	2352.4
871.789	2391.26
872.109	2366.63
872.428	2329.57
872.748	2379.29
873.067	2350.59
873.386	2335.9
873.706	2398.04
874.025	2334.54
874.344	2320.98
874.663	2367.08
874.982	2298.84
875.301	2327.76
875.62	2321.66
875.939	2299.06
876.258	2312.62
876.577	2287.31
876.896	2332.51
877.214	2325.05
877.533	2297.48
877.852	2332.28
878.17	2292.74
878.489	2319.63
878.807	2319.85
879.125	2264.94
879.444	2292.96
879.762	2281.21
880.08	2283.92
880.398	2295.45
880.716	2289.8
881.034	2264.94
881.352	2259.29
881.67	2256.81
881.988	2276.01
882.306	2270.59
882.624	2259.97
882.941	2234.21
883.259	2240.08
883.577	2218.61
883.894	2244.38
884.212	2241.89
884.529	2246.86
884.846	2211.16
885.164	2229.69
885.481	2194.21
885.798	2235.56
886.115	2191.27
886.432	2204.15
886.75	2204.83
887.067	2177.03
887.383	2174.55
887.7	2170.71
888.017	2160.76
888.334	2183.36
888.651	2172.97
888.967	2160.08
889.284	2185.62
889.6	2142.68
889.917	2106.75
890.233	2131.16
890.55	2144.27
890.866	2125.74
891.182	2108.79
891.498	2123.48
891.815	2135.23
892.131	2143.14
892.447	2081.89
892.763	2088
893.079	2113.31
893.395	2060.43
893.71	2077.15
894.026	2045.74
894.342	2073.76
894.657	2075.57
894.973	2075.34
895.289	2061.1
895.604	2022.46
895.92	2038.51
896.235	2030.6
896.55	2044.16
896.865	2027.43
897.181	2020.88
897.496	2019.07
897.811	2040.54
898.126	2004.61
898.441	1991.73
898.756	2009.35
899.071	2007.55
899.386	1993.08
899.7	2003.7
900.015	1959.64
900.33	1955.8
900.644	1958.73
900.959	1966.19
901.273	1960.77
901.588	1956.7
901.902	1912.41
902.216	1913.54
902.531	1937.72
902.845	1903.82
903.159	1896.14
903.473	1911.73
903.787	1879.87
904.101	1915.12
904.415	1902.92
904.729	1911.28
905.042	1876.02
905.356	1861.79
905.67	1881.9
905.984	1848.23
906.297	1855.69
906.611	1854.1
906.924	1855.69
907.237	1838.74
907.551	1844.16
907.864	1826.53
908.177	1826.31
908.491	1803.48
908.804	1804.16
909.117	1811.17
909.43	1805.97
909.743	1801
910.056	1763.26
910.368	1776.82
910.681	1752.19
910.994	1788.79
911.307	1764.61
911.619	1719.87
911.932	1732.53
912.244	1744.5
912.557	1773.43
912.869	1732.53
913.181	1716.25
913.494	1711.73
913.806	1697.27
914.118	1698.18
914.43	1695.69
914.742	1706.31
915.054	1715.8
915.366	1697.05
915.678	1670.15
915.99	1678.74
916.302	1681.9
916.613	1650.04
916.925	1673.09
917.236	1629.48
917.548	1625.18
917.859	1634
918.171	1638.29
918.482	1644.39
918.794	1616.82
919.105	1617.73
919.416	1601
919.727	1610.72
920.038	1612.75
920.349	1595.58
920.66	1592.64
920.971	1570.95
921.282	1567.11
921.593	1575.02
921.903	1575.02
922.214	1562.36
922.525	1545.64
922.835	1546.99
923.146	1558.07
923.456	1552.64
923.767	1508.35
924.077	1516.71
924.387	1492.31
924.697	1510.61
925.008	1510.61
925.318	1487.11
925.628	1486.43
925.938	1505.19
926.248	1460.67
926.558	1459.09
926.867	1482.81
927.177	1478.29
927.487	1468.8
927.796	1427.45
928.106	1448.01
928.416	1439.88
928.725	1466.09
929.034	1435.58
929.344	1437.17
929.653	1435.36
929.962	1433.32
930.271	1420.67
930.581	1394
930.89	1443.72
931.199	1396.71
931.508	1445.3
931.817	1401.69
932.125	1371.4
932.434	1398.52
932.743	1372.99
933.051	1375.02
933.36	1408.92
933.669	1363.27
933.977	1335.02
934.286	1344.29
934.594	1360.11
934.902	1348.58
935.21	1348.13
935.519	1361.91
935.827	1330.28
936.135	1354.91
936.443	1316.49
936.751	1331.86
937.059	1324.4
937.367	1314.46
937.674	1330.05
937.982	1303.38
938.29	1295.93
938.597	1313.78
938.905	1286.66
939.213	1275.14
939.52	1290.95
939.827	1300.67
940.135	1269.03
940.442	1257.51
940.749	1250.73
941.056	1286.21
941.363	1245.53
941.67	1254.57
941.977	1238.98
942.284	1222.48
942.591	1250.28
942.898	1229.71
943.205	1230.39
943.511	1266.1
943.818	1223.16
944.125	1230.39
944.431	1227
944.738	1226.78
945.044	1195.36
945.35	1189.94
945.657	1218.87
945.963	1222.93
946.269	1209.6
946.575	1182.71
946.881	1212.31
947.187	1189.04
947.493	1161.69
947.799	1161.47
948.105	1139.55
948.41	1134.57
948.716	1169.38
949.022	1175.93
949.327	1130.96
949.633	1158.08
949.938	1151.3
950.244	1141.13
950.549	1114.24
950.854	1146.1
951.16	1129.15
951.465	1157.4
951.77	1129.15
952.075	1122.6
952.38	1125.99
952.685	1137.96
952.99	1147.23
953.294	1097.74
953.599	1106.55
953.904	1107.46
954.209	1103.39
954.513	1109.26
954.818	1062.26
955.122	1093.67
955.426	1073.56
955.731	1067.23
956.035	1071.98
956.339	1073.33
956.643	1065.42
956.948	1053.22
957.252	1048.93
957.556	1085.76
957.86	1084.86
958.163	1032.43
958.467	1066.78
958.771	1049.15
959.075	1036.5
959.378	1045.09
959.682	1038.76
959.985	1050.51
960.289	1035.59
960.592	1021.36
960.896	1029.72
961.199	1052.09
961.502	1019.1
961.805	1001.24
962.108	1011.87
962.411	984.75
962.714	1009.61
963.017	996.73
963.32	1010.51
963.623	1007.12
963.926	988.82
964.228	973
964.531	988.82
964.833	996.27
965.136	984.75
965.438	982.94
965.741	998.31
966.043	967.57
966.345	956.27
966.648	971.64
966.95	956.73
967.252	948.36
967.554	958.53
967.856	942.49
968.158	944.98
968.46	932.32
968.761	922.38
969.063	934.13
969.365	935.71
969.666	936.16
969.968	924.18
970.269	924.86
970.571	926.67
970.872	922.38
971.174	909.5
971.475	909.95
971.776	914.24
972.077	913.34
972.378	918.08
972.679	910.17
972.98	910.63
973.281	902.49
973.582	925.54
973.883	899.55
974.183	872.66
974.484	913.56
974.785	889.16
975.085	884.41
975.386	896.39
975.686	903.85
975.986	891.87
976.287	881.93
976.587	865.88
976.887	887.58
977.187	868.59
977.487	869.5
977.787	865.88
978.087	852.77
978.387	865.88
978.687	852.55
978.987	859.1
979.286	853.23
979.586	856.39
979.885	846.22
980.185	810.74
980.484	808.26
980.784	835.15
981.083	833.57
981.382	845.54
981.682	807.13
981.981	834.7
982.28	815.49
982.579	803.74
982.878	824.75
983.177	799.44
983.475	838.54
983.774	815.94
984.073	816.62
984.372	780.01
984.67	811.19
984.969	805.32
985.267	822.27
985.566	781.36
985.864	782.72
986.162	802.38
986.461	758.54
986.759	805.32
987.057	760.35
987.355	780.23
987.653	762.16
987.951	785.66
988.249	769.61
988.547	755.38
988.844	755.83
989.142	758.09
989.44	758.77
989.737	782.04
990.035	755.15
990.332	746.34
990.63	779.56
990.927	753.57
991.224	744.53
991.521	728.94
991.819	758.09
992.116	735.72
992.413	734.36
992.71	748.37
993.006	751.76
993.303	708.15
993.6	743.4
993.897	722.61
994.193	713.34
994.49	734.81
994.787	713.34
995.083	698.65
995.379	701.82
995.676	699.78
995.972	705.66
996.268	697.75
996.565	681.71
996.861	711.08
997.157	717.86
997.453	711.53
997.749	700.01
998.044	691.42
998.34	681.03
998.636	688.48
998.932	700.01
999.227	692.1
999.523	689.84
999.818	692.33
1000.114	693.23
1000.409	677.64
1000.704	674.02
1001	676.96
1001.295	683.97
1001.59	654.59
1001.885	668.82
1002.18	657.53
1002.475	640.12
1002.77	681.03
1003.065	658.88
1003.359	645.32
1003.654	656.4
1003.949	643.06
1004.243	637.41
1004.538	631.09
1004.832	644.19
1005.127	631.09
1005.421	636.28
1005.715	650.97
1006.009	649.39
1006.304	624.08
1006.598	631.54
1006.892	643.97
1007.186	621.59
1007.48	630.86
1007.773	609.62
1008.067	629.5
1008.361	611.88
1008.655	623.4
1008.948	604.19
1009.242	598.77
1009.535	605.55
1009.829	622.95
1010.122	601.26
1010.415	580.24
1010.708	596.74
1011.001	622.27
1011.295	577.75
1011.588	617.3
1011.881	596.28
1012.173	614.59
1012.466	594.48
1012.759	593.8
1013.052	594.7
1013.344	595.15
1013.637	587.7
1013.93	565.1
1014.222	569.39
1014.514	569.17
1014.807	572.56
1015.099	597.19
1015.391	568.04
1015.683	577.53
1015.976	573.23
1016.268	565.55
1016.56	558.32
1016.851	567.13
1017.143	593.8
1017.435	548.38
1017.727	547.47
1018.018	555.15
1018.31	550.18
1018.602	554.25
1018.893	566.45
1019.185	576.85
1019.476	548.15
1019.767	562.39
1020.058	542.95
1020.35	533.01
1020.641	535.49
1020.932	531.43
1021.223	528.49
1021.514	529.84
1021.804	537.53
1022.095	533.23
1022.386	515.61
1022.677	514.48
1022.967	530.3
1023.258	531.2
1023.548	536.62
1023.839	534.14
1024.129	490.07
1024.419	494.14
1024.709	494.37
1025	510.18
1025.29	510.64
1025.58	501.6
1025.87	509.05
1026.16	483.07
1026.449	501.15
1026.739	504.53
1027.029	514.03
1027.319	495.04
1027.608	500.69
1027.898	488.26
1028.187	467.47
1028.477	501.37
1028.766	481.94
1029.055	498.89
1029.344	477.42
1029.634	499.11
1029.923	505.21
1030.212	467.93
1030.501	485.33
1030.79	490.75
1031.078	451.43
1031.367	476.51
1031.656	482.84
1031.945	466.8
1032.233	486.46
1032.522	465.44
1032.81	479.9
1033.099	466.34
1033.387	468.83
1033.675	478.32
1033.963	471.99
1034.251	450.07
1034.54	466.8
1034.828	453.46
1035.116	454.14
1035.403	448.49
1035.691	441.49
1035.979	454.59
1036.267	452.33
1036.554	449.17
1036.842	440.81
1037.129	479
1037.417	446.23
1037.704	447.59
1037.992	449.39
1038.279	460.92
1038.566	451.43
1038.853	451.43
1039.14	451.43
