Data from carpet_green_FLMS001491_00080.txt Node
Date: Wed Feb 08 10:35:51 GMT 2017
User: dcchb
Spectrometer: FLMS00149
Trigger mode: 0
Integration Time (sec): 2.000000E-2
Scans to average: 10
Electric dark correction enabled: true
Nonlinearity correction enabled: false
Boxcar width: 0
XAxis mode: Wavelengths
Number of Pixels in Spectrum: 2048
>>>>>Begin Spectral Data<<<<<
341.393	-16.51
341.776	-16.51
342.16	-16.51
342.543	-49.5
342.927	-68.03
343.31	-83.63
343.693	-91.09
344.077	-72.33
344.46	-29.39
344.843	-70.75
345.226	-33.46
345.61	-26
345.993	-15.61
346.376	-4.53
346.759	25.97
347.142	18.74
347.525	35.01
347.908	79.53
348.291	70.72
348.674	100.32
349.057	96.48
349.44	118.4
349.823	133.54
350.206	151.17
350.588	181.68
350.971	173.99
351.354	206.53
351.737	211.05
352.119	240.88
352.502	251.96
352.884	270.26
353.267	270.71
353.65	255.35
354.032	270.49
354.414	266.65
354.797	280.2
355.179	274.33
355.562	303.71
355.944	297.61
356.326	286.31
356.709	319.07
357.091	311.16
357.473	324.27
357.855	313.88
358.238	312.97
358.62	310.03
359.002	303.71
359.384	317.04
359.766	319.75
360.148	312.29
360.53	297.38
360.912	281.79
361.294	315.01
361.676	311.39
362.057	311.16
362.439	290.37
362.821	305.06
363.203	303.25
363.584	287.21
363.966	282.01
364.348	275.46
364.729	309.36
365.111	306.42
365.493	269.81
365.874	294.22
366.256	312.97
366.637	279.75
367.019	289.02
367.4	285.85
367.781	281.11
368.163	267.78
368.544	268
368.925	265.52
369.306	293.76
369.688	282.46
370.069	278.4
370.45	288.34
370.831	275.46
371.212	275.23
371.593	289.47
371.974	261.67
372.355	281.56
372.736	275.46
373.117	274.33
373.498	302.8
373.879	274.55
374.26	294.44
374.641	297.15
375.021	281.11
375.402	303.48
375.783	299.64
376.163	288.79
376.544	296.02
376.925	267.78
377.305	286.31
377.686	309.81
378.066	302.8
378.447	289.92
378.827	286.08
379.208	275.46
379.588	292.41
379.968	301.22
380.349	305.74
380.729	299.19
381.109	279.75
381.489	296.02
381.87	279.3
382.25	279.75
382.63	290.37
383.01	285.85
383.39	311.16
383.77	302.35
384.15	301.67
384.53	293.76
384.91	298.06
385.29	310.26
385.67	296.7
386.049	298.96
386.429	280.43
386.809	282.46
387.189	292.63
387.568	318.85
387.948	298.96
388.328	298.96
388.707	324.95
389.087	296.48
389.466	306.64
389.846	301.22
390.225	335.34
390.605	319.07
390.984	316.59
391.363	306.19
391.743	321.11
392.122	295.35
392.501	304.61
392.881	326.08
393.26	320.66
393.639	311.84
394.018	325.63
394.397	308.23
394.776	331.28
395.155	327.43
395.534	316.36
395.913	301.9
396.292	319.3
396.671	303.25
397.05	319.3
397.429	286.31
397.808	308.23
398.186	335.57
398.565	308.23
398.944	329.69
399.323	337.6
399.701	314.78
400.08	291.28
400.458	312.75
400.837	311.62
401.215	317.27
401.594	329.92
401.972	330.82
402.351	327.21
402.729	315.68
403.107	336.25
403.486	320.43
403.864	326.76
404.242	306.87
404.62	314.55
404.999	324.5
405.377	340.09
405.755	336.7
406.133	331.73
406.511	335.34
406.889	348.68
407.267	329.24
407.645	333.31
408.023	315.23
408.401	324.95
408.779	332.18
409.156	358.39
409.534	343.25
409.912	306.42
410.29	339.64
410.667	306.42
411.045	357.26
411.422	336.25
411.8	345.74
412.178	337.38
412.555	336.7
412.933	345.74
413.31	333.99
413.687	335.57
414.065	352.97
414.442	349.36
414.819	368.11
415.197	353.65
415.574	332.41
415.951	350.94
416.328	353.87
416.705	363.59
417.082	341.45
417.46	347.32
417.837	345.97
418.214	368.34
418.591	355.46
418.967	367.66
419.344	358.62
419.721	343.71
420.098	380.09
420.475	364.72
420.852	348.9
421.228	378.73
421.605	363.14
421.982	364.04
422.358	384.16
422.735	352.07
423.111	375.57
423.488	373.08
423.864	387.55
424.241	366.98
424.617	384.38
424.994	378.73
425.37	381.9
425.746	367.21
426.123	375.12
426.499	367.21
426.875	371.5
427.251	378.73
427.627	380.31
428.003	374.21
428.379	403.82
428.756	390.71
429.132	385.74
429.507	381.44
429.883	392.97
430.259	387.55
430.635	393.65
431.011	382.12
431.387	390.71
431.763	408.79
432.138	412.86
432.514	405.4
432.89	418.51
433.265	406.08
433.641	397.72
434.016	416.25
434.392	406.3
434.767	413.31
435.143	411.5
435.518	413.53
435.894	415.79
436.269	434.32
436.644	439.52
437.02	422.12
437.395	410.14
437.77	424.16
438.145	422.12
438.52	432.52
438.895	461.44
439.271	433.42
439.646	461.44
440.021	444.49
440.395	432.52
440.77	429.58
441.145	441.78
441.52	432.97
441.895	460.99
442.27	452.4
442.645	455.79
443.019	445.85
443.394	446.3
443.769	451.95
444.143	460.31
444.518	459.41
444.892	445.4
445.267	464.61
445.641	465.28
446.016	465.96
446.39	470.93
446.764	460.76
447.139	448.56
447.513	470.93
447.887	480.88
448.262	473.42
448.636	471.84
449.01	461.67
449.384	477.71
449.758	459.63
450.132	485.17
450.506	486.98
450.88	498.73
451.254	493.31
451.628	493.76
452.002	510.48
452.376	499.41
452.75	487.66
453.123	506.87
453.497	501.44
453.871	511.16
454.244	518.62
454.618	508.9
454.992	515.23
455.365	498.28
455.739	519.29
456.112	516.81
456.486	522.46
456.859	542.34
457.232	538.5
457.606	544.38
457.979	550.93
458.352	542.8
458.725	532.18
459.099	552.97
459.472	550.48
459.845	569.01
460.218	582.12
460.591	580.08
460.964	557.94
461.337	589.35
461.71	582.34
462.083	575.34
462.456	559.97
462.829	597.26
463.201	574.89
463.574	589.35
463.947	641.32
464.32	608.56
464.692	620.76
465.065	636.35
465.438	595.22
465.81	624.38
466.183	629.12
466.555	667.31
466.928	642.68
467.3	633.42
467.672	644.04
468.045	675.45
468.417	672.28
468.789	677.71
469.161	673.64
469.534	656.24
469.906	693.3
470.278	695.79
470.65	699.63
471.022	711.83
471.394	705.96
471.766	738.95
472.138	702.11
472.51	716.58
472.882	757.71
473.253	727.65
473.625	763.58
473.997	762.9
474.369	749.8
474.74	797.48
475.112	784.37
475.484	800.64
475.855	795.67
476.227	805.16
476.598	818.95
476.97	813.75
477.341	852.39
477.713	841.32
478.084	884.26
478.455	876.8
478.827	891.26
479.198	892.17
479.569	929.9
479.94	926.06
480.311	914.09
480.682	948.89
481.053	950.24
481.424	941.2
481.795	969
482.166	993.18
482.537	989.34
482.908	991.15
483.279	1028.43
483.65	1019.85
484.021	1053.07
484.391	1034.99
484.762	1074.53
485.133	1081.99
485.503	1112.05
485.874	1109.34
486.244	1092.84
486.615	1155.66
486.985	1151.82
487.356	1184.81
487.726	1183.91
488.097	1193.63
488.467	1212.38
488.837	1213.51
489.207	1214.19
489.578	1222.55
489.948	1286.05
490.318	1272.27
490.688	1286.51
491.058	1291.25
491.428	1306.17
491.798	1296
492.168	1336.9
492.538	1298.26
492.908	1377.12
493.278	1338.26
493.648	1365.6
494.017	1370.35
494.387	1387.97
494.757	1414.86
495.126	1400.18
495.496	1396.79
495.866	1446.95
496.235	1424.36
496.605	1425.49
496.974	1432.94
497.344	1493.96
497.713	1482.21
498.082	1500.74
498.452	1496.67
498.821	1504.35
499.19	1525.14
499.559	1533.96
499.928	1512.26
500.298	1547.06
500.667	1526.05
501.036	1526.5
501.405	1558.36
501.774	1579.15
502.143	1539.38
502.512	1579.61
502.88	1581.41
503.249	1611.69
503.618	1608.76
503.987	1629.32
504.356	1607.4
504.724	1646.27
505.093	1624.35
505.462	1623.9
505.83	1636.33
506.199	1691.24
506.567	1655.54
506.936	1674.07
507.304	1675.87
507.672	1700.96
508.041	1702.77
508.409	1714.97
508.777	1704.57
509.145	1724.01
509.514	1734.63
509.882	1735.31
510.25	1771.46
510.618	1763.1
510.986	1782.09
511.354	1782.54
511.722	1785.02
512.09	1782.99
512.458	1774.63
512.826	1777.11
513.193	1816.44
513.561	1799.03
513.929	1804.23
514.297	1830.9
514.664	1869.77
515.032	1851.91
515.4	1869.32
515.767	1888.98
516.135	1900.73
516.502	1863.21
516.869	1921.74
517.237	1893.72
517.604	1870.9
517.972	1930.33
518.339	1919.94
518.706	1933.04
519.073	1931.91
519.44	1938.24
519.808	1956.77
520.175	1975.08
520.542	2015.07
520.909	1978.46
521.276	1985.47
521.643	1993.61
522.009	2010.33
522.376	2025.24
522.743	2003.77
523.11	2038.58
523.477	2043.77
523.843	2065.24
524.21	2071.34
524.577	2106.82
524.943	2104.56
525.31	2100.95
525.676	2094.85
526.043	2140.95
526.409	2142.75
526.776	2162.87
527.142	2153.38
527.508	2166.03
527.874	2168.74
528.241	2139.82
528.607	2158.57
528.973	2211.45
529.339	2190.66
529.705	2181.4
530.071	2244.67
530.437	2206.48
530.803	2255.52
531.169	2219.81
531.535	2225.46
531.901	2252.13
532.267	2270.43
532.632	2283.99
532.998	2273.37
533.364	2297.1
533.73	2278.12
534.095	2268.63
534.461	2288.97
534.826	2318.34
535.192	2305.69
535.557	2301.17
535.923	2287.38
536.288	2259.36
536.653	2307.04
537.019	2324.67
537.384	2287.61
537.749	2299.36
538.114	2343.65
538.479	2306.37
538.845	2346.14
539.21	2332.13
539.575	2323.54
539.94	2311.11
540.305	2328.51
540.67	2306.14
541.034	2356.08
541.399	2336.2
541.764	2346.59
542.129	2354.95
542.494	2331.22
542.858	2389.98
543.223	2387.72
543.587	2379.13
543.952	2366.7
544.316	2334.16
544.681	2342.52
545.045	2351.79
545.41	2415.52
545.774	2387.27
546.138	2385.91
546.503	2396.08
546.867	2384.78
547.231	2392.92
547.595	2387.27
547.959	2386.14
548.324	2383.2
548.688	2401.96
549.052	2421.39
549.416	2416.65
549.779	2364.9
550.143	2416.42
550.507	2403.09
550.871	2429.75
551.235	2425.01
551.599	2443.31
551.962	2394.73
552.326	2437.21
552.689	2406.7
553.053	2429.3
553.417	2389.53
553.78	2460.49
554.143	2459.36
554.507	2455.97
554.87	2469.75
555.234	2459.36
555.597	2470.66
555.96	2489.41
556.323	2465.23
556.686	2477.89
557.05	2485.34
557.413	2483.54
557.776	2466.81
558.139	2535.51
558.502	2488.06
558.865	2513.14
559.228	2524.21
559.59	2514.72
559.953	2503.2
560.316	2533.7
560.679	2513.82
561.041	2548.39
561.404	2571.44
561.767	2562.63
562.129	2558.79
562.492	2582.97
562.854	2570.09
563.217	2573.03
563.579	2593.59
563.941	2601.73
564.304	2615.51
564.666	2586.58
565.028	2634.04
565.39	2605.79
565.753	2642.85
566.115	2652.57
566.477	2606.47
566.839	2644.66
567.201	2665.68
567.563	2650.76
567.925	2651.67
568.287	2667.03
568.648	2675.62
569.01	2661.61
569.372	2702.06
569.734	2681.95
570.095	2663.87
570.457	2729.63
570.819	2679.01
571.18	2669.52
571.542	2667.71
571.903	2687.37
572.265	2707.71
572.626	2709.29
572.987	2692.12
573.349	2716.52
573.71	2731.44
574.071	2700.03
574.432	2697.99
574.794	2738.44
575.155	2742.96
575.516	2682.4
575.877	2705.23
576.238	2732.57
576.599	2737.09
576.96	2697.32
577.32	2728.28
577.681	2701.38
578.042	2724.89
578.403	2711.33
578.763	2724.66
579.124	2699.35
579.485	2713.13
579.845	2691.67
580.206	2691.21
580.566	2693.25
580.927	2712.91
581.287	2726.92
581.648	2705.9
582.008	2700.71
582.368	2677.88
582.728	2688.05
583.089	2678.33
583.449	2632.91
583.809	2665
584.169	2680.14
584.529	2666.58
584.889	2674.04
585.249	2706.13
585.609	2642.63
585.969	2700.03
586.329	2649.18
586.688	2690.76
587.048	2675.4
587.408	2658
587.768	2649.41
588.127	2649.41
588.487	2653.93
588.846	2657.54
589.206	2627.26
589.565	2659.35
589.925	2660.25
590.284	2649.18
590.643	2687.15
591.003	2671.78
591.362	2606.7
591.721	2661.61
592.08	2634.94
592.44	2628.84
592.799	2599.24
593.158	2619.35
593.517	2627.71
593.876	2626.13
594.235	2601.05
594.593	2639.69
594.952	2634.72
595.311	2650.54
595.67	2631.1
596.029	2648.73
596.387	2661.16
596.746	2648.05
597.104	2640.37
597.463	2648.5
597.822	2610.09
598.18	2631.1
598.538	2622.97
598.897	2662.74
599.255	2610.99
599.613	2640.14
599.972	2660.03
600.33	2629.97
600.688	2608.28
601.046	2655.51
601.404	2660.48
601.762	2669.97
602.12	2669.97
602.478	2693.93
602.836	2669.29
603.194	2623.42
603.552	2648.5
603.91	2687.82
604.268	2658.67
604.625	2634.27
604.983	2715.62
605.341	2666.13
605.698	2644.44
606.056	2676.3
606.413	2685.79
606.771	2679.92
607.128	2664.1
607.485	2668.39
607.843	2676.07
608.2	2690.99
608.557	2708.84
608.914	2694.6
609.272	2684.44
609.629	2683.98
609.986	2733.93
610.343	2698.67
610.7	2714.26
611.057	2706.81
611.414	2712.91
611.771	2738.44
612.127	2728.95
612.484	2740.03
612.841	2755.39
613.198	2715.17
613.554	2777.54
613.911	2740.25
614.267	2765.79
614.624	2739.12
614.98	2727.6
615.337	2766.69
615.693	2753.13
616.05	2790.65
616.406	2786.13
616.762	2775.96
617.118	2730.08
617.475	2774.6
617.831	2802.62
618.187	2779.8
618.543	2785
618.899	2764.21
619.255	2800.59
619.611	2751.78
619.967	2759.69
620.323	2770.99
620.678	2779.35
621.034	2768.5
621.39	2780.93
621.746	2769.86
622.101	2773.7
622.457	2773.25
622.812	2759.69
623.168	2791.32
623.523	2772.79
623.879	2808.73
624.234	2786.81
624.589	2775.73
624.945	2782.74
625.3	2768.05
625.655	2785.9
626.01	2802.62
626.365	2799.01
626.72	2771.44
627.075	2759.69
627.43	2763.98
627.785	2743.87
628.14	2795.17
628.495	2731.67
628.85	2770.76
629.205	2709.07
629.559	2737.54
629.914	2740.48
630.269	2798.56
630.623	2736.86
630.978	2688.73
631.332	2756.98
631.687	2740.03
632.041	2728.05
632.396	2762.63
632.75	2755.85
633.104	2765.34
633.459	2714.72
633.813	2704.1
634.167	2735.06
634.521	2709.97
634.875	2715.39
635.229	2769.4
635.583	2741.16
635.937	2736.41
636.291	2709.29
636.645	2696.19
636.999	2705.23
637.352	2772.34
637.706	2712.68
638.06	2728.95
638.413	2681.27
638.767	2717.88
639.121	2747.48
639.474	2719.46
639.828	2700.48
640.181	2728.28
640.534	2736.19
640.888	2701.16
641.241	2728.05
641.594	2719.69
641.947	2685.56
642.301	2692.12
642.654	2739.8
643.007	2732.12
643.36	2686.47
643.713	2759.46
644.066	2756.98
644.419	2723.3
644.771	2704.1
645.124	2696.19
645.477	2725.11
645.83	2715.62
646.182	2692.57
646.535	2689.41
646.888	2723.08
647.24	2698.45
647.593	2766.24
647.945	2730.54
648.298	2684.21
648.65	2715.62
649.002	2704.32
649.355	2738.22
649.707	2711.1
650.059	2729.63
650.411	2759.91
650.763	2769.63
651.115	2818.67
651.467	2801.95
651.819	2827.93
652.171	2844.43
652.523	2809.63
652.875	2826.35
653.227	2834.26
653.578	2812.34
653.93	2857.31
654.282	2898.44
654.633	2864.32
654.985	2874.49
655.337	2883.98
655.688	2934.82
656.039	2930.76
656.391	2884.43
656.742	2942.28
657.094	2916.75
657.445	2966.69
657.796	2957.2
658.147	2982.05
658.498	2999.91
658.849	3003.3
659.2	2979.34
659.551	2994.71
659.902	3030.41
660.253	3036.29
660.604	3037.87
660.955	3009.85
661.306	3032.67
661.656	3058.21
662.007	3085.55
662.358	3085.55
662.708	3086.91
663.059	3142.5
663.409	3126.68
663.76	3146.34
664.11	3191.31
664.461	3174.82
664.811	3165.55
665.161	3181.37
665.511	3248.71
665.862	3247.58
666.212	3238.54
666.562	3269.96
666.912	3265.89
667.262	3314.93
667.612	3352.67
667.962	3344.53
668.312	3334.81
668.662	3376.39
669.011	3388.37
669.361	3434.02
669.711	3420.23
670.06	3452.55
670.41	3502.04
670.76	3479.22
671.109	3529.84
671.459	3494.36
671.808	3525.77
672.157	3543.62
672.507	3564.86
672.856	3551.98
673.205	3603.28
673.554	3624.07
673.904	3633.56
674.253	3640.57
674.602	3698.19
674.951	3645.99
675.3	3664.52
675.649	3746.78
675.998	3740
676.346	3797.63
676.695	3824.07
677.044	3828.81
677.393	3834.46
677.741	3881.92
678.09	3851.41
678.438	3875.82
678.787	3913.1
679.135	3954.23
679.484	3971.86
679.832	3995.14
680.181	3999.88
680.529	4041.01
680.877	4061.8
681.225	4099.31
681.573	4108.58
681.922	4109.93
682.27	4126.88
682.618	4162.36
682.966	4149.93
683.314	4207.11
683.661	4234.45
684.009	4260.89
684.357	4233.09
684.705	4285.3
685.053	4322.81
685.4	4321.23
685.748	4330.27
686.095	4390.6
686.443	4431.96
686.79	4432.64
687.138	4435.8
687.485	4442.13
687.832	4488.91
688.18	4466.76
688.527	4481
688.874	4521
689.221	4553.76
689.568	4545.63
689.915	4557.61
690.262	4605.51
690.609	4641.45
690.956	4608.45
691.303	4644.16
691.65	4622.01
691.997	4657.72
692.344	4685.29
692.69	4704.49
693.037	4752.86
693.383	4727.32
693.73	4785.85
694.077	4790.82
694.423	4835.34
694.769	4861.78
695.116	4832.63
695.462	4857.94
695.808	4876.02
696.155	4923.7
696.501	4882.57
696.847	4952.4
697.193	4985.62
697.539	4956.69
697.885	5025.62
698.231	4970.25
698.577	5056.8
698.923	4991.72
699.269	5045.28
699.614	5073.75
699.96	5062.9
700.306	5131.83
700.651	5116.46
700.997	5132.51
701.342	5178.61
701.688	5165.05
702.033	5165.5
702.379	5175.89
702.724	5213.63
703.069	5282.11
703.415	5219.06
703.76	5249.79
704.105	5248.89
704.45	5228.77
704.795	5279.85
705.14	5286.63
705.485	5279.4
705.83	5337.25
706.175	5306.74
706.52	5372.5
706.865	5352.16
707.209	5395.78
707.554	5411.14
707.899	5437.36
708.243	5430.13
708.588	5431.71
708.932	5420.18
709.277	5501.54
709.621	5470.12
709.966	5470.12
710.31	5542.66
710.654	5460.18
710.998	5581.08
711.342	5518.48
711.687	5583.34
712.031	5583.79
712.375	5544.47
712.719	5592.38
713.063	5620.63
713.407	5645.94
713.75	5628.09
714.094	5659.95
714.438	5618.37
714.782	5652.72
715.125	5678.71
715.469	5690.46
715.812	5681.19
716.156	5659.27
716.499	5682.55
716.843	5704.69
717.186	5713.73
717.53	5699.5
717.873	5812.71
718.216	5761.64
718.559	5789.89
718.902	5704.92
719.246	5746.5
719.589	5736.78
719.932	5732.94
720.275	5781.08
720.617	5788.99
720.96	5791.25
721.303	5832.15
721.646	5805.93
721.989	5777.46
722.331	5852.71
722.674	5879.83
723.016	5840.06
723.359	5818.14
723.701	5871.47
724.044	5831.02
724.386	5806.84
724.729	5850.91
725.071	5868.53
725.413	5852.04
725.755	5902.66
726.097	5873.28
726.439	5853.17
726.782	5900.62
727.124	5924.12
727.465	5908.08
727.807	5918.25
728.149	5902.88
728.491	5915.76
728.833	5902.2
729.175	5883
729.516	5859.04
729.858	5905.14
730.199	5864.46
730.541	5904.69
730.882	5897.46
731.224	5959.38
731.565	5890.9
731.906	5880.51
732.248	5965.25
732.589	5931.13
732.93	5916.21
733.271	5901.98
733.612	5906.05
733.953	5923.67
734.294	5905.59
734.635	5942.65
734.976	5935.87
735.317	5896.78
735.658	5884.58
735.999	5905.82
736.339	5911.92
736.68	5908.53
737.021	5888.87
737.361	5935.87
737.702	5885.93
738.042	5887.74
738.383	5879.61
738.723	5923.45
739.063	5890.23
739.404	5905.59
739.744	5858.81
740.084	5845.71
740.424	5877.8
740.764	5862.43
741.104	5892.94
741.444	5843.22
741.784	5904.01
742.124	5816.78
742.464	5794.64
742.804	5818.36
743.143	5824.24
743.483	5858.59
743.823	5818.36
744.162	5805.03
744.502	5835.09
744.841	5762.09
745.181	5814.97
745.52	5770.46
745.86	5803.9
746.199	5779.27
746.538	5834.63
746.877	5802.55
747.216	5795.09
747.556	5755.54
747.895	5772.72
748.234	5736.33
748.573	5770.46
748.911	5749.21
749.25	5744.92
749.589	5761.42
749.928	5751.47
750.267	5736.56
750.605	5732.04
750.944	5686.84
751.283	5638.26
751.621	5666.05
751.96	5718.25
752.298	5664.7
752.636	5679.84
752.975	5618.82
753.313	5603.68
753.651	5670.35
753.989	5615.21
754.327	5598.93
754.666	5579.95
755.004	5617.92
755.342	5602.1
755.679	5591.25
756.017	5589.44
756.355	5598.93
756.693	5532.95
757.031	5550.12
757.368	5500.41
757.706	5488.43
758.044	5466.96
758.381	5537.92
758.719	5493.4
759.056	5440.29
759.394	5450.01
759.731	5448.66
760.068	5397.58
760.405	5374.76
760.743	5372.5
761.08	5420.86
761.417	5404.14
761.754	5333.86
762.091	5361.2
762.428	5371.6
762.765	5326.4
763.102	5367.98
763.438	5295.67
763.775	5281.2
764.112	5261.77
764.449	5263.58
764.785	5180.87
765.122	5229
765.458	5192.17
765.795	5160.98
766.131	5163.24
766.467	5121.21
766.804	5158.04
767.14	5074.2
767.476	5144.94
767.812	5054.99
768.148	5111.49
768.485	5072.17
768.821	5051.15
769.157	4998.05
769.492	5026.29
769.828	5030.81
770.164	4951.49
770.5	4972.51
770.836	4937.26
771.171	4918.73
771.507	4956.24
771.842	4880.31
772.178	4912.4
772.513	4881.89
772.849	4889.8
773.184	4865.85
773.519	4866.98
773.855	4881.21
774.19	4819.52
774.525	4771.84
774.86	4842.57
775.195	4831.05
775.53	4792.85
775.865	4737.04
776.2	4714.66
776.535	4663.82
776.87	4719.64
777.205	4654.78
777.539	4670.15
777.874	4667.89
778.209	4621.79
778.543	4622.92
778.878	4596.93
779.212	4616.81
779.547	4576.59
779.881	4577.27
780.215	4535.46
780.55	4532.75
780.884	4488.91
781.218	4548.11
781.552	4471.96
781.886	4500.88
782.22	4424.5
782.554	4472.86
782.888	4406.88
783.222	4446.65
783.556	4372.98
783.889	4379.31
784.223	4388.8
784.557	4349.48
784.89	4368.23
785.224	4346.31
785.557	4342.02
785.891	4300.66
786.224	4268.8
786.558	4295.01
786.891	4259.99
787.224	4222.02
787.557	4221.34
787.891	4183.83
788.224	4224.28
788.557	4177.05
788.89	4189.93
789.223	4205.3
789.556	4167.33
789.888	4099.77
790.221	4139.09
790.554	4106.54
790.887	4117.84
791.219	4099.77
791.552	4119.2
791.884	4090.27
792.217	4070.61
792.549	4059.99
792.882	4041.24
793.214	4003.27
793.546	4011.41
793.879	3985.42
794.211	3972.31
794.543	3968.47
794.875	3930.28
795.207	3949.94
795.539	3951.07
795.871	3931.18
796.203	3949.03
796.535	3848.47
796.867	3911.97
797.198	3944.97
797.53	3844.18
797.862	3860.9
798.193	3832.2
798.525	3810.51
798.856	3871.07
799.188	3791.07
799.519	3798.98
799.85	3764.86
800.182	3775.48
800.513	3752.66
800.844	3759.66
801.175	3768.7
801.506	3755.59
801.837	3759.44
802.168	3679.89
802.499	3704.97
802.83	3714.01
803.161	3666.33
803.491	3683.05
803.822	3697.52
804.153	3671.98
804.483	3612.55
804.814	3609.16
805.145	3623.39
805.475	3653.45
805.805	3611.42
806.136	3577.07
806.466	3618.87
806.796	3623.62
807.126	3551.08
807.457	3569.38
807.787	3577.52
808.117	3549.95
808.447	3542.49
808.777	3505.66
809.107	3520.12
809.436	3508.82
809.766	3479.22
810.096	3467.24
810.426	3529.84
810.755	3513.79
811.085	3480.35
811.414	3504.75
811.744	3448.48
812.073	3437.41
812.403	3434.7
812.732	3414.36
813.061	3474.7
813.39	3421.14
813.719	3382.72
814.049	3433.12
814.378	3379.56
814.707	3402.61
815.036	3366.23
815.365	3384.08
815.693	3345.21
816.022	3359.9
816.351	3321.03
816.68	3296.85
817.008	3339.79
817.337	3327.81
817.665	3312.67
817.994	3296.85
818.322	3304.31
818.651	3299.11
818.979	3271.99
819.307	3270.41
819.636	3284.42
819.964	3271.54
820.292	3254.82
820.62	3325.1
820.948	3269.5
821.276	3248.26
821.604	3222.05
821.932	3265.44
822.259	3253.23
822.587	3268.6
822.915	3245.1
823.243	3256.85
823.57	3234.48
823.898	3238.32
824.225	3239
824.553	3217.53
824.88	3231.09
825.207	3231.54
825.535	3233.35
825.862	3230.64
826.189	3220.24
826.516	3253.69
826.843	3253.01
827.17	3234.7
827.497	3239.45
827.824	3265.89
828.151	3244.42
828.478	3233.57
828.805	3217.98
829.131	3241.93
829.458	3209.84
829.785	3241.48
830.111	3225.21
830.438	3233.8
830.764	3236.74
831.09	3244.65
831.417	3244.87
831.743	3237.19
832.069	3252.78
832.395	3227.7
832.722	3226.57
833.048	3206.23
833.374	3226.57
833.7	3247.36
834.026	3204.2
834.351	3221.6
834.677	3214.59
835.003	3199.22
835.329	3245.32
835.654	3217.08
835.98	3199.45
836.306	3191.99
836.631	3154.48
836.956	3200.81
837.282	3180.47
837.607	3236.06
837.932	3127.81
838.258	3163.29
838.583	3191.54
838.908	3191.77
839.233	3177.3
839.558	3137.53
839.883	3125.1
840.208	3109.96
840.533	3120.13
840.858	3156.97
841.182	3094.82
841.507	3120.36
841.832	3091.2
842.156	3095.05
842.481	3091.66
842.805	3109.28
843.13	3083.52
843.454	3081.94
843.778	3074.48
844.103	3098.21
844.427	3068.61
844.751	3046.46
845.075	3064.54
845.399	3059.79
845.723	2996.29
846.047	3036.06
846.371	3012.79
846.695	2988.16
847.019	2947.48
847.343	2967.14
847.666	2919.91
847.99	2921.26
848.313	2982.73
848.637	2967.82
848.96	2924.88
849.284	2914.49
849.607	2928.95
849.931	2889.85
850.254	2876.07
850.577	2852.11
850.9	2827.03
851.223	2868.39
851.546	2852.57
851.869	2827.93
852.192	2817.76
852.515	2845.79
852.838	2796.75
853.161	2814.38
853.483	2778.67
853.806	2756.98
854.129	2771.89
854.451	2743.42
854.774	2758.33
855.096	2765.11
855.419	2742.29
855.741	2751.55
856.063	2709.97
856.385	2745.68
856.708	2733.47
857.03	2673.14
857.352	2687.82
857.674	2651.67
857.996	2686.92
858.318	2660.71
858.64	2694.6
858.961	2655.28
859.283	2657.09
859.605	2634.04
859.926	2685.56
860.248	2622.52
860.57	2661.38
860.891	2615.96
861.212	2623.65
861.534	2634.49
861.855	2570.31
862.176	2629.07
862.498	2640.59
862.819	2606.02
863.14	2577.55
863.461	2579.58
863.782	2601.05
864.103	2601.27
864.424	2611.44
864.745	2578.9
865.065	2589.52
865.386	2537.32
865.707	2589.75
866.027	2575.29
866.348	2572.57
866.668	2560.82
866.989	2551.78
867.309	2554.27
867.63	2496.42
867.95	2503.87
868.27	2526.25
868.59	2499.58
868.91	2528.28
869.23	2518.34
869.55	2485.12
869.87	2488.96
870.19	2489.41
870.51	2486.7
870.83	2497.1
871.15	2463.88
871.469	2490.99
871.789	2485.8
872.109	2495.29
872.428	2457.77
872.748	2456.87
873.067	2509.52
873.386	2461.39
873.706	2475.4
874.025	2461.84
874.344	2443.99
874.663	2454.38
874.982	2467.72
875.301	2437.44
875.62	2432.01
875.939	2453.71
876.258	2447.15
876.577	2430.66
876.896	2427.49
877.214	2436.08
877.533	2421.84
877.852	2442.41
878.17	2422.75
878.489	2449.41
878.807	2421.17
879.125	2417.78
879.444	2376.19
879.762	2386.82
880.08	2415.52
880.398	2386.82
880.716	2381.39
881.034	2395.63
881.352	2379.81
881.67	2379.81
881.988	2379.13
882.306	2374.39
882.624	2381.62
882.941	2336.65
883.259	2325.12
883.577	2362.41
883.894	2363.77
884.212	2345.01
884.529	2360.38
884.846	2319.92
885.164	2357.66
885.481	2342.98
885.798	2350.66
886.115	2291.9
886.432	2295.52
886.75	2283.32
887.067	2292.81
887.383	2326.48
887.7	2285.12
888.017	2277.89
888.334	2272.69
888.651	2278.57
888.967	2265.91
889.284	2249.87
889.6	2253.03
889.917	2238.12
890.233	2264.79
890.55	2268.17
890.866	2243.54
891.182	2202.87
891.498	2244.22
891.815	2212.36
892.131	2199.25
892.447	2179.14
892.763	2184.34
893.079	2207.16
893.395	2205.58
893.71	2182.08
894.026	2158.12
894.342	2191.34
894.657	2158.12
894.973	2190.21
895.289	2176.65
895.604	2160.16
895.92	2164.67
896.235	2150.21
896.55	2138.91
896.865	2133.04
897.181	2125.13
897.496	2098.24
897.811	2104.34
898.126	2104.34
898.441	2107.95
898.756	2078.58
899.071	2109.76
899.386	2060.95
899.7	2058.69
900.015	2063.89
900.33	2034.06
900.644	2058.24
900.959	2041.29
901.273	2034.06
901.588	2057.33
901.902	2025.7
902.216	2046.71
902.531	2025.02
902.845	2021.85
903.159	2006.49
903.473	1975.98
903.787	1989.99
904.101	1992.02
904.415	1984.11
904.729	1962.19
905.042	1963.78
905.356	1966.71
905.67	1972.36
905.984	1949.77
906.297	1930.33
906.611	1920.39
906.924	1917.9
907.237	1953.15
907.551	1933.04
907.864	1937.56
908.177	1885.59
908.491	1943.44
908.804	1888.07
909.117	1893.27
909.43	1892.14
909.743	1888.07
910.056	1871.12
910.368	1879.03
910.681	1843.33
910.994	1852.14
911.307	1857.11
911.619	1812.59
911.932	1823.89
912.244	1813.5
912.557	1813.05
912.869	1793.39
913.181	1804.01
913.494	1804.23
913.806	1767.4
914.118	1792.71
914.43	1795.64
914.742	1780.96
915.054	1767.85
915.366	1761.75
915.678	1754.29
915.99	1754.97
916.302	1708.64
916.613	1723.78
916.925	1740.51
917.236	1715.2
917.548	1717.45
917.859	1736.44
918.171	1702.31
918.482	1701.64
918.794	1663.9
919.105	1710
919.416	1663.67
919.727	1660.73
920.038	1675.87
920.349	1650.79
920.66	1662.99
920.971	1654.18
921.282	1663.67
921.593	1663.22
921.903	1641.52
922.214	1612.6
922.525	1618.47
922.835	1609.66
923.146	1609.66
923.456	1628.64
923.767	1569.21
924.077	1587.97
924.387	1587.29
924.697	1572.83
925.008	1573.5
925.318	1614.41
925.628	1585.25
925.938	1557.91
926.248	1549.78
926.558	1544.35
926.867	1571.24
927.177	1559.04
927.487	1549.78
927.796	1536.22
928.106	1550.91
928.416	1525.6
928.725	1505.48
929.034	1501.42
929.344	1522.21
929.653	1488.08
929.962	1508.87
930.271	1489.44
930.581	1474.07
930.89	1486.05
931.199	1489.89
931.508	1481.98
931.817	1461.19
932.125	1447.18
932.434	1461.42
932.743	1425.71
933.051	1440.4
933.36	1422.1
933.669	1400.85
933.977	1418.93
934.286	1418.71
934.594	1443.79
934.902	1388.42
935.21	1412.15
935.519	1410.57
935.827	1401.3
936.135	1413.51
936.443	1372.83
936.751	1390.01
937.059	1384.13
937.367	1383
937.674	1371.02
937.982	1359.95
938.29	1356.11
938.597	1362.21
938.905	1331.7
939.213	1336.22
939.52	1352.94
939.827	1326.05
940.135	1320.63
940.442	1366.28
940.749	1322.21
941.056	1328.54
941.363	1296.22
941.67	1317.24
941.977	1311.36
942.284	1300.52
942.591	1283.34
942.898	1300.29
943.205	1281.99
943.511	1300.74
943.818	1328.76
944.125	1264.36
944.431	1279.95
944.738	1297.35
945.044	1263
945.35	1286.51
945.657	1264.36
945.963	1272.27
946.269	1239.95
946.575	1258.48
946.881	1238.6
947.187	1243.12
947.493	1214.64
947.799	1220.52
948.105	1258.26
948.41	1229.78
948.716	1201.31
949.022	1201.54
949.327	1201.76
949.633	1192.5
949.938	1209.45
950.244	1206.51
950.549	1179.62
950.854	1176.45
951.16	1198.15
951.465	1185.27
951.77	1157.92
952.075	1178.49
952.38	1182.33
952.685	1181.2
952.99	1152.05
953.294	1152.5
953.599	1144.14
953.904	1152.5
954.209	1138.94
954.513	1128.54
954.818	1146.4
955.122	1139.16
955.426	1119.73
955.731	1126.51
956.035	1140.29
956.339	1130.13
956.643	1121.54
956.948	1112.95
957.252	1104.82
957.556	1116.34
957.86	1106.62
958.163	1113.85
958.467	1106.85
958.771	1075.44
959.075	1091.71
959.378	1079.05
959.682	1089.9
959.985	1083.8
960.289	1083.8
960.592	1054.42
960.896	1063.46
961.199	1051.94
961.502	1051.03
961.805	1059.17
962.108	1049.68
962.411	1073.86
962.714	1040.18
963.017	1026.85
963.32	1062.56
963.623	1041.54
963.926	1014.65
964.228	1040.64
964.531	1042.22
964.833	1030.47
965.136	1018.26
965.438	1011.94
965.741	1014.65
966.043	995.44
966.345	1004.25
966.648	1030.69
966.95	1009.45
967.252	1031.6
967.554	1005.61
967.856	986.4
968.158	988.21
968.46	968.77
968.761	969.9
969.063	984.14
969.365	987.98
969.666	971.94
969.968	968.55
970.269	953.63
970.571	966.74
970.872	965.16
971.174	980.07
971.475	962.67
971.776	954.76
972.077	945.95
972.378	950.47
972.679	965.61
972.98	973.97
973.281	940.75
973.582	945.95
973.883	943.01
974.183	919.06
974.484	923.35
974.785	907.08
975.085	923.58
975.386	920.41
975.686	906.63
975.986	923.58
976.287	903.24
976.587	889.23
976.887	908.44
977.187	890.13
977.487	887.42
977.787	912.73
978.087	898.04
978.387	892.17
978.687	895.1
978.987	883.58
979.286	877.25
979.586	889.45
979.885	867.08
980.185	863.47
980.484	879.28
980.784	847.42
981.083	884.03
981.382	873.86
981.682	845.16
981.981	863.01
982.28	846.07
982.579	825.27
982.878	854.2
983.177	853.97
983.475	849
983.774	842.45
984.073	845.16
984.372	843.58
984.67	810.59
984.969	848.55
985.267	838.38
985.566	848.78
985.864	827.08
986.162	829.12
986.461	816.46
986.759	820.98
987.057	797.48
987.355	801.55
987.653	782.11
987.951	790.47
988.249	814.43
988.547	793.86
988.844	802
989.142	796.35
989.44	770.81
989.737	787.54
990.035	768.1
990.332	768.33
990.63	772.62
990.927	759.29
991.224	787.08
991.521	796.12
991.819	758.61
992.116	778.95
992.413	752.28
992.71	754.54
993.006	751.83
993.303	759.06
993.6	753.86
993.897	743.47
994.193	737.59
994.49	766.75
994.787	781.66
995.083	762.45
995.379	753.64
995.676	737.59
995.972	722.68
996.268	759.74
996.565	751.83
996.861	721.1
997.157	735.33
997.453	729.23
997.749	737.82
998.044	710.48
998.34	723.36
998.636	717.71
998.932	703.7
999.227	715
999.523	707.76
999.818	728.1
1000.114	705.73
1000.409	685.84
1000.704	687.2
1001	694.88
1001.295	705.73
1001.59	710.93
1001.885	694.66
1002.18	669.57
1002.475	666.18
1002.77	677.71
1003.065	661.44
1003.359	671.83
1003.654	664.38
1003.949	658.5
1004.243	660.76
1004.538	661.21
1004.832	663.02
1005.127	650.59
1005.421	655.79
1005.715	655.56
1006.009	666.64
1006.304	678.39
1006.598	646.52
1006.892	650.59
1007.186	667.31
1007.48	635
1007.773	640.42
1008.067	633.42
1008.361	628.9
1008.655	652.62
1008.948	648.1
1009.242	638.39
1009.535	625.05
1009.829	607.65
1010.122	634.77
1010.415	629.35
1010.708	626.64
1011.001	611.04
1011.295	599.74
1011.588	619.86
1011.881	611.95
1012.173	614.88
1012.466	605.39
1012.759	584.83
1013.052	607.88
1013.344	582.8
1013.637	586.41
1013.93	598.61
1014.222	612.17
1014.514	589.35
1014.807	585.51
1015.099	601.1
1015.391	588.22
1015.683	588.9
1015.976	565.39
1016.268	576.92
1016.56	581.67
1016.851	559.29
1017.143	568.11
1017.435	557.03
1017.727	575.56
1018.018	555.9
1018.31	573.98
1018.602	577.37
1018.893	577.15
1019.185	573.98
1019.476	552.06
1019.767	552.74
1020.058	567.43
1020.35	544.83
1020.641	563.59
1020.932	566.52
1021.223	536.92
1021.514	511.38
1021.804	540.76
1022.095	529.92
1022.386	547.32
1022.677	544.15
1022.967	524.72
1023.258	539.86
1023.548	532.18
1023.839	520.88
1024.129	521.1
1024.419	522.46
1024.709	527.66
1025	509.35
1025.29	510.71
1025.58	524.72
1025.87	530.14
1026.16	516.13
1026.449	526.3
1026.739	537.82
1027.029	509.35
1027.319	508
1027.608	514.55
1027.898	519.97
1028.187	512.51
1028.477	515.9
1028.766	503.25
1029.055	469.8
1029.344	497.37
1029.634	494.21
1029.923	520.42
1030.212	488.79
1030.501	488.79
1030.79	503.25
1031.078	499.86
1031.367	474.55
1031.656	495.79
1031.945	484.27
1032.233	487.66
1032.522	471.39
1032.81	487.43
1033.099	480.43
1033.387	448.34
1033.675	462.57
1033.963	486.07
1034.251	441.78
1034.54	499.41
1034.828	475.45
1035.116	469.58
1035.403	464.38
1035.691	455.57
1035.979	466.87
1036.267	459.63
1036.554	444.72
1036.842	462.8
1037.129	441.56
1037.417	438.17
1037.704	464.83
1037.992	464.38
1038.279	455.79
1038.566	451.05
1038.853	451.05
1039.14	451.05
