Data from carpet_green_FLMS001491_00043.txt Node
Date: Wed Feb 08 10:35:24 GMT 2017
User: dcchb
Spectrometer: FLMS00149
Trigger mode: 0
Integration Time (sec): 2.000000E-2
Scans to average: 10
Electric dark correction enabled: true
Nonlinearity correction enabled: false
Boxcar width: 0
XAxis mode: Wavelengths
Number of Pixels in Spectrum: 2048
>>>>>Begin Spectral Data<<<<<
341.393	-10.95
341.776	-10.95
342.16	-10.95
342.543	-47.33
342.927	-66.99
343.31	-56.37
343.693	-49.82
344.077	-60.21
344.46	-63.83
344.843	-50.49
345.226	-37.61
345.61	-34.9
345.993	-34.22
346.376	4.42
346.759	4.65
347.142	13.01
347.525	53.46
347.908	57.53
348.291	75.15
348.674	94.81
349.057	84.42
349.44	104.98
349.823	123.29
350.206	128.03
350.588	172.33
350.971	176.85
351.354	181.37
351.737	191.31
352.119	207.58
352.502	231.76
352.884	249.16
353.267	229.27
353.65	241.25
354.032	243.06
354.414	262.04
354.797	275.15
355.179	285.77
355.562	289.84
355.944	271.31
356.326	309.05
356.709	286.67
357.091	303.85
357.473	316.95
357.855	292.77
358.238	284.64
358.62	297.52
359.002	311.31
359.384	315.6
359.766	314.02
360.148	314.02
360.53	305.43
360.912	296.62
361.294	309.5
361.676	298.65
362.057	291.42
362.439	295.71
362.821	288.03
363.203	280.57
363.584	295.26
363.966	290.29
364.348	287.58
364.729	297.52
365.111	281.48
365.493	304.98
365.874	289.39
366.256	265.43
366.637	264.53
367.019	281.93
367.4	281.02
367.781	251.42
368.163	260.01
368.544	259.33
368.925	279.44
369.306	299.33
369.688	276.96
370.069	257.52
370.45	281.7
370.831	267.69
371.212	266.33
371.593	269.27
371.974	271.98
372.355	283.28
372.736	272.21
373.117	291.87
373.498	267.24
373.879	269.95
374.26	258.43
374.641	293.45
375.021	240.57
375.402	278.09
375.783	279.44
376.163	279.67
376.544	273.57
376.925	266.11
377.305	286.9
377.686	272.44
378.066	262.95
378.447	266.33
378.827	297.75
379.208	270.4
379.588	289.39
379.968	321.93
380.349	292.1
380.729	277.18
381.109	277.18
381.489	313.11
381.87	289.39
382.25	292.32
382.63	284.64
383.01	281.48
383.39	299.1
383.77	292.55
384.15	283.74
384.53	292.55
384.91	296.39
385.29	288.48
385.67	277.86
386.049	295.26
386.429	271.98
386.809	294.81
387.189	300.91
387.568	291.19
387.948	309.5
388.328	296.62
388.707	310.4
389.087	290.97
389.466	276.96
389.846	295.26
390.225	296.84
390.605	286.22
390.984	298.65
391.363	293
391.743	295.49
392.122	274.47
392.501	288.26
392.881	302.04
393.26	288.48
393.639	298.88
394.018	283.96
394.397	292.55
394.776	292.55
395.155	295.26
395.534	309.27
395.913	308.37
396.292	295.26
396.671	287.13
397.05	299.78
397.429	283.74
397.808	297.97
398.186	308.82
398.565	300.46
398.944	291.19
399.323	323.28
399.701	290.29
400.08	308.82
400.458	317.41
400.837	295.71
401.215	306.56
401.594	304.53
401.972	311.53
402.351	302.72
402.729	301.36
403.107	315.37
403.486	299.1
403.864	314.47
404.242	309.95
404.62	307.69
404.999	290.97
405.377	309.05
405.755	294.81
406.133	299.1
406.511	324.41
406.889	300.01
407.267	305.88
407.645	299.1
408.023	325.99
408.401	297.29
408.779	320.34
409.156	315.37
409.534	319.89
409.912	303.4
410.29	310.85
410.667	310.63
411.045	316.28
411.422	326.9
411.8	332.1
412.178	328.48
412.555	342.94
412.933	326.67
413.31	308.59
413.687	318.08
414.065	322.83
414.442	330.74
414.819	313.11
415.197	331.42
415.574	310.85
415.951	326.22
416.328	339.1
416.705	331.64
417.082	314.47
417.46	313.79
417.837	313.11
418.214	326.9
418.591	320.34
418.967	341.36
419.344	354.02
419.721	311.08
420.098	340.91
420.475	353.34
420.852	327.35
421.228	347.01
421.605	333.45
421.982	333.45
422.358	325.09
422.735	343.39
423.111	317.63
423.488	318.99
423.864	323.06
424.241	351.08
424.617	342.04
424.994	342.94
425.37	352.89
425.746	314.02
426.123	348.82
426.499	340.91
426.875	336.39
427.251	340.91
427.627	351.53
428.003	339.1
428.379	351.08
428.756	354.02
429.132	329.84
429.507	330.06
429.883	352.43
430.259	363.96
430.635	353.11
431.011	373.68
431.387	340.23
431.763	363.51
432.138	348.37
432.514	374.58
432.89	334.81
433.265	349.72
433.641	352.89
434.016	367.8
434.392	348.82
434.767	365.32
435.143	354.47
435.518	358.54
435.894	358.54
436.269	346.11
436.644	364.86
437.02	371.64
437.395	373
437.77	346.78
438.145	359.44
438.52	370.29
438.895	372.77
439.271	371.42
439.646	373
440.021	373.68
440.395	365.54
440.77	370.06
441.145	368.48
441.52	367.35
441.895	359.21
442.27	385.88
442.645	394.47
443.019	371.64
443.394	386.11
443.769	368.93
444.143	384.52
444.518	366.67
444.892	375.03
445.267	383.62
445.641	382.49
446.016	377.29
446.39	387.24
446.764	374.58
447.139	390.17
447.513	393.34
447.887	387.69
448.262	392.21
448.636	394.02
449.01	382.94
449.384	396.95
449.758	408.93
450.132	391.3
450.506	391.08
450.88	411.19
451.254	428.59
451.628	392.89
452.002	416.39
452.376	396.95
452.75	390.85
453.123	409.16
453.497	419.78
453.871	398.53
454.244	386.33
454.618	401.25
454.992	424.07
455.365	401.92
455.739	424.52
456.112	405.77
456.486	412.32
456.859	416.39
457.232	419.55
457.606	396.5
457.979	429.27
458.352	402.38
458.725	431.98
459.099	417.52
459.472	447.12
459.845	455.03
460.218	420
460.591	429.27
460.964	443.51
461.337	439.66
461.71	426.78
462.083	440.12
462.456	434.01
462.829	464.52
463.201	450.74
463.574	438.99
463.947	450.28
464.32	450.28
464.692	457.29
465.065	483.05
465.438	441.25
465.81	463.62
466.183	475.59
466.555	462.71
466.928	468.36
467.3	468.14
467.672	478.53
468.045	482.6
468.417	468.82
468.789	496.84
469.161	489.61
469.534	492.77
469.906	478.76
470.278	517.18
470.65	506.33
471.022	514.46
471.394	502.26
471.766	486.67
472.138	518.53
472.51	517.85
472.882	511.3
473.253	532.99
473.625	537.29
473.997	546.78
474.369	543.39
474.74	541.13
475.112	543.39
475.484	547.91
475.855	559.43
476.227	561.02
476.598	567.34
476.97	560.11
477.341	570.06
477.713	581.13
478.084	602.82
478.455	589.72
478.827	582.94
479.198	610.05
479.569	635.82
479.94	598.53
480.311	618.64
480.682	631.07
481.053	637.4
481.424	647.12
481.795	654.8
482.166	649.15
482.537	657.96
482.908	670.39
483.279	675.36
483.65	643.05
484.021	686.66
484.391	671.97
484.762	678.75
485.133	674.01
485.503	678.3
485.874	713.33
486.244	727.34
486.615	719.66
486.985	739.77
487.356	746.1
487.726	751.97
488.097	745.87
488.467	742.48
488.837	736.38
489.207	773.21
489.578	762.37
489.948	775.7
490.318	801.24
490.688	785.42
491.058	788.35
491.428	793.55
491.798	777.28
492.168	823.38
492.538	798.75
492.908	821.12
493.278	809.82
493.648	850.95
494.017	844.85
494.387	850.05
494.757	827.22
495.126	872.42
495.496	852.53
495.866	866.09
496.235	866.09
496.605	857.28
496.974	881.91
497.344	875.13
497.713	871.29
498.082	874.45
498.452	883.04
498.821	886.21
499.19	887.56
499.559	911.52
499.928	888.01
500.298	922.59
500.667	921.23
501.036	910.16
501.405	911.52
501.774	923.49
502.143	914.45
502.512	930.5
502.88	949.71
503.249	948.12
503.618	943.38
503.987	951.74
504.356	964.4
504.724	925.3
505.093	982.93
505.462	962.59
505.83	948.58
506.199	973.66
506.567	974.56
506.936	964.85
507.304	979.31
507.672	1001.46
508.041	982.47
508.409	975.47
508.777	1008.01
509.145	1022.7
509.514	998.52
509.882	1009.59
510.25	996.26
510.618	1003.72
510.986	1008.24
511.354	1029.25
511.722	1018.41
512.09	1017.05
512.458	1000.55
512.826	1005.07
513.193	1034.9
513.561	1039.87
513.929	1039.65
514.297	1068.12
514.664	1032.42
515.032	1043.49
515.4	1052.3
515.767	1069.48
516.135	1081.45
516.502	1049.14
516.869	1062.25
517.237	1077.84
517.604	1076.03
517.972	1093.43
518.339	1097.95
518.706	1092.08
519.073	1081.45
519.44	1089.59
519.808	1107.89
520.175	1088.46
520.542	1087.56
520.909	1112.87
521.276	1121
521.643	1102.7
522.009	1119.65
522.376	1135.92
522.743	1148.12
523.11	1122.81
523.477	1120.32
523.843	1135.24
524.21	1131.17
524.577	1147.89
524.943	1162.36
525.31	1148.8
525.676	1180.21
526.043	1125.75
526.409	1153.09
526.776	1181.56
527.142	1144.5
527.508	1173.88
527.874	1179.98
528.241	1164.84
528.607	1171.17
528.973	1185.41
529.339	1212.52
529.705	1190.6
530.071	1207.55
530.437	1172.75
530.803	1209.59
531.169	1192.64
531.535	1230.38
531.901	1200.1
532.267	1207.78
532.632	1199.42
532.998	1211.17
533.364	1210.26
533.73	1191.06
534.095	1178.18
534.461	1184.28
534.826	1217.5
535.192	1219.98
535.557	1235.57
535.923	1226.31
536.288	1209.36
536.653	1225.63
537.019	1207.55
537.384	1250.72
537.749	1225.63
538.114	1220.66
538.479	1223.37
538.845	1247.78
539.21	1216.14
539.575	1205.07
539.94	1221.56
540.305	1237.16
540.67	1243.94
541.034	1239.42
541.399	1204.62
541.764	1250.72
542.129	1231.06
542.494	1224.5
542.858	1270.6
543.223	1224.95
543.587	1241.68
543.952	1279.64
544.316	1243.03
544.681	1227.89
545.045	1226.31
545.41	1214.56
545.774	1223.82
546.138	1240.09
546.503	1248.91
546.867	1245.07
547.231	1250.94
547.595	1231.28
547.959	1233.32
548.324	1247.1
548.688	1231.96
549.052	1241.22
549.416	1253.2
549.779	1247.78
550.143	1238.06
550.507	1246.87
550.871	1242.35
551.235	1246.2
551.599	1238.29
551.962	1240.55
552.326	1255.91
552.689	1257.95
553.053	1259.98
553.417	1245.07
553.78	1266.31
554.143	1245.74
554.507	1250.94
554.87	1233.77
555.234	1269.02
555.597	1250.49
555.96	1264.95
556.323	1250.72
556.686	1260.21
557.05	1257.95
557.413	1264.27
557.776	1261.79
558.139	1278.06
558.502	1295.69
558.865	1265.4
559.228	1279.42
559.59	1285.29
559.953	1283.94
560.316	1300.88
560.679	1317.61
561.041	1303.37
561.404	1283.03
561.767	1305.86
562.129	1279.64
562.492	1280.77
562.854	1292.97
563.217	1290.49
563.579	1314.22
563.941	1313.31
564.304	1323.93
564.666	1330.26
565.028	1330.71
565.39	1320.09
565.753	1313.99
566.115	1328.45
566.477	1327.55
566.839	1340.43
567.201	1317.83
567.563	1339.98
567.925	1341.33
568.287	1348.79
568.648	1345.63
569.01	1349.02
569.372	1331.62
569.734	1324.16
570.095	1344.27
570.457	1343.59
570.819	1354.67
571.18	1349.02
571.542	1336.36
571.903	1341.79
572.265	1324.61
572.626	1351.05
572.987	1362.8
573.349	1354.67
573.71	1357.61
574.071	1341.33
574.432	1343.82
574.794	1351.05
575.155	1356.93
575.516	1337.95
575.877	1344.5
576.238	1340.66
576.599	1336.14
576.96	1339.07
577.32	1338.17
577.681	1350.6
578.042	1362.8
578.403	1320.32
578.763	1348.34
579.124	1342.46
579.485	1320.54
579.845	1358.28
580.206	1339.98
580.566	1326.19
580.927	1343.37
581.287	1339.75
581.648	1337.49
582.008	1321.67
582.368	1304.73
582.728	1303.14
583.089	1343.37
583.449	1269.92
583.809	1324.39
584.169	1333.65
584.529	1350.37
584.889	1363.03
585.249	1315.8
585.609	1318.28
585.969	1323.48
586.329	1309.92
586.688	1321
587.048	1290.71
587.408	1316.25
587.768	1317.38
588.127	1296.36
588.487	1301.79
588.846	1311.96
589.206	1305.4
589.565	1312.86
589.925	1327.32
590.284	1315.35
590.643	1278.96
591.003	1330.49
591.362	1291.17
591.721	1270.83
592.08	1297.27
592.44	1286.65
592.799	1310.83
593.158	1294.1
593.517	1277.16
593.876	1309.47
594.235	1306.53
594.593	1286.65
594.952	1304.05
595.311	1292.97
595.67	1276.25
596.029	1287.32
596.387	1302.47
596.746	1305.63
597.104	1297.04
597.463	1305.86
597.822	1272.18
598.18	1265.4
598.538	1299.3
598.897	1277.16
599.255	1277.83
599.613	1293.88
599.972	1298.17
600.33	1302.47
600.688	1305.4
601.046	1327.32
601.404	1276.7
601.762	1290.71
602.12	1300.88
602.478	1311.51
602.836	1279.42
603.194	1291.17
603.552	1308.79
603.91	1287.1
604.268	1305.63
604.625	1308.34
604.983	1317.15
605.341	1321.67
605.698	1324.61
606.056	1319.19
606.413	1288.68
606.771	1308.34
607.128	1326.65
607.485	1304.27
607.843	1309.02
608.2	1325.74
608.557	1328.45
608.914	1308.57
609.272	1307.89
609.629	1346.98
609.986	1332.52
610.343	1346.76
610.7	1334.56
611.057	1306.31
611.414	1342.24
611.771	1323.71
612.127	1343.14
612.484	1308.79
612.841	1330.71
613.198	1328.45
613.554	1336.82
613.911	1332.52
614.267	1341.79
614.624	1353.54
614.98	1339.3
615.337	1313.09
615.693	1332.52
616.05	1344.95
616.406	1343.37
616.762	1345.4
617.118	1355.57
617.475	1369.36
617.831	1350.83
618.187	1331.84
618.543	1355.12
618.899	1358.96
619.255	1346.31
619.611	1360.77
619.967	1347.44
620.323	1312.41
620.678	1359.19
621.034	1361
621.39	1314.22
621.746	1328.23
622.101	1347.89
622.457	1359.87
622.812	1354.44
623.168	1363.26
623.523	1364.16
623.879	1336.14
624.234	1357.15
624.589	1347.44
624.945	1391.73
625.3	1344.27
625.655	1350.83
626.01	1347.89
626.365	1354.67
626.72	1343.14
627.075	1341.33
627.43	1353.31
627.785	1325.29
628.14	1320.09
628.495	1332.52
628.85	1346.31
629.205	1339.98
629.559	1336.14
629.914	1337.72
630.269	1338.17
630.623	1325.06
630.978	1341.33
631.332	1357.38
631.687	1345.63
632.041	1298.17
632.396	1329.58
632.75	1349.47
633.104	1332.07
633.459	1328.45
633.813	1311.05
634.167	1314.22
634.521	1311.96
634.875	1342.92
635.229	1322.8
635.583	1331.17
635.937	1299.75
636.291	1336.36
636.645	1328.45
636.999	1309.25
637.352	1317.38
637.706	1328.68
638.06	1306.53
638.413	1309.02
638.767	1349.02
639.121	1319.87
639.474	1314.89
639.828	1309.92
640.181	1328.91
640.534	1299.53
640.888	1307.89
641.241	1299.08
641.594	1330.04
641.947	1341.11
642.301	1327.55
642.654	1324.39
643.007	1321.45
643.36	1334.33
643.713	1341.11
644.066	1323.26
644.419	1316.02
644.771	1289.81
645.124	1318.74
645.477	1315.8
645.83	1309.25
646.182	1309.02
646.535	1288.45
646.888	1312.18
647.24	1318.28
647.593	1315.35
647.945	1321
648.298	1321.9
648.65	1321.67
649.002	1301.11
649.355	1328.91
649.707	1344.27
650.059	1360.77
650.411	1321.67
650.763	1341.11
651.115	1376.59
651.467	1365.74
651.819	1380.2
652.171	1387.66
652.523	1396.25
652.875	1369.81
653.227	1382.69
653.578	1409.13
653.93	1382.69
654.282	1402.12
654.633	1385.85
654.985	1364.61
655.337	1398.06
655.688	1403.48
656.039	1406.42
656.391	1409.58
656.742	1412.75
657.094	1433.76
657.445	1424.5
657.796	1443.93
658.147	1440.32
658.498	1457.49
658.849	1471.5
659.2	1451.84
659.551	1478.05
659.902	1440.09
660.253	1462.69
660.604	1462.46
660.955	1490.03
661.306	1460.43
661.656	1471.27
662.007	1533.42
662.358	1498.39
662.708	1542.46
663.059	1542.46
663.409	1511.27
663.76	1539.97
664.11	1555.79
664.461	1552.18
664.811	1592.4
665.161	1562.35
665.511	1580.42
665.862	1591.95
666.212	1614.77
666.562	1623.36
666.912	1596.92
667.262	1643.93
667.612	1656.13
667.962	1644.6
668.312	1640.31
668.662	1684.15
669.011	1687.54
669.361	1662.91
669.711	1668.11
670.06	1705.62
670.41	1695.9
670.76	1732.28
671.109	1736.58
671.459	1780.87
671.808	1739.29
672.157	1755.11
672.507	1810.02
672.856	1785.84
673.205	1802.57
673.554	1805.5
673.904	1815.45
674.253	1836.24
674.602	1857.93
674.951	1833.75
675.3	1816.12
675.649	1883.02
675.998	1909.91
676.346	1885.95
676.695	1924.82
677.044	1928.89
677.393	1921.88
677.741	1942.45
678.09	1954.2
678.438	1967.76
678.787	1984.26
679.135	2026.51
679.484	2016.8
679.832	2008.44
680.181	2017.7
680.529	2034.2
680.877	2044.59
681.225	2055.89
681.573	2079.17
681.922	2106.29
682.27	2113.29
682.618	2114.87
682.966	2126.62
683.314	2166.85
683.661	2137.02
684.009	2175.89
684.357	2151.48
684.705	2168.43
685.053	2196.23
685.4	2213.63
685.748	2228.09
686.095	2259.05
686.443	2261.31
686.79	2245.27
687.138	2320.52
687.485	2331.82
687.832	2325.49
688.18	2340.86
688.527	2324.81
688.874	2356.68
689.221	2367.07
689.568	2403.68
689.915	2390.35
690.262	2411.59
690.609	2411.59
690.956	2417.24
691.303	2449.1
691.65	2469.44
691.997	2436.9
692.344	2480.06
692.69	2503.34
693.037	2530.23
693.383	2548.53
693.73	2565.26
694.077	2557.8
694.423	2549.89
694.769	2576.56
695.116	2632.6
695.462	2628.76
695.808	2610
696.155	2646.39
696.501	2675.54
696.847	2673.28
697.193	2650.45
697.539	2673.05
697.885	2697.01
698.231	2706.04
698.577	2713.28
698.923	2743.33
699.269	2737.91
699.614	2725.48
699.96	2752.6
700.306	2779.04
700.651	2745.37
700.997	2830.79
701.342	2835.53
701.688	2851.8
702.033	2820.62
702.379	2842.76
702.724	2858.81
703.069	2906.27
703.415	2856.32
703.76	2885.47
704.105	2899.94
704.45	2911.46
704.795	2889.32
705.14	2910.33
705.485	2951.01
705.83	2929.09
706.175	2992.36
706.52	2972.7
706.865	3001.63
707.209	2998.69
707.554	3012.48
707.899	3016.77
708.243	3052.48
708.588	3037.11
708.932	3033.04
709.277	3051.35
709.621	3063.55
709.966	3054.28
710.31	3074.85
710.654	3095.64
710.998	3111.23
711.342	3094.51
711.687	3120.72
712.031	3135.19
712.375	3112.81
712.719	3155.98
713.063	3170.67
713.407	3188.07
713.75	3162.53
714.094	3197.56
714.438	3155.75
714.782	3220.61
715.125	3203.43
715.469	3212.7
715.812	3234.62
716.156	3234.39
716.499	3268.52
716.843	3222.19
717.186	3261.06
717.53	3279.36
717.873	3293.37
718.216	3284.79
718.559	3239.14
718.902	3271.45
719.246	3250.21
719.589	3257.67
719.932	3317.1
720.275	3306.93
720.617	3316.65
720.96	3335.63
721.303	3340.15
721.646	3336.08
721.989	3278.68
722.331	3339.7
722.674	3349.87
723.016	3349.42
723.359	3339.47
723.701	3329.76
724.044	3360.94
724.386	3366.82
724.729	3349.42
725.071	3367.95
725.413	3370.43
725.755	3396.2
726.097	3375.18
726.439	3370.89
726.782	3375.41
727.124	3419.92
727.465	3417.66
727.807	3373.15
728.149	3374.95
728.491	3424.9
728.833	3412.01
729.175	3401.39
729.516	3413.14
729.858	3394.61
730.199	3414.73
730.541	3411.56
730.882	3408.4
731.224	3423.77
731.565	3427.38
731.906	3397.55
732.248	3439.13
732.589	3424.67
732.93	3402.3
733.271	3403.88
733.612	3411.79
733.953	3402.75
734.294	3396.42
734.635	3430.32
734.976	3402.07
735.317	3407.27
735.658	3453.14
735.999	3441.17
736.339	3418.12
736.68	3457.21
737.021	3444.78
737.361	3411.11
737.702	3453.14
738.042	3443.65
738.383	3429.64
738.723	3411.34
739.063	3423.54
739.404	3447.49
739.744	3422.18
740.084	3423.09
740.424	3427.83
740.764	3427.16
741.104	3440.04
741.444	3400.49
741.784	3380.83
742.124	3450.21
742.464	3435.97
742.804	3409.53
743.143	3394.39
743.483	3415.63
743.823	3359.81
744.162	3405.46
744.502	3428.51
744.841	3364.11
745.181	3403.65
745.52	3373.6
745.86	3412.69
746.199	3388.51
746.538	3364.11
746.877	3356.88
747.216	3376.54
747.556	3400.94
747.895	3393.03
748.234	3366.14
748.573	3375.86
748.911	3338.34
749.25	3358.23
749.589	3359.59
749.928	3352.36
750.267	3333.82
750.605	3333.82
750.944	3346.25
751.283	3332.24
751.621	3320.72
751.96	3294.96
752.298	3299.93
752.636	3290.21
752.975	3295.86
753.313	3296.76
753.651	3336.99
753.989	3281.17
754.327	3297.22
754.666	3287.72
755.004	3229.42
755.342	3271.68
755.679	3252.24
756.017	3277.78
756.355	3269.87
756.693	3251.12
757.031	3216.09
757.368	3273.94
757.706	3241.4
758.044	3188.52
758.381	3217.22
758.719	3217.67
759.056	3221.06
759.394	3201.85
759.731	3191
760.068	3180.16
760.405	3189.87
760.743	3172.25
761.08	3174.28
761.417	3160.27
761.754	3119.37
762.091	3116.66
762.428	3129.99
762.765	3096.09
763.102	3110.1
763.438	3109.42
763.775	3078.24
764.112	3080.27
764.449	3077.11
764.785	3069.2
765.122	3093.83
765.458	3071.46
765.795	3054.51
766.131	3061.29
766.467	3050.22
766.804	3020.84
767.14	3045.24
767.476	3024.23
767.812	3028.75
768.148	3002.08
768.485	2969.77
768.821	2975.87
769.157	2971.12
769.492	2974.51
769.828	2970.67
770.164	2937
770.5	2917.56
770.836	2954.17
771.171	2901.75
771.507	2879.37
771.842	2902.2
772.178	2932.25
772.513	2901.07
772.849	2908.53
773.184	2858.36
773.519	2845.48
773.855	2862.65
774.19	2838.02
774.525	2850.67
774.86	2835.31
775.195	2824.01
775.53	2797.79
775.865	2779.72
776.2	2811.58
776.535	2782.43
776.87	2774.29
777.205	2765.7
777.539	2757.12
777.874	2755.53
778.209	2744.91
778.543	2726.16
778.878	2789.66
779.212	2729.32
779.547	2685.25
779.881	2724.8
780.215	2680.51
780.55	2670.34
780.884	2689.55
781.218	2641.87
781.552	2643.9
781.886	2632.37
782.22	2633.28
782.554	2627.18
782.888	2605.93
783.222	2608.19
783.556	2626.95
783.889	2583.34
784.223	2588.31
784.557	2559.16
784.89	2567.07
785.224	2587.63
785.557	2559.83
785.891	2573.62
786.224	2554.18
786.558	2554.64
786.891	2500.85
787.224	2509.44
787.557	2492.04
787.891	2491.14
788.224	2505.6
788.557	2503.11
788.89	2505.82
789.223	2455.66
789.556	2459.05
789.888	2471.25
790.221	2490.46
790.554	2447.97
790.887	2472.38
791.219	2420.63
791.552	2433.28
791.884	2397.58
792.217	2429.22
792.549	2406.84
792.882	2391.48
793.214	2362.1
793.546	2422.89
793.879	2386.51
794.211	2356.9
794.543	2352.38
794.875	2366.62
795.207	2334.53
795.539	2332.72
795.871	2375.21
796.203	2336.79
796.535	2316
796.867	2308.77
797.198	2293.4
797.53	2307.64
797.862	2321.87
798.193	2307.86
798.525	2263.12
798.856	2297.47
799.188	2263.12
799.519	2264.7
799.85	2238.71
800.182	2255.44
800.513	2259.5
800.844	2213.85
801.175	2253.85
801.506	2248.2
801.837	2215.44
802.168	2185.15
802.499	2248.2
802.83	2221.99
803.161	2201.43
803.491	2189.22
803.822	2210.01
804.153	2200.07
804.483	2154.42
804.814	2154.65
805.145	2172.95
805.475	2188.77
805.805	2172.73
806.136	2159.39
806.466	2159.39
806.796	2164.14
807.126	2133.18
807.457	2167.08
807.787	2154.65
808.117	2132.73
808.447	2120.3
808.777	2134.08
809.107	2141.99
809.436	2113.74
809.766	2114.65
810.096	2104.03
810.426	2093.41
810.755	2077.81
811.085	2116.68
811.414	2068.55
811.744	2072.16
812.073	2058.83
812.403	2071.26
812.732	2094.31
813.061	2078.04
813.39	2040.98
813.719	2021.54
814.049	2051.37
814.378	2095.67
814.707	2050.02
815.036	2019.74
815.365	1999.4
815.693	2013.18
816.022	1993.3
816.351	2001.43
816.68	2010.47
817.008	2001.2
817.337	2020.19
817.665	1954.2
817.994	1969.34
818.322	2002.56
818.651	1951.94
818.979	1992.84
819.307	1991.26
819.636	1973.63
819.964	1984.48
820.292	1995.1
820.62	1929.34
820.948	1934.77
821.276	1979.06
821.604	1962.79
821.932	1965.05
822.259	1986.74
822.587	1952.39
822.915	1957.59
823.243	1970.7
823.57	1944.93
823.898	1938.83
824.225	1971.15
824.553	1928.21
824.88	1932.73
825.207	1947.19
825.535	1961.88
825.862	1974.99
826.189	1945.16
826.516	1939.29
826.843	1951.04
827.17	1947.19
827.497	1952.17
827.824	1960.98
828.151	1962.34
828.478	1937.25
828.805	1951.04
829.131	1951.94
829.458	1941.54
829.785	1960.08
830.111	1953.52
830.438	1941.32
830.764	1954.88
831.09	1977.93
831.417	1937.03
831.743	1979.06
832.069	1960.3
832.395	1924.37
832.722	1901.55
833.048	1922.34
833.374	1929.12
833.7	1923.47
834.026	1913.98
834.351	1921.43
834.677	1927.76
835.003	1896.35
835.329	1928.66
835.654	1900.87
835.98	1890.02
836.306	1892.73
836.631	1922.79
836.956	1927.53
837.282	1906.07
837.607	1890.25
837.932	1878.95
838.258	1931.15
838.583	1909.68
838.908	1923.24
839.233	1877.82
839.558	1929.34
839.883	1902.45
840.208	1911.26
840.533	1882.56
840.858	1859.06
841.182	1911.94
841.507	1877.82
841.832	1888.89
842.156	1884.15
842.481	1854.77
842.805	1858.16
843.13	1860.64
843.454	1878.04
843.778	1851.83
844.103	1859.74
844.427	1845.05
844.751	1841.21
845.075	1869
845.399	1838.27
845.723	1830.81
846.047	1816.35
846.371	1824.49
846.695	1823.36
847.019	1795.11
847.343	1817.25
847.666	1769.12
847.99	1784.71
848.313	1776.35
848.637	1764.15
848.96	1767.99
849.284	1777.26
849.607	1764.37
849.931	1754.88
850.254	1751.72
850.577	1744.71
850.9	1739.06
851.223	1749.01
851.546	1753.08
851.869	1705.39
852.192	1702.23
852.515	1725.05
852.838	1698.84
853.161	1684.15
853.483	1709.01
853.806	1699.97
854.129	1672.17
854.451	1706.07
854.774	1679.4
855.096	1699.29
855.419	1665.17
855.741	1645.51
856.063	1673.98
856.385	1624.27
856.708	1659.29
857.03	1654.09
857.352	1666.07
857.674	1623.59
857.996	1631.95
858.318	1636.92
858.64	1615.9
858.961	1628.56
859.283	1638.95
859.605	1631.5
859.926	1618.62
860.248	1637.82
860.57	1608.67
860.891	1597.83
861.212	1577.03
861.534	1588.79
861.855	1600.09
862.176	1585.4
862.498	1602.8
862.819	1577.71
863.14	1581.78
863.461	1590.59
863.782	1583.81
864.103	1600.76
864.424	1569.8
864.745	1595.34
865.065	1560.09
865.386	1558.96
865.707	1578.16
866.027	1563.48
866.348	1567.09
866.668	1569.35
866.989	1548.33
867.309	1558.5
867.63	1545.85
867.95	1575.45
868.27	1540.88
868.59	1534.78
868.91	1531.16
869.23	1549.92
869.55	1529.35
869.87	1534.1
870.19	1542.91
870.51	1562.8
870.83	1546.3
871.15	1527.54
871.469	1523.02
871.789	1544.95
872.109	1521.67
872.428	1507.66
872.748	1511.73
873.067	1524.15
873.386	1518.05
873.706	1521.9
874.025	1501.1
874.344	1519.86
874.663	1527.09
874.982	1540.2
875.301	1519.41
875.62	1514.21
875.939	1517.6
876.258	1497.26
876.577	1490.48
876.896	1468.56
877.214	1506.98
877.533	1488.68
877.852	1492.29
878.17	1473.76
878.489	1496.81
878.807	1494.1
879.125	1506.3
879.444	1508.11
879.762	1462.24
880.08	1506.08
880.398	1471.5
880.716	1471.73
881.034	1460.65
881.352	1450.26
881.67	1464.5
881.988	1451.84
882.306	1448.9
882.624	1427.43
882.941	1447.55
883.259	1449.35
883.577	1470.37
883.894	1459.98
884.212	1446.42
884.529	1449.35
884.846	1451.84
885.164	1435.12
885.481	1433.08
885.798	1445.29
886.115	1445.29
886.432	1421.78
886.75	1402.12
887.067	1418.39
887.383	1389.24
887.7	1420.43
888.017	1409.36
888.334	1400.99
888.651	1390.6
888.967	1407.55
889.284	1421.78
889.6	1405.97
889.917	1388.57
890.233	1392.41
890.55	1405.97
890.866	1417.04
891.182	1400.77
891.498	1410.26
891.815	1372.52
892.131	1377.04
892.447	1369.81
892.763	1365.97
893.079	1363.26
893.395	1362.58
893.71	1360.09
894.026	1356.48
894.342	1326.42
894.657	1357.38
894.973	1357.15
895.289	1354.89
895.604	1341.79
895.92	1316.48
896.235	1354.44
896.55	1339.07
896.865	1323.26
897.181	1344.95
897.496	1302.01
897.811	1303.82
898.126	1300.88
898.441	1303.6
898.756	1292.3
899.071	1315.35
899.386	1270.15
899.7	1300.88
900.015	1287.78
900.33	1284.84
900.644	1280.32
900.959	1269.47
901.273	1258.17
901.588	1287.55
901.902	1261.11
902.216	1259.53
902.531	1266.08
902.845	1250.49
903.159	1264.5
903.473	1244.16
903.787	1267.21
904.101	1240.55
904.415	1233.32
904.729	1241
905.042	1250.72
905.356	1238.96
905.67	1266.53
905.984	1221.11
906.297	1226.54
906.611	1193.54
906.924	1203.49
907.237	1220.89
907.551	1210.49
907.864	1210.04
908.177	1224.28
908.491	1207.1
908.804	1198.74
909.117	1171.85
909.43	1199.64
909.743	1152.64
910.056	1183.6
910.368	1163.03
910.681	1146.54
910.994	1153.77
911.307	1166.42
911.619	1166.88
911.932	1151.28
912.244	1132.3
912.557	1149.93
912.869	1141.79
913.181	1127.33
913.494	1116.03
913.806	1125.75
914.118	1124.17
914.43	1112.41
914.742	1116.03
915.054	1123.71
915.366	1115.58
915.678	1116.26
915.99	1123.49
916.302	1101.57
916.613	1086.88
916.925	1099.99
917.236	1100.89
917.548	1093.43
917.859	1081.45
918.171	1092.53
918.482	1118.52
918.794	1075.81
919.105	1063.6
919.416	1095.69
919.727	1077.39
920.038	1052.98
920.349	1081
920.66	1045.52
920.971	1058.86
921.282	1053.43
921.593	1066.77
921.903	1048.91
922.214	1025.41
922.525	1035.13
922.835	1031.06
923.146	1034
923.456	1023.6
923.767	1017.73
924.077	1031.51
924.387	1034.22
924.697	1015.92
925.008	1034.68
925.318	1034.68
925.628	1031.06
925.938	991.51
926.248	981.34
926.558	991.29
926.867	982.7
927.177	989.03
927.487	994.45
927.796	960.78
928.106	977.05
928.416	966.66
928.725	968.92
929.034	969.82
929.344	968.92
929.653	961.91
929.962	975.69
930.271	961.01
930.581	963.72
930.89	956.94
931.199	951.06
931.508	947.67
931.817	953.1
932.125	928.69
932.434	937.05
932.743	915.81
933.051	938.18
933.36	945.41
933.669	923.49
933.977	934.57
934.286	917.84
934.594	905.87
934.902	925.3
935.21	952.87
935.519	901.57
935.827	901.57
936.135	912.87
936.443	923.94
936.751	917.39
937.059	913.55
937.367	913.78
937.674	893.66
937.982	895.7
938.29	888.69
938.597	905.87
938.905	902.7
939.213	876.49
939.52	890.05
939.827	901.12
940.135	881.01
940.442	886.21
940.749	874.45
941.056	877.62
941.363	860.44
941.67	863.38
941.977	844.4
942.284	849.37
942.591	844.85
942.898	848.47
943.205	881.01
943.511	844.17
943.818	868.35
944.125	848.92
944.431	844.85
944.738	843.49
945.044	834
945.35	847.79
945.657	826.77
945.963	839.2
946.269	832.87
946.575	823.61
946.881	799.43
947.187	812.31
947.493	831.52
947.799	818.18
948.105	824.74
948.41	817.73
948.716	806.89
949.022	815.47
949.327	791.74
949.633	792.65
949.938	821.12
950.244	787.9
950.549	811.18
950.854	776.83
951.16	789.26
951.465	769.15
951.77	776.38
952.075	768.47
952.38	779.99
952.685	771.18
952.99	763.72
953.294	780.9
953.599	783.61
953.904	767.56
954.209	758.07
954.513	769.37
954.818	747.23
955.122	758.07
955.426	783.16
955.731	754.46
956.035	762.14
956.339	754.46
956.643	759.43
956.948	776.6
957.252	751.97
957.556	769.6
957.86	750.16
958.163	755.59
958.467	744.29
958.771	742.93
959.075	738.41
959.378	731.86
959.682	749.03
959.985	718.53
960.289	706.55
960.592	706.1
960.896	734.12
961.199	706.1
961.502	704.52
961.805	718.98
962.108	717.4
962.411	711.29
962.714	714.01
963.017	691.63
963.32	704.97
963.623	708.58
963.926	712.88
964.228	702.48
964.531	706.1
964.833	695.93
965.136	696.83
965.438	672.88
965.741	712.65
966.043	701.13
966.345	680.79
966.648	682.82
966.95	686.89
967.252	693.22
967.554	673.1
967.856	669.71
968.158	669.94
968.46	689.37
968.761	687.34
969.063	662.03
969.365	675.14
969.666	669.71
969.968	677.85
970.269	640.79
970.571	650.73
970.872	665.87
971.174	669.04
971.475	656.83
971.776	659.54
972.077	649.6
972.378	661.13
972.679	654.57
972.98	633.78
973.281	663.84
973.582	637.4
973.883	605.76
974.183	631.07
974.484	645.76
974.785	660.9
975.085	660.67
975.386	621.35
975.686	655.48
975.986	639.66
976.287	627.68
976.587	642.14
976.887	639.43
977.187	630.84
977.487	645.53
977.787	623.84
978.087	640.56
978.387	627.23
978.687	614.57
978.987	611.64
979.286	629.04
979.586	603.73
979.885	586.1
980.185	616.83
980.484	608.25
980.784	599.89
981.083	609.83
981.382	589.26
981.682	595.82
981.981	600.56
982.28	606.44
982.579	603.95
982.878	599.21
983.177	615.7
983.475	597.17
983.774	607.79
984.073	587.68
984.372	582.26
984.67	592.2
984.969	605.76
985.267	578.19
985.566	585.65
985.864	574.8
986.162	590.17
986.461	562.82
986.759	576.16
987.057	554.01
987.355	599.89
987.653	566.44
987.951	574.8
988.249	590.17
988.547	569.6
988.844	572.99
989.142	563.5
989.44	575.25
989.737	567.34
990.035	568.02
990.332	566.67
990.63	554.46
990.927	554.91
991.224	565.08
991.521	556.27
991.819	543.62
992.116	536.61
992.413	547.91
992.71	535.71
993.006	578.19
993.303	554.01
993.6	561.24
993.897	549.04
994.193	547.01
994.49	529.6
994.787	538.87
995.083	547.23
995.379	566.67
995.676	564.41
995.972	541.13
996.268	553.33
996.565	522.37
996.861	532.77
997.157	532.99
997.453	533.22
997.749	513.11
998.044	525.54
998.34	549.94
998.636	534.58
998.932	516.72
999.227	521.7
999.523	526.89
999.818	523.5
1000.114	528.93
1000.409	513.56
1000.704	522.15
1001	521.92
1001.295	525.76
1001.59	517.18
1001.885	531.41
1002.18	506.33
1002.475	500.9
1002.77	500.9
1003.065	522.83
1003.359	525.31
1003.654	504.29
1003.949	520.11
1004.243	492.32
1004.538	525.31
1004.832	514.69
1005.127	507.23
1005.421	489.61
1005.715	482.83
1006.009	464.07
1006.304	500.23
1006.598	485.31
1006.892	481.02
1007.186	483.96
1007.48	489.15
1007.773	495.26
1008.067	500.23
1008.361	470.85
1008.655	457.74
1008.948	495.26
1009.242	473.34
1009.535	481.47
1009.829	455.93
1010.122	486.44
1010.415	489.83
1010.708	493
1011.001	475.14
1011.295	462.26
1011.588	485.76
1011.881	458.19
1012.173	463.84
1012.466	479.66
1012.759	467.46
1013.052	474.24
1013.344	465.65
1013.637	441.92
1013.93	458.87
1014.222	467.01
1014.514	468.14
1014.807	451.64
1015.099	463.62
1015.391	433.79
1015.683	455.71
1015.976	476.95
1016.268	460
1016.56	443.28
1016.851	451.64
1017.143	437.86
1017.435	451.41
1017.727	454.58
1018.018	444.64
1018.31	444.86
1018.602	461.58
1018.893	439.44
1019.185	449.83
1019.476	440.57
1019.767	438.31
1020.058	428.59
1020.35	427.01
1020.641	451.41
1020.932	433.79
1021.223	432.88
1021.514	438.99
1021.804	447.8
1022.095	418.87
1022.386	416.39
1022.677	454.13
1022.967	437.63
1023.258	415.71
1023.548	420.23
1023.839	431.53
1024.129	426.78
1024.419	424.75
1024.709	431.75
1025	402.38
1025.29	414.58
1025.58	410.29
1025.87	413.68
1026.16	413.68
1026.449	425.65
1026.739	403.51
1027.029	403.05
1027.319	413.68
1027.608	409.83
1027.898	422.26
1028.187	396.27
1028.477	416.16
1028.766	407.12
1029.055	408.48
1029.344	419.55
1029.634	421.36
1029.923	415.26
1030.212	396.95
1030.501	421.81
1030.79	435.6
1031.078	398.31
1031.367	385.43
1031.656	392.89
1031.945	404.64
1032.233	396.27
1032.522	390.85
1032.81	386.33
1033.099	407.8
1033.387	418.2
1033.675	396.95
1033.963	407.12
1034.251	408.25
1034.54	395.6
1034.828	372.77
1035.116	396.05
1035.403	394.92
1035.691	398.31
1035.979	380.23
1036.267	397.63
1036.554	396.73
1036.842	359.67
1037.129	380.46
1037.417	381.81
1037.704	364.41
1037.992	386.56
1038.279	379.55
1038.566	374.13
1038.853	374.13
1039.14	374.13
