Data from carpet_green_FLMS001491_00018.txt Node
Date: Wed Feb 08 10:34:59 GMT 2017
User: dcchb
Spectrometer: FLMS00149
Trigger mode: 0
Integration Time (sec): 2.000000E-2
Scans to average: 10
Electric dark correction enabled: true
Nonlinearity correction enabled: false
Boxcar width: 0
XAxis mode: Wavelengths
Number of Pixels in Spectrum: 2048
>>>>>Begin Spectral Data<<<<<
341.393	-5.52
341.776	-5.52
342.16	-5.52
342.543	-53.2
342.927	-71.06
343.31	-67.67
343.693	-87.33
344.077	-71.74
344.46	-63.83
344.843	-58.18
345.226	-31.74
345.61	-12.3
345.993	-3.49
346.376	13.46
346.759	1.48
347.142	15.72
347.525	64.98
347.908	47.13
348.291	67.92
348.674	80.8
349.057	104.76
349.44	129.84
349.823	142.27
350.206	146.34
350.588	195.6
350.971	175.72
351.354	210.52
351.737	208.71
352.119	259.78
352.502	234.47
352.884	234.47
353.267	253.91
353.65	266.56
354.032	241.48
354.414	262.72
354.797	270.4
355.179	277.86
355.562	304.07
355.944	303.4
356.326	307.46
356.709	300.91
357.091	310.63
357.473	286.45
357.855	317.86
358.238	305.66
358.62	305.2
359.002	308.59
359.384	301.59
359.766	343.17
360.148	318.31
360.53	322.83
360.912	296.62
361.294	309.72
361.676	298.42
362.057	306.11
362.439	316.28
362.821	279.22
363.203	279.67
363.584	301.81
363.966	284.19
364.348	295.71
364.729	304.98
365.111	293.9
365.493	295.26
365.874	309.95
366.256	274.7
366.637	278.54
367.019	281.48
367.4	275.15
367.781	291.64
368.163	282.15
368.544	276.96
368.925	270.4
369.306	282.15
369.688	278.99
370.069	281.25
370.45	275.37
370.831	286
371.212	280.57
371.593	305.43
371.974	287.58
372.355	273.57
372.736	293.68
373.117	283.06
373.498	263.4
373.879	288.48
374.26	277.18
374.641	293.23
375.021	284.87
375.402	285.77
375.783	294.81
376.163	284.87
376.544	285.54
376.925	293.45
377.305	288.03
377.686	270.85
378.066	301.36
378.447	291.19
378.827	288.03
379.208	301.36
379.588	310.4
379.968	293.68
380.349	285.09
380.729	286
381.109	292.1
381.489	298.42
381.87	310.4
382.25	300.91
382.63	311.53
383.01	301.59
383.39	313.79
383.77	282.61
384.15	304.98
384.53	280.8
384.91	309.05
385.29	315.15
385.67	295.26
386.049	288.26
386.429	278.31
386.809	293
387.189	278.54
387.568	289.84
387.948	296.39
388.328	313.57
388.707	289.84
389.087	301.14
389.466	276.96
389.846	275.15
390.225	317.41
390.605	292.77
390.984	318.76
391.363	282.38
391.743	290.51
392.122	306.11
392.501	282.38
392.881	302.94
393.26	297.29
393.639	308.59
394.018	298.88
394.397	307.01
394.776	316.73
395.155	296.62
395.534	308.14
395.913	313.11
396.292	300.91
396.671	313.11
397.05	298.88
397.429	301.81
397.808	299.78
398.186	321.25
398.565	287.13
398.944	321.93
399.323	312.66
399.701	315.37
400.08	320.12
400.458	299.78
400.837	296.16
401.215	310.85
401.594	279.67
401.972	334.13
402.351	296.62
402.729	311.76
403.107	323.28
403.486	307.46
403.864	329.38
404.242	328.71
404.62	296.84
404.999	320.12
405.377	318.54
405.755	296.16
406.133	328.48
406.511	333.9
406.889	313.57
407.267	312.44
407.645	320.12
408.023	303.17
408.401	305.66
408.779	317.63
409.156	287.8
409.534	340.23
409.912	318.99
410.29	334.58
410.667	325.77
411.045	317.41
411.422	317.41
411.8	314.24
412.178	324.64
412.555	313.34
412.933	342.94
413.31	332.1
413.687	309.05
414.065	321.25
414.442	308.59
414.819	352.66
415.197	326.22
415.574	336.62
415.951	321.25
416.328	330.06
416.705	316.5
417.082	328.48
417.46	335.49
417.837	345.2
418.214	333.68
418.591	342.04
418.967	340.46
419.344	352.43
419.721	345.88
420.098	349.72
420.475	329.16
420.852	343.62
421.228	316.73
421.605	337.52
421.982	351.53
422.358	319.21
422.735	341.36
423.111	348.37
423.488	338.2
423.864	324.19
424.241	344.3
424.617	348.37
424.994	347.01
425.37	335.03
425.746	341.36
426.123	324.86
426.499	355.6
426.875	349.27
427.251	334.36
427.627	359.21
428.003	349.72
428.379	341.59
428.756	349.27
429.132	354.47
429.507	339.1
429.883	322.15
430.259	349.27
430.635	348.37
431.011	361.93
431.387	351.3
431.763	357.63
432.138	356.73
432.514	376.61
432.89	370.06
433.265	374.58
433.641	372.77
434.016	362.38
434.392	369.38
434.767	332.1
435.143	362.83
435.518	369.38
435.894	369.83
436.269	358.08
436.644	381.13
437.02	378.87
437.395	370.06
437.77	370.06
438.145	390.63
438.52	368.7
438.895	384.07
439.271	380.23
439.646	369.61
440.021	365.54
440.395	368.25
440.77	388.37
441.145	383.62
441.52	395.37
441.895	388.14
442.27	390.17
442.645	387.24
443.019	401.92
443.394	382.94
443.769	389.27
444.143	399.44
444.518	412.55
444.892	379.78
445.267	399.21
445.641	384.52
446.016	404.41
446.39	396.05
446.764	410.06
447.139	391.53
447.513	393.79
447.887	361.7
448.262	395.6
448.636	395.37
449.01	400.34
449.384	396.95
449.758	419.55
450.132	383.62
450.506	387.24
450.88	415.94
451.254	413
451.628	410.06
452.002	402.6
452.376	417.97
452.75	417.52
453.123	401.02
453.497	411.64
453.871	409.61
454.244	417.52
454.618	431.3
454.992	433.79
455.365	410.29
455.739	438.53
456.112	440.79
456.486	429.49
456.859	424.75
457.232	445.09
457.606	419.55
457.979	422.04
458.352	436.27
458.725	413.45
459.099	455.26
459.472	449.83
459.845	425.2
460.218	441.47
460.591	445.31
460.964	452.32
461.337	455.48
461.71	465.2
462.083	460
462.456	445.54
462.829	487.12
463.201	478.08
463.574	458.42
463.947	468.36
464.32	463.17
464.692	462.26
465.065	488.93
465.438	492.54
465.81	474.69
466.183	478.31
466.555	485.76
466.928	489.83
467.3	487.57
467.672	515.82
468.045	490.96
468.417	491.19
468.789	489.61
469.161	522.15
469.534	516.72
469.906	513.56
470.278	524.86
470.65	512.66
471.022	525.99
471.394	515.37
471.766	534.12
472.138	522.37
472.51	524.41
472.882	535.48
473.253	568.47
473.625	535.25
473.997	542.26
474.369	539.1
474.74	561.02
475.112	554.01
475.484	573.45
475.855	562.6
476.227	561.69
476.598	594.01
476.97	576.38
477.341	588.59
477.713	593.33
478.084	607.57
478.455	597.17
478.827	628.36
479.198	623.61
479.569	639.66
479.94	643.5
480.311	628.36
480.682	652.77
481.053	664.97
481.424	656.83
481.795	664.52
482.166	672.65
482.537	691.63
482.908	697.06
483.279	685.76
483.65	709.26
484.021	704.52
484.391	700.22
484.762	729.37
485.133	731.18
485.503	717.62
485.874	743.84
486.244	740.45
486.615	752.65
486.985	760.56
487.356	770.05
487.726	749.03
488.097	788.58
488.467	790.39
488.837	781.12
489.207	786.32
489.578	812.31
489.948	809.15
490.318	820.9
490.688	847.56
491.058	840.33
491.428	838.07
491.798	857.05
492.168	863.61
492.538	848.92
492.908	847.34
493.278	878.75
493.648	886.21
494.017	867.45
494.387	896.15
494.757	896.15
495.126	894.11
495.496	924.62
495.866	888.69
496.235	909.93
496.605	925.75
496.974	925.3
497.344	924.4
497.713	914.23
498.082	924.4
498.452	950.84
498.821	926.2
499.19	950.61
499.559	955.13
499.928	975.92
500.298	962.14
500.667	938.86
501.036	959.42
501.405	984.73
501.774	977.95
502.143	982.93
502.512	974.79
502.88	987.22
503.249	971.85
503.618	1014.34
503.987	1014.56
504.356	1005.75
504.724	1002.36
505.093	989.03
505.462	999.87
505.83	1012.3
506.199	1012.98
506.567	996.94
506.936	1018.18
507.304	995.36
507.672	1040.78
508.041	1022.47
508.409	1013.21
508.777	1036.94
509.145	1041.23
509.514	1046.43
509.882	1052.98
510.25	1042.81
510.618	1047.78
510.986	1085.52
511.354	1109.02
511.722	1046.2
512.09	1093.21
512.458	1074.45
512.826	1091.4
513.193	1098.63
513.561	1101.12
513.929	1088.46
514.297	1102.92
514.664	1095.01
515.032	1091.17
515.4	1136.82
515.767	1132.75
516.135	1129.36
516.502	1114.9
516.869	1166.88
517.237	1128.91
517.604	1135.69
517.972	1123.94
518.339	1149.25
518.706	1134.11
519.073	1100.66
519.44	1139.31
519.808	1145.63
520.175	1137.27
520.542	1159.19
520.909	1190.6
521.276	1173.43
521.643	1154
522.009	1170.94
522.376	1179.08
522.743	1168.68
523.11	1186.08
523.477	1205.07
523.843	1210.72
524.21	1224.28
524.577	1221.56
524.943	1205.75
525.31	1224.5
525.676	1246.2
526.043	1216.82
526.409	1232.19
526.776	1231.96
527.142	1211.17
527.508	1265.63
527.874	1223.82
528.241	1248.91
528.607	1243.48
528.973	1260.43
529.339	1250.72
529.705	1278.96
530.071	1265.4
530.437	1262.69
530.803	1298.4
531.169	1295.69
531.535	1275.8
531.901	1281
532.267	1300.66
532.632	1301.11
532.998	1270.6
533.364	1292.07
533.73	1302.01
534.095	1295.23
534.461	1277.83
534.826	1302.92
535.192	1312.86
535.557	1309.92
535.923	1295.91
536.288	1307.44
536.653	1295.46
537.019	1305.86
537.384	1295.91
537.749	1303.82
538.114	1282.81
538.479	1304.27
538.845	1308.12
539.21	1300.43
539.575	1308.12
539.94	1330.49
540.305	1315.35
540.67	1339.3
541.034	1330.71
541.399	1307.66
541.764	1328.91
542.129	1347.21
542.494	1338.17
542.858	1308.57
543.223	1308.57
543.587	1341.56
543.952	1319.19
544.316	1329.81
544.681	1321.22
545.045	1327.1
545.41	1341.33
545.774	1331.39
546.138	1313.09
546.503	1303.37
546.867	1349.02
547.231	1351.96
547.595	1347.21
547.959	1350.37
548.324	1337.49
548.688	1306.76
549.052	1332.3
549.416	1356.48
549.779	1345.63
550.143	1334.1
550.507	1336.82
550.871	1332.52
551.235	1357.15
551.599	1353.09
551.962	1333.2
552.326	1327.55
552.689	1346.98
553.053	1323.71
553.417	1345.85
553.78	1361.22
554.143	1370.94
554.507	1348.34
554.87	1357.38
555.234	1377.72
555.597	1356.02
555.96	1369.13
556.323	1378.17
556.686	1394.67
557.05	1370.94
557.413	1385.85
557.776	1381.79
558.139	1372.29
558.502	1368.9
558.865	1381.79
559.228	1381.33
559.59	1341.11
559.953	1369.36
560.316	1413.2
560.679	1377.94
561.041	1364.16
561.404	1396.02
561.767	1379.75
562.129	1385.18
562.492	1391.05
562.854	1393.76
563.217	1382.69
563.579	1415.23
563.941	1404.84
564.304	1443.25
564.666	1398.73
565.028	1452.29
565.39	1415.23
565.753	1435.8
566.115	1422.91
566.477	1407.77
566.839	1439.64
567.201	1450.03
567.563	1419.98
567.925	1426.76
568.287	1430.37
568.648	1439.86
569.01	1439.41
569.372	1441.9
569.734	1428.34
570.095	1444.83
570.457	1463.14
570.819	1456.36
571.18	1436.7
571.542	1454.33
571.903	1447.09
572.265	1426.98
572.626	1456.13
572.987	1455.46
573.349	1432.86
573.71	1439.64
574.071	1448.22
574.432	1434.89
574.794	1464.27
575.155	1449.13
575.516	1451.39
575.877	1445.29
576.238	1429.92
576.599	1460.43
576.96	1439.19
577.32	1445.29
577.681	1439.86
578.042	1437.38
578.403	1488.9
578.763	1424.27
579.124	1455.46
579.485	1460.2
579.845	1475.57
580.206	1462.46
580.566	1424.72
580.927	1438.96
581.287	1435.57
581.648	1409.13
582.008	1422.46
582.368	1450.71
582.728	1419.07
583.089	1411.62
583.449	1434.89
583.809	1423.82
584.169	1407.32
584.529	1436.93
584.889	1409.58
585.249	1427.89
585.609	1425.4
585.969	1431.5
586.329	1398.28
586.688	1413.65
587.048	1378.17
587.408	1396.47
587.768	1376.59
588.127	1382.92
588.487	1383.82
588.846	1384.5
589.206	1412.29
589.565	1407.32
589.925	1391.95
590.284	1386.98
590.643	1417.04
591.003	1391.28
591.362	1393.54
591.721	1393.76
592.08	1367.55
592.44	1403.25
592.799	1431.73
593.158	1388.79
593.517	1395.57
593.876	1385.18
594.235	1426.76
594.593	1389.02
594.952	1394.89
595.311	1379.53
595.67	1384.5
596.029	1424.04
596.387	1404.84
596.746	1420.43
597.104	1406.19
597.463	1398.51
597.822	1409.58
598.18	1376.36
598.538	1405.97
598.897	1393.31
599.255	1400.54
599.613	1400.54
599.972	1378.85
600.33	1387.89
600.688	1408.45
601.046	1418.85
601.404	1408
601.762	1424.72
602.12	1383.14
602.478	1389.24
602.836	1393.76
603.194	1418.17
603.552	1405.29
603.91	1383.37
604.268	1408.9
604.625	1394.67
604.983	1412.29
605.341	1399.41
605.698	1415.68
606.056	1431.5
606.413	1408.68
606.771	1431.05
607.128	1411.39
607.485	1427.43
607.843	1420.65
608.2	1422.01
608.557	1445.29
608.914	1438.06
609.272	1429.47
609.629	1414.33
609.986	1450.48
610.343	1429.92
610.7	1415.91
611.057	1450.71
611.414	1443.48
611.771	1435.12
612.127	1425.4
612.484	1443.48
612.841	1457.72
613.198	1449.13
613.554	1430.37
613.911	1449.35
614.267	1462.46
614.624	1466.3
614.98	1438.96
615.337	1492.29
615.693	1428.34
616.05	1451.16
616.406	1456.13
616.762	1460.65
617.118	1418.17
617.475	1434.89
617.831	1446.19
618.187	1467.66
618.543	1475.12
618.899	1460.65
619.255	1470.82
619.611	1448.9
619.967	1469.47
620.323	1448.22
620.678	1450.94
621.034	1438.51
621.39	1446.42
621.746	1464.72
622.101	1438.06
622.457	1417.26
622.812	1446.42
623.168	1440.99
623.523	1468.11
623.879	1466.76
624.234	1464.95
624.589	1446.19
624.945	1440.99
625.3	1460.88
625.655	1454.1
626.01	1451.61
626.365	1465.85
626.72	1430.15
627.075	1439.64
627.43	1452.29
627.785	1445.29
628.14	1488.45
628.495	1456.59
628.85	1464.72
629.205	1451.39
629.559	1469.24
629.914	1461.78
630.269	1471.5
630.623	1443.48
630.978	1429.47
631.332	1437.6
631.687	1429.24
632.041	1453.2
632.396	1457.04
632.75	1443.25
633.104	1423.37
633.459	1454.78
633.813	1439.86
634.167	1431.95
634.521	1467.66
634.875	1429.47
635.229	1424.72
635.583	1422.24
635.937	1429.69
636.291	1439.86
636.645	1429.24
636.999	1454.1
637.352	1418.39
637.706	1423.59
638.06	1406.87
638.413	1428.34
638.767	1434.44
639.121	1428.79
639.474	1418.62
639.828	1423.59
640.181	1429.24
640.534	1408.9
640.888	1425.63
641.241	1420.65
641.594	1441.67
641.947	1426.98
642.301	1429.47
642.654	1438.73
643.007	1431.5
643.36	1401.9
643.713	1431.73
644.066	1435.34
644.419	1438.06
644.771	1421.11
645.124	1436.25
645.477	1448.45
645.83	1429.47
646.182	1399.86
646.535	1414.78
646.888	1401.45
647.24	1436.7
647.593	1449.58
647.945	1425.63
648.298	1432.63
648.65	1424.5
649.002	1432.41
649.355	1436.25
649.707	1438.73
650.059	1457.49
650.411	1446.64
650.763	1475.34
651.115	1488
651.467	1503.59
651.819	1442.58
652.171	1533.19
652.523	1495
652.875	1494.78
653.227	1504.27
653.578	1481.44
653.93	1518.96
654.282	1526.64
654.633	1514.21
654.985	1526.19
655.337	1537.71
655.688	1532.06
656.039	1543.59
656.391	1547.88
656.742	1563.02
657.094	1562.12
657.445	1571.39
657.796	1597.15
658.147	1588.79
658.498	1579.75
658.849	1598.05
659.2	1616.36
659.551	1583.14
659.902	1604.15
660.253	1619.97
660.604	1629.69
660.955	1628.56
661.306	1651.61
661.656	1651.38
662.007	1676.69
662.358	1661.33
662.708	1642.57
663.059	1691.16
663.409	1697.03
663.76	1726.86
664.11	1692.51
664.461	1719.63
664.811	1726.64
665.161	1702.23
665.511	1739.97
665.862	1738.84
666.212	1777.93
666.562	1785.84
666.912	1785.84
667.262	1806.41
667.612	1804.6
667.962	1826.52
668.312	1817.93
668.662	1844.15
669.011	1829.68
669.361	1837.82
669.711	1855.22
670.06	1866.52
670.41	1885.95
670.76	1888.89
671.109	1909.68
671.459	1907.65
671.808	1909.23
672.157	1956.23
672.507	1951.49
672.856	1978.61
673.205	1964.37
673.554	1948.55
673.904	1971.83
674.253	2003.01
674.602	2022.67
674.951	2004.14
675.3	1977.7
675.649	2052.5
675.998	2057.7
676.346	2062.67
676.695	2089.11
677.044	2093.18
677.393	2121.43
677.741	2152.61
678.09	2117.36
678.438	2133.63
678.787	2148.55
679.135	2140.64
679.484	2177.7
679.832	2192.61
680.181	2218.37
680.529	2225.38
680.877	2268.09
681.225	2260.63
681.573	2275.32
681.922	2280.07
682.27	2303.34
682.618	2327.98
682.966	2347.18
683.314	2350.8
683.661	2333.85
684.009	2383.34
684.357	2350.8
684.705	2401.19
685.053	2432.15
685.4	2412.49
685.748	2389.89
686.095	2449.33
686.443	2462.44
686.79	2454.98
687.138	2524.13
687.485	2487.07
687.832	2485.49
688.18	2534.52
688.527	2518.48
688.874	2547.18
689.221	2545.37
689.568	2567.07
689.915	2567.52
690.262	2577.01
690.609	2570.23
690.956	2590.34
691.303	2628.76
691.65	2649.55
691.997	2635.54
692.344	2647.74
692.69	2689.32
693.037	2730.22
693.383	2719.6
693.73	2738.59
694.077	2742.88
694.423	2747.63
694.769	2735.65
695.116	2758.25
695.462	2778.59
695.808	2790.56
696.155	2832.37
696.501	2804.8
696.847	2825.82
697.193	2811.13
697.539	2857.45
697.885	2857
698.231	2855.65
698.577	2863.1
698.923	2873.5
699.269	2863.55
699.614	2880.96
699.96	2944.68
700.306	2935.64
700.651	2920.5
700.997	2963.21
701.342	2926.6
701.688	2955.98
702.033	2969.09
702.379	3017.22
702.724	3034.62
703.069	3006.83
703.415	3030.33
703.76	3011.57
704.105	3024.23
704.45	3096.99
704.795	3017.45
705.14	3059.71
705.485	3091.57
705.83	3131.12
706.175	3112.59
706.52	3100.38
706.865	3133.38
707.209	3108.07
707.554	3131.57
707.899	3099.93
708.243	3129.31
708.588	3127.73
708.932	3136.77
709.277	3160.5
709.621	3178.8
709.966	3193.94
710.31	3178.8
710.654	3204.34
710.998	3193.72
711.342	3230.78
711.687	3247.27
712.031	3209.76
712.375	3220.83
712.719	3246.82
713.063	3271
713.407	3272.58
713.75	3312.13
714.094	3281.62
714.438	3308.51
714.782	3294.05
715.125	3269.65
715.469	3312.13
715.812	3319.36
716.156	3330.89
716.499	3315.52
716.843	3313.49
717.186	3343.77
717.53	3325.92
717.873	3378.8
718.216	3375.63
718.559	3382.41
718.902	3376.76
719.246	3359.59
719.589	3373.82
719.932	3377.67
720.275	3363.65
720.617	3362.07
720.96	3414.05
721.303	3370.21
721.646	3373.37
721.989	3444.33
722.331	3407.5
722.674	3414.95
723.016	3432.35
723.359	3443.65
723.701	3397.33
724.044	3393.71
724.386	3434.16
724.729	3421.28
725.071	3412.47
725.413	3409.08
725.755	3410.43
726.097	3411.56
726.439	3424.44
726.782	3449.75
727.124	3471.67
727.465	3424.22
727.807	3447.72
728.149	3449.98
728.491	3457.89
728.833	3442.97
729.175	3468.96
729.516	3429.19
729.858	3466.48
730.199	3492.92
730.541	3415.86
730.882	3482.97
731.224	3459.47
731.565	3440.71
731.906	3470.32
732.248	3464.89
732.589	3447.95
732.93	3466.48
733.271	3458.12
733.612	3454.95
733.953	3473.48
734.294	3419.7
734.635	3457.21
734.976	3451.56
735.317	3455.63
735.658	3449.08
735.999	3466.02
736.339	3422.64
736.68	3473.93
737.021	3471.45
737.361	3434.16
737.702	3440.04
738.042	3470.09
738.383	3504.89
738.723	3413.82
739.063	3481.62
739.404	3447.27
739.744	3427.83
740.084	3430.09
740.424	3456.53
740.764	3424.22
741.104	3438.45
741.444	3433.48
741.784	3444.1
742.124	3407.95
742.464	3426.7
742.804	3423.54
743.143	3411.56
743.483	3444.1
743.823	3411.56
744.162	3412.01
744.502	3427.83
744.841	3409.08
745.181	3428.74
745.52	3416.53
745.86	3403.2
746.199	3412.92
746.538	3414.5
746.877	3378.34
747.216	3406.59
747.556	3401.17
747.895	3395.07
748.234	3384.44
748.573	3378.8
748.911	3421.96
749.25	3352.36
749.589	3388.74
749.928	3358.23
750.267	3354.84
750.605	3379.02
750.944	3334.95
751.283	3357.55
751.621	3362.3
751.96	3309.42
752.298	3356.65
752.636	3351
752.975	3351.45
753.313	3337.44
753.651	3291.34
753.989	3287.95
754.327	3321.62
754.666	3298.57
755.004	3304.22
755.342	3316.65
755.679	3238.46
756.017	3265.8
756.355	3286.59
756.693	3263.32
757.031	3263.77
757.368	3277.33
757.706	3254.96
758.044	3229.19
758.381	3253.6
758.719	3186.48
759.056	3186.48
759.394	3195.75
759.731	3178.35
760.068	3192.36
760.405	3208.18
760.743	3210.21
761.08	3175.18
761.417	3191.68
761.754	3162.98
762.091	3134.51
762.428	3104.23
762.765	3165.69
763.102	3116.88
763.438	3149.42
763.775	3106.26
764.112	3117.79
764.449	3132.47
764.785	3089.54
765.122	3074.62
765.458	3083.66
765.795	3069.65
766.131	3085.47
766.467	3077.79
766.804	3034.62
767.14	3035.08
767.476	3037.79
767.812	2996.88
768.148	3022.19
768.485	3021.97
768.821	2989.65
769.157	3013.61
769.492	2992.59
769.828	2970.67
770.164	2946.94
770.5	2922.54
770.836	2969.09
771.171	2937.68
771.507	2941.52
771.842	2922.76
772.178	2894.97
772.513	2910.11
772.849	2895.87
773.184	2855.65
773.519	2866.49
773.855	2898.58
774.19	2863.1
774.525	2859.94
774.86	2879.83
775.195	2826.95
775.53	2835.98
775.865	2819.94
776.2	2812.26
776.535	2815.87
776.87	2798.25
777.205	2794.18
777.539	2759.6
777.874	2759.38
778.209	2732.94
778.543	2763.22
778.878	2722.32
779.212	2734.29
779.547	2762.31
779.881	2729.77
780.215	2733.39
780.55	2716.89
780.884	2704.91
781.218	2695.65
781.552	2661.98
781.886	2684.58
782.22	2668.31
782.554	2648.65
782.888	2666.27
783.222	2651.13
783.556	2649.32
783.889	2621.3
784.223	2562.77
784.557	2555.54
784.89	2559.38
785.224	2601.19
785.557	2531.36
785.891	2558.7
786.224	2548.31
786.558	2582.21
786.891	2555.99
787.224	2502.43
787.557	2513.96
787.891	2515.09
788.224	2538.37
788.557	2554.86
788.89	2511.02
789.223	2504.02
789.556	2483
789.888	2497.46
790.221	2480.29
790.554	2447.52
790.887	2456.33
791.219	2429.67
791.552	2419.72
791.884	2441.87
792.217	2454.3
792.549	2423.11
792.882	2407.97
793.214	2396.67
793.546	2381.53
793.879	2395.77
794.211	2325.94
794.543	2413.4
794.875	2388.76
795.207	2371.82
795.539	2352.38
795.871	2349.67
796.203	2335.88
796.535	2354.42
796.867	2295.66
797.198	2339.95
797.53	2334.75
797.862	2332.95
798.193	2340.86
798.525	2313.29
798.856	2304.02
799.188	2276.23
799.519	2256.11
799.85	2269.67
800.182	2278.03
800.513	2273.29
800.844	2254.53
801.175	2257.24
801.506	2271.93
801.837	2252.95
802.168	2223.12
802.499	2239.84
802.83	2222.44
803.161	2207.3
803.491	2224.93
803.822	2232.61
804.153	2175.21
804.483	2193.97
804.814	2157.58
805.145	2200.52
805.475	2184.93
805.805	2167.98
806.136	2165.95
806.466	2151.03
806.796	2167.08
807.126	2139.73
807.457	2169.56
807.787	2146.06
808.117	2162.1
808.447	2116.23
808.777	2139.28
809.107	2150.35
809.436	2133.18
809.766	2131.6
810.096	2116.46
810.426	2110.81
810.755	2105.83
811.085	2099.73
811.414	2097.25
811.744	2107.87
812.073	2068.32
812.403	2099.96
812.732	2102.67
813.061	2079.62
813.39	2084.82
813.719	2042.11
814.049	2071.49
814.378	2045.27
814.707	2041.2
815.036	2013.86
815.365	2054.08
815.693	2028.1
816.022	2036.68
816.351	2012.73
816.68	1993.52
817.008	2000.07
817.337	2021.32
817.665	2020.64
817.994	2009.11
818.322	2028.1
818.651	2004.59
818.979	1997.59
819.307	1995.33
819.636	1969.79
819.964	1980.87
820.292	2007.76
820.62	1991.26
820.948	2011.37
821.276	1981.09
821.604	1962.34
821.932	1958.04
822.259	1973.18
822.587	2017.93
822.915	1950.81
823.243	1969.57
823.57	1984.48
823.898	1989.45
824.225	1969.34
824.553	1958.49
824.88	1972.5
825.207	1956.23
825.535	1942.67
825.862	1969.11
826.189	1958.27
826.516	1961.88
826.843	1963.01
827.17	1989.23
827.497	1959.62
827.824	1982.22
828.151	1963.69
828.478	1954.88
828.805	1978.38
829.131	1957.14
829.458	1964.6
829.785	1946.74
830.111	1945.84
830.438	1934.99
830.764	1982.45
831.09	1959.17
831.417	1973.63
831.743	1937.93
832.069	1978.15
832.395	1965.27
832.722	1949
833.048	1929.34
833.374	1965.5
833.7	1952.84
834.026	1960.98
834.351	1916.69
834.677	1939.51
835.003	1944.71
835.329	1932.51
835.654	1928.44
835.98	1960.53
836.306	1952.39
836.631	1920.3
836.956	1940.87
837.282	1942.67
837.607	1919.85
837.932	1883.92
838.258	1950.58
838.583	1906.74
838.908	1909
839.233	1892.05
839.558	1894.54
839.883	1896.8
840.208	1900.19
840.533	1922.11
840.858	1884.6
841.182	1873.52
841.507	1905.16
841.832	1899.96
842.156	1884.37
842.481	1877.14
842.805	1848.44
843.13	1873.07
843.454	1868.55
843.778	1858.61
844.103	1898.16
844.427	1845.73
844.751	1857.71
845.075	1866.29
845.399	1840.3
845.723	1832.85
846.047	1876.91
846.371	1829.01
846.695	1807.09
847.019	1828.33
847.343	1797.59
847.666	1802.11
847.99	1819.29
848.313	1794.88
848.637	1779.29
848.96	1767.76
849.284	1770.48
849.607	1788.1
849.931	1770.02
850.254	1761.44
850.577	1745.17
850.9	1724.6
851.223	1707.43
851.546	1725.05
851.869	1727.09
852.192	1740.42
852.515	1694.09
852.838	1713.08
853.161	1724.15
853.483	1726.18
853.806	1713.53
854.129	1699.74
854.451	1716.92
854.774	1679.18
855.096	1675.56
855.419	1695.45
855.741	1668.56
856.063	1641.67
856.385	1661.55
856.708	1656.81
857.03	1673.3
857.352	1646.19
857.674	1654.32
857.996	1662.23
858.318	1646.86
858.64	1660.87
858.961	1628.33
859.283	1623.59
859.605	1627.88
859.926	1603.25
860.248	1623.59
860.57	1592.4
860.891	1615.45
861.212	1621.78
861.534	1615.68
861.855	1605.96
862.176	1606.19
862.498	1607.99
862.819	1608.45
863.14	1576.13
863.461	1587.43
863.782	1612.29
864.103	1613.64
864.424	1579.29
864.745	1603.02
865.065	1578.62
865.386	1585.4
865.707	1576.81
866.027	1577.03
866.348	1575.45
866.668	1588.33
866.989	1564.61
867.309	1562.57
867.63	1537.49
867.95	1553.08
868.27	1535.91
868.59	1560.54
868.91	1558.5
869.23	1564.61
869.55	1524.61
869.87	1563.7
870.19	1543.36
870.51	1557.83
870.83	1550.59
871.15	1565.74
871.469	1556.24
871.789	1574.55
872.109	1532.06
872.428	1537.49
872.748	1553.98
873.067	1546.98
873.386	1533.65
873.706	1532.97
874.025	1515.79
874.344	1497.26
874.663	1518.51
874.982	1486.42
875.301	1544.49
875.62	1492.97
875.939	1499.75
876.258	1509.47
876.577	1487.77
876.896	1513.53
877.214	1495.23
877.533	1514.89
877.852	1511.5
878.17	1512.18
878.489	1503.59
878.807	1497.94
879.125	1498.62
879.444	1489.13
879.762	1493.2
880.08	1493.42
880.398	1481.9
880.716	1475.12
881.034	1497.94
881.352	1490.03
881.67	1461.33
881.988	1465.85
882.306	1462.01
882.624	1449.35
882.941	1460.2
883.259	1447.09
883.577	1463.82
883.894	1433.08
884.212	1446.64
884.529	1459.07
884.846	1447.09
885.164	1477.38
885.481	1462.69
885.798	1469.02
886.115	1453.2
886.432	1449.13
886.75	1462.91
887.067	1443.48
887.383	1438.28
887.7	1465.85
888.017	1422.46
888.334	1432.41
888.651	1414.55
888.967	1417.94
889.284	1432.86
889.6	1425.4
889.917	1397.83
890.233	1380.43
890.55	1398.96
890.866	1388.57
891.182	1389.47
891.498	1405.51
891.815	1401.22
892.131	1379.98
892.447	1410.71
892.763	1394.67
893.079	1357.15
893.395	1346.08
893.71	1373.42
894.026	1374.78
894.342	1356.48
894.657	1349.47
894.973	1357.61
895.289	1323.03
895.604	1340.88
895.92	1351.5
896.235	1323.03
896.55	1365.06
896.865	1348.57
897.181	1343.37
897.496	1319.19
897.811	1325.06
898.126	1327.55
898.441	1322.35
898.756	1324.39
899.071	1287.78
899.386	1302.01
899.7	1276.7
900.015	1287.55
900.33	1297.72
900.644	1316.25
900.959	1288.68
901.273	1290.94
901.588	1292.3
901.902	1260.66
902.216	1256.14
902.531	1252.52
902.845	1287.1
903.159	1274.67
903.473	1260.43
903.787	1236.03
904.101	1271.51
904.415	1247.78
904.729	1235.35
905.042	1234.9
905.356	1231.73
905.67	1241
905.984	1219.98
906.297	1236.25
906.611	1224.28
906.924	1226.08
907.237	1218.4
907.551	1230.15
907.864	1235.57
908.177	1211.85
908.491	1209.13
908.804	1201
909.117	1175.69
909.43	1194.22
909.743	1179.98
910.056	1161.68
910.368	1156.48
910.681	1165.75
910.994	1155.35
911.307	1151.28
911.619	1176.37
911.932	1191.06
912.244	1156.93
912.557	1153.32
912.869	1157.16
913.181	1149.48
913.494	1156.71
913.806	1142.02
914.118	1118.52
914.43	1143.6
914.742	1127.78
915.054	1121.68
915.366	1154.22
915.678	1142.92
915.99	1102.92
916.302	1134.11
916.613	1089.14
916.925	1094.79
917.236	1099.08
917.548	1148.8
917.859	1112.87
918.171	1095.92
918.482	1079.65
918.794	1063.15
919.105	1081
919.416	1078.97
919.727	1086.2
920.038	1082.36
920.349	1085.52
920.66	1054.79
920.971	1065.18
921.282	1059.53
921.593	1060.66
921.903	1071.74
922.214	1030.83
922.525	1052.08
922.835	1043.49
923.146	1040.33
923.456	1030.16
923.767	1046.88
924.077	1051.62
924.387	1031.96
924.697	1019.76
925.008	1022.02
925.318	1030.16
925.628	1015.24
925.938	1026.99
926.248	1018.63
926.558	1026.54
926.867	1006.2
927.177	998.29
927.487	990.61
927.796	998.52
928.106	1001.91
928.416	976.37
928.725	986.54
929.034	981.57
929.344	992.19
929.653	966.66
929.962	977.73
930.271	983.38
930.581	978.86
930.89	958.75
931.199	958.29
931.508	975.92
931.817	965.3
932.125	970.95
932.434	961.46
932.743	959.2
933.051	972.53
933.36	950.16
933.669	945.64
933.977	935.24
934.286	927.33
934.594	930.27
934.902	937.05
935.21	939.99
935.519	957.62
935.827	946.99
936.135	904.96
936.443	919.88
936.751	907.45
937.059	901.12
937.367	901.8
937.674	925.75
937.982	938.18
938.29	916.94
938.597	879.43
938.905	874.23
939.213	902.25
939.52	903.83
939.827	907
940.135	894.11
940.442	893.21
940.749	911.97
941.056	878.07
941.363	902.25
941.67	872.42
941.977	874.68
942.284	885.3
942.591	898.63
942.898	871.29
943.205	867.22
943.511	855.92
943.818	843.27
944.125	862.93
944.431	865.87
944.738	878.75
945.044	831.07
945.35	871.29
945.657	832.87
945.963	840.11
946.269	861.57
946.575	858.18
946.881	852.99
947.187	821.12
947.493	834.91
947.799	827
948.105	808.69
948.41	818.41
948.716	859.54
949.022	830.16
949.327	807.34
949.633	817.05
949.938	799.65
950.244	812.99
950.549	798.75
950.854	783.16
951.16	800.11
951.465	815.7
951.77	813.89
952.075	785.64
952.38	797.17
952.685	809.15
952.99	779.99
953.294	796.04
953.599	792.65
953.904	766.89
954.209	757.4
954.513	815.7
954.818	762.82
955.122	761.91
955.426	772.08
955.731	775.02
956.035	758.75
956.339	762.14
956.643	770.95
956.948	758.3
957.252	756.04
957.556	764.17
957.86	748.81
958.163	749.26
958.467	749.03
958.771	762.14
959.075	757.17
959.378	757.4
959.682	742.48
959.985	728.02
960.289	730.73
960.592	725.53
960.896	742.48
961.199	733.22
961.502	725.98
961.805	733.67
962.108	727.11
962.411	737.28
962.714	729.6
963.017	743.61
963.32	703.84
963.623	711.07
963.926	720.79
964.228	698.41
964.531	707
964.833	697.51
965.136	700
965.438	708.13
965.741	708.13
966.043	705.42
966.345	701.35
966.648	690.05
966.95	711.97
967.252	686.44
967.554	698.87
967.856	684.18
968.158	670.39
968.46	688.7
968.761	685.98
969.063	683.5
969.365	660
969.666	684.18
969.968	686.66
970.269	675.36
970.571	666.55
970.872	674.91
971.174	663.61
971.475	679.66
971.776	660.67
972.077	683.72
972.378	669.26
972.679	665.42
972.98	653.67
973.281	652.31
973.582	665.65
973.883	660.45
974.183	662.48
974.484	657.06
974.785	644.86
975.085	635.82
975.386	647.34
975.686	664.06
975.986	652.99
976.287	650.05
976.587	653.22
976.887	611.18
977.187	647.34
977.487	639.21
977.787	645.99
978.087	612.99
978.387	640.79
978.687	612.31
978.987	630.17
979.286	644.86
979.586	635.82
979.885	639.43
980.185	616.38
980.484	641.92
980.784	613.22
981.083	615.25
981.382	603.28
981.682	601.24
981.981	605.99
982.28	610.05
982.579	610.73
982.878	640.11
983.177	622.48
983.475	605.53
983.774	597.63
984.073	606.21
984.372	606.21
984.67	597.63
984.969	578.87
985.267	582.48
985.566	598.98
985.864	582.71
986.162	603.05
986.461	596.04
986.759	610.73
987.057	589.72
987.355	588.13
987.653	588.81
987.951	569.83
988.249	574.35
988.547	591.52
988.844	578.64
989.142	564.63
989.44	571.19
989.737	577.97
990.035	595.14
990.332	556.5
990.63	559.21
990.927	565.31
991.224	586.33
991.521	560.34
991.819	572.99
992.116	565.54
992.413	564.86
992.71	558.98
993.006	570.73
993.303	546.55
993.6	568.93
993.897	558.98
994.193	559.89
994.49	549.27
994.787	534.12
995.083	534.8
995.379	564.86
995.676	553.56
995.972	558.76
996.268	559.89
996.565	553.56
996.861	544.97
997.157	562.6
997.453	552.88
997.749	514.46
998.044	565.31
998.34	518.08
998.636	539.32
998.932	546.1
999.227	532.09
999.523	561.24
999.818	523.73
1000.114	537.51
1000.409	536.16
1000.704	536.84
1001	531.86
1001.295	517.18
1001.59	527.8
1001.885	539.55
1002.18	518.08
1002.475	526.21
1002.77	515.37
1003.065	521.7
1003.359	526.44
1003.654	526.21
1003.949	536.38
1004.243	525.99
1004.538	519.89
1004.832	523.05
1005.127	500.9
1005.421	496.61
1005.715	530.28
1006.009	506.55
1006.304	474.92
1006.598	507.68
1006.892	503.39
1007.186	488.7
1007.48	504.29
1007.773	511.75
1008.067	468.82
1008.361	491.87
1008.655	497.29
1008.948	481.24
1009.242	485.31
1009.535	507.68
1009.829	508.81
1010.122	486.89
1010.415	464.97
1010.708	497.29
1011.001	485.09
1011.295	471.3
1011.588	488.02
1011.881	486.67
1012.173	479.21
1012.466	478.53
1012.759	469.27
1013.052	458.87
1013.344	471.98
1013.637	492.09
1013.93	480.34
1014.222	492.54
1014.514	453.9
1014.807	460.45
1015.099	489.15
1015.391	441.92
1015.683	475.37
1015.976	473.79
1016.268	443.05
1016.56	454.58
1016.851	454.13
1017.143	488.93
1017.435	470.17
1017.727	469.27
1018.018	469.04
1018.31	456.39
1018.602	450.96
1018.893	453.9
1019.185	450.96
1019.476	431.3
1019.767	449.15
1020.058	453.22
1020.35	445.54
1020.641	427.01
1020.932	447.8
1021.223	446.22
1021.514	450.51
1021.804	450.51
1022.095	429.49
1022.386	443.05
1022.677	422.49
1022.967	443.96
1023.258	430.62
1023.548	441.47
1023.839	433.79
1024.129	417.97
1024.419	433.11
1024.709	427.91
1025	422.94
1025.29	411.64
1025.58	415.48
1025.87	415.26
1026.16	442.38
1026.449	428.14
1026.739	416.61
1027.029	425.88
1027.319	417.29
1027.608	403.51
1027.898	429.04
1028.187	418.65
1028.477	423.62
1028.766	426.56
1029.055	393.34
1029.344	417.29
1029.634	440.12
1029.923	432.21
1030.212	416.16
1030.501	408.7
1030.79	414.35
1031.078	401.47
1031.367	414.13
1031.656	425.2
1031.945	395.82
1032.233	412.77
1032.522	398.76
1032.81	393.34
1033.099	424.52
1033.387	397.18
1033.675	396.5
1033.963	397.4
1034.251	401.47
1034.54	412.32
1034.828	402.6
1035.116	429.72
1035.403	386.56
1035.691	410.51
1035.979	381.59
1036.267	398.76
1036.554	394.92
1036.842	406.67
1037.129	417.07
1037.417	407.57
1037.704	391.53
1037.992	417.74
1038.279	388.59
1038.566	392.43
1038.853	392.43
1039.14	392.43
