Data from carpet_green_FLMS001491_00092.txt Node
Date: Wed Feb 08 10:36:07 GMT 2017
User: dcchb
Spectrometer: FLMS00149
Trigger mode: 0
Integration Time (sec): 2.000000E-2
Scans to average: 10
Electric dark correction enabled: true
Nonlinearity correction enabled: false
Boxcar width: 0
XAxis mode: Wavelengths
Number of Pixels in Spectrum: 2048
>>>>>Begin Spectral Data<<<<<
341.393	-7.73
341.776	-7.73
342.16	-7.73
342.543	-52.24
342.927	-68.74
343.31	-76.88
343.693	-54.5
344.077	-67.16
344.46	-54.96
344.843	-46.14
345.226	-38.23
345.61	-27.84
345.993	-22.41
346.376	3.35
346.759	11.71
347.142	7.19
347.525	34.53
347.908	69.56
348.291	74.53
348.674	79.96
349.057	107.3
349.44	110.24
349.823	141.65
350.206	133.29
350.588	169.22
350.971	194.08
351.354	200.4
351.737	197.47
352.119	241.31
352.502	241.53
352.884	254.64
353.267	261.87
353.65	255.77
354.032	270.68
354.414	281.76
354.797	279.27
355.179	291.25
355.562	270.46
355.944	296
356.326	297.8
356.709	291.93
357.091	295.77
357.473	311.14
357.855	311.36
358.238	320.63
358.62	335.54
359.002	303.9
359.384	300.97
359.766	309.33
360.148	315.66
360.53	317.01
360.912	327.63
361.294	285.37
361.676	301.19
362.057	321.08
362.439	288.09
362.821	308.2
363.203	290.57
363.584	304.81
363.966	310.01
364.348	303.68
364.729	305.26
365.111	284.92
365.493	288.09
365.874	298.93
366.256	287.41
366.637	296.9
367.019	288.31
367.4	280.4
367.781	283.11
368.163	286.96
368.544	286.5
368.925	280.4
369.306	274.98
369.688	281.98
370.069	309.55
370.45	294.41
370.831	288.76
371.212	287.63
371.593	295.32
371.974	293.28
372.355	269.33
372.736	289.67
373.117	305.94
373.498	272.72
373.879	291.7
374.26	275.2
374.641	291.25
375.021	283.57
375.402	273.62
375.783	291.7
376.163	284.92
376.544	297.8
376.925	290.8
377.305	277.46
377.686	301.64
378.066	286.05
378.447	294.87
378.827	282.89
379.208	301.87
379.588	286.28
379.968	296.9
380.349	288.31
380.729	277.24
381.109	318.37
381.489	297.8
381.87	295.77
382.25	300.29
382.63	286.5
383.01	294.19
383.39	296.45
383.77	278.59
384.15	309.1
384.53	293.28
384.91	294.87
385.29	287.86
385.67	289.89
386.049	314.3
386.429	295.32
386.809	292.15
387.189	296.22
387.568	317.69
387.948	304.58
388.328	305.03
388.707	292.83
389.087	296.45
389.466	311.59
389.846	305.49
390.225	312.72
390.605	300.51
390.984	340.74
391.363	313.4
391.743	302.55
392.122	306.62
392.501	281.53
392.881	310.01
393.26	301.42
393.639	304.58
394.018	312.49
394.397	294.19
394.776	316.56
395.155	316.33
395.534	327.63
395.913	325.6
396.292	308.88
396.671	317.46
397.05	317.24
397.429	314.53
397.808	313.4
398.186	311.81
398.565	311.81
398.944	326.05
399.323	324.92
399.701	323.34
400.08	319.72
400.458	320.18
400.837	323.34
401.215	321.53
401.594	301.19
401.972	318.14
402.351	318.37
402.729	330.8
403.107	332.83
403.486	328.76
403.864	306.39
404.242	332.15
404.62	317.01
404.999	337.35
405.377	331.47
405.755	313.85
406.133	327.18
406.511	340.29
406.889	321.31
407.267	323.11
407.645	344.36
408.023	327.41
408.401	322.66
408.779	327.86
409.156	337.58
409.534	343.45
409.912	319.5
410.29	323.34
410.667	324.47
411.045	328.76
411.422	345.03
411.8	328.08
412.178	324.47
412.555	370.34
412.933	347.97
413.31	342.77
413.687	351.81
414.065	338.93
414.442	338.25
414.819	330.12
415.197	352.26
415.574	333.06
415.951	351.59
416.328	326.5
416.705	338.93
417.082	340.51
417.46	343.23
417.837	369.21
418.214	349.1
418.591	361.3
418.967	359.27
419.344	347.29
419.721	361.53
420.098	341.19
420.475	359.5
420.852	377.35
421.228	350.68
421.605	348.65
421.982	361.53
422.358	363.79
422.735	370.57
423.111	370.57
423.488	359.95
423.864	367.18
424.241	372.15
424.617	364.24
424.994	362.89
425.37	368.54
425.746	386.84
426.123	362.89
426.499	364.24
426.875	374.19
427.251	358.82
427.627	371.93
428.003	373.06
428.379	366.5
428.756	387.29
429.132	370.12
429.507	386.39
429.883	384.13
430.259	379.16
430.635	379.16
431.011	401.53
431.387	389.1
431.763	373.06
432.138	390.23
432.514	383
432.89	359.5
433.265	422.77
433.641	397.24
434.016	408.53
434.392	378.25
434.767	401.08
435.143	408.53
435.518	415.31
435.894	428.42
436.269	400.63
436.644	432.49
437.02	419.38
437.395	419.61
437.77	402.66
438.145	420.29
438.52	429.78
438.895	412.6
439.271	404.24
439.646	443.34
440.021	426.39
440.395	431.58
440.77	437.69
441.145	414.41
441.52	441.98
441.895	420.51
442.27	416.44
442.645	437.23
443.019	445.37
443.394	460.06
443.769	443.79
444.143	430.45
444.518	448.53
444.892	456.44
445.267	427.97
445.641	438.82
446.016	428.42
446.39	448.31
446.764	465.71
447.139	445.14
447.513	442.21
447.887	443.79
448.262	468.42
448.636	460.28
449.01	466.61
449.384	472.94
449.758	457.35
450.132	467.29
450.506	462.54
450.88	464.8
451.254	458.7
451.628	450.79
452.002	475.2
452.376	493.96
452.75	500.06
453.123	483.11
453.497	500.06
453.871	486.5
454.244	503.9
454.618	507.97
454.992	516.78
455.365	489.89
455.739	503.22
456.112	534.86
456.486	510.9
456.859	528.76
457.232	526.72
457.606	541.41
457.979	552.03
458.352	547.97
458.725	552.71
459.099	543.45
459.472	550
459.845	554.52
460.218	547.74
460.591	548.19
460.964	578.93
461.337	554.75
461.71	553.84
462.083	557.68
462.456	568.08
462.829	563.33
463.201	576.21
463.574	579.38
463.947	600.85
464.32	584.8
464.692	582.77
465.065	597.23
465.438	606.04
465.81	615.31
466.183	596.33
466.555	629.09
466.928	619.6
467.3	599.72
467.672	654.18
468.045	641.75
468.417	659.15
468.789	645.36
469.161	667.51
469.534	656.89
469.906	682.65
470.278	662.99
470.65	675.87
471.022	686.95
471.394	687.4
471.766	697.79
472.138	717.68
472.51	713.61
472.882	714.29
473.253	728.98
473.625	727.17
473.997	742.99
474.369	733.95
474.74	753.84
475.112	765.81
475.484	775.76
475.855	793.38
476.227	785.47
476.598	810.11
476.97	793.38
477.341	807.17
477.713	839.71
478.084	816.89
478.455	848.3
478.827	830.67
479.198	844.91
479.569	861.86
479.94	862.08
480.311	898.47
480.682	893.04
481.053	914.51
481.424	922.42
481.795	926.49
482.166	923.1
482.537	965.81
482.908	991.57
483.279	975.07
483.65	999.48
484.021	990.89
484.391	1029.31
484.762	1049.87
485.133	1067.5
485.503	1039.48
485.874	1067.27
486.244	1094.17
486.615	1079.7
486.985	1111.79
487.356	1090.1
487.726	1125.35
488.097	1120.15
488.467	1124.22
488.837	1167.84
489.207	1171
489.578	1213.94
489.948	1181.4
490.318	1237.44
490.688	1219.81
491.058	1235.18
491.428	1236.54
491.798	1272.92
492.168	1268.85
492.538	1272.24
492.908	1305.46
493.278	1302.75
493.648	1306.82
494.017	1327.15
494.387	1347.27
494.757	1352.24
495.126	1379.58
495.496	1344.56
495.866	1359.02
496.235	1397.66
496.605	1370.54
496.974	1377.55
497.344	1411.67
497.713	1420.71
498.082	1452.57
498.452	1438.11
498.821	1446.25
499.19	1486.92
499.559	1481.05
499.928	1477.21
500.298	1459.58
500.667	1484.21
501.036	1495.51
501.405	1516.75
501.774	1476.75
502.143	1523.53
502.512	1544.55
502.88	1527.38
503.249	1526.7
503.618	1534.83
503.987	1527.6
504.356	1585.9
504.724	1568.96
505.093	1540.26
505.462	1586.36
505.83	1570.09
506.199	1589.97
506.567	1623.64
506.936	1630.88
507.304	1656.86
507.672	1597.66
508.041	1646.24
508.409	1667.94
508.777	1679.46
509.145	1676.07
509.514	1649.86
509.882	1655.28
510.25	1670.42
510.618	1690.53
510.986	1697.99
511.354	1712.91
511.722	1713.58
512.09	1694.15
512.458	1719.23
512.826	1754.71
513.193	1723.75
513.561	1746.8
513.929	1760.59
514.297	1749.06
514.664	1766.92
515.032	1793.13
515.4	1801.94
515.767	1823.41
516.135	1788.39
516.502	1803.98
516.869	1820.93
517.237	1825.9
517.604	1821.83
517.972	1850.08
518.339	1846.46
518.706	1851.66
519.073	1882.17
519.44	1855.73
519.808	1894.15
520.175	1879
520.542	1919.46
520.909	1916.74
521.276	1908.38
521.643	1926.23
522.009	1946.57
522.376	1956.06
522.743	1945.44
523.11	1974.14
523.477	1973.24
523.843	1965.56
524.21	1993.35
524.577	2021.83
524.943	2000.58
525.31	2049.62
525.676	2036.29
526.043	2037.19
526.409	2068.83
526.776	2082.61
527.142	2071.77
527.508	2088.26
527.874	2094.37
528.241	2095.72
528.607	2115.61
528.973	2095.72
529.339	2141.82
529.705	2112.9
530.071	2127.81
530.437	2116.29
530.803	2141.14
531.169	2142.73
531.535	2099.34
531.901	2135.72
532.267	2123.97
532.632	2151.09
532.998	2152.9
533.364	2182.73
533.73	2172.1
534.095	2183.86
534.461	2206.68
534.826	2165.1
535.192	2205.78
535.557	2208.26
535.923	2214.59
536.288	2175.27
536.653	2241.93
537.019	2170.3
537.384	2215.04
537.749	2211.42
538.114	2196.51
538.479	2188.15
538.845	2185.44
539.21	2195.15
539.575	2206.68
539.94	2206.91
540.305	2200.35
540.67	2225.21
541.034	2237.19
541.399	2229.05
541.764	2223.85
542.129	2233.8
542.494	2246.23
542.858	2229.28
543.223	2228.37
543.587	2258.66
543.952	2288.94
544.316	2227.02
544.681	2272.21
545.045	2227.7
545.41	2276.51
545.774	2265.43
546.138	2266.11
546.503	2241.03
546.867	2279.9
547.231	2249.84
547.595	2258.88
547.959	2282.16
548.324	2323.74
548.688	2281.48
549.052	2302.27
549.416	2257.3
549.779	2290.97
550.143	2267.24
550.507	2287.81
550.871	2286.45
551.235	2307.69
551.599	2305.66
551.962	2325.32
552.326	2298.65
552.689	2321.7
553.053	2316.96
553.417	2317.41
553.78	2304.53
554.143	2309.95
554.507	2314.7
554.87	2325.32
555.234	2329.39
555.597	2360.8
555.96	2339.78
556.323	2341.36
556.686	2357.41
557.05	2373
557.413	2350.63
557.776	2328.94
558.139	2393.34
558.502	2358.09
558.865	2378.2
559.228	2389.73
559.59	2397.41
559.953	2419.78
560.316	2396.73
560.679	2430.85
561.041	2374.81
561.404	2448.93
561.767	2433.34
562.129	2426.33
562.492	2431.53
562.854	2412.1
563.217	2454.13
563.579	2440.57
563.941	2465.43
564.304	2472.89
564.666	2467.92
565.028	2481.93
565.39	2485.54
565.753	2476.73
566.115	2494.36
566.477	2475.15
566.839	2498.42
567.201	2499.33
567.563	2481.25
567.925	2475.82
568.287	2473.34
568.648	2505.2
569.01	2529.38
569.372	2529.38
569.734	2535.71
570.095	2518.31
570.457	2541.13
570.819	2540.91
571.18	2537.97
571.542	2573.9
571.903	2559.89
572.265	2570.51
572.626	2564.18
572.987	2539.33
573.349	2582.04
573.71	2584.52
574.071	2572.32
574.432	2556.27
574.794	2587.46
575.155	2548.59
575.516	2542.49
575.877	2536.84
576.238	2519.89
576.599	2559.89
576.96	2551.53
577.32	2544.98
577.681	2523.51
578.042	2542.94
578.403	2557.63
578.763	2578.19
579.124	2537.97
579.485	2568.25
579.845	2555.37
580.206	2564.86
580.566	2563.73
580.927	2549.27
581.287	2565.99
581.648	2522.38
582.008	2511.08
582.368	2533.68
582.728	2549.72
583.089	2544.3
583.449	2538.42
583.809	2541.81
584.169	2544.75
584.529	2510.85
584.889	2523.96
585.249	2518.08
585.609	2496.39
585.969	2561.7
586.329	2512.43
586.688	2527.8
587.048	2515.6
587.408	2490.97
587.768	2495.49
588.127	2492.32
588.487	2492.1
588.846	2504.98
589.206	2490.51
589.565	2475.6
589.925	2483.73
590.284	2490.51
590.643	2533.45
591.003	2486.9
591.362	2486.9
591.721	2467.46
592.08	2479.89
592.44	2473.11
592.799	2449.38
593.158	2486.67
593.517	2468.59
593.876	2477.41
594.235	2481.47
594.593	2502.72
594.952	2487.58
595.311	2450.29
595.67	2453.9
596.029	2473.79
596.387	2494.13
596.746	2501.59
597.104	2441.93
597.463	2477.41
597.822	2472.21
598.18	2458.65
598.538	2467.24
598.897	2497.07
599.255	2497.52
599.613	2524.19
599.972	2506.33
600.33	2541.13
600.688	2481.25
601.046	2528.7
601.404	2495.71
601.762	2483.96
602.12	2524.41
602.478	2524.86
602.836	2515.82
603.194	2488.03
603.552	2531.42
603.91	2480.12
604.268	2504.3
604.625	2501.36
604.983	2526.67
605.341	2470.85
605.698	2524.19
606.056	2520.12
606.413	2512.21
606.771	2533.22
607.128	2515.15
607.485	2524.19
607.843	2565.09
608.2	2552.88
608.557	2551.75
608.914	2582.26
609.272	2574.13
609.629	2595.6
609.986	2588.59
610.343	2553.79
610.7	2564.18
611.057	2547.01
611.414	2572.32
611.771	2576.16
612.127	2576.61
612.484	2635.14
612.841	2566.67
613.198	2602.83
613.554	2614.35
613.911	2588.14
614.267	2622.04
614.624	2619.55
614.98	2623.62
615.337	2605.31
615.693	2600.79
616.05	2585.43
616.406	2596.05
616.762	2610.96
617.118	2636.72
617.475	2638.53
617.831	2646.67
618.187	2598.76
618.543	2631.98
618.899	2599.21
619.255	2633.56
619.611	2624.3
619.967	2616.16
620.323	2602.38
620.678	2597.86
621.034	2655.71
621.39	2611.41
621.746	2596.27
622.101	2624.75
622.457	2595.82
622.812	2630.62
623.168	2630.4
623.523	2647.35
623.879	2638.31
624.234	2604.41
624.589	2607.12
624.945	2612.54
625.3	2646.22
625.655	2636.72
626.01	2623.17
626.365	2599.89
626.72	2632.2
627.075	2642.6
627.43	2595.14
627.785	2554.69
628.14	2592.88
628.495	2592.21
628.85	2627.91
629.205	2613.22
629.559	2636.5
629.914	2584.97
630.269	2586.78
630.623	2603.73
630.978	2597.18
631.332	2602.38
631.687	2583.84
632.041	2577.29
632.396	2586.1
632.75	2583.39
633.104	2557.4
633.459	2561.02
633.813	2602.15
634.167	2559.21
634.521	2572.09
634.875	2595.6
635.229	2568.7
635.583	2589.49
635.937	2573
636.291	2579.1
636.645	2558.99
636.999	2577.52
637.352	2573
637.706	2579.32
638.06	2576.84
638.413	2597.63
638.767	2568.48
639.121	2575.03
639.474	2510.17
639.828	2556.73
640.181	2544.07
640.534	2591.98
640.888	2560.34
641.241	2557.86
641.594	2572.77
641.947	2582.49
642.301	2582.71
642.654	2576.39
643.007	2574.35
643.36	2537.07
643.713	2565.31
644.066	2599.21
644.419	2603.96
644.771	2562.6
645.124	2574.58
645.477	2546.78
645.83	2555.6
646.182	2537.52
646.535	2554.01
646.888	2514.69
647.24	2512.21
647.593	2529.16
647.945	2514.92
648.298	2547.69
648.65	2536.84
649.002	2557.4
649.355	2560.57
649.707	2570.29
650.059	2560.79
650.411	2610.51
650.763	2622.26
651.115	2660.23
651.467	2669.94
651.819	2656.61
652.171	2688.25
652.523	2682.82
652.875	2706.1
653.227	2668.14
653.578	2688.02
653.93	2694.12
654.282	2699.1
654.633	2722.82
654.985	2722.6
655.337	2713.56
655.688	2730.06
656.039	2760.34
656.391	2718.08
656.742	2761.47
657.094	2742.71
657.445	2753.33
657.796	2817.28
658.147	2776.61
658.498	2818.41
658.849	2847.34
659.2	2848.92
659.551	2795.36
659.902	2840.56
660.253	2870.62
660.604	2860.22
660.955	2889.6
661.306	2914.01
661.656	2886.89
662.007	2929.37
662.358	2925.08
662.708	2941.35
663.059	2945.42
663.409	2968.47
663.76	3007.11
664.11	3022.7
664.461	3012.53
664.811	3041.23
665.161	3042.14
665.511	3065.41
665.862	3104.06
666.212	3110.84
666.562	3130.5
666.912	3113.55
667.262	3124.85
667.612	3164.17
667.962	3173.66
668.312	3178.41
668.662	3227.67
669.011	3241
669.361	3234.22
669.711	3275.35
670.06	3267.44
670.41	3298.18
670.76	3291.4
671.109	3340.89
671.459	3385.86
671.808	3388.8
672.157	3353.32
672.507	3392.18
672.856	3438.51
673.205	3429.92
673.554	3478.74
673.904	3464.73
674.253	3527.1
674.602	3514.89
674.951	3560.99
675.3	3534.55
675.649	3612.97
675.998	3587.89
676.346	3554.89
676.695	3629.69
677.044	3684.15
677.393	3667.88
677.741	3723.93
678.09	3717.15
678.438	3724.83
678.787	3774.55
679.135	3816.35
679.484	3804.38
679.832	3895.67
680.181	3858.84
680.529	3912.17
680.877	3920.98
681.225	3890.25
681.573	3969.57
681.922	3988.1
682.27	3965.05
682.618	3979.06
682.966	4036.24
683.314	4076.69
683.661	4081.43
684.009	4098.83
684.357	4102
684.705	4162.11
685.053	4157.14
685.4	4161.88
685.748	4220.86
686.095	4233.97
686.443	4271.03
686.79	4286.17
687.138	4256.12
687.485	4329.79
687.832	4308.09
688.18	4390.58
688.527	4346.06
688.874	4410.01
689.221	4383.57
689.568	4392.38
689.915	4420.41
690.262	4490.24
690.609	4462.89
690.956	4467.18
691.303	4530.23
691.65	4528.88
691.997	4597.35
692.344	4547.86
692.69	4555.32
693.037	4621.53
693.383	4606.84
693.73	4651.13
694.077	4650.91
694.423	4706.5
694.769	4661.98
695.116	4697.24
695.462	4717.35
695.808	4783.79
696.155	4752.38
696.501	4767.97
696.847	4828.98
697.193	4811.81
697.539	4829.66
697.885	4828.31
698.231	4845.93
698.577	4869.21
698.923	4899.04
699.269	4924.12
699.614	4923.67
699.96	4960.73
700.306	4993.95
700.651	5003.44
700.997	5049.99
701.342	4980.62
701.688	4978.36
702.033	5013.39
702.379	5037.11
702.724	5082.08
703.069	5060.62
703.415	5078.47
703.76	5085.93
704.105	5097.68
704.45	5106.26
704.795	5154.85
705.14	5156.21
705.485	5181.97
705.83	5171.12
706.175	5153.04
706.52	5161.63
706.865	5198.92
707.209	5209.99
707.554	5209.99
707.899	5241.63
708.243	5279.59
708.588	5283.21
708.932	5251.57
709.277	5289.99
709.621	5282.08
709.966	5313.72
710.31	5321.17
710.654	5282.76
710.998	5321.17
711.342	5331.12
711.687	5314.17
712.031	5272.36
712.375	5331.57
712.719	5381.74
713.063	5363.21
713.407	5426.71
713.75	5361.17
714.094	5408.63
714.438	5409.76
714.782	5385.58
715.125	5386.93
715.469	5405.24
715.812	5380.16
716.156	5419.93
716.499	5393.71
716.843	5452.02
717.186	5487.5
717.53	5497.89
717.873	5503.99
718.216	5489.3
718.559	5460.83
718.902	5491.79
719.246	5468.97
719.589	5478.68
719.932	5477.33
720.275	5493.82
720.617	5515.74
720.96	5523.65
721.303	5520.94
721.646	5514.61
721.989	5513.26
722.331	5554.61
722.674	5543.77
723.016	5532.02
723.359	5554.16
723.701	5537.44
724.044	5560.26
724.386	5496.76
724.729	5543.99
725.071	5546.7
725.413	5514.84
725.755	5530.21
726.097	5502.64
726.439	5503.99
726.782	5538.8
727.124	5614.95
727.465	5565.01
727.807	5582.18
728.149	5566.36
728.491	5586.03
728.833	5599.36
729.175	5555.29
729.516	5563.2
729.858	5585.12
730.199	5545.35
730.541	5583.77
730.882	5583.99
731.224	5526.59
731.565	5606.82
731.906	5557.78
732.248	5621.73
732.589	5515.74
732.93	5534.28
733.271	5574.73
733.612	5545.35
733.953	5556.42
734.294	5527.95
734.635	5555.29
734.976	5518
735.317	5468.29
735.658	5480.72
735.999	5549.42
736.339	5526.14
736.68	5538.12
737.021	5500.15
737.361	5475.75
737.702	5546.03
738.042	5447.72
738.383	5525.46
738.723	5524.56
739.063	5514.84
739.404	5497.67
739.744	5512.81
740.084	5480.72
740.424	5505.35
740.764	5485.01
741.104	5525.91
741.444	5440.72
741.784	5473.03
742.124	5494.05
742.464	5419.02
742.804	5434.84
743.143	5500.38
743.483	5452.7
743.823	5395.97
744.162	5465.12
744.502	5484.56
744.841	5407.5
745.181	5463.54
745.52	5433.94
745.86	5427.16
746.199	5404.34
746.538	5411.11
746.877	5433.26
747.216	5427.61
747.556	5408.4
747.895	5380.61
748.234	5348.29
748.573	5385.58
748.911	5392.36
749.25	5389.42
749.589	5307.61
749.928	5363.43
750.267	5322.08
750.605	5360.27
750.944	5296.32
751.283	5306.48
751.621	5309.2
751.96	5282.3
752.298	5274.62
752.636	5243.89
752.975	5265.81
753.313	5230.78
753.651	5269.88
753.989	5230.33
754.327	5251.12
754.666	5226.71
755.004	5210.67
755.342	5195.98
755.679	5231.68
756.017	5176.09
756.355	5194.85
756.693	5184.45
757.031	5214.96
757.368	5182.19
757.706	5151.91
758.044	5054.51
758.381	5115.98
758.719	5121.4
759.056	5110.33
759.394	5118.92
759.731	5081.18
760.068	5078.02
760.405	5047.28
760.743	5059.26
761.08	5023.78
761.417	5016.55
761.754	4978.81
762.091	5001.63
762.428	4970.45
762.765	4918.25
763.102	4941.3
763.438	4922.54
763.775	4938.81
764.112	4935.2
764.449	4929.09
764.785	4893.39
765.122	4876.21
765.458	4821.98
765.795	4845.25
766.131	4814.97
766.467	4837.57
766.804	4784.24
767.14	4784.46
767.476	4746.73
767.812	4741.75
768.148	4779.72
768.485	4704.01
768.821	4696.33
769.157	4755.09
769.492	4696.33
769.828	4715.31
770.164	4636.67
770.5	4628.31
770.836	4638.03
771.171	4572.27
771.507	4589.89
771.842	4586.73
772.178	4583.11
772.513	4551.02
772.849	4533.17
773.184	4518.03
773.519	4569.1
773.855	4499.05
774.19	4493.4
774.525	4476.9
774.86	4464.92
775.195	4479.39
775.53	4461.99
775.865	4385.61
776.2	4392.84
776.535	4414.53
776.87	4391.71
777.205	4351.03
777.539	4374.98
777.874	4350.35
778.209	4310.8
778.543	4288.88
778.878	4299.05
779.212	4280.75
779.547	4253.86
779.881	4293.63
780.215	4252.28
780.55	4251.6
780.884	4235.33
781.218	4184.48
781.552	4221.99
781.886	4187.42
782.22	4178.15
782.554	4188.32
782.888	4097.93
783.222	4116.23
783.556	4085.5
783.889	4091.15
784.223	4065.61
784.557	4076.91
784.89	4090.47
785.224	4054.31
785.557	4026.52
785.891	3991.94
786.224	3984.26
786.558	4057.93
786.891	3945.39
787.224	3956.46
787.557	3940.19
787.891	3918.95
788.224	3891.38
788.557	3905.84
788.89	3920.53
789.223	3903.58
789.556	3896.8
789.888	3863.58
790.221	3861.55
790.554	3815.9
790.887	3850.93
791.219	3824.94
791.552	3791.5
791.884	3791.04
792.217	3796.24
792.549	3763.47
792.882	3734.32
793.214	3730.48
793.546	3743.14
793.879	3741.1
794.211	3700.2
794.543	3690.48
794.875	3695
795.207	3710.37
795.539	3659.97
795.871	3704.27
796.203	3602.8
796.535	3603.93
796.867	3634.66
797.198	3624.27
797.53	3570.03
797.862	3598.06
798.193	3592.63
798.525	3570.94
798.856	3543.82
799.188	3527.77
799.519	3564.84
799.85	3508.57
800.182	3462.69
800.513	3509.24
800.844	3512.63
801.175	3516.7
801.506	3487.78
801.837	3465.86
802.168	3494.56
802.499	3465.4
802.83	3466.31
803.161	3482.58
803.491	3433.09
803.822	3460.21
804.153	3440.77
804.483	3414.33
804.814	3379.3
805.145	3390.6
805.475	3359.42
805.805	3328.23
806.136	3367.55
806.466	3407.1
806.796	3356.03
807.126	3346.76
807.457	3320.1
807.787	3313.32
808.117	3341.79
808.447	3296.37
808.777	3308.57
809.107	3293.2
809.436	3305.18
809.766	3267.44
810.096	3308.8
810.426	3288.23
810.755	3220.44
811.085	3224.96
811.414	3255.24
811.744	3244.39
812.073	3225.64
812.403	3232.87
812.732	3168.91
813.061	3181.79
813.39	3225.18
813.719	3152.64
814.049	3182.92
814.378	3179.54
814.707	3199.2
815.036	3142.25
815.365	3150.16
815.693	3131.4
816.022	3108.8
816.351	3127.33
816.68	3105.19
817.008	3106.32
817.337	3102.02
817.665	3079.42
817.994	3108.12
818.322	3092.98
818.651	3072.87
818.979	3079.65
819.307	3062.25
819.636	3078.52
819.964	3013.21
820.292	3047.11
820.62	3008.69
820.948	3032.19
821.276	3030.16
821.604	3036.71
821.932	3062.02
822.259	3081.91
822.587	3024.51
822.915	3022.7
823.243	3039.88
823.57	3038.3
823.898	3026.32
824.225	3008.47
824.553	3027.67
824.88	3021.35
825.207	3062.93
825.535	3022.25
825.862	3033.32
826.189	3003.27
826.516	3038.52
826.843	3044.62
827.17	3042.59
827.497	3017.05
827.824	3031.52
828.151	3050.72
828.478	3024.28
828.805	3002.82
829.131	3007.34
829.458	3005.3
829.785	3027.22
830.111	2990.16
830.438	3021.8
830.764	3019.31
831.09	3034.91
831.417	2976.38
831.743	3001.23
832.069	2982.93
832.395	3008.47
832.722	2998.75
833.048	2982.7
833.374	2958.98
833.7	2979.31
834.026	3004.62
834.351	2980.67
834.677	3008.47
835.003	3021.35
835.329	3015.92
835.654	2994.23
835.98	2998.07
836.306	3006.88
836.631	2983.38
836.956	2992.87
837.282	2953.55
837.607	2934.8
837.932	2960.11
838.258	2955.36
838.583	2968.24
838.908	2939.99
839.233	2958.07
839.558	2947.22
839.883	2952.42
840.208	2921.69
840.533	2893.67
840.858	2940.45
841.182	2918.52
841.507	2921.91
841.832	2863.39
842.156	2883.95
842.481	2898.41
842.805	2867.9
843.13	2889.6
843.454	2858.64
843.778	2870.84
844.103	2855.7
844.427	2856.83
844.751	2833.56
845.075	2867
845.399	2801.69
845.723	2824.29
846.047	2797.4
846.371	2758.3
846.695	2807.34
847.019	2781.13
847.343	2740
847.666	2757.17
847.99	2777.06
848.313	2786.78
848.637	2759.89
848.96	2729.6
849.284	2705.65
849.607	2716.27
849.931	2728.47
850.254	2661.81
850.577	2693.67
850.9	2661.81
851.223	2646.67
851.546	2638.08
851.869	2635.59
852.192	2619.1
852.515	2615.48
852.838	2618.87
853.161	2635.82
853.483	2597.4
853.806	2592.21
854.129	2603.28
854.451	2566.9
854.774	2552.66
855.096	2546.78
855.419	2555.14
855.741	2553.11
856.063	2531.87
856.385	2524.86
856.708	2524.41
857.03	2529.38
857.352	2510.63
857.674	2521.02
857.996	2518.99
858.318	2479.21
858.64	2521.47
858.961	2484.41
859.283	2470.85
859.605	2491.64
859.926	2460.91
860.248	2453.68
860.57	2470.85
860.891	2417.97
861.212	2450.06
861.534	2453
861.855	2431.76
862.176	2428.37
862.498	2460.01
862.819	2422.49
863.14	2450.06
863.461	2395.83
863.782	2448.03
864.103	2445.77
864.424	2379.78
864.745	2400.12
865.065	2404.41
865.386	2418.65
865.707	2413.91
866.027	2399.67
866.348	2344.53
866.668	2369.61
866.989	2351.08
867.309	2397.63
867.63	2376.84
867.95	2379.56
868.27	2336.62
868.59	2359.9
868.91	2339.56
869.23	2373.23
869.55	2346.34
869.87	2378.43
870.19	2356.05
870.51	2315.38
870.83	2349.95
871.15	2346.34
871.469	2364.42
871.789	2356.51
872.109	2311.54
872.428	2299.11
872.748	2297.07
873.067	2302.04
873.386	2314.02
873.706	2316.28
874.025	2317.41
874.344	2318.77
874.663	2293.23
874.982	2294.13
875.301	2314.93
875.62	2288.03
875.939	2237.86
876.258	2282.38
876.577	2283.29
876.896	2297.75
877.214	2281.03
877.533	2255.04
877.852	2257.98
878.17	2274.47
878.489	2244.64
878.807	2257.3
879.125	2262.95
879.444	2258.2
879.762	2246.45
880.08	2231.31
880.398	2223.18
880.716	2211.2
881.034	2233.12
881.352	2257.3
881.67	2205.55
881.988	2199.45
882.306	2208.94
882.624	2215.72
882.941	2190.86
883.259	2228.6
883.577	2175.04
883.894	2187.7
884.212	2174.36
884.529	2172.78
884.846	2215.94
885.164	2208.04
885.481	2168.04
885.798	2186.79
886.115	2148.38
886.432	2172.1
886.75	2135.04
887.067	2136.85
887.383	2148.83
887.7	2150.86
888.017	2138.21
888.334	2157.87
888.651	2130.3
888.967	2142.95
889.284	2122.39
889.6	2138.43
889.917	2117.87
890.233	2128.04
890.55	2085.78
890.866	2103.41
891.182	2031.09
891.498	2075.84
891.815	2073.35
892.131	2095.04
892.447	2065.21
892.763	2070.64
893.079	2051.43
893.395	2037.42
893.71	2032.67
894.026	2034.03
894.342	2056.63
894.657	2036.51
894.973	2055.5
895.289	2018.44
895.604	2032.22
895.92	2017.31
896.235	1964.43
896.55	2015.72
896.865	2002.84
897.181	1999.23
897.496	1970.3
897.811	2008.94
898.126	1976.18
898.441	1990.41
898.756	1951.77
899.071	1946.35
899.386	1953.58
899.7	1941.15
900.015	1928.27
900.33	1906.57
900.644	1937.08
900.959	1914.26
901.273	1899.34
901.588	1910.64
901.902	1912
902.216	1862.73
902.531	1882.17
902.845	1900.25
903.159	1876.74
903.473	1865.9
903.787	1874.71
904.101	1868.38
904.415	1832.45
904.729	1842.4
905.042	1833.13
905.356	1834.26
905.67	1859.57
905.984	1792.9
906.297	1834.71
906.611	1833.81
906.924	1823.64
907.237	1808.27
907.551	1794.26
907.864	1818.21
908.177	1789.29
908.491	1777.31
908.804	1785.22
909.117	1760.36
909.43	1769.4
909.743	1774.37
910.056	1746.35
910.368	1717.88
910.681	1731.66
910.994	1696.41
911.307	1728.27
911.619	1734.38
911.932	1723.75
912.244	1693.47
912.557	1690.31
912.869	1720.59
913.181	1705.22
913.494	1702.06
913.806	1681.27
914.118	1693.25
914.43	1662.06
914.742	1643.76
915.054	1687.6
915.366	1644.43
915.678	1640.14
915.99	1623.42
916.302	1649.86
916.613	1643.3
916.925	1641.04
917.236	1641.95
917.548	1619.58
917.859	1608.28
918.171	1613.02
918.482	1608.5
918.794	1616.41
919.105	1561.05
919.416	1583.42
919.727	1566.92
920.038	1575.51
920.349	1594.49
920.66	1545.23
920.971	1549.97
921.282	1563.08
921.593	1530.76
921.903	1560.37
922.214	1538
922.525	1548.39
922.835	1534.83
923.146	1492.8
923.456	1529.41
923.767	1499.13
924.077	1525.57
924.387	1497.09
924.697	1482.18
925.008	1492.35
925.318	1482.18
925.628	1481.05
925.938	1503.65
926.248	1471.78
926.558	1484.89
926.867	1459.81
927.177	1462.74
927.487	1469.3
927.796	1432.46
928.106	1431.11
928.416	1443.08
928.725	1429.98
929.034	1429.3
929.344	1417.77
929.653	1422.97
929.962	1411.9
930.271	1408.73
930.581	1398.79
930.89	1390.43
931.199	1349.3
931.508	1388.17
931.817	1392.24
932.125	1383.88
932.434	1401.73
932.743	1387.49
933.051	1369.41
933.36	1349.3
933.669	1347.27
933.977	1359.02
934.286	1362.86
934.594	1344.78
934.902	1359.92
935.21	1321.96
935.519	1342.52
935.827	1322.41
936.135	1334.61
936.443	1305.01
936.751	1319.02
937.059	1288.96
937.367	1282.86
937.674	1285.12
937.982	1275.18
938.29	1289.64
938.597	1289.42
938.905	1291.9
939.213	1287.61
939.52	1270.66
939.827	1264.11
940.135	1268.62
940.442	1288.51
940.749	1243.31
941.056	1253.26
941.363	1262.98
941.67	1232.47
941.977	1231.34
942.284	1231.11
942.591	1226.14
942.898	1176.42
943.205	1238.8
943.511	1208.74
943.818	1196.76
944.125	1171.9
944.431	1197.21
944.738	1214.16
945.044	1203.99
945.35	1191.11
945.657	1185.01
945.963	1196.08
946.269	1178.91
946.575	1189.3
946.881	1166.03
947.187	1181.62
947.493	1175.52
947.799	1127.16
948.105	1166.25
948.41	1151.57
948.716	1145.01
949.022	1160.38
949.327	1153.37
949.633	1143.2
949.938	1128.06
950.244	1132.81
950.549	1137.55
950.854	1125.8
951.16	1112.47
951.465	1135.07
951.77	1087.84
952.075	1099.36
952.38	1121.96
952.685	1119.25
952.99	1103.21
953.294	1102.08
953.599	1084.45
953.904	1087.39
954.209	1078.12
954.513	1077.44
954.818	1089.19
955.122	1091.45
955.426	1072.25
955.731	1081.51
956.035	1059.82
956.339	1064.34
956.643	1056.43
956.948	1043.77
957.252	1054.17
957.556	1052.59
957.86	1058.01
958.163	1055.07
958.467	1058.91
958.771	1016.88
959.075	1055.75
959.378	1046.48
959.682	1038.8
959.985	1026.82
960.289	1024.11
960.592	1011
960.896	1024.11
961.199	1002.19
961.502	989.76
961.805	1004
962.108	1000.38
962.411	1013.72
962.714	979.82
963.017	974.62
963.32	980.95
963.623	974.17
963.926	990.89
964.228	993.15
964.531	975.07
964.833	947.73
965.136	973.49
965.438	952.25
965.741	953.38
966.043	974.62
966.345	951.12
966.648	962.64
966.95	969.65
967.252	944.79
967.554	945.02
967.856	958.8
968.158	956.32
968.46	942.98
968.761	954.51
969.063	952.25
969.365	913.61
969.666	915.19
969.968	895.53
970.269	925.36
970.571	936.43
970.872	899.82
971.174	916.54
971.475	922.19
971.776	879.26
972.077	907.73
972.378	874.28
972.679	914.06
972.98	893.27
973.281	888.75
973.582	907.05
973.883	892.14
974.183	928.29
974.484	888.97
974.785	860.27
975.085	891.91
975.386	880.61
975.686	880.84
975.986	866.83
976.287	876.32
976.587	853.49
976.887	843.33
977.187	867.28
977.487	847.17
977.787	845.36
978.087	839.94
978.387	837.22
978.687	837.22
978.987	842.42
979.286	862.31
979.586	852.36
979.885	839.71
980.185	823.66
980.484	832.7
980.784	828.18
981.083	813.04
981.382	835.42
981.682	817.34
981.981	794.29
982.28	811.01
982.579	807.85
982.878	825.47
983.177	809.65
983.475	823.89
983.774	818.47
984.073	800.39
984.372	791.58
984.67	769.43
984.969	778.24
985.267	796.77
985.566	786.6
985.864	786.6
986.162	775.3
986.461	781.41
986.759	764.01
987.057	753.16
987.355	770.78
987.653	761.75
987.951	759.26
988.249	770.11
988.547	762.2
988.844	766.49
989.142	759.26
989.44	775.53
989.737	747.96
990.035	731.92
990.332	736.44
990.63	749.09
990.927	744.12
991.224	735.08
991.521	741.18
991.819	749.54
992.116	738.47
992.413	756.32
992.71	741.41
993.006	720.62
993.303	740.28
993.6	713.16
993.897	730.56
994.193	715.42
994.49	730.56
994.787	705.7
995.083	717.68
995.379	739.83
995.676	706.83
995.972	727.85
996.268	698.7
996.565	713.39
996.861	701.63
997.157	723.33
997.453	693.72
997.749	706.83
998.044	691.69
998.34	697.79
998.636	679.94
998.932	694.85
999.227	680.17
999.523	693.05
999.818	680.39
1000.114	681.75
1000.409	672.03
1000.704	667.96
1001	674.06
1001.295	655.76
1001.59	683.78
1001.885	670
1002.18	685.36
1002.475	655.99
1002.77	642.2
1003.065	630.68
1003.359	656.21
1003.654	639.71
1003.949	647.4
1004.243	637.45
1004.538	653.95
1004.832	654.86
1005.127	643.33
1005.421	640.84
1005.715	635.42
1006.009	619.15
1006.304	621.41
1006.598	627.96
1006.892	635.65
1007.186	627.96
1007.48	609.21
1007.773	630.45
1008.067	631.81
1008.361	601.07
1008.655	608.53
1008.948	599.04
1009.242	615.76
1009.535	612.37
1009.829	636.55
1010.122	610.79
1010.415	602.88
1010.708	596.33
1011.001	599.49
1011.295	590.9
1011.588	601.07
1011.881	588.42
1012.173	587.96
1012.466	574.63
1012.759	576.21
1013.052	586.38
1013.344	588.19
1013.637	589.55
1013.93	593.16
1014.222	605.82
1014.514	574.63
1014.807	578.47
1015.099	583.22
1015.391	561.07
1015.683	574.63
1015.976	564.24
1016.268	560.39
1016.56	564.01
1016.851	560.39
1017.143	568.53
1017.435	569.43
1017.727	545.71
1018.018	556.1
1018.31	547.97
1018.602	564.24
1018.893	540.73
1019.185	562.65
1019.476	558.81
1019.767	532.82
1020.058	552.94
1020.35	553.62
1020.641	544.12
1020.932	530.57
1021.223	527.63
1021.514	524.24
1021.804	532.82
1022.095	530.34
1022.386	545.03
1022.677	535.31
1022.967	527.18
1023.258	507.29
1023.548	526.05
1023.839	506.16
1024.129	523.56
1024.419	521.75
1024.709	509.55
1025	508.87
1025.29	530.11
1025.58	504.13
1025.87	505.26
1026.16	508.19
1026.449	501.41
1026.739	496.89
1027.029	498.02
1027.319	483.79
1027.608	488.31
1027.898	489.44
1028.187	479.95
1028.477	488.08
1028.766	482.2
1029.055	493.73
1029.344	488.08
1029.634	480.17
1029.923	481.98
1030.212	491.92
1030.501	488.98
1030.79	475.2
1031.078	461.19
1031.367	472.94
1031.656	480.62
1031.945	455.54
1032.233	472.26
1032.522	462.54
1032.81	452.83
1033.099	458.48
1033.387	469.32
1033.675	470.91
1033.963	474.97
1034.251	464.13
1034.54	460.28
1034.828	460.28
1035.116	459.61
1035.403	450.79
1035.691	438.36
1035.979	458.48
1036.267	451.92
1036.554	458.02
1036.842	447.63
1037.129	441.53
1037.417	465.03
1037.704	452.15
1037.992	446.95
1038.279	458.48
1038.566	417.8
1038.853	417.8
1039.14	417.8
