Data from carpet_green_FLMS001491_00031.txt Node
Date: Wed Feb 08 10:35:16 GMT 2017
User: dcchb
Spectrometer: FLMS00149
Trigger mode: 0
Integration Time (sec): 2.000000E-2
Scans to average: 10
Electric dark correction enabled: true
Nonlinearity correction enabled: false
Boxcar width: 0
XAxis mode: Wavelengths
Number of Pixels in Spectrum: 2048
>>>>>Begin Spectral Data<<<<<
341.393	0.78
341.776	0.78
342.16	0.78
342.543	-54.14
342.927	-67.47
343.31	-78.32
343.693	-61.59
344.077	-75.15
344.46	-55.04
344.843	-47.81
345.226	-39.22
345.61	-18.88
345.993	-42.16
346.376	-12.1
346.759	35.35
347.142	17.27
347.525	58.85
347.908	52.3
348.291	70.61
348.674	87.1
349.057	108.8
349.44	125.97
349.823	143.15
350.206	148.8
350.588	179.98
350.971	168.91
351.354	196.03
351.737	224.73
352.119	203.26
352.502	241.45
352.884	254.33
353.267	258.4
353.65	265.63
354.032	274.89
354.414	273.76
354.797	285.74
355.179	280.77
355.562	304.95
355.944	294.33
356.326	306.31
356.709	304.27
357.091	293.2
357.473	315.57
357.855	311.73
358.238	299.75
358.62	323.48
359.002	300.43
359.384	325.97
359.766	318.06
360.148	306.08
360.53	294.33
360.912	309.47
361.294	315.34
361.676	317.38
362.057	297.72
362.439	314.44
362.821	321.45
363.203	301.33
363.584	305.63
363.966	295.68
364.348	294.78
364.729	287.77
365.111	297.27
365.493	285.06
365.874	263.37
366.256	301.33
366.637	286.87
367.019	290.94
367.4	307.89
367.781	278.06
368.163	293.88
368.544	278.28
368.925	280.32
369.306	297.49
369.688	267.44
370.069	273.09
370.45	294.78
370.831	294.33
371.212	285.74
371.593	265.4
371.974	269.24
372.355	282.13
372.736	288.68
373.117	270.6
373.498	264.72
373.879	278.28
374.26	274.89
374.641	288.45
375.021	288
375.402	274.89
375.783	299.07
376.163	292.75
376.544	295.91
376.925	307.21
377.305	281.22
377.686	286.19
378.066	291.16
378.447	281.67
378.827	287.55
379.208	283.71
379.588	297.49
379.968	288
380.349	271.96
380.729	305.63
381.109	303.59
381.489	293.42
381.87	306.76
382.25	291.62
382.63	306.31
383.01	286.87
383.39	307.66
383.77	289.81
384.15	294.55
384.53	298.17
384.91	289.13
385.29	306.98
385.67	302.69
386.049	291.39
386.429	299.53
386.809	314.67
387.189	332.75
387.568	321.22
387.948	303.37
388.328	294.78
388.707	306.98
389.087	309.7
389.466	295.01
389.846	299.07
390.225	306.31
390.605	313.99
390.984	294.55
391.363	311.05
391.743	295.91
392.122	296.36
392.501	306.53
392.881	304.27
393.26	327.1
393.639	310.37
394.018	312.41
394.397	306.98
394.776	286.42
395.155	302.24
395.534	294.55
395.913	290.71
396.292	314.67
396.671	306.08
397.05	317.15
397.429	306.98
397.808	296.36
398.186	313.99
398.565	300.88
398.944	302.92
399.323	314.67
399.701	321.67
400.08	308.34
400.458	307.44
400.837	314.21
401.215	307.21
401.594	317.38
401.972	318.96
402.351	325.97
402.729	327.1
403.107	331.39
403.486	320.77
403.864	303.14
404.242	327.55
404.62	318.51
404.999	331.16
405.377	343.82
405.755	316.47
406.133	300.43
406.511	321.45
406.889	328.45
407.267	333.42
407.645	320.77
408.023	332.75
408.401	329.58
408.779	327.77
409.156	329.81
409.534	337.04
409.912	326.42
410.29	305.4
410.667	337.04
411.045	337.49
411.422	323.03
411.8	308.57
412.178	326.42
412.555	331.62
412.933	327.77
413.31	329.13
413.687	325.51
414.065	334.33
414.442	346.3
414.819	353.31
415.197	343.37
415.574	327.77
415.951	341.11
416.328	316.25
416.705	316.7
417.082	348.79
417.46	328.45
417.837	314.89
418.214	335.46
418.591	356.25
418.967	350.37
419.344	343.37
419.721	345.4
420.098	339.98
420.475	344.72
420.852	336.36
421.228	358.73
421.605	337.72
421.982	352.86
422.358	357.38
422.735	351.28
423.111	346.53
423.488	344.5
423.864	330.49
424.241	343.14
424.617	363.48
424.994	358.73
425.37	344.04
425.746	365.74
426.123	381.11
426.499	369.13
426.875	361.9
427.251	353.31
427.627	346.53
428.003	347.66
428.379	360.32
428.756	368.45
429.132	361.22
429.507	321.22
429.883	355.57
430.259	364.61
430.635	365.29
431.011	336.81
431.387	371.61
431.763	377.26
432.138	368.45
432.514	362.8
432.89	351.73
433.265	374.55
433.641	373.42
434.016	361.67
434.392	361.9
434.767	359.64
435.143	378.17
435.518	375
435.894	381.11
436.269	379.52
436.644	365.96
437.02	366.87
437.395	366.19
437.77	403.93
438.145	380.43
438.52	383.59
438.895	379.07
439.271	373.65
439.646	365.96
440.021	365.06
440.395	362.58
440.77	377.26
441.145	375.46
441.52	383.59
441.895	395.79
442.27	381.56
442.645	389.24
443.019	393.53
443.394	402.12
443.769	389.69
444.143	385.4
444.518	377.04
444.892	403.7
445.267	402.12
445.641	403.48
446.016	378.39
446.39	389.69
446.764	418.39
447.139	386.08
447.513	404.61
447.887	413.2
448.262	391.05
448.636	414.78
449.01	411.84
449.384	390.15
449.758	390.82
450.132	414.1
450.506	408.9
450.88	422.91
451.254	400.54
451.628	402.57
452.002	424.49
452.376	409.58
452.75	418.39
453.123	429.01
453.497	430.37
453.871	433.31
454.244	435.79
454.618	430.14
454.992	430.37
455.365	441.22
455.739	423.59
456.112	430.6
456.486	410.94
456.859	418.84
457.232	437.6
457.606	430.82
457.979	446.19
458.352	449.35
458.725	442.8
459.099	440.77
459.472	474.66
459.845	449.35
460.218	458.62
460.591	486.41
460.964	465.62
461.337	460.65
461.71	444.38
462.083	483.7
462.456	456.58
462.829	478.96
463.201	465.85
463.574	455.68
463.947	486.19
464.32	492.52
464.692	484.15
465.065	485.28
465.438	500.2
465.81	473.31
466.183	488.45
466.555	487.32
466.928	510.14
467.3	497.26
467.672	477.83
468.045	508.33
468.417	511.05
468.789	501.78
469.161	524.38
469.534	507.88
469.906	516.7
470.278	503.14
470.65	523.47
471.022	532.29
471.394	528.22
471.766	526.64
472.138	542.91
472.51	560.99
472.882	558.28
473.253	561.44
473.625	539.29
473.997	568.22
474.369	576.35
474.74	572.97
475.112	572.97
475.484	586.98
475.855	582.68
476.227	600.31
476.598	599.63
476.97	610.25
477.341	625.39
477.713	628.78
478.084	640.08
478.455	647.31
478.827	630.36
479.198	652.06
479.569	662
479.94	665.39
480.311	666.52
480.682	676.47
481.053	679.86
481.424	663.58
481.795	688.44
482.166	706.07
482.537	701.55
482.908	688.67
483.279	725.28
483.65	730.25
484.021	744.71
484.391	723.02
484.762	742.68
485.133	748.55
485.503	763.69
485.874	780.42
486.244	760.3
486.615	789
486.985	789.91
487.356	797.14
487.726	799.85
488.097	806.18
488.467	823.13
488.837	843.01
489.207	871.04
489.578	833.75
489.948	845.05
490.318	845.27
490.688	866.52
491.058	865.84
491.428	870.81
491.798	869.45
492.168	879.62
492.538	898.15
492.908	902
493.278	919.62
493.648	912.17
494.017	909.68
494.387	951.94
494.757	928.44
495.126	924.37
495.496	928.21
495.866	937.02
496.235	959.62
496.605	965.27
496.974	949.9
497.344	985.61
497.713	972.95
498.082	984.25
498.452	1011.6
498.821	998.72
499.19	1015.21
499.559	1017.7
499.928	1028.09
500.298	1019.96
500.667	1017.7
501.036	1011.15
501.405	1029.45
501.774	1048.21
502.143	1025.61
502.512	1057.92
502.88	1054.53
503.249	1051.14
503.618	1051.6
503.987	1046.4
504.356	1038.72
504.724	1037.81
505.093	1071.94
505.462	1049.34
505.83	1057.7
506.199	1070.35
506.567	1058.38
506.936	1072.16
507.304	1104.02
507.672	1107.64
508.041	1103.35
508.409	1118.94
508.777	1097.47
509.145	1100.86
509.514	1088.88
509.882	1100.86
510.25	1090.69
510.618	1091.14
510.986	1128.66
511.354	1140.63
511.722	1117.81
512.09	1149.45
512.458	1132.95
512.826	1156.45
513.193	1146.51
513.561	1151.93
513.929	1158.94
514.297	1153.29
514.664	1162.55
515.032	1177.92
515.4	1170.92
515.767	1176.11
516.135	1185.6
516.502	1182.89
516.869	1187.64
517.237	1165.49
517.604	1199.84
517.972	1189.9
518.339	1203.01
518.706	1188.32
519.073	1224.25
519.44	1209.78
519.808	1212.72
520.175	1233.51
520.542	1204.59
520.909	1219.73
521.276	1221.54
521.643	1237.13
522.009	1258.14
522.376	1250.69
522.743	1258.6
523.11	1260.18
523.477	1286.39
523.843	1283.23
524.21	1280.07
524.577	1293.85
524.943	1280.74
525.31	1292.04
525.676	1280.74
526.043	1310.8
526.409	1320.29
526.776	1315.09
527.142	1319.39
527.508	1304.02
527.874	1337.92
528.241	1340.85
528.607	1302.44
528.973	1337.69
529.339	1340.85
529.705	1351.02
530.071	1338.37
530.437	1352.61
530.803	1377.92
531.169	1354.87
531.535	1328.88
531.901	1345.83
532.267	1348.76
532.632	1350.35
532.998	1357.58
533.364	1348.54
533.73	1380.85
534.095	1362.55
534.461	1379.72
534.826	1363.23
535.192	1368.65
535.557	1369.1
535.923	1387.41
536.288	1368.88
536.653	1406.39
537.019	1368.42
537.384	1396.22
537.749	1367.97
538.114	1376.56
538.479	1401.19
538.845	1360.29
539.21	1391.47
539.575	1413.62
539.94	1381.31
540.305	1376.11
540.67	1381.53
541.034	1385.37
541.399	1368.42
541.764	1393.73
542.129	1345.6
542.494	1388.54
542.858	1381.31
543.223	1366.16
543.587	1408.65
543.952	1354.87
544.316	1413.17
544.681	1404.58
545.045	1392.15
545.41	1385.6
545.774	1396.22
546.138	1409.78
546.503	1376.33
546.867	1388.54
547.231	1408.42
547.595	1405.49
547.959	1401.42
548.324	1391.7
548.688	1386.73
549.052	1384.02
549.416	1412.04
549.779	1410.23
550.143	1413.85
550.507	1406.84
550.871	1395.09
551.235	1391.93
551.599	1391.47
551.962	1403.23
552.326	1419.27
552.689	1423.79
553.053	1402.32
553.417	1454.52
553.78	1396.45
554.143	1427.41
554.507	1454.3
554.87	1421.53
555.234	1441.87
555.597	1419.5
555.96	1419.5
556.323	1427.41
556.686	1448.42
557.05	1437.12
557.413	1455.43
557.776	1442.32
558.139	1448.65
558.502	1452.49
558.865	1463.34
559.228	1479.61
559.59	1457.69
559.953	1458.59
560.316	1471.92
560.679	1467.4
561.041	1480.74
561.404	1470.79
561.767	1473.28
562.129	1460.63
562.492	1454.3
562.854	1471.02
563.217	1508.31
563.579	1477.57
563.941	1497.69
564.304	1514.18
564.666	1481.64
565.028	1510.57
565.39	1513.28
565.753	1499.49
566.115	1500.4
566.477	1502.21
566.839	1507.63
567.201	1509.89
567.563	1513.05
567.925	1516.67
568.287	1481.64
568.648	1524.8
569.01	1492.49
569.372	1520.28
569.734	1509.66
570.095	1538.36
570.457	1495.88
570.819	1514.18
571.18	1523
571.542	1561.41
571.903	1508.31
572.265	1515.54
572.626	1523.22
572.987	1525.71
573.349	1535.88
573.71	1567.74
574.071	1556.44
574.432	1526.16
574.794	1540.4
575.155	1525.03
575.516	1523.67
575.877	1534.97
576.238	1550.57
576.599	1529.55
576.96	1514.86
577.32	1523.9
577.681	1498.14
578.042	1548.76
578.403	1530.45
578.763	1533.17
579.124	1539.04
579.485	1547.63
579.845	1511.92
580.206	1495.88
580.566	1528.42
580.927	1526.61
581.287	1507.4
581.648	1519.38
582.008	1528.19
582.368	1526.16
582.728	1537.46
583.089	1516.67
583.449	1544.24
583.809	1511.92
584.169	1509.44
584.529	1499.72
584.889	1508.53
585.249	1492.94
585.609	1473.73
585.969	1504.24
586.329	1504.92
586.688	1490.46
587.048	1504.47
587.408	1506.5
587.768	1479.83
588.127	1484.13
588.487	1508.08
588.846	1498.14
589.206	1461.53
589.565	1469.44
589.925	1461.53
590.284	1494.97
590.643	1465.82
591.003	1455.2
591.362	1474.41
591.721	1490
592.08	1472.6
592.44	1477.8
592.799	1458.37
593.158	1472.83
593.517	1463.79
593.876	1465.6
594.235	1477.35
594.593	1463.11
594.952	1460.63
595.311	1491.36
595.67	1444.81
596.029	1464.02
596.387	1476.44
596.746	1480.96
597.104	1458.59
597.463	1467.86
597.822	1459.04
598.18	1455.43
598.538	1470.79
598.897	1471.7
599.255	1466.5
599.613	1453.39
599.972	1459.27
600.33	1490.91
600.688	1470.34
601.046	1475.09
601.404	1470.79
601.762	1468.99
602.12	1466.73
602.478	1482.77
602.836	1459.95
603.194	1462.66
603.552	1484.13
603.91	1473.73
604.268	1461.3
604.625	1471.7
604.983	1474.86
605.341	1495.65
605.698	1508.08
606.056	1465.82
606.413	1498.14
606.771	1484.81
607.128	1490
607.485	1496.78
607.843	1499.49
608.2	1529.55
608.557	1498.59
608.914	1489.33
609.272	1523.45
609.629	1478.93
609.986	1517.57
610.343	1477.35
610.7	1499.27
611.057	1509.21
611.414	1496.1
611.771	1509.89
612.127	1522.32
612.484	1508.99
612.841	1542.43
613.198	1520.51
613.554	1511.25
613.911	1549.89
614.267	1523.9
614.624	1504.92
614.98	1496.78
615.337	1532.26
615.693	1508.99
616.05	1527.97
616.406	1515.09
616.762	1524.8
617.118	1508.08
617.475	1521.19
617.831	1538.82
618.187	1510.12
618.543	1495.2
618.899	1559.15
619.255	1516.22
619.611	1517.12
619.967	1546.72
620.323	1566.84
620.678	1540.4
621.034	1518.7
621.39	1545.82
621.746	1532.04
622.101	1522.09
622.457	1528.65
622.812	1519.83
623.168	1518.48
623.523	1553.5
623.879	1538.14
624.234	1515.99
624.589	1518.7
624.945	1534.97
625.3	1550.57
625.655	1537.23
626.01	1545.59
626.365	1527.52
626.72	1530.91
627.075	1544.69
627.43	1508.08
627.785	1526.61
628.14	1520.06
628.495	1537.46
628.85	1498.36
629.205	1548.76
629.559	1541.53
629.914	1546.05
630.269	1540.4
630.623	1522.77
630.978	1502.88
631.332	1506.95
631.687	1531.13
632.041	1516.67
632.396	1504.69
632.75	1497.01
633.104	1514.41
633.459	1508.76
633.813	1482.32
634.167	1524.13
634.521	1494.3
634.875	1509.21
635.229	1513.73
635.583	1489.1
635.937	1481.87
636.291	1521.87
636.645	1497.69
636.999	1511.25
637.352	1517.8
637.706	1499.95
638.06	1512.15
638.413	1492.26
638.767	1500.85
639.121	1497.46
639.474	1511.25
639.828	1506.73
640.181	1524.13
640.534	1509.89
640.888	1489.78
641.241	1500.62
641.594	1512.15
641.947	1497.23
642.301	1527.29
642.654	1511.25
643.007	1519.15
643.36	1515.31
643.713	1484.13
644.066	1495.2
644.419	1505.6
644.771	1492.04
645.124	1492.49
645.477	1497.46
645.83	1440.96
646.182	1502.21
646.535	1503.79
646.888	1490.91
647.24	1482.09
647.593	1481.19
647.945	1500.17
648.298	1495.2
648.65	1497.23
649.002	1534.07
649.355	1504.24
649.707	1485.94
650.059	1518.25
650.411	1530.91
650.763	1536.1
651.115	1537.01
651.467	1541.3
651.819	1540.4
652.171	1600.73
652.523	1547.4
652.875	1545.37
653.227	1548.53
653.578	1544.47
653.93	1557.8
654.282	1584.24
654.633	1572.71
654.985	1584.01
655.337	1604.58
655.688	1590.79
656.039	1614.97
656.391	1584.01
656.742	1609.1
657.094	1599.15
657.445	1596.89
657.796	1606.84
658.147	1639.83
658.498	1620.85
658.849	1641.41
659.2	1679.6
659.551	1673.95
659.902	1683.67
660.253	1690.68
660.604	1671.02
660.955	1652.71
661.306	1693.84
661.656	1682.09
662.007	1718.02
662.358	1732.26
662.708	1714.4
663.059	1719.83
663.409	1728.87
663.76	1748.08
664.11	1738.13
664.461	1779.71
664.811	1787.62
665.161	1786.04
665.511	1802.99
665.862	1816.55
666.212	1827.4
666.562	1803.22
666.912	1877.56
667.262	1838.92
667.612	1842.08
667.962	1867.85
668.312	1884.12
668.662	1921.18
669.011	1913.27
669.361	1916.66
669.711	1928.86
670.06	1958.01
670.41	1943.78
670.76	1995.98
671.109	1960.05
671.459	1983.1
671.808	1999.82
672.157	2012.93
672.507	2033.27
672.856	2045.24
673.205	2059.48
673.554	2074.62
673.904	2084.79
674.253	2105.13
674.602	2117.56
674.951	2086.15
675.3	2116.65
675.649	2117.33
675.998	2149.65
676.346	2193.94
676.695	2195.52
677.044	2217.44
677.393	2200.27
677.741	2215.18
678.09	2242.3
678.438	2285.46
678.787	2313.94
679.135	2290.21
679.484	2321.62
679.832	2329.53
680.181	2351.68
680.529	2400.71
680.877	2379.7
681.225	2400.71
681.573	2410.2
681.922	2424.44
682.27	2427.61
682.618	2452.01
682.966	2465.8
683.314	2483.88
683.661	2544.44
684.009	2543.31
684.357	2504.44
684.705	2583.53
685.053	2551.9
685.4	2592.35
685.748	2642.29
686.095	2640.26
686.443	2665.57
686.79	2641.39
687.138	2689.29
687.485	2684.55
687.832	2747.15
688.18	2718.67
688.527	2754.38
688.874	2775.39
689.221	2778.33
689.568	2810.87
689.915	2833.7
690.262	2867.14
690.609	2875.73
690.956	2890.19
691.303	2929.06
691.65	2860.81
691.997	2910.98
692.344	2963.86
692.69	2972.22
693.037	2977.87
693.383	2995.73
693.73	3019.91
694.077	3021.49
694.423	3075.72
694.769	3072.79
695.116	3077.53
695.462	3054.48
695.808	3118.21
696.155	3126.12
696.501	3140.58
696.847	3173.35
697.193	3141.26
697.539	3155.72
697.885	3173.57
698.231	3195.72
698.577	3209.51
698.923	3254.7
699.269	3244.76
699.614	3285.44
699.96	3247.92
700.306	3278.43
700.651	3340.12
700.997	3350.75
701.342	3395.04
701.688	3355.72
702.033	3391.2
702.379	3409.73
702.724	3426.45
703.069	3493.34
703.415	3451.99
703.76	3421.25
704.105	3487.69
704.45	3481.59
704.795	3497.63
705.14	3482.27
705.485	3490.85
705.83	3521.14
706.175	3523.62
706.52	3502.61
706.865	3583.51
707.209	3598.65
707.554	3618.53
707.899	3672.54
708.243	3607.24
708.588	3625.09
708.932	3628.93
709.277	3672.54
709.621	3658.53
709.966	3695.14
710.31	3686.56
710.654	3722.94
710.998	3709.15
711.342	3710.06
711.687	3704.18
712.031	3777.85
712.375	3727.01
712.719	3748.7
713.063	3785.99
713.407	3836.38
713.75	3793.22
714.094	3811.52
714.438	3852.2
714.782	3878.87
715.125	3847
715.469	3858.53
715.812	3827.79
716.156	3825.76
716.499	3892.65
716.843	3909.83
717.186	3895.59
717.53	3880
717.873	3902.37
718.216	3936.94
718.559	3953.44
718.902	3945.76
719.246	3941.92
719.589	3923.61
719.932	3938.75
720.275	3988.02
720.617	3970.16
720.96	4014.91
721.303	3989.37
721.646	3986.21
721.989	3990.5
722.331	4013.33
722.674	4005.64
723.016	4040.22
723.359	4006.32
723.701	4020.33
724.044	4039.09
724.386	4063.95
724.729	4068.92
725.071	4056.04
725.413	4087
725.755	4097.39
726.097	4121.8
726.439	4072.76
726.782	4076.83
727.124	4117.96
727.465	4094.23
727.807	4105.3
728.149	4131.06
728.491	4097.84
728.833	4112.53
729.175	4096.49
729.516	4132.87
729.858	4106.66
730.199	4154.57
730.541	4131.06
730.882	4107.34
731.224	4097.39
731.565	4164.28
731.906	4160.67
732.248	4170.16
732.589	4091.97
732.93	4183.49
733.271	4151.85
733.612	4178.75
733.953	4164.28
734.294	4137.17
734.635	4150.27
734.976	4187.79
735.317	4147.79
735.658	4143.27
735.999	4099.88
736.339	4146.88
736.68	4182.81
737.021	4155.24
737.361	4130.61
737.702	4174.23
738.042	4147.33
738.383	4132.19
738.723	4135.81
739.063	4183.27
739.404	4147.79
739.744	4134.68
740.084	4151.4
740.424	4145.3
740.764	4149.37
741.104	4153.66
741.444	4113.66
741.784	4157.5
742.124	4152.76
742.464	4148.69
742.804	4111.86
743.143	4160.22
743.483	4134.45
743.823	4136.04
744.162	4115.02
744.502	4106.88
744.841	4161.35
745.181	4143.27
745.52	4125.41
745.86	4156.6
746.199	4124.74
746.538	4090.16
746.877	4110.95
747.216	4140.33
747.556	4116.37
747.895	4127.22
748.234	4102.82
748.573	4063.72
748.911	4084.96
749.25	4077.73
749.589	4091.29
749.928	4091.97
750.267	4051.52
750.605	4087
750.944	4041.35
751.283	4069.37
751.621	4070.5
751.96	4030.28
752.298	4071.86
752.636	4014.68
752.975	3957.96
753.313	4013.78
753.651	4040.22
753.989	4009.94
754.327	4008.13
754.666	3969.49
755.004	4006.77
755.342	3992.76
755.679	3995.02
756.017	3950.5
756.355	3949.15
756.693	3940.11
757.031	3928.13
757.368	3925.65
757.706	3909.6
758.044	3923.84
758.381	3916.83
758.719	3920.67
759.056	3902.6
759.394	3928.36
759.731	3889.94
760.068	3879.54
760.405	3841.81
760.743	3794.12
761.08	3877.74
761.417	3830.96
761.754	3838.42
762.091	3839.77
762.428	3834.57
762.765	3806.55
763.102	3804.07
763.438	3807.68
763.775	3746.22
764.112	3745.31
764.449	3743.5
764.785	3713.45
765.122	3730.85
765.458	3735.82
765.795	3728.14
766.131	3667.12
766.467	3710.28
766.804	3674.35
767.14	3633.45
767.476	3654.24
767.812	3659.44
768.148	3635.26
768.485	3670.96
768.821	3592.77
769.157	3570.17
769.492	3605.43
769.828	3601.36
770.164	3572.21
770.5	3545.77
770.836	3556.39
771.171	3545.99
771.507	3536.28
771.842	3494.24
772.178	3508.93
772.513	3528.59
772.849	3508.71
773.184	3505.77
773.519	3509.16
773.855	3463.28
774.19	3456.28
774.525	3475.04
774.86	3448.6
775.195	3435.94
775.53	3423.29
775.865	3428.71
776.2	3389.16
776.535	3361.82
776.87	3371.31
777.205	3339.67
777.539	3354.81
777.874	3363.17
778.209	3307.81
778.543	3320.69
778.878	3268.26
779.212	3304.64
779.547	3307.13
779.881	3305.77
780.215	3256.51
780.55	3305.77
780.884	3268.71
781.218	3219.68
781.552	3281.59
781.886	3235.04
782.22	3245.89
782.554	3192.33
782.888	3172.22
783.222	3214.03
783.556	3158.21
783.889	3161.6
784.223	3139.45
784.557	3161.82
784.89	3146.46
785.224	3064.43
785.557	3095.38
785.891	3075.5
786.224	3110.07
786.558	3077.08
786.891	3078.44
787.224	3069.4
787.557	3056.52
787.891	3032.79
788.224	3063.07
788.557	3049.74
788.89	3041.15
789.223	2993.24
789.556	3017.42
789.888	3060.13
790.221	2977.2
790.554	2986.46
790.887	2947.14
791.219	2953.02
791.552	2969.96
791.884	2955.95
792.217	2950.76
792.549	2889.51
792.882	2922.96
793.214	2906.24
793.546	2924.77
793.879	2938.1
794.211	2873.47
794.543	2881.38
794.875	2884.32
795.207	2897.2
795.539	2855.62
795.871	2852.91
796.203	2844.54
796.535	2796.64
796.867	2828.73
797.198	2805
797.53	2792.57
797.862	2810.65
798.193	2819.01
798.525	2777.2
798.856	2769.52
799.188	2740.14
799.519	2743.98
799.85	2729.97
800.182	2738.56
800.513	2758.67
800.844	2732.23
801.175	2746.92
801.506	2739.24
801.837	2723.19
802.168	2716.86
802.499	2695.85
802.83	2695.17
803.161	2640.26
803.491	2677.32
803.822	2666.47
804.153	2636.64
804.483	2653.81
804.814	2625.57
805.145	2621.05
805.475	2618.79
805.805	2584.89
806.136	2608.84
806.466	2620.82
806.796	2597.77
807.126	2598.67
807.457	2572.91
807.787	2610.43
808.117	2587.6
808.447	2575.62
808.777	2562.74
809.107	2552.8
809.436	2544.89
809.766	2561.39
810.096	2568.17
810.426	2539.92
810.755	2555.51
811.085	2560.71
811.414	2507.6
811.744	2500.82
812.073	2464.89
812.403	2447.72
812.732	2449.07
813.061	2482.29
813.39	2511.67
813.719	2447.27
814.049	2485.68
814.378	2477.1
814.707	2469.19
815.036	2447.94
815.365	2436.87
815.693	2427.15
816.022	2438.68
816.351	2423.99
816.68	2418.11
817.008	2409.98
817.337	2436.64
817.665	2440.71
817.994	2384.22
818.322	2435.52
818.651	2382.18
818.979	2377.89
819.307	2379.7
819.636	2388.06
819.964	2388.51
820.292	2377.66
820.62	2368.17
820.948	2334.5
821.276	2364.56
821.604	2359.13
821.932	2359.58
822.259	2382.18
822.587	2358.91
822.915	2367.49
823.243	2379.02
823.57	2354.16
823.898	2381.51
824.225	2359.58
824.553	2367.49
824.88	2343.99
825.207	2361.62
825.535	2364.56
825.862	2343.31
826.189	2361.62
826.516	2363.65
826.843	2381.05
827.17	2385.8
827.497	2364.56
827.824	2403.2
828.151	2367.27
828.478	2332.69
828.805	2369.75
829.131	2367.27
829.458	2377.89
829.785	2367.72
830.111	2332.01
830.438	2369.75
830.764	2376.76
831.09	2366.59
831.417	2301.96
831.743	2352.35
832.069	2343.54
832.395	2339.25
832.722	2327.95
833.048	2334.73
833.374	2311.9
833.7	2337.66
834.026	2308.96
834.351	2318.46
834.677	2348.96
835.003	2321.85
835.329	2322.75
835.654	2309.42
835.98	2324.11
836.306	2316.87
836.631	2341.28
836.956	2322.98
837.282	2297.44
837.607	2333.6
837.932	2307.38
838.258	2276.88
838.583	2294.28
838.908	2284.78
839.233	2295.63
839.558	2297.67
839.883	2287.5
840.208	2247.95
840.533	2257.44
840.858	2256.54
841.182	2307.38
841.507	2289.08
841.832	2266.25
842.156	2261.51
842.481	2266.48
842.805	2257.44
843.13	2270.77
843.454	2229.64
843.778	2228.97
844.103	2241.62
844.427	2220.15
844.751	2223.77
845.075	2226.71
845.399	2185.13
845.723	2240.94
846.047	2199.36
846.371	2210.89
846.695	2191
847.019	2165.01
847.343	2165.24
847.666	2176.31
847.99	2163.43
848.313	2107.84
848.637	2146.94
848.96	2108.74
849.284	2113.26
849.607	2123.43
849.931	2138.12
850.254	2117.33
850.577	2120.5
850.9	2092.7
851.223	2101.06
851.546	2069.2
851.869	2067.62
852.192	2081.85
852.515	2032.81
852.838	2075.52
853.161	2056.32
853.483	2027.16
853.806	2031.91
854.129	2033.49
854.451	2019.93
854.774	2023.77
855.096	1995.3
855.419	1993.72
855.741	1979.71
856.063	1977
856.385	2007.28
856.708	2000.05
857.03	1968.86
857.352	1971.12
857.674	1973.61
857.996	1947.84
858.318	1953.95
858.64	1955.08
858.961	1959.6
859.283	1952.36
859.605	1937.9
859.926	1934.29
860.248	1914.4
860.57	1905.36
860.891	1915.75
861.212	1926.6
861.534	1915.53
861.855	1895.19
862.176	1903.55
862.498	1901.07
862.819	1905.36
863.14	1932.48
863.461	1904.68
863.782	1878.92
864.103	1870.78
864.424	1886.6
864.745	1889.09
865.065	1886.38
865.386	1904.68
865.707	1873.04
866.027	1845.47
866.348	1889.09
866.668	1867.62
866.989	1856.77
867.309	1865.36
867.63	1870.78
867.95	1840.95
868.27	1824.68
868.59	1874.17
868.91	1852.48
869.23	1881.18
869.55	1837.79
869.87	1844.8
870.19	1821.52
870.51	1853.16
870.83	1819.94
871.15	1852.03
871.469	1878.02
871.789	1818.13
872.109	1825.81
872.428	1830.11
872.748	1827.62
873.067	1824.01
873.386	1797.34
873.706	1822.88
874.025	1768.64
874.344	1814.06
874.663	1806.15
874.982	1781.75
875.301	1815.64
875.62	1799.6
875.939	1809.09
876.258	1815.64
876.577	1800.96
876.896	1809.32
877.214	1806.61
877.533	1790.33
877.852	1778.58
878.17	1787.4
878.489	1786.72
878.807	1800.73
879.125	1809.77
879.444	1786.72
879.762	1783.1
880.08	1799.83
880.398	1770.67
880.716	1754.85
881.034	1757.57
881.352	1736.1
881.67	1761.41
881.988	1741.52
882.306	1758.02
882.624	1758.92
882.941	1720.51
883.259	1739.71
883.577	1742.88
883.894	1715.99
884.212	1733.84
884.529	1721.41
884.846	1724.35
885.164	1677.12
885.481	1707.17
885.798	1733.84
886.115	1715.08
886.432	1692.71
886.75	1711.69
887.067	1698.13
887.383	1744.01
887.7	1667.63
888.017	1702.88
888.334	1692.94
888.651	1664.46
888.967	1672.15
889.284	1675.76
889.6	1672.15
889.917	1678.47
890.233	1641.86
890.55	1657.68
890.866	1652.94
891.182	1620.4
891.498	1645.93
891.815	1646.84
892.131	1627.4
892.447	1645.48
892.763	1645.71
893.079	1626.27
893.395	1610
893.71	1636.21
894.026	1607.51
894.342	1625.14
894.657	1589.89
894.973	1625.14
895.289	1615.42
895.604	1585.14
895.92	1590.11
896.235	1608.64
896.55	1581.53
896.865	1591.47
897.181	1577.91
897.496	1576.1
897.811	1573.16
898.126	1543.79
898.441	1570.23
898.756	1553.73
899.071	1530.23
899.386	1571.58
899.7	1531.58
900.015	1539.27
900.33	1536.1
900.644	1547.18
900.959	1525.71
901.273	1518.93
901.588	1526.61
901.902	1520.06
902.216	1521.64
902.531	1487.74
902.845	1490
903.159	1486.16
903.473	1506.5
903.787	1476.67
904.101	1475.77
904.415	1474.86
904.729	1480.96
905.042	1458.37
905.356	1448.2
905.67	1479.83
905.984	1451.81
906.297	1473.51
906.611	1480.29
906.924	1437.8
907.237	1419.95
907.551	1433.06
907.864	1412.04
908.177	1421.53
908.491	1434.41
908.804	1418.59
909.117	1405.71
909.43	1390.8
909.743	1405.94
910.056	1405.03
910.368	1402.77
910.681	1400.97
910.994	1362.32
911.307	1403.45
911.619	1383.79
911.932	1402.32
912.244	1345.15
912.557	1382.89
912.869	1350.35
913.181	1330.69
913.494	1341.08
913.806	1349.22
914.118	1319.61
914.43	1332.72
914.742	1327.97
915.054	1314.19
915.366	1305.83
915.678	1313.28
915.99	1332.49
916.302	1309.67
916.613	1310.8
916.925	1292.49
917.236	1320.06
917.548	1290.46
917.859	1308.77
918.171	1268.09
918.482	1290.01
918.794	1293.85
919.105	1265.6
919.416	1260.63
919.727	1279.61
920.038	1257.92
920.349	1268.09
920.66	1241.87
920.971	1259.05
921.282	1246.85
921.593	1253.85
921.903	1223.57
922.214	1219.28
922.525	1207.07
922.835	1226.06
923.146	1203.46
923.456	1240.97
923.767	1178.15
924.077	1213.17
924.387	1211.82
924.697	1196
925.008	1185.15
925.318	1186.51
925.628	1185.6
925.938	1219.73
926.248	1192.38
926.558	1193.97
926.867	1164.81
927.177	1166.4
927.487	1167.3
927.796	1152.84
928.106	1162.55
928.416	1143.8
928.725	1153.29
929.034	1155.77
929.344	1152.38
929.653	1131.59
929.962	1142.22
930.271	1133.18
930.581	1115.55
930.89	1119.39
931.199	1118.94
931.508	1107.64
931.817	1129.56
932.125	1119.62
932.434	1103.35
932.743	1085.49
933.051	1111.93
933.36	1137.02
933.669	1108.54
933.977	1101.31
934.286	1097.02
934.594	1087.3
934.902	1061.54
935.21	1064.48
935.519	1089.34
935.827	1064.48
936.135	1089.34
936.443	1081.2
936.751	1056.79
937.059	1061.09
937.367	1043.46
937.674	1055.21
937.982	1036.23
938.29	1055.66
938.597	1042.11
938.905	1036.68
939.213	1013.63
939.52	1035.78
939.827	1047.75
940.135	1029.9
940.442	1047.3
940.749	1020.86
941.056	1022.67
941.363	994.87
941.67	996.68
941.977	1007.98
942.284	1012.28
942.591	1010.02
942.898	986.74
943.205	996.23
943.511	970.47
943.818	983.35
944.125	990.13
944.431	979.28
944.738	997.59
945.044	972.28
945.35	948.77
945.657	980.41
945.963	996.23
946.269	948.77
946.575	974.76
946.881	950.58
947.187	977.47
947.493	946.74
947.799	956.01
948.105	956.01
948.41	961.66
948.716	939.06
949.022	906.52
949.327	950.81
949.633	934.31
949.938	939.06
950.244	922.33
950.549	920.07
950.854	944.48
951.16	927.76
951.465	933.63
951.77	913.75
952.075	903.35
952.38	917.14
952.685	906.29
952.99	896.35
953.294	889.79
953.599	890.02
953.904	893.86
954.209	894.54
954.513	890.02
954.818	893.86
955.122	897.7
955.426	908.78
955.731	890.7
956.035	888.66
956.339	856.8
956.643	879.17
956.948	879.62
957.252	857.7
957.556	878.72
957.86	873.75
958.163	852.05
958.467	866.06
958.771	861.55
959.075	859.06
959.378	840.98
959.682	874.88
959.985	854.09
960.289	857.48
960.592	847.31
960.896	817.93
961.199	853.86
961.502	807.76
961.805	835.33
962.108	814.77
962.411	812.28
962.714	817.7
963.017	793.75
963.32	814.77
963.623	824.94
963.926	829.46
964.228	809.57
964.531	819.06
964.833	803.92
965.136	799.17
965.438	819.06
965.741	807.54
966.043	800.76
966.345	796.24
966.648	796.91
966.95	788.1
967.252	773.86
967.554	779.29
967.856	780.64
968.158	760.98
968.46	762.34
968.761	791.26
969.063	778.84
969.365	773.41
969.666	779.51
969.968	788.55
970.269	764.82
970.571	750.36
970.872	745.16
971.174	767.08
971.475	773.19
971.776	777.93
972.077	763.47
972.378	768.89
972.679	733.41
972.98	743.36
973.281	752.4
973.582	768.89
973.883	742.9
974.183	734.99
974.484	715.33
974.785	733.86
975.085	711.72
975.386	733.86
975.686	722.11
975.986	717.14
976.287	738.16
976.587	756.46
976.887	710.59
977.187	745.62
977.487	737.25
977.787	695.67
978.087	720.76
978.387	714.88
978.687	688.44
978.987	718.5
979.286	694.09
979.586	703.58
979.885	690.93
980.185	709.91
980.484	695.67
980.784	693.19
981.083	683.24
981.382	692.51
981.682	706.75
981.981	671.72
982.28	680.76
982.579	669.01
982.878	659.74
983.177	678.05
983.475	668.33
983.774	696.35
984.073	685.96
984.372	670.36
984.67	657.71
984.969	680.98
985.267	656.35
985.566	666.3
985.864	670.82
986.162	679.63
986.461	684.83
986.759	678.5
987.057	685.5
987.355	631.49
987.653	629.69
987.951	673.53
988.249	655.45
988.547	667.88
988.844	655.45
989.142	637.6
989.44	646.64
989.737	619.74
990.035	654.77
990.332	659.97
990.63	622.68
990.927	631.27
991.224	651.16
991.521	655
991.819	645.96
992.116	620.65
992.413	645.73
992.71	647.09
993.006	620.2
993.303	627.43
993.6	628.33
993.897	623.81
994.193	624.26
994.49	595.56
994.787	644.15
995.083	614.55
995.379	615.68
995.676	612.29
995.972	608.9
996.268	616.13
996.565	594.89
996.861	595.11
997.157	596.47
997.453	596.24
997.749	599.63
998.044	600.99
998.34	589.24
998.636	582
998.932	593.76
999.227	582.91
999.523	597.15
999.818	569.35
1000.114	574.77
1000.409	572.74
1000.704	586.3
1001	571.16
1001.295	554.66
1001.59	587.88
1001.885	580.2
1002.18	572.51
1002.475	566.64
1002.77	563.7
1003.065	577.48
1003.359	563.93
1003.654	569.35
1003.949	554.21
1004.243	564.15
1004.538	554.21
1004.832	553.98
1005.127	545.17
1005.421	553.3
1005.715	575.45
1006.009	565.73
1006.304	540.2
1006.598	561.89
1006.892	551.04
1007.186	546.75
1007.48	512.63
1007.773	548.33
1008.067	566.64
1008.361	531.61
1008.655	558.5
1008.948	527.99
1009.242	550.37
1009.535	508.11
1009.829	528.45
1010.122	524.6
1010.415	534.1
1010.708	539.52
1011.001	540.88
1011.295	509.24
1011.588	533.87
1011.881	543.36
1012.173	517.83
1012.466	510.59
1012.759	512.63
1013.052	501.78
1013.344	531.38
1013.637	517.37
1013.93	523.93
1014.222	531.61
1014.514	515.79
1014.807	520.76
1015.099	502.91
1015.391	489.8
1015.683	522.8
1015.976	509.24
1016.268	490.03
1016.56	476.92
1016.851	527.77
1017.143	520.54
1017.435	493.19
1017.727	499.97
1018.018	476.7
1018.31	477.15
1018.602	489.58
1018.893	484.83
1019.185	477.37
1019.476	461.33
1019.767	503.59
1020.058	481.22
1020.35	467.88
1020.641	474.89
1020.932	463.59
1021.223	459.75
1021.514	469.01
1021.804	484.38
1022.095	478.05
1022.386	460.2
1022.677	486.64
1022.967	476.24
1023.258	459.3
1023.548	478.05
1023.839	458.84
1024.129	473.53
1024.419	464.72
1024.709	472.63
1025	470.14
1025.29	454.78
1025.58	434.66
1025.87	442.35
1026.16	452.29
1026.449	446.87
1026.739	448.67
1027.029	461.33
1027.319	444.83
1027.608	433.99
1027.898	455.23
1028.187	446.19
1028.477	448.67
1028.766	467.66
1029.055	444.38
1029.344	423.14
1029.634	446.19
1029.923	430.37
1030.212	445.06
1030.501	444.15
1030.79	430.14
1031.078	447.32
1031.367	436.47
1031.656	428.11
1031.945	440.31
1032.233	449.58
1032.522	422.46
1032.81	436.25
1033.099	429.01
1033.387	429.47
1033.675	444.15
1033.963	425.62
1034.251	422.91
1034.54	426.75
1034.828	415.23
1035.116	416.13
1035.403	427.66
1035.691	401.22
1035.979	413.87
1036.267	418.62
1036.554	431.95
1036.842	384.5
1037.129	423.82
1037.417	406.42
1037.704	413.2
1037.992	416.13
1038.279	404.83
1038.566	416.81
1038.853	416.81
1039.14	416.81
