Data from carpet_green_FLMS001491_00062.txt Node
Date: Wed Feb 08 10:35:41 GMT 2017
User: dcchb
Spectrometer: FLMS00149
Trigger mode: 0
Integration Time (sec): 2.000000E-2
Scans to average: 10
Electric dark correction enabled: true
Nonlinearity correction enabled: false
Boxcar width: 0
XAxis mode: Wavelengths
Number of Pixels in Spectrum: 2048
>>>>>Begin Spectral Data<<<<<
341.393	-6.68
341.776	-6.68
342.16	-6.68
342.543	-54.59
342.927	-48.49
343.31	-68.83
343.693	-66.57
344.077	-57.75
344.46	-50.52
344.843	-54.36
345.226	-33.35
345.61	-22.5
345.993	-28.15
346.376	-17.53
346.759	12.75
347.142	31.06
347.525	48.69
347.908	64.05
348.291	62.7
348.674	80.55
349.057	99.76
349.44	128.23
349.823	151.28
350.206	157.83
350.588	157.16
350.971	163.71
351.354	201
351.737	191.28
352.119	208.23
352.502	236.25
352.884	243.93
353.267	264.5
353.65	281.67
354.032	281.22
354.414	268.11
354.797	291.16
355.179	287.1
355.562	271.73
355.944	301.79
356.326	305.4
356.709	304.27
357.091	315.34
357.473	310.6
357.855	302.92
358.238	305.4
358.62	303.59
359.002	313.76
359.384	327.1
359.766	329.36
360.148	304.95
360.53	299.53
360.912	306.98
361.294	296.81
361.676	318.51
362.057	311.28
362.439	289.58
362.821	302.92
363.203	314.21
363.584	297.49
363.966	303.82
364.348	285.97
364.729	285.06
365.111	283.48
365.493	289.81
365.874	269.7
366.256	290.71
366.637	282.58
367.019	296.81
367.4	283.03
367.781	289.36
368.163	277.61
368.544	278.74
368.925	289.81
369.306	272.41
369.688	263.14
370.069	278.51
370.45	273.31
370.831	264.5
371.212	272.41
371.593	270.15
371.974	276.48
372.355	292.52
372.736	282.8
373.117	270.6
373.498	277.15
373.879	282.8
374.26	297.94
374.641	269.02
375.021	276.7
375.402	294.78
375.783	286.19
376.163	319.19
376.544	295.46
376.925	273.31
377.305	278.06
377.686	311.73
378.066	295.46
378.447	302.01
378.827	283.48
379.208	288.45
379.588	298.62
379.968	277.15
380.349	277.83
380.729	299.07
381.109	279.87
381.489	291.62
381.87	288.45
382.25	263.59
382.63	294.1
383.01	279.87
383.39	277.38
383.77	302.01
384.15	295.68
384.53	306.53
384.91	301.79
385.29	290.03
385.67	310.6
386.049	293.42
386.429	299.75
386.809	303.37
387.189	300.43
387.568	319.86
387.948	289.58
388.328	293.42
388.707	300.43
389.087	305.63
389.466	320.54
389.846	320.77
390.225	325.29
390.605	317.38
390.984	312.18
391.363	293.42
391.743	314.89
392.122	315.34
392.501	305.18
392.881	311.28
393.26	298.62
393.639	312.18
394.018	305.63
394.397	323.48
394.776	293.65
395.155	323.25
395.534	299.07
395.913	317.15
396.292	316.7
396.671	312.18
397.05	305.18
397.429	301.33
397.808	327.32
398.186	315.12
398.565	319.86
398.944	310.15
399.323	315.57
399.701	299.07
400.08	322.12
400.458	339.52
400.837	311.5
401.215	307.44
401.594	310.6
401.972	310.37
402.351	299.53
402.729	330.03
403.107	333.2
403.486	318.73
403.864	327.32
404.242	323.71
404.62	321.67
404.999	322.8
405.377	309.47
405.755	343.59
406.133	328.9
406.511	316.47
406.889	328.23
407.267	323.25
407.645	318.73
408.023	320.99
408.401	334.33
408.779	336.81
409.156	333.88
409.534	307.21
409.912	306.98
410.29	346.53
410.667	332.97
411.045	332.29
411.422	326.64
411.8	330.26
412.178	345.4
412.555	346.76
412.933	328
413.31	332.29
413.687	356.93
414.065	335.68
414.442	352.86
414.819	343.37
415.197	343.59
415.574	330.71
415.951	330.49
416.328	334.55
416.705	336.14
417.082	342.24
417.46	335.68
417.837	328.68
418.214	354.44
418.591	348.11
418.967	349.92
419.344	340.43
419.721	349.02
420.098	338.62
420.475	340.88
420.852	355.57
421.228	337.72
421.605	349.92
421.982	349.24
422.358	365.74
422.735	368.68
423.111	351.28
423.488	360.99
423.864	339.52
424.241	381.33
424.617	363.03
424.994	343.59
425.37	357.15
425.746	332.97
426.123	367.77
426.499	341.78
426.875	364.61
427.251	372.07
427.627	365.74
428.003	340.43
428.379	373.87
428.756	364.38
429.132	364.16
429.507	368.9
429.883	375.68
430.259	349.92
430.635	373.42
431.011	389.02
431.387	390.37
431.763	373.65
432.138	398.96
432.514	366.42
432.89	378.17
433.265	387.89
433.641	386.3
434.016	384.04
434.392	356.02
434.767	392.4
435.143	368.9
435.518	381.33
435.894	403.7
436.269	386.76
436.644	383.37
437.02	380.65
437.395	394.44
437.77	413.2
438.145	387.89
438.52	389.92
438.895	409.13
439.271	408.45
439.646	390.82
440.021	383.59
440.395	411.39
440.77	408.22
441.145	429.92
441.52	402.57
441.895	414.1
442.27	404.61
442.645	408.9
443.019	421.1
443.394	423.82
443.769	423.14
444.143	390.6
444.518	417.94
444.892	408
445.267	428.11
445.641	424.04
446.016	415.46
446.39	417.72
446.764	433.53
447.139	414.1
447.513	405.74
447.887	405.96
448.262	437.83
448.636	423.36
449.01	431.95
449.384	423.36
449.758	444.15
450.132	433.08
450.506	447.54
450.88	433.08
451.254	432.86
451.628	431.5
452.002	434.21
452.376	434.66
452.75	439.41
453.123	462.23
453.497	457.94
453.871	468.56
454.244	442.8
454.618	448.9
454.992	452.06
455.365	469.24
455.739	472.63
456.112	476.02
456.486	478.96
456.859	481.44
457.232	473.53
457.606	476.47
457.979	488.67
458.352	487.54
458.725	492.06
459.099	478.5
459.472	498.39
459.845	484.38
460.218	468.11
460.591	471.5
460.964	490.71
461.337	480.54
461.71	488.45
462.083	505.62
462.456	499.97
462.829	500.42
463.201	485.28
463.574	506.53
463.947	516.47
464.32	517.15
464.692	543.59
465.065	528.67
465.438	517.37
465.81	532.74
466.183	540.65
466.555	519.41
466.928	532.29
467.3	535.45
467.672	543.81
468.045	546.98
468.417	562.34
468.789	552.63
469.161	560.99
469.534	574.77
469.906	578.39
470.278	565.51
470.65	576.81
471.022	572.06
471.394	588.11
471.766	596.92
472.138	600.99
472.51	603.25
472.882	613.87
473.253	603.92
473.625	627.65
473.997	591.27
474.369	611.83
474.74	630.36
475.112	636.01
475.484	659.74
475.855	650.03
476.227	660.65
476.598	667.43
476.97	666.07
477.341	667.65
477.713	685.05
478.084	666.3
478.455	723.7
478.827	737.48
479.198	735.45
479.569	738.61
479.94	742.45
480.311	722.79
480.682	746.07
481.053	760.08
481.424	788.55
481.795	767.54
482.166	766.18
482.537	799.4
482.908	795.11
483.279	797.37
483.65	818.16
484.021	811.15
484.391	834.65
484.762	846.18
485.133	839.62
485.503	845.95
485.874	869.68
486.244	879.4
486.615	880.08
486.985	904.93
487.356	914.88
487.726	911.26
488.097	929.34
488.467	917.59
488.837	959.85
489.207	946.51
489.578	972.05
489.948	983.35
490.318	991.49
490.688	999.39
491.058	1004.82
491.428	1038.26
491.798	1015.89
492.168	1032.16
492.538	1014.08
492.908	1006.63
493.278	1042.33
493.648	1035.55
494.017	1060.41
494.387	1064.48
494.757	1075.1
495.126	1074.42
495.496	1068.77
495.866	1083.01
496.235	1120.97
496.605	1100.63
496.974	1110.35
497.344	1120.97
497.713	1112.61
498.082	1147.64
498.452	1136.11
498.821	1138.83
499.19	1134.76
499.559	1128.88
499.928	1146.51
500.298	1142.44
500.667	1210.69
501.036	1156
501.405	1163.68
501.774	1174.98
502.143	1170.24
502.512	1174.31
502.88	1192.16
503.249	1201.88
503.618	1228.77
503.987	1209.33
504.356	1211.37
504.724	1217.02
505.093	1239.61
505.462	1221.76
505.83	1234.64
506.199	1233.29
506.567	1241.42
506.936	1278.71
507.304	1236
507.672	1283.23
508.041	1257.01
508.409	1276
508.777	1279.61
509.145	1275.09
509.514	1290.91
509.882	1293.17
510.25	1254.53
510.618	1278.03
510.986	1277.35
511.354	1314.41
511.722	1322.32
512.09	1311.25
512.458	1325.26
512.826	1346.96
513.193	1338.82
513.561	1320.74
513.929	1344.24
514.297	1322.55
514.664	1364.81
515.032	1366.62
515.4	1344.7
515.767	1376.56
516.135	1332.04
516.502	1363
516.869	1374.53
517.237	1367.75
517.604	1380.85
517.972	1368.2
518.339	1372.94
518.706	1376.11
519.073	1409.78
519.44	1392.83
519.808	1423.79
520.175	1440.51
520.542	1408.42
520.909	1448.42
521.276	1421.08
521.643	1404.81
522.009	1469.89
522.376	1421.08
522.743	1456.11
523.11	1442.55
523.477	1473.51
523.843	1481.64
524.21	1485.48
524.577	1492.71
524.943	1471.92
525.31	1492.49
525.676	1511.25
526.043	1513.73
526.409	1503.56
526.776	1520.74
527.142	1512.83
527.508	1528.65
527.874	1552.83
528.241	1523.22
528.607	1570
528.973	1565.93
529.339	1533.62
529.705	1560.28
530.071	1546.95
530.437	1581.98
530.803	1559.15
531.169	1601.19
531.535	1569.78
531.901	1573.16
532.267	1586.05
532.632	1594.86
532.998	1575.42
533.364	1596.67
533.73	1589.66
534.095	1608.42
534.461	1575.88
534.826	1591.92
535.192	1586.95
535.557	1605.25
535.923	1605.03
536.288	1576.55
536.653	1599.83
537.019	1576.55
537.384	1601.86
537.749	1612.94
538.114	1585.14
538.479	1630.79
538.845	1608.87
539.21	1605.03
539.575	1635.76
539.94	1619.04
540.305	1607.97
540.67	1642.77
541.034	1623.56
541.399	1627.85
541.764	1656.33
542.129	1646.61
542.494	1642.99
542.858	1638.02
543.223	1615.2
543.587	1622.66
543.952	1605.93
544.316	1641.64
544.681	1616.78
545.045	1598.25
545.41	1605.03
545.774	1592.37
546.138	1653.84
546.503	1620.85
546.867	1635.76
547.231	1637.12
547.595	1619.49
547.959	1634.18
548.324	1640.96
548.688	1646.84
549.052	1640.28
549.416	1623.56
549.779	1642.54
550.143	1647.06
550.507	1659.94
550.871	1694.29
551.235	1643.22
551.599	1659.26
551.962	1645.25
552.326	1664.01
552.689	1686.83
553.053	1665.59
553.417	1660.17
553.78	1662.43
554.143	1655.2
554.507	1675.08
554.87	1671.47
555.234	1659.72
555.597	1676.89
555.96	1689.32
556.323	1658.13
556.686	1680.28
557.05	1698.81
557.413	1676.21
557.776	1690.68
558.139	1705.82
558.502	1712.82
558.865	1695.65
559.228	1711.01
559.59	1699.26
559.953	1713.27
560.316	1737.91
560.679	1709.88
561.041	1746.95
561.404	1728.64
561.767	1739.26
562.129	1756.44
562.492	1747.85
562.854	1773.61
563.217	1739.26
563.579	1747.85
563.941	1750.79
564.304	1776.1
564.666	1783.78
565.028	1754.18
565.39	1755.53
565.753	1783.1
566.115	1790.56
566.477	1784.91
566.839	1793.95
567.201	1790.56
567.563	1783.1
567.925	1786.72
568.287	1804.57
568.648	1823.1
569.01	1816.77
569.372	1788.75
569.734	1820.62
570.095	1795.31
570.457	1794.18
570.819	1790.79
571.18	1793.05
571.542	1806.15
571.903	1814.06
572.265	1809.99
572.626	1848.86
572.987	1800.05
573.349	1826.72
573.71	1805.48
574.071	1801.86
574.432	1814.74
574.794	1821.52
575.155	1813.38
575.516	1814.74
575.877	1811.58
576.238	1808.41
576.599	1819.94
576.96	1805.02
577.32	1804.8
577.681	1831.69
578.042	1822.2
578.403	1817.9
578.763	1809.32
579.124	1818.36
579.485	1808.19
579.845	1807.73
580.206	1844.8
580.566	1786.04
580.927	1808.86
581.287	1793.95
581.648	1804.35
582.008	1816.55
582.368	1792.37
582.728	1796.89
583.089	1786.04
583.449	1757.34
583.809	1786.72
584.169	1779.94
584.529	1753.5
584.889	1782.42
585.249	1757.34
585.609	1762.76
585.969	1767.74
586.329	1754.63
586.688	1774.74
587.048	1742.2
587.408	1766.61
587.768	1767.96
588.127	1732.71
588.487	1751.01
588.846	1709.21
589.206	1741.3
589.565	1743.56
589.925	1741.07
590.284	1758.47
590.643	1741.75
591.003	1733.61
591.362	1724.57
591.721	1715.08
592.08	1739.94
592.44	1755.31
592.799	1719.6
593.158	1737.91
593.517	1725.03
593.876	1718.25
594.235	1730.22
594.593	1733.16
594.952	1755.76
595.311	1740.84
595.67	1743.33
596.029	1755.98
596.387	1699.72
596.746	1730.67
597.104	1747.4
597.463	1696.1
597.822	1744.46
598.18	1710.34
598.538	1741.52
598.897	1724.12
599.255	1728.87
599.613	1720.28
599.972	1733.84
600.33	1715.31
600.688	1732.48
601.046	1730
601.404	1726.16
601.762	1716.21
602.12	1729.77
602.478	1770.45
602.836	1731.58
603.194	1732.71
603.552	1739.49
603.91	1739.49
604.268	1717.57
604.625	1715.76
604.983	1748.75
605.341	1692.71
605.698	1753.05
606.056	1741.52
606.413	1725.48
606.771	1757.79
607.128	1749.21
607.485	1743.33
607.843	1727.29
608.2	1745.59
608.557	1748.3
608.914	1746.27
609.272	1775.87
609.629	1747.85
609.986	1792.37
610.343	1738.81
610.7	1787.17
611.057	1763.44
611.414	1751.24
611.771	1773.39
612.127	1796.89
612.484	1766.15
612.841	1762.99
613.198	1758.24
613.554	1769.77
613.911	1763.67
614.267	1770.22
614.624	1801.86
614.98	1784.01
615.337	1771.13
615.693	1811.8
616.05	1773.16
616.406	1801.63
616.762	1762.76
617.118	1797.11
617.475	1781.75
617.831	1774.06
618.187	1792.59
618.543	1816.55
618.899	1780.84
619.255	1748.98
619.611	1796.44
619.967	1788.07
620.323	1808.86
620.678	1807.51
621.034	1760.28
621.39	1784.91
621.746	1807.28
622.101	1815.87
622.457	1790.79
622.812	1802.54
623.168	1807.51
623.523	1795.31
623.879	1812.48
624.234	1829.88
624.589	1779.71
624.945	1815.19
625.3	1805.25
625.655	1778.13
626.01	1802.54
626.365	1774.97
626.72	1784.91
627.075	1786.94
627.43	1804.12
627.785	1814.29
628.14	1788.3
628.495	1763.89
628.85	1782.42
629.205	1814.29
629.559	1791.01
629.914	1768.19
630.269	1790.33
630.623	1758.92
630.978	1764.35
631.332	1785.81
631.687	1742.43
632.041	1774.74
632.396	1788.3
632.75	1764.57
633.104	1783.78
633.459	1767.06
633.813	1759.15
634.167	1745.59
634.521	1745.14
634.875	1758.47
635.229	1783.78
635.583	1782.2
635.937	1776.32
636.291	1737
636.645	1777.45
636.999	1766.15
637.352	1748.75
637.706	1759.83
638.06	1754.63
638.413	1752.82
638.767	1743.56
639.121	1753.27
639.474	1765.7
639.828	1781.29
640.181	1737.23
640.534	1781.75
640.888	1727.51
641.241	1713.95
641.594	1741.52
641.947	1767.96
642.301	1707.4
642.654	1755.31
643.007	1770.22
643.36	1766.83
643.713	1749.88
644.066	1753.05
644.419	1745.82
644.771	1733.61
645.124	1719.83
645.477	1741.07
645.83	1719.6
646.182	1708.08
646.535	1710.34
646.888	1710.34
647.24	1731.8
647.593	1742.65
647.945	1742.2
648.298	1747.62
648.65	1724.35
649.002	1714.63
649.355	1741.97
649.707	1737.68
650.059	1751.69
650.411	1749.43
650.763	1722.09
651.115	1784.23
651.467	1780.84
651.819	1783.1
652.171	1790.56
652.523	1798.92
652.875	1773.39
653.227	1809.09
653.578	1816.1
653.93	1824.23
654.282	1769.09
654.633	1813.16
654.985	1826.72
655.337	1838.02
655.688	1866.94
656.039	1827.85
656.391	1838.02
656.742	1866.72
657.094	1863.33
657.445	1863.78
657.796	1875.3
658.147	1871.91
658.498	1891.8
658.849	1886.6
659.2	1923.89
659.551	1907.85
659.902	1925.47
660.253	1930.44
660.604	1921.18
660.955	1934.06
661.306	1925.92
661.656	1949.2
662.007	1955.08
662.358	1972.7
662.708	1961.4
663.059	1975.41
663.409	2000.95
663.76	2007.05
664.11	2039.37
664.461	2028.75
664.811	2045.92
665.161	2071.91
665.511	2061.51
665.862	2037.56
666.212	2076.88
666.562	2106.26
666.912	2106.26
667.262	2120.95
667.612	2097.22
667.962	2137.67
668.312	2154.84
668.662	2163.66
669.011	2178.57
669.361	2198.91
669.711	2212.24
670.06	2224.9
670.41	2234.62
670.76	2233.26
671.109	2257.44
671.459	2273.49
671.808	2274.16
672.157	2266.48
672.507	2253.15
672.856	2306.48
673.205	2340.15
673.554	2348.29
673.904	2372.47
674.253	2421.28
674.602	2405.91
674.951	2402.52
675.3	2384.67
675.649	2454.05
675.998	2489.98
676.346	2502.63
676.695	2518.22
677.044	2502.86
677.393	2495.17
677.741	2551.22
678.09	2542.4
678.438	2577.88
678.787	2584.89
679.135	2630.99
679.484	2598.67
679.832	2661.27
680.181	2654.49
680.529	2708.05
680.877	2682.97
681.225	2686.36
681.573	2735.39
681.922	2765
682.27	2762.74
682.618	2785.34
682.966	2745.34
683.314	2822.85
683.661	2819.69
684.009	2812.23
684.357	2853.81
684.705	2882.96
685.053	2895.62
685.4	2949.63
685.748	2970.19
686.095	2972.68
686.443	2983.3
686.79	2966.8
687.138	3008.38
687.485	3049.51
687.832	3059.45
688.18	3085.67
688.527	3090.64
688.874	3148.26
689.221	3138.77
689.568	3153.24
689.915	3169.73
690.262	3204.76
690.609	3210.64
690.956	3238.88
691.303	3260.58
691.65	3264.19
691.997	3275.72
692.344	3281.37
692.69	3335.38
693.037	3369.95
693.383	3412.44
693.73	3401.37
694.077	3407.69
694.423	3471.42
694.769	3437.3
695.116	3497.18
695.462	3492.89
695.808	3469.39
696.155	3590.06
696.501	3523.4
696.847	3531.08
697.193	3569.5
697.539	3641.81
697.885	3634.81
698.231	3636.16
698.577	3658.76
698.923	3681.58
699.269	3673.9
699.614	3742.15
699.96	3780.79
700.306	3777.85
700.651	3767.01
700.997	3773.56
701.342	3818.76
701.688	3856.95
702.033	3877.74
702.379	3897.62
702.724	3915.48
703.069	3929.26
703.415	3924.97
703.76	3975.81
704.105	3978.53
704.45	3977.17
704.795	4022.82
705.14	4037.51
705.485	4046.32
705.83	4088.8
706.175	4088.35
706.52	4095.58
706.865	4140.78
707.209	4159.76
707.554	4168.8
707.899	4187.11
708.243	4197.95
708.588	4207.45
708.932	4251.06
709.277	4239.99
709.621	4265.07
709.966	4264.62
710.31	4307.1
710.654	4303.71
710.998	4339.19
711.342	4346.43
711.687	4399.98
712.031	4381.68
712.375	4360.21
712.719	4436.82
713.063	4477.72
713.407	4466.87
713.75	4463.94
714.094	4466.42
714.438	4489.92
714.782	4536.48
715.125	4536.02
715.469	4528.12
715.812	4546.19
716.156	4590.49
716.499	4579.64
716.843	4579.41
717.186	4632.07
717.53	4628.23
717.873	4655.57
718.216	4651.95
718.559	4661.67
718.902	4639.07
719.246	4675.68
719.589	4690.15
719.932	4673.2
720.275	4730.14
720.617	4707.55
720.96	4747.54
721.303	4768.34
721.646	4770.59
721.989	4713.65
722.331	4806.07
722.674	4815.34
723.016	4821.89
723.359	4803.36
723.701	4834.1
724.044	4837.49
724.386	4799.75
724.729	4890.37
725.071	4887.88
725.413	4857.15
725.755	4815.34
726.097	4830.25
726.439	4819.18
726.782	4842.23
727.124	4878.16
727.465	4892.85
727.807	4911.83
728.149	4929.46
728.491	4890.14
728.833	4903.7
729.175	4904.6
729.516	4901.21
729.858	4910.93
730.199	4935.56
730.541	4881.1
730.882	4872.74
731.224	4963.81
731.565	4946.18
731.906	4932.85
732.248	4928.1
732.589	4925.39
732.93	4926.97
733.271	4955.45
733.612	5004.94
733.953	4968.56
734.294	4968.33
734.635	4955.9
734.976	4970.36
735.317	4933.3
735.658	5012.17
735.999	4949.12
736.339	4971.72
736.68	4944.15
737.021	4976.01
737.361	4908.9
737.702	4962.45
738.042	4985.96
738.383	4966.52
738.723	4975.11
739.063	4950.93
739.404	4994.77
739.744	4991.15
740.084	4962.68
740.424	4987.99
740.764	4947.54
741.104	4988.44
741.444	4969.01
741.784	4947.54
742.124	4995.9
742.464	5003.81
742.804	4962.45
743.143	4931.72
743.483	4929.69
743.823	4955.45
744.162	4973.75
744.502	4966.52
744.841	4932.4
745.181	4957.48
745.52	4907.09
745.86	4930.36
746.199	4894.43
746.538	4937.14
746.877	4947.09
747.216	4938.05
747.556	4935.56
747.895	4957.26
748.234	4961.1
748.573	4868.22
748.911	4883.59
749.25	4870.48
749.589	4878.39
749.928	4922
750.267	4873.19
750.605	4901.66
750.944	4863.7
751.283	4872.51
751.621	4897.15
751.96	4848.56
752.298	4836.13
752.636	4842.46
752.975	4814.21
753.313	4816.92
753.651	4845.4
753.989	4824.6
754.327	4785.51
754.666	4787.54
755.004	4818.28
755.342	4786.19
755.679	4785.06
756.017	4761.1
756.355	4726.3
756.693	4767.66
757.031	4768.11
757.368	4730.82
757.706	4667.09
758.044	4693.99
758.381	4714.1
758.719	4710.26
759.056	4666.64
759.394	4678.17
759.731	4686.76
760.068	4722.69
760.405	4623.25
760.743	4597.27
761.08	4653.76
761.417	4604.72
761.754	4586.42
762.091	4605.18
762.428	4560.43
762.765	4534.44
763.102	4555.23
763.438	4515.01
763.775	4486.53
764.112	4513.2
764.449	4480.21
764.785	4513.88
765.122	4482.01
765.458	4475.01
765.795	4465.97
766.131	4429.13
766.467	4434.11
766.804	4429.13
767.14	4403.15
767.476	4431.17
767.812	4344.17
768.148	4399.98
768.485	4357.27
768.821	4374.22
769.157	4325.86
769.492	4294.9
769.828	4306.43
770.164	4305.97
770.5	4271.85
770.836	4286.77
771.171	4282.47
771.507	4247.67
771.842	4217.39
772.178	4206.77
772.513	4221.91
772.849	4205.86
773.184	4171.74
773.519	4146.43
773.855	4213.1
774.19	4151.63
774.525	4142.59
774.86	4117.28
775.195	4149.14
775.53	4129.26
775.865	4031.86
776.2	4071.18
776.535	4016.26
776.87	4017.62
777.205	4042.03
777.539	3985.98
777.874	4004.06
778.209	3911.63
778.543	3964.29
778.878	3927
779.212	3897.62
779.547	3906.66
779.881	3930.39
780.215	3880.45
780.55	3899.88
780.884	3904.63
781.218	3849.94
781.552	3890.84
781.886	3838.87
782.22	3780.34
782.554	3833.44
782.888	3824.86
783.222	3800.22
783.556	3790.51
783.889	3750.06
784.223	3762.49
784.557	3702.83
784.89	3757.74
785.224	3706.67
785.557	3687.01
785.891	3729.72
786.224	3707.8
786.558	3713.9
786.891	3650.4
787.224	3635.03
787.557	3647.91
787.891	3624.41
788.224	3613.56
788.557	3632.32
788.89	3599.55
789.223	3602.94
789.556	3587.35
789.888	3593.68
790.221	3568.37
790.554	3549.84
790.887	3573.34
791.219	3527.46
791.552	3495.83
791.884	3505.09
792.217	3501.48
792.549	3451.08
792.882	3460.8
793.214	3500.12
793.546	3438.43
793.879	3407.24
794.211	3413.12
794.543	3432.33
794.875	3405.66
795.207	3399.11
795.539	3405.43
795.871	3390.97
796.203	3327.02
796.535	3359.33
796.867	3378.32
797.198	3358.2
797.53	3358.43
797.862	3332.44
798.193	3317.07
798.525	3280.24
798.856	3276.62
799.188	3261.93
799.519	3248.6
799.85	3237.53
800.182	3239.79
800.513	3270.97
800.844	3235.72
801.175	3216.51
801.506	3231.43
801.837	3235.95
802.168	3186.68
802.499	3212.67
802.83	3189.39
803.161	3234.59
803.491	3196.62
803.822	3190.07
804.153	3162.5
804.483	3167.93
804.814	3112.33
805.145	3110.75
805.475	3175.16
805.805	3124.54
806.136	3103.07
806.466	3119.11
806.796	3082.5
807.126	3094.93
807.457	3077.98
807.787	3064.2
808.117	3059
808.447	3056.06
808.777	3070.53
809.107	3054.71
809.436	3062.17
809.766	3053.8
810.096	3040.02
810.426	3011.09
810.755	3018.1
811.085	3000.47
811.414	3002.28
811.744	3000.02
812.073	2970.87
812.403	2956.18
812.732	2977.2
813.061	2981.72
813.39	2946.46
813.719	2930.64
814.049	2968.16
814.378	2911.66
814.707	2895.39
815.036	2917.76
815.365	2919.12
815.693	2854.49
816.022	2926.12
816.351	2871.21
816.68	2856.29
817.008	2870.98
817.337	2859.46
817.665	2863.3
817.994	2856.07
818.322	2853.58
818.651	2866.24
818.979	2819.91
819.307	2831.44
819.636	2804.54
819.964	2779.01
820.292	2856.97
820.62	2791.21
820.948	2782.85
821.276	2817.65
821.604	2828.95
821.932	2772.46
822.259	2791.66
822.587	2834.15
822.915	2798.44
823.243	2819.23
823.57	2811.32
823.898	2794.6
824.225	2781.04
824.553	2807.71
824.88	2785.79
825.207	2814.94
825.535	2843.41
825.862	2804.77
826.189	2823.08
826.516	2775.17
826.843	2798.44
827.17	2810.19
827.497	2810.65
827.824	2833.24
828.151	2798.44
828.478	2787.37
828.805	2820.59
829.131	2781.95
829.458	2763.64
829.785	2790.76
830.111	2758.22
830.438	2813.13
830.764	2780.82
831.09	2812
831.417	2768.61
831.743	2750.76
832.069	2782.62
832.395	2779.23
832.722	2753.47
833.048	2777.88
833.374	2766.58
833.7	2776.07
834.026	2757.99
834.351	2783.08
834.677	2769.07
835.003	2776.07
835.329	2754.38
835.654	2766.35
835.98	2734.94
836.306	2736.07
836.631	2713.93
836.956	2765.22
837.282	2778.56
837.607	2729.29
837.932	2724.1
838.258	2715.96
838.583	2696.75
838.908	2691.33
839.233	2720.48
839.558	2736.52
839.883	2690.2
840.208	2686.36
840.533	2676.19
840.858	2688.84
841.182	2692.91
841.507	2673.7
841.832	2675.51
842.156	2642.74
842.481	2685.45
842.805	2689.29
843.13	2625.11
843.454	2643.87
843.778	2651.33
844.103	2630.09
844.427	2622.85
844.751	2615.17
845.075	2632.35
845.399	2645.23
845.723	2586.7
846.047	2633.93
846.371	2606.13
846.695	2582.63
847.019	2584.66
847.343	2582.86
847.666	2600.03
847.99	2586.25
848.313	2542.63
848.637	2531.78
848.96	2548.96
849.284	2542.86
849.607	2503.08
849.931	2504.67
850.254	2471.9
850.577	2494.5
850.9	2499.02
851.223	2451.56
851.546	2445.46
851.869	2454.72
852.192	2494.04
852.515	2407.49
852.838	2419.47
853.161	2418.34
853.483	2400.71
853.806	2435.29
854.129	2450.2
854.451	2411.11
854.774	2377.21
855.096	2374.95
855.419	2366.14
855.741	2352.58
856.063	2362.3
856.385	2350.09
856.708	2348.74
857.03	2345.35
857.352	2325.01
857.674	2311
857.996	2311.22
858.318	2322.3
858.64	2319.81
858.961	2308.29
859.283	2291.56
859.605	2289.3
859.926	2288.4
860.248	2271.45
860.57	2276.2
860.891	2286.14
861.212	2294.05
861.534	2232.81
861.855	2280.04
862.176	2265.58
862.498	2270.1
862.819	2264.22
863.14	2273.94
863.461	2227.61
863.782	2236.2
864.103	2244.33
864.424	2197.33
864.745	2244.33
865.065	2240.27
865.386	2208.85
865.707	2217.22
866.027	2199.59
866.348	2202.98
866.668	2208.63
866.989	2202.07
867.309	2217.22
867.63	2193.49
867.95	2177.22
868.27	2162.75
868.59	2184
868.91	2199.59
869.23	2183.54
869.55	2163.43
869.87	2171.79
870.19	2175.63
870.51	2184.45
870.83	2191.68
871.15	2158.91
871.469	2141.06
871.789	2145.58
872.109	2177.22
872.428	2139.03
872.748	2119.82
873.067	2143.32
873.386	2128.4
873.706	2141.51
874.025	2116.43
874.344	2139.93
874.663	2110.55
874.982	2131.57
875.301	2143.09
875.62	2133.83
875.939	2084.79
876.258	2130.21
876.577	2087.05
876.896	2092.93
877.214	2089.31
877.533	2103.32
877.852	2067.39
878.17	2094.06
878.489	2072.81
878.807	2108.07
879.125	2069.42
879.444	2088.86
879.762	2083.66
880.08	2113.49
880.398	2092.93
880.716	2071.91
881.034	2064
881.352	2049.54
881.67	2048.18
881.988	2045.02
882.306	2061.06
882.624	2042.76
882.941	2040.05
883.259	2031.46
883.577	2035.53
883.894	2044.34
884.212	2026.03
884.529	2006.83
884.846	2028.29
885.164	2019.25
885.481	2023.77
885.798	2041.63
886.115	1986.26
886.432	2040.05
886.75	1997.33
887.067	1968.18
887.383	1970.67
887.7	1985.13
888.017	1983.55
888.334	1979.26
888.651	1974.51
888.967	1964.79
889.284	1951.46
889.6	1980.61
889.917	1957.11
890.233	1953.72
890.55	1922.76
890.866	1942.42
891.182	1921.86
891.498	1949.2
891.815	1919.82
892.131	1935.87
892.447	1928.86
892.763	1887.28
893.079	1891.57
893.395	1933.16
893.71	1899.71
894.026	1885.25
894.342	1872.82
894.657	1887.05
894.973	1881.18
895.289	1873.04
895.604	1869.65
895.92	1840.28
896.235	1860.16
896.55	1874.17
896.865	1871.24
897.181	1853.61
897.496	1833.72
897.811	1809.99
898.126	1822.65
898.441	1809.99
898.756	1806.61
899.071	1812.48
899.386	1802.54
899.7	1768.19
900.015	1807.96
900.33	1810.45
900.644	1788.3
900.959	1788.53
901.273	1777
901.588	1760.96
901.902	1753.73
902.216	1738.13
902.531	1748.53
902.845	1748.08
903.159	1755.31
903.473	1757.34
903.787	1712.82
904.101	1698.36
904.415	1719.6
904.729	1718.25
905.042	1726.83
905.356	1682.09
905.67	1698.81
905.984	1732.71
906.297	1682.09
906.611	1657.46
906.924	1689.55
907.237	1674.41
907.551	1674.86
907.864	1668.3
908.177	1658.81
908.491	1662.65
908.804	1633.5
909.117	1662.43
909.43	1602.54
909.743	1629.21
910.056	1628.53
910.368	1599.83
910.681	1601.41
910.994	1614.97
911.307	1606.61
911.619	1576.1
911.932	1592.37
912.244	1610.45
912.557	1585.14
912.869	1555.31
913.181	1577.01
913.494	1597.12
913.806	1551.02
914.118	1562.54
914.43	1540.17
914.742	1563
915.054	1551.02
915.366	1545.37
915.678	1536.78
915.99	1524.13
916.302	1530.45
916.613	1506.27
916.925	1526.84
917.236	1490.68
917.548	1488.2
917.859	1497.01
918.171	1471.7
918.482	1483
918.794	1457.24
919.105	1481.42
919.416	1447.29
919.727	1461.3
920.038	1451.36
920.349	1457.91
920.66	1452.49
920.971	1430.57
921.282	1454.07
921.593	1449.78
921.903	1436.67
922.214	1424.92
922.525	1432.83
922.835	1400.97
923.146	1409.33
923.456	1418.59
923.767	1383.57
924.077	1414.3
924.387	1400.29
924.697	1391.25
925.008	1388.08
925.318	1343.11
925.628	1379.95
925.938	1377.01
926.248	1363.23
926.558	1339.72
926.867	1344.92
927.177	1350.8
927.487	1336.33
927.796	1317.13
928.106	1388.76
928.416	1358.26
928.725	1300.63
929.034	1348.54
929.344	1362.1
929.653	1304.47
929.962	1297.01
930.271	1302.89
930.581	1302.44
930.89	1294.53
931.199	1307.86
931.508	1285.04
931.817	1272.38
932.125	1289.33
932.434	1269.22
932.743	1270.35
933.051	1252.72
933.36	1251.59
933.669	1275.09
933.977	1249.11
934.286	1255.43
934.594	1262.21
934.902	1251.59
935.21	1237.35
935.519	1245.49
935.827	1240.29
936.135	1245.94
936.443	1245.04
936.751	1198.71
937.059	1218.15
937.367	1217.92
937.674	1201.65
937.982	1196.9
938.29	1185.38
938.597	1196.45
938.905	1163.91
939.213	1176.11
939.52	1160.52
939.827	1167.98
940.135	1165.27
940.442	1169.11
940.749	1181.54
941.056	1165.94
941.363	1140.18
941.67	1166.4
941.977	1142.67
942.284	1139.05
942.591	1140.86
942.898	1132.27
943.205	1159.84
943.511	1130.92
943.818	1117.58
944.125	1125.49
944.431	1107.64
944.738	1115.1
945.044	1119.17
945.35	1133.85
945.657	1111.93
945.963	1096.79
946.269	1102.22
946.575	1090.24
946.881	1106.06
947.187	1096.57
947.493	1087.08
947.799	1076.91
948.105	1065.83
948.41	1085.04
948.716	1076.45
949.022	1070.58
949.327	1085.04
949.633	1070.81
949.938	1044.59
950.244	1078.94
950.549	1055.21
950.854	1041.43
951.16	1048.43
951.465	1054.76
951.77	1054.08
952.075	1033.29
952.38	1050.92
952.685	1038.49
952.99	1027.42
953.294	1013.41
953.599	1013.18
953.904	1015.44
954.209	1000.75
954.513	1004.59
954.818	998.49
955.122	1004.59
955.426	1007.53
955.731	1020.41
956.035	985.38
956.339	975.21
956.643	986.97
956.948	978.83
957.252	974.76
957.556	998.49
957.86	971.6
958.163	973.18
958.467	965.95
958.771	945.84
959.075	973.86
959.378	960.75
959.682	956.46
959.985	968.66
960.289	953.75
960.592	945.38
960.896	951.03
961.199	933.86
961.502	922.79
961.805	942.22
962.108	936.8
962.411	910.58
962.714	911.04
963.017	928.21
963.32	917.59
963.623	915.56
963.926	894.99
964.228	915.1
964.531	903.13
964.833	891.6
965.136	899.96
965.438	914.88
965.741	913.3
966.043	887.99
966.345	880.3
966.648	888.44
966.95	892.5
967.252	901.54
967.554	896.8
967.856	886.86
968.158	866.06
968.46	859.96
968.761	862.22
969.063	875.56
969.365	859.74
969.666	867.42
969.968	850.47
970.269	864.71
970.571	822.9
970.872	852.73
971.174	840.53
971.475	825.16
971.776	836.01
972.077	853.41
972.378	825.39
972.679	832.39
972.98	853.18
973.281	838.49
973.582	846.18
973.883	820.87
974.183	822
974.484	828.33
974.785	816.57
975.085	811.6
975.386	819.29
975.686	805.95
975.986	806.63
976.287	814.77
976.587	808.89
976.887	800.98
977.187	798.5
977.487	772.51
977.787	789.46
978.087	780.64
978.387	795.11
978.687	790.81
978.987	787.65
979.286	804.6
979.586	800.76
979.885	794.2
980.185	785.39
980.484	759.17
980.784	774.09
981.083	776.8
981.382	758.72
981.682	793.75
981.981	749.01
982.28	758.27
982.579	733.64
982.878	763.92
983.177	770.02
983.475	765.95
983.774	743.13
984.073	742.45
984.372	736.58
984.67	735.22
984.969	739.06
985.267	754.88
985.566	734.77
985.864	753.53
986.162	749.01
986.461	706.29
986.759	739.29
987.057	716.92
987.355	719.4
987.653	733.64
987.951	705.62
988.249	717.14
988.547	715.33
988.844	715.11
989.142	708.33
989.44	697.48
989.737	697.93
990.035	698.61
990.332	695.67
990.63	685.28
990.927	707.42
991.224	684.15
991.521	712.62
991.819	691.83
992.116	673.53
992.413	681.66
992.71	678.5
993.006	668.1
993.303	683.7
993.6	663.13
993.897	671.27
994.193	671.49
994.49	683.92
994.787	671.27
995.083	666.97
995.379	664.49
995.676	666.52
995.972	657.03
996.268	669.46
996.565	661.1
996.861	651.38
997.157	664.49
997.453	662
997.749	671.95
998.044	664.71
998.34	645.28
998.636	657.93
998.932	644.83
999.227	645.28
999.523	634.21
999.818	659.29
1000.114	620.65
1000.409	636.01
1000.704	615.22
1001	626.52
1001.295	643.25
1001.59	623.81
1001.885	633.75
1002.18	624.04
1002.475	615.22
1002.77	610.25
1003.065	636.47
1003.359	620.42
1003.654	627.88
1003.949	621.55
1004.243	637.14
1004.538	601.89
1004.832	596.69
1005.127	606.64
1005.421	619.29
1005.715	598.95
1006.009	583.81
1006.304	607.99
1006.598	600.99
1006.892	600.76
1007.186	605.05
1007.48	583.59
1007.773	590.37
1008.067	593.08
1008.361	595.79
1008.655	608.22
1008.948	562.8
1009.242	564.15
1009.535	582
1009.829	593.76
1010.122	601.66
1010.415	570.93
1010.708	558.73
1011.001	584.72
1011.295	560.99
1011.588	565.73
1011.881	532.29
1012.173	559.63
1012.466	549.01
1012.759	540.2
1013.052	550.82
1013.344	544.49
1013.637	549.01
1013.93	563.47
1014.222	551.04
1014.514	549.91
1014.807	544.72
1015.099	535.9
1015.391	540.2
1015.683	536.13
1015.976	544.27
1016.268	541.78
1016.56	534.77
1016.851	516.02
1017.143	525.06
1017.435	541.33
1017.727	509.46
1018.018	531.84
1018.31	518.05
1018.602	529.35
1018.893	511.27
1019.185	521.44
1019.476	511.05
1019.767	519.41
1020.058	517.37
1020.35	516.7
1020.641	497.94
1020.932	531.16
1021.223	497.49
1021.514	500.65
1021.804	484.83
1022.095	507.2
1022.386	502.46
1022.677	491.16
1022.967	483.7
1023.258	477.6
1023.548	499.07
1023.839	486.19
1024.129	488.45
1024.419	486.41
1024.709	494.78
1025	484.15
1025.29	474.44
1025.58	471.72
1025.87	483.02
1026.16	482.8
1026.449	492.29
1026.739	468.11
1027.029	456.81
1027.319	468.56
1027.608	477.6
1027.898	484.61
1028.187	480.31
1028.477	470.37
1028.766	485.51
1029.055	469.24
1029.344	465.62
1029.634	457.49
1029.923	472.18
1030.212	467.21
1030.501	483.25
1030.79	473.31
1031.078	444.83
1031.367	460.88
1031.656	454.1
1031.945	442.12
1032.233	440.54
1032.522	459.07
1032.81	470.82
1033.099	451.61
1033.387	449.13
1033.675	460.43
1033.963	441.67
1034.251	450.48
1034.54	456.13
1034.828	455.68
1035.116	441.22
1035.403	444.61
1035.691	439.64
1035.979	451.61
1036.267	440.09
1036.554	431.05
1036.842	419.07
1037.129	392.18
1037.417	441.44
1037.704	426.98
1037.992	426.08
1038.279	444.38
1038.566	429.92
1038.853	429.92
1039.14	429.92
