Data from carpet_green_FLMS001491_00052.txt Node
Date: Wed Feb 08 10:35:33 GMT 2017
User: dcchb
Spectrometer: FLMS00149
Trigger mode: 0
Integration Time (sec): 2.000000E-2
Scans to average: 10
Electric dark correction enabled: true
Nonlinearity correction enabled: false
Boxcar width: 0
XAxis mode: Wavelengths
Number of Pixels in Spectrum: 2048
>>>>>Begin Spectral Data<<<<<
341.393	-14.69
341.776	-14.69
342.16	-14.69
342.543	-65.53
342.927	-68.92
343.31	-66.66
343.693	-80.68
344.077	-80.68
344.46	-33.67
344.843	-59.43
345.226	-35.48
345.61	-19.21
345.993	-33.22
346.376	0.9
346.759	11.07
347.142	18.98
347.525	40
347.908	65.31
348.291	74.35
348.674	100.79
349.057	97.62
349.44	132.65
349.823	144.85
350.206	128.58
350.588	160.9
350.971	166.1
351.354	221.24
351.737	213.55
352.119	220.33
352.502	235.02
352.884	226.89
353.267	276.15
353.65	256.72
354.032	272.99
354.414	285.64
354.797	297.17
355.179	298.75
355.562	293.55
355.944	295.36
356.326	311.86
356.709	300.33
357.091	295.81
357.473	319.31
357.855	302.82
358.238	301.24
358.62	324.29
359.002	317.51
359.384	307.34
359.766	310.95
360.148	307.56
360.53	300.11
360.912	310.73
361.294	278.64
361.676	303.49
362.057	286.55
362.439	276.6
362.821	293.33
363.203	289.03
363.584	286.55
363.966	283.16
364.348	270.73
364.729	268.02
365.111	282.93
365.493	262.59
365.874	282.7
366.256	272.31
366.637	278.41
367.019	296.49
367.4	265.53
367.781	270.5
368.163	270.95
368.544	265.3
368.925	277.51
369.306	279.99
369.688	299.2
370.069	271.41
370.45	265.98
370.831	269.6
371.212	260.56
371.593	282.7
371.974	278.86
372.355	279.54
372.736	266.89
373.117	258.52
373.498	270.5
373.879	284.74
374.26	291.29
374.641	288.13
375.021	270.73
375.402	289.48
375.783	287.45
376.163	265.53
376.544	268.69
376.925	288.58
377.305	272.76
377.686	285.64
378.066	283.83
378.447	282.25
378.827	297.39
379.208	263.27
379.588	273.44
379.968	288.35
380.349	279.54
380.729	303.72
381.109	277.96
381.489	298.75
381.87	276.15
382.25	281.35
382.63	291.29
383.01	275.25
383.39	284.29
383.77	293.33
384.15	305.75
384.53	294.46
384.91	292.87
385.29	289.03
385.67	295.59
386.049	283.61
386.429	293.1
386.809	290.61
387.189	277.05
387.568	309.82
387.948	278.64
388.328	296.94
388.707	280.67
389.087	275.25
389.466	278.86
389.846	294.46
390.225	303.72
390.605	300.78
390.984	305.75
391.363	291.97
391.743	300.78
392.122	279.99
392.501	308.01
392.881	298.07
393.26	299.2
393.639	301.01
394.018	320.67
394.397	311.63
394.776	307.34
395.155	306.88
395.534	287.68
395.913	295.13
396.292	293.1
396.671	296.94
397.05	300.33
397.429	307.11
397.808	287.9
398.186	293.55
398.565	288.81
398.944	309.37
399.323	286.55
399.701	285.19
400.08	305.98
400.458	297.39
400.837	298.07
401.215	313.66
401.594	298.07
401.972	310.73
402.351	307.34
402.729	303.49
403.107	299.2
403.486	298.52
403.864	303.72
404.242	301.01
404.62	317.96
404.999	310.27
405.377	298.98
405.755	308.24
406.133	308.69
406.511	314.57
406.889	314.34
407.267	330.16
407.645	323.83
408.023	318.18
408.401	322.03
408.779	315.02
409.156	308.92
409.534	301.01
409.912	327.45
410.29	318.18
410.667	332.19
411.045	307.34
411.422	288.58
411.8	319.77
412.178	302.59
412.555	338.52
412.933	329.48
413.31	322.48
413.687	318.41
414.065	332.42
414.442	302.59
414.819	327.45
415.197	316.6
415.574	320.22
415.951	308.47
416.328	307.11
416.705	323.16
417.082	335.58
417.46	326.55
417.837	341.91
418.214	330.61
418.591	323.83
418.967	316.38
419.344	329.26
419.721	324.74
420.098	308.92
420.475	325.19
420.852	326.55
421.228	320.67
421.605	309.14
421.982	343.27
422.358	334.68
422.735	305.98
423.111	317.28
423.488	330.84
423.864	327.67
424.241	334.91
424.617	327.68
424.994	346.88
425.37	322.7
425.746	324.51
426.123	341.91
426.499	319.09
426.875	338.97
427.251	342.36
427.627	338.07
428.003	336.26
428.379	330.16
428.756	353.44
429.132	340.33
429.507	364.28
429.883	354.11
430.259	348.47
430.635	357.5
431.011	349.37
431.387	338.3
431.763	351.4
432.138	342.14
432.514	343.04
432.89	358.86
433.265	359.09
433.641	352.53
434.016	344.85
434.392	348.47
434.767	339.43
435.143	349.82
435.518	358.86
435.894	338.07
436.269	376.49
436.644	353.44
437.02	351.63
437.395	355.7
437.77	360.44
438.145	346.43
438.52	360.67
438.895	370.61
439.271	367.22
439.646	361.35
440.021	364.96
440.395	365.64
440.77	366.32
441.145	368.13
441.52	374
441.895	370.61
442.27	360.22
442.645	341.91
443.019	363.38
443.394	364.74
443.769	361.57
444.143	368.35
444.518	381.01
444.892	381.91
445.267	365.64
445.641	388.69
446.016	369.48
446.39	376.71
446.764	355.7
447.139	364.96
447.513	371.52
447.887	381.68
448.262	397.96
448.636	368.13
449.01	383.72
449.384	380.1
449.758	376.71
450.132	377.17
450.506	387.11
450.88	373.32
451.254	378.3
451.628	376.04
452.002	357.73
452.376	381.46
452.75	399.09
453.123	399.09
453.497	413.55
453.871	422.59
454.244	380.78
454.618	382.14
454.992	384.17
455.365	394.11
455.739	399.76
456.112	403.83
456.486	406.77
456.859	424.17
457.232	418.75
457.606	401.12
457.979	395.02
458.352	390.72
458.725	416.03
459.099	423.27
459.472	413.77
459.845	395.7
460.218	443.15
460.591	392.31
460.964	394.11
461.337	424.17
461.71	409.03
462.083	411.74
462.456	425.53
462.829	407.9
463.201	425.3
463.574	410.16
463.947	419.88
464.32	449.03
464.692	418.07
465.065	428.01
465.438	433.89
465.81	431.85
466.183	428.24
466.555	414
466.928	464.62
467.3	458.07
467.672	426.66
468.045	449.71
468.417	454.23
468.789	459.87
469.161	448.58
469.534	451.97
469.906	452.87
470.278	475.02
470.65	473.66
471.022	454
471.394	479.08
471.766	461.91
472.138	468.01
472.51	472.53
472.882	489.7
473.253	499.42
473.625	502.81
473.997	468.46
474.369	498.29
474.74	486.31
475.112	509.14
475.484	502.59
475.855	509.82
476.227	513.88
476.598	517.73
476.97	516.37
477.341	533.55
477.713	524.28
478.084	525.41
478.455	532.64
478.827	556.37
479.198	534
479.569	526.99
479.94	556.37
480.311	555.47
480.682	576.93
481.053	574.67
481.424	585.52
481.795	567.22
482.166	580.32
482.537	590.04
482.908	604.96
483.279	593.88
483.65	581
484.021	599.31
484.391	615.35
484.762	615.35
485.133	602.24
485.503	628.46
485.874	639.76
486.244	620.55
486.615	628.68
486.985	653.54
487.356	630.04
487.726	646.54
488.097	659.87
488.467	681.79
488.837	671.39
489.207	679.53
489.578	704.84
489.948	688.12
490.318	707.55
490.688	675.24
491.058	707.1
491.428	694.67
491.798	712.75
492.168	726.99
492.538	742.35
492.908	725.4
493.278	741
493.648	734.44
494.017	717.27
494.387	727.44
494.757	735.12
495.126	765.4
495.496	764.73
495.866	758.62
496.235	762.92
496.605	759.08
496.974	763.37
497.344	754.1
497.713	771.96
498.082	770.15
498.452	770.15
498.821	773.99
499.19	766.53
499.559	799.3
499.928	794.1
500.298	789.58
500.667	818.74
501.036	810.37
501.405	834.33
501.774	795.69
502.143	806.31
502.512	832.97
502.88	819.64
503.249	805.18
503.618	808.79
503.987	824.39
504.356	821.9
504.724	806.08
505.093	856.25
505.462	835.91
505.83	837.72
506.199	804.95
506.567	859.41
506.936	859.41
507.304	872.29
507.672	846.76
508.041	862.58
508.409	862.8
508.777	873.2
509.145	868.23
509.514	842.01
509.882	878.17
510.25	881.78
510.618	850.6
510.986	866.87
511.354	885.63
511.722	876.14
512.09	890.6
512.458	882.69
512.826	903.03
513.193	886.08
513.561	870.94
513.929	896.7
514.297	919.98
514.664	902.12
515.032	888.11
515.4	891.73
515.767	903.48
516.135	908.45
516.502	889.02
516.869	911.39
517.237	922.24
517.604	914.33
517.972	908.9
518.339	944.16
518.706	926.08
519.073	931.05
519.44	931.73
519.808	942.12
520.175	931.73
520.542	958.84
520.909	965.62
521.276	971.73
521.643	924.72
522.009	967.66
522.376	938.28
522.743	973.08
523.11	963.59
523.477	964.27
523.843	979.86
524.21	981.22
524.577	961.33
524.943	970.6
525.31	979.64
525.676	976.7
526.043	1006.3
526.409	1003.59
526.776	987.09
527.142	1003.82
527.508	1002.69
527.874	992.74
528.241	973.31
528.607	997.04
528.973	999.3
529.339	993.65
529.705	985.96
530.071	1011.72
530.437	1021.89
530.803	1007.88
531.169	1046.75
531.535	1013.98
531.901	1015.11
532.267	996.13
532.632	1027.54
532.998	1048.79
533.364	1033.42
533.73	1028.22
534.095	1064.83
534.461	1056.24
534.826	1050.82
535.192	1037.03
535.557	1052.63
535.923	1031.61
536.288	1051.05
536.653	1058.73
537.019	1031.16
537.384	1052.18
537.749	1049.24
538.114	1028.45
538.479	1012.18
538.845	1054.66
539.21	1058.28
539.575	1059.63
539.94	1058.05
540.305	1067.54
540.67	1065.28
541.034	1042.46
541.399	1051.5
541.764	1050.59
542.129	1024.83
542.494	1082.68
542.858	1047.2
543.223	1022.57
543.587	1069.35
543.952	1048.33
544.316	1062.12
544.681	1060.09
545.045	1067.99
545.41	1054.66
545.774	1042.23
546.138	1061.22
546.503	1058.28
546.867	1069.8
547.231	1086.98
547.595	1042.23
547.959	1057.83
548.324	1046.98
548.688	1042.46
549.052	1059.18
549.416	1042.01
549.779	1077.26
550.143	1077.49
550.507	1049.46
550.871	1078.16
551.235	1081.1
551.599	1075.9
551.962	1067.77
552.326	1083.59
552.689	1071.84
553.053	1081.78
553.417	1068.22
553.78	1088.11
554.143	1074.32
554.507	1091.95
554.87	1077.94
555.234	1093.3
555.597	1095.34
555.96	1083.59
556.323	1085.4
556.686	1109.35
557.05	1096.47
557.413	1101.89
557.776	1099.18
558.139	1100.76
558.502	1114.77
558.865	1107.77
559.228	1109.12
559.59	1122
559.953	1121.78
560.316	1145.51
560.679	1126.75
561.041	1134.89
561.404	1130.82
561.767	1129.46
562.129	1112.06
562.492	1139.63
562.854	1119.29
563.217	1101.44
563.579	1110.25
563.941	1150.48
564.304	1150.48
564.666	1124.94
565.028	1145.96
565.39	1159.07
565.753	1167.2
566.115	1172.62
566.477	1148.22
566.839	1143.47
567.201	1170.36
567.563	1145.73
567.925	1183.7
568.287	1135.56
568.648	1169.46
569.01	1185.05
569.372	1182.12
569.734	1155.22
570.095	1176.24
570.457	1166.3
570.819	1182.12
571.18	1205.17
571.542	1148.44
571.903	1171.95
572.265	1178.5
572.626	1198.84
572.987	1183.25
573.349	1191.83
573.71	1185.28
574.071	1179.63
574.432	1184.15
574.794	1197.03
575.155	1192.29
575.516	1189.35
575.877	1173.75
576.238	1199.06
576.599	1190.7
576.96	1195.9
577.32	1214.43
577.681	1170.36
578.042	1192.06
578.403	1168.78
578.763	1195.67
579.124	1185.51
579.485	1171.72
579.845	1200.19
580.206	1198.61
580.566	1195.22
580.927	1169.69
581.287	1201.55
581.648	1171.49
582.008	1172.4
582.368	1175.11
582.728	1170.14
583.089	1211.72
583.449	1177.14
583.809	1168.1
584.169	1170.59
584.529	1163.81
584.889	1195.9
585.249	1192.74
585.609	1184.15
585.969	1176.69
586.329	1162.46
586.688	1197.26
587.048	1184.83
587.408	1169.91
587.768	1148.44
588.127	1182.34
588.487	1159.74
588.846	1153.64
589.206	1171.72
589.565	1171.72
589.925	1148.9
590.284	1157.26
590.643	1144.83
591.003	1164.26
591.362	1156.81
591.721	1130.14
592.08	1169.23
592.44	1150.48
592.799	1191.61
593.158	1156.13
593.517	1179.18
593.876	1176.69
594.235	1174.21
594.593	1136.69
594.952	1153.42
595.311	1172.62
595.67	1144.38
596.029	1190.25
596.387	1144.6
596.746	1160.87
597.104	1161.78
597.463	1138.73
597.822	1134.66
598.18	1157.94
598.538	1153.19
598.897	1180.08
599.255	1148.44
599.613	1182.57
599.972	1165.62
600.33	1155.68
600.688	1167.43
601.046	1162.91
601.404	1139.18
601.762	1154.32
602.12	1163.36
602.478	1182.34
602.836	1167.2
603.194	1148.22
603.552	1169.23
603.91	1168.56
604.268	1160.2
604.625	1154.55
604.983	1181.44
605.341	1147.09
605.698	1145.28
606.056	1151.38
606.413	1188.67
606.771	1165.85
607.128	1189.57
607.485	1180.08
607.843	1191.83
608.2	1187.77
608.557	1154.55
608.914	1169.69
609.272	1160.87
609.629	1189.57
609.986	1196.8
610.343	1175.79
610.7	1228.22
611.057	1207.88
611.414	1176.92
611.771	1192.29
612.127	1178.5
612.484	1186.64
612.841	1217.82
613.198	1203.58
613.554	1216.47
613.911	1189.35
614.267	1196.8
614.624	1227.31
614.98	1196.58
615.337	1201.78
615.693	1194.32
616.05	1191.38
616.406	1215.11
616.762	1198.61
617.118	1232.28
617.475	1206.97
617.831	1191.38
618.187	1203.58
618.543	1199.29
618.899	1211.04
619.255	1236.8
619.611	1217.82
619.967	1202.23
620.323	1184.83
620.678	1218.73
621.034	1214.21
621.39	1230.7
621.746	1202.23
622.101	1215.34
622.457	1237.93
622.812	1221.66
623.168	1223.02
623.523	1222.57
623.879	1201.1
624.234	1211.49
624.589	1238.16
624.945	1216.92
625.3	1229.35
625.655	1212.17
626.01	1213.3
626.365	1229.35
626.72	1206.52
627.075	1200.65
627.43	1199.52
627.785	1225.5
628.14	1224.37
628.495	1206.75
628.85	1208.78
629.205	1230.48
629.559	1219.63
629.914	1199.29
630.269	1190.03
630.623	1236.58
630.978	1211.72
631.332	1224.83
631.687	1207.88
632.041	1220.08
632.396	1203.36
632.75	1212.17
633.104	1181.21
633.459	1199.29
633.813	1198.16
634.167	1198.61
634.521	1173.08
634.875	1202.23
635.229	1190.93
635.583	1214.43
635.937	1196.13
636.291	1189.57
636.645	1201.32
636.999	1216.47
637.352	1200.19
637.706	1189.12
638.06	1190.7
638.413	1222.79
638.767	1207.43
639.121	1175.56
639.474	1194.77
639.828	1185.73
640.181	1222.34
640.534	1232.28
640.888	1192.29
641.241	1190.48
641.594	1208.56
641.947	1212.85
642.301	1218.5
642.654	1200.42
643.007	1219.4
643.36	1194.77
643.713	1202.91
644.066	1190.03
644.419	1198.16
644.771	1194.09
645.124	1171.72
645.477	1163.81
645.83	1153.87
646.182	1177.82
646.535	1161.33
646.888	1152.29
647.24	1168.78
647.593	1195.9
647.945	1187.99
648.298	1204.49
648.65	1196.58
649.002	1197.48
649.355	1199.29
649.707	1196.58
650.059	1185.05
650.411	1190.93
650.763	1219.18
651.115	1214.66
651.467	1222.79
651.819	1193.64
652.171	1236.35
652.523	1215.56
652.875	1216.01
653.227	1223.02
653.578	1222.11
653.93	1215.11
654.282	1232.28
654.633	1238.61
654.985	1234.32
655.337	1251.27
655.688	1246.07
656.039	1245.62
656.391	1260.31
656.742	1255.56
657.094	1261.21
657.445	1254.66
657.796	1247.65
658.147	1271.15
658.498	1265.96
658.849	1297.37
659.2	1291.04
659.551	1295.11
659.902	1289.91
660.253	1268.22
660.604	1324.03
660.955	1291.94
661.306	1306.86
661.656	1295.79
662.007	1329.46
662.358	1333.98
662.708	1300.53
663.059	1340.08
663.409	1316.8
663.76	1339.17
664.11	1358.61
664.461	1346.41
664.811	1349.34
665.161	1352.05
665.511	1356.57
665.862	1387.08
666.212	1368.1
666.562	1416.01
666.912	1416.01
667.262	1391.38
667.612	1426.18
667.962	1425.27
668.312	1444.48
668.662	1422.11
669.011	1438.83
669.361	1442
669.711	1436.35
670.06	1469.34
670.41	1445.16
670.76	1484.03
671.109	1513.63
671.459	1517.93
671.808	1510.92
672.157	1530.58
672.507	1507.98
672.856	1532.39
673.205	1559.51
673.554	1569
673.904	1578.04
674.253	1589.79
674.602	1607.19
674.951	1574.42
675.3	1579.85
675.649	1618.71
675.998	1649
676.346	1652.84
676.695	1658.26
677.044	1675.66
677.393	1687.41
677.741	1694.19
678.09	1715.66
678.438	1729.9
678.787	1759.95
679.135	1744.13
679.484	1733.06
679.832	1749.78
680.181	1762.21
680.529	1796.79
680.877	1784.81
681.225	1806.05
681.573	1864.81
681.922	1825.04
682.27	1856.9
682.618	1889.67
682.966	1891.93
683.314	1872.27
683.661	1922.21
684.009	1905.71
684.357	1895.32
684.705	1926.28
685.053	1960.85
685.4	1975.77
685.748	1967.63
686.095	1975.09
686.443	2015.09
686.79	2002.21
687.138	2034.3
687.485	2036.33
687.832	2057.35
688.18	2064.58
688.527	2074.75
688.874	2114.29
689.221	2135.76
689.568	2130.11
689.915	2135.31
690.262	2173.95
690.609	2182.99
690.956	2190.68
691.303	2194.29
691.65	2238.36
691.997	2259.38
692.344	2219.15
692.69	2218.25
693.037	2309.54
693.383	2281.3
693.73	2297.57
694.077	2320.84
694.423	2324.68
694.769	2352.03
695.116	2344.8
695.462	2362.42
695.808	2403.1
696.155	2396.77
696.501	2423.44
696.847	2429.54
697.193	2437.68
697.539	2436.77
697.885	2493.27
698.231	2448.3
698.577	2521.29
698.923	2523.32
699.269	2530.33
699.614	2555.86
699.96	2580.72
700.306	2583.66
700.651	2614.62
700.997	2585.02
701.342	2617.56
701.688	2639.93
702.033	2655.3
702.379	2664.56
702.724	2681.96
703.069	2708.86
703.415	2674.73
703.76	2744.33
704.105	2728.06
704.45	2763.09
704.795	2736.43
705.14	2739.59
705.485	2770.55
705.83	2802.41
706.175	2808.06
706.52	2822.75
706.865	2817.33
707.209	2864.78
707.554	2911.11
707.899	2884.9
708.243	2922.86
708.588	2922.18
708.932	2924.67
709.277	2908.85
709.621	2942.07
709.966	2973.48
710.31	2970.32
710.654	2976.42
710.998	2989.98
711.342	3015.51
711.687	2988.17
712.031	3012.58
712.375	3041.5
712.719	3066.36
713.063	3061.39
713.407	3081.05
713.75	3046.02
714.094	3116.98
714.438	3064.33
714.782	3113.82
715.125	3152.23
715.469	3163.08
715.812	3129.64
716.156	3163.08
716.499	3132.57
716.843	3157.88
717.186	3202.63
717.53	3210.76
717.873	3218.9
718.216	3225.23
718.559	3239.46
718.902	3241.04
719.246	3249.18
719.589	3263.64
719.932	3220.93
720.275	3288.05
720.617	3287.15
720.96	3331.66
721.303	3278.56
721.646	3335.51
721.989	3292.12
722.331	3326.47
722.674	3358.56
723.016	3335.73
723.359	3349.52
723.701	3380.7
724.044	3345.22
724.386	3319.46
724.729	3369.18
725.071	3372.11
725.413	3381.61
725.755	3383.87
726.097	3378.22
726.439	3362.62
726.782	3414.15
727.124	3377.76
727.465	3381.83
727.807	3384.32
728.149	3377.09
728.491	3383.87
728.833	3402.85
729.175	3399.68
729.516	3384.09
729.858	3439.46
730.199	3412.79
730.541	3421.15
730.882	3370.76
731.224	3429.06
731.565	3426.35
731.906	3402.62
732.248	3454.15
732.589	3393.58
732.93	3470.42
733.271	3433.36
733.612	3462.73
733.953	3462.51
734.294	3433.13
734.635	3410.53
734.976	3450.08
735.317	3457.08
735.658	3435.62
735.999	3473.58
736.339	3440.81
736.68	3509.06
737.021	3457.76
737.361	3457.99
737.702	3464.77
738.042	3448.5
738.383	3476.07
738.723	3443.53
739.063	3428.38
739.404	3500.7
739.744	3486.69
740.084	3413.02
740.424	3460.25
740.764	3490.08
741.104	3461.15
741.444	3458.67
741.784	3436.07
742.124	3446.92
742.464	3446.01
742.804	3435.84
743.143	3441.49
743.483	3428.16
743.823	3456.18
744.162	3458.67
744.502	3459.8
744.841	3396.07
745.181	3438.1
745.52	3416.18
745.86	3486.91
746.199	3441.72
746.538	3417.99
746.877	3456.86
747.216	3393.13
747.556	3403.75
747.895	3409.4
748.234	3419.35
748.573	3422.51
748.911	3400.81
749.25	3417.54
749.589	3406.69
749.928	3389.74
750.267	3395.84
750.605	3393.36
750.944	3385.9
751.283	3354.94
751.621	3354.04
751.96	3342.28
752.298	3396.97
752.636	3392.23
752.975	3328.5
753.313	3332.34
753.651	3359.46
753.989	3309.74
754.327	3326.69
754.666	3319.91
755.004	3332.57
755.342	3360.82
755.679	3335.96
756.017	3294.6
756.355	3354.04
756.693	3307.48
757.031	3317.43
757.368	3296.86
757.706	3316.07
758.044	3315.85
758.381	3312.68
758.719	3305.9
759.056	3255.96
759.394	3278.78
759.731	3274.04
760.068	3223.19
760.405	3251.21
760.743	3224.77
761.08	3225
761.417	3248.95
761.754	3271.55
762.091	3217.32
762.428	3237.2
762.765	3231.78
763.102	3220.48
763.438	3192.68
763.775	3121.27
764.112	3156.08
764.449	3183.87
764.785	3147.71
765.122	3128.51
765.458	3105.23
765.795	3101.84
766.131	3134.15
766.467	3074.95
766.804	3091.9
767.14	3076.76
767.476	3061.84
767.812	3049.41
768.148	3045.34
768.485	3040.82
768.821	3068.39
769.157	3058.68
769.492	3031.33
769.828	2987.49
770.164	3013.25
770.5	3016.87
770.836	2969.19
771.171	2984.1
771.507	2985.46
771.842	2919.02
772.178	2967.83
772.513	2960.37
772.849	2926.48
773.184	2881.96
773.519	2918.12
773.855	2919.7
774.19	2910.21
774.525	2901.17
774.86	2873.14
775.195	2907.95
775.53	2866.14
775.865	2860.26
776.2	2866.37
776.535	2810.1
776.87	2807.16
777.205	2832.92
777.539	2824.56
777.874	2846.03
778.209	2771.23
778.543	2810.1
778.878	2744.11
779.212	2776.88
779.547	2756.54
779.881	2756.31
780.215	2733.26
780.55	2745.69
780.884	2691.68
781.218	2687.84
781.552	2707.5
781.886	2724.67
782.22	2723.54
782.554	2644
782.888	2685.35
783.222	2652.36
783.556	2664.34
783.889	2649.87
784.223	2650.55
784.557	2641.74
784.89	2611
785.224	2605.58
785.557	2606.26
785.891	2580.72
786.224	2574.17
786.558	2604.9
786.891	2555.19
787.224	2554.96
787.557	2566.94
787.891	2578.46
788.224	2544.11
788.557	2556.54
788.89	2564.68
789.223	2564
789.556	2491.69
789.888	2512.7
790.221	2486.71
790.554	2481.52
790.887	2523.78
791.219	2524.45
791.552	2493.49
791.884	2460.95
792.217	2479.48
792.549	2445.36
792.882	2447.17
793.214	2427.51
793.546	2440.84
793.879	2438.35
794.211	2424.57
794.543	2446.26
794.875	2386.83
795.207	2405.13
795.539	2393.61
795.871	2357.45
796.203	2399.26
796.535	2392.25
796.867	2372.14
797.198	2355.64
797.53	2385.93
797.862	2338.7
798.193	2378.92
798.525	2341.86
798.856	2307.06
799.188	2321.29
799.519	2288.98
799.85	2319.26
800.182	2285.36
800.513	2307.74
800.844	2273.39
801.175	2284.01
801.506	2280.39
801.837	2278.81
802.168	2315.42
802.499	2281.52
802.83	2257.34
803.161	2269.77
803.491	2246.72
803.822	2261.18
804.153	2222.09
804.483	2245.59
804.814	2200.62
805.145	2192.03
805.475	2210.34
805.805	2204.01
806.136	2211.47
806.466	2236.1
806.796	2225.93
807.126	2183.45
807.457	2192.26
807.787	2171.92
808.117	2176.44
808.447	2135.09
808.777	2227.51
809.107	2184.35
809.436	2186.38
809.766	2188.64
810.096	2124.46
810.426	2145.03
810.755	2145.48
811.085	2142.09
811.414	2132.15
811.744	2132.15
812.073	2111.58
812.403	2131.7
812.732	2117.91
813.061	2114.97
813.39	2090.79
813.719	2067.74
814.049	2112.71
814.378	2102.54
814.707	2067.74
815.036	2061.19
815.365	2067.97
815.693	2050.79
816.022	2048.76
816.351	2034.07
816.68	2035.88
817.008	2076.33
817.337	2058.93
817.665	2016.44
817.994	2025.03
818.322	2073.62
818.651	2007.4
818.979	1990.68
819.307	2015.09
819.636	2033.84
819.964	2022.77
820.292	2025.03
820.62	1992.94
820.948	2017.57
821.276	2031.13
821.604	2019.83
821.932	2024.35
822.259	1994.98
822.587	2002.89
822.915	1987.52
823.243	2034.97
823.57	1994.07
823.898	1995.88
824.225	2020.74
824.553	2007.18
824.88	1970.57
825.207	1992.04
825.535	2008.76
825.862	1996.78
826.189	2015.77
826.516	2017.8
826.843	1989.78
827.17	1985.48
827.497	2031.59
827.824	2003.79
828.151	1989.33
828.478	2005.15
828.805	2013.28
829.131	1971.02
829.458	1984.58
829.785	1980.29
830.111	1961.76
830.438	1982.55
830.764	2024.13
831.09	2034.52
831.417	1988.87
831.743	1989.55
832.069	1987.29
832.395	1966.28
832.722	1967.18
833.048	1959.72
833.374	2011.92
833.7	1976.9
834.026	1997.91
834.351	2015.77
834.677	1970.34
835.003	1971.93
835.329	1974.41
835.654	1980.74
835.98	1966.05
836.306	1960.85
836.631	1952.27
836.956	1991.36
837.282	1958.59
837.607	1962.66
837.932	1950.23
838.258	1998.59
838.583	1943
838.908	1966.73
839.233	1938.25
839.558	1966.5
839.883	1927.86
840.208	1903.68
840.533	1916.79
840.858	1914.3
841.182	1928.31
841.507	1919.72
841.832	1933.73
842.156	1905.26
842.481	1917.46
842.805	1908.65
843.13	1900.51
843.454	1914.53
843.778	1922.21
844.103	1900.51
844.427	1902.32
844.751	1887.86
845.075	1899.16
845.399	1883.57
845.723	1869.56
846.047	1868.2
846.371	1880.85
846.695	1865.26
847.019	1854.87
847.343	1837.47
847.666	1849.89
847.99	1821.87
848.313	1800.4
848.637	1832.95
848.96	1810.57
849.284	1825.94
849.607	1801.99
849.931	1802.21
850.254	1812.16
850.577	1784.59
850.9	1800.63
851.223	1761.76
851.546	1745.04
851.869	1750.91
852.192	1767.19
852.515	1757.92
852.838	1740.75
853.161	1753.4
853.483	1719.73
853.806	1722.67
854.129	1738.94
854.451	1729.67
854.774	1774.87
855.096	1717.02
855.419	1713.85
855.741	1722.67
856.063	1697.58
856.385	1679.73
856.708	1671.14
857.03	1677.92
857.352	1674.76
857.674	1685.15
857.996	1660.75
858.318	1658.49
858.64	1672.05
858.961	1660.97
859.283	1646.51
859.605	1652.61
859.926	1654.42
860.248	1644.48
860.57	1649.9
860.891	1668.66
861.212	1651.93
861.534	1646.06
861.855	1639.5
862.176	1632.73
862.498	1628.43
862.819	1657.13
863.14	1626.17
863.461	1643.12
863.782	1615.32
864.103	1590.24
864.424	1595.44
864.745	1626.62
865.065	1608.55
865.386	1580.52
865.707	1621.65
866.027	1628.66
866.348	1621.88
866.668	1589.56
866.989	1585.27
867.309	1575.78
867.63	1570.13
867.95	1581.2
868.27	1567.64
868.59	1614.19
868.91	1596.12
869.23	1573.07
869.55	1573.74
869.87	1561.09
870.19	1578.94
870.51	1592.5
870.83	1608.32
871.15	1568.55
871.469	1564.03
871.789	1565.16
872.109	1561.77
872.428	1538.94
872.748	1533.52
873.067	1559.06
873.386	1578.94
873.706	1548.43
874.025	1575.1
874.344	1486.06
874.663	1568.32
874.982	1581.43
875.301	1545.27
875.62	1545.5
875.939	1562.44
876.258	1519.06
876.577	1506.63
876.896	1518.83
877.214	1505.95
877.533	1521.09
877.852	1530.13
878.17	1518.6
878.489	1550.24
878.807	1514.31
879.125	1545.72
879.444	1527.87
879.762	1528.55
880.08	1500.53
880.398	1501.66
880.716	1514.99
881.034	1491.26
881.352	1492.16
881.67	1510.92
881.988	1497.81
882.306	1490.58
882.624	1497.14
882.941	1477.48
883.259	1471.15
883.577	1500.53
883.894	1483.58
884.212	1497.81
884.529	1487.42
884.846	1479.74
885.164	1471.6
885.481	1482.22
885.798	1473.41
886.115	1451.26
886.432	1473.18
886.75	1467.76
887.067	1463.46
887.383	1480.64
887.7	1476.57
888.017	1465.95
888.334	1477.93
888.651	1442.22
888.967	1447.87
889.284	1448.78
889.6	1414.43
889.917	1402.45
890.233	1450.81
890.55	1427.53
890.866	1406.74
891.182	1422.79
891.498	1400.19
891.815	1432.05
892.131	1416.01
892.447	1375.56
892.763	1396.12
893.079	1395.67
893.395	1400.64
893.71	1386.4
894.026	1390.7
894.342	1389.12
894.657	1395.9
894.973	1385.95
895.289	1409.23
895.604	1367.65
895.92	1352.73
896.235	1332.17
896.55	1367.42
896.865	1343.02
897.181	1365.61
897.496	1349.12
897.811	1376.46
898.126	1362.22
898.441	1325.39
898.756	1326.07
899.071	1339.63
899.386	1344.37
899.7	1319.97
900.015	1354.99
900.33	1317.71
900.644	1305.95
900.959	1313.86
901.273	1314.99
901.588	1297.59
901.902	1304.15
902.216	1287.42
902.531	1281.1
902.845	1310.93
903.159	1290.14
903.473	1281.55
903.787	1268.89
904.101	1268.67
904.415	1244.94
904.729	1273.64
905.042	1265.73
905.356	1251.72
905.67	1287.42
905.984	1267.76
906.297	1253.3
906.611	1251.27
906.924	1272.73
907.237	1251.04
907.551	1237.93
907.864	1244.71
908.177	1236.13
908.491	1206.52
908.804	1249.46
909.117	1237.48
909.43	1217.82
909.743	1241.55
910.056	1195.45
910.368	1206.75
910.681	1204.04
910.994	1209.69
911.307	1205.84
911.619	1193.87
911.932	1184.38
912.244	1183.7
912.557	1173.08
912.869	1172.17
913.181	1180.31
913.494	1177.37
913.806	1166.97
914.118	1166.97
914.43	1172.62
914.742	1148.44
915.054	1134.89
915.366	1146.41
915.678	1129.24
915.99	1159.74
916.302	1144.38
916.613	1122.46
916.925	1130.37
917.236	1137.82
917.548	1104.15
917.859	1108.9
918.171	1113.64
918.482	1110.25
918.794	1101.44
919.105	1107.77
919.416	1094.66
919.727	1103.7
920.038	1056.47
920.349	1089.46
920.66	1074.1
920.971	1072.29
921.282	1099.41
921.593	1071.61
921.903	1059.86
922.214	1062.57
922.525	1056.92
922.835	1045.85
923.146	1031.61
923.456	1072.97
923.767	1039.97
924.077	1060.54
924.387	1018.5
924.697	1062.34
925.008	1011.72
925.318	1060.09
925.628	1029.8
925.938	1043.14
926.248	1018.96
926.558	1028.67
926.867	1024.38
927.177	1028
927.487	988.67
927.796	1052.63
928.106	1005.62
928.416	1008.11
928.725	1020.76
929.034	993.65
929.344	1017.6
929.653	995.68
929.962	991.39
930.271	1008.11
930.581	961.78
930.89	999.3
931.199	982.8
931.508	971.05
931.817	957.71
932.125	936.02
932.434	982.57
932.743	967.88
933.051	969.01
933.36	967.43
933.669	964.72
933.977	957.71
934.286	942.12
934.594	933.99
934.902	931.73
935.21	932.86
935.519	932.18
935.827	941.67
936.135	955.46
936.443	937.15
936.751	908.9
937.059	942.35
937.367	923.37
937.674	924.04
937.982	915.23
938.29	920.88
938.597	909.81
938.905	918.62
939.213	916.36
939.52	917.72
939.827	879.52
940.135	894.67
940.442	885.85
940.749	917.04
941.056	912.07
941.363	858.73
941.67	917.72
941.977	888.34
942.284	879.07
942.591	866.42
942.898	881.33
943.205	860.09
943.511	837.27
943.818	856.02
944.125	872.07
944.431	873.88
944.738	851.5
945.044	869.36
945.35	878.85
945.657	861.67
945.963	853.31
946.269	853.99
946.575	863.03
946.881	851.05
947.187	821.9
947.493	821.67
947.799	836.81
948.105	814.89
948.41	817.83
948.716	824.61
949.022	813.09
949.327	822.8
949.633	813.76
949.938	835.68
950.244	795.23
950.549	821.67
950.854	814.67
951.16	805.4
951.465	831.62
951.77	796.82
952.075	824.39
952.38	803.37
952.685	791.17
952.99	818.51
953.294	803.59
953.599	781
953.904	795.01
954.209	800.66
954.513	789.81
954.818	802.92
955.122	756.36
955.426	769.7
955.731	787.32
956.035	769.7
956.339	782.8
956.643	772.41
956.948	772.41
957.252	778.06
957.556	750.04
957.86	768.12
958.163	766.99
958.467	790.26
958.771	764.73
959.075	760.43
959.378	752.75
959.682	766.99
959.985	744.61
960.289	755.46
960.592	751.62
960.896	756.82
961.199	743.71
961.502	743.71
961.805	724.95
962.108	701.68
962.411	747.32
962.714	736.03
963.017	734.9
963.32	743.94
963.623	723.14
963.926	701.68
964.228	708.46
964.531	708.46
964.833	709.81
965.136	730.38
965.438	711.62
965.741	719.3
966.043	731.73
966.345	733.54
966.648	711.85
966.95	701.45
967.252	689.25
967.554	700.09
967.856	700.55
968.158	678.63
968.46	684.5
968.761	672.98
969.063	682.92
969.365	668.68
969.666	706.65
969.968	686.76
970.269	691.73
970.571	700.77
970.872	667.78
971.174	691.73
971.475	678.4
971.776	702.58
972.077	679.76
972.378	675.24
972.679	673.88
972.98	651.06
973.281	677.72
973.582	692.41
973.883	657.61
974.183	667.1
974.484	643.6
974.785	648.8
975.085	656.03
975.386	663.03
975.686	667.78
975.986	673.43
976.287	643.82
976.587	657.84
976.887	648.57
977.187	637.72
977.487	645.86
977.787	644.05
978.087	629.81
978.387	618.29
978.687	613.54
978.987	638.63
979.286	660.1
979.586	627.55
979.885	618.97
980.185	630.94
980.484	639.76
980.784	632.53
981.083	621.45
981.382	639.31
981.682	642.92
981.981	617.84
982.28	633.66
982.579	606.76
982.878	621.23
983.177	603.37
983.475	609.7
983.774	614.45
984.073	604.5
984.372	620.1
984.67	622.13
984.969	581.68
985.267	591.4
985.566	616.25
985.864	585.07
986.162	570.38
986.461	612.64
986.759	599.53
987.057	581.68
987.355	577.16
987.653	590.27
987.951	609.25
988.249	605.63
988.547	596.59
988.844	581
989.142	570.83
989.44	606.31
989.737	576.71
990.035	585.52
990.332	574.45
990.63	574.67
990.927	573.09
991.224	560.44
991.521	566.54
991.819	556.14
992.116	557.73
992.413	563.83
992.71	568.8
993.006	568.57
993.303	559.53
993.6	577.61
993.897	570.61
994.193	557.05
994.49	547.78
994.787	579.42
995.083	559.08
995.379	551.17
995.676	561.34
995.972	544.84
996.268	541.23
996.565	548.91
996.861	560.21
997.157	552.53
997.453	543.94
997.749	535.58
998.044	536.48
998.34	552.08
998.636	541.91
998.932	525.64
999.227	541
999.523	547.33
999.818	533.09
1000.114	532.19
1000.409	544.39
1000.704	540.32
1001	528.35
1001.295	532.19
1001.59	498.29
1001.885	517.73
1002.18	509.82
1002.475	524.05
1002.77	545.97
1003.065	539.87
1003.359	541.45
1003.654	534.68
1003.949	513.43
1004.243	524.96
1004.538	508.24
1004.832	494.9
1005.127	511.62
1005.421	514.79
1005.715	494.68
1006.009	498.97
1006.304	491.51
1006.598	518.63
1006.892	510.5
1007.186	492.19
1007.48	520.89
1007.773	501.23
1008.067	489.03
1008.361	504.62
1008.655	480.67
1008.948	484.96
1009.242	501
1009.535	500.1
1009.829	470.72
1010.122	474.56
1010.415	481.57
1010.708	462.59
1011.001	457.16
1011.295	482.7
1011.588	461.23
1011.881	483.38
1012.173	480.21
1012.466	485.41
1012.759	457.16
1013.052	483.6
1013.344	467.56
1013.637	485.18
1013.93	451.97
1014.222	469.82
1014.514	478.18
1014.807	476.37
1015.099	474.34
1015.391	442.02
1015.683	454.68
1015.976	475.47
1016.268	439.54
1016.56	451.74
1016.851	471.4
1017.143	441.12
1017.435	470.72
1017.727	462.59
1018.018	459.65
1018.31	457.84
1018.602	450.84
1018.893	460.33
1019.185	455.13
1019.476	449.93
1019.767	444.96
1020.058	446.54
1020.35	445.64
1020.641	458.29
1020.932	463.04
1021.223	431.18
1021.514	437.95
1021.804	432.98
1022.095	447.9
1022.386	434.11
1022.677	432.76
1022.967	441.34
1023.258	449.25
1023.548	445.41
1023.839	436.15
1024.129	430.95
1024.419	437.95
1024.709	444.06
1025	432.08
1025.29	424.62
1025.58	424.4
1025.87	442.02
1026.16	436.6
1026.449	437.95
1026.739	407.45
1027.029	417.84
1027.319	424.17
1027.608	439.31
1027.898	422.59
1028.187	421.46
1028.477	398.63
1028.766	413.77
1029.055	412.42
1029.344	419.65
1029.634	424.17
1029.923	408.12
1030.212	398.41
1030.501	404.28
1030.79	405.64
1031.078	411.06
1031.367	413.77
1031.656	435.02
1031.945	394.34
1032.233	414
1032.522	389.82
1032.81	417.16
1033.099	411.06
1033.387	400.67
1033.675	388.46
1033.963	406.99
1034.251	396.6
1034.54	386.88
1034.828	385.07
1035.116	383.49
1035.403	386.88
1035.691	400.67
1035.979	404.51
1036.267	381.68
1036.554	397.28
1036.842	404.51
1037.129	400.22
1037.417	410.38
1037.704	386.88
1037.992	404.06
1038.279	403.61
1038.566	373.1
1038.853	373.1
1039.14	373.1
