Data from carpet_green_FLMS001491_00040.txt Node
Date: Wed Feb 08 10:35:17 GMT 2017
User: dcchb
Spectrometer: FLMS00149
Trigger mode: 0
Integration Time (sec): 2.000000E-2
Scans to average: 10
Electric dark correction enabled: true
Nonlinearity correction enabled: false
Boxcar width: 0
XAxis mode: Wavelengths
Number of Pixels in Spectrum: 2048
>>>>>Begin Spectral Data<<<<<
341.393	-13.26
341.776	-13.26
342.16	-13.26
342.543	-53.04
342.927	-72.47
343.31	-58.91
343.693	-90.1
344.077	-70.66
344.46	-75.41
344.843	-39.02
345.226	-45.8
345.61	-17.78
345.993	-41.96
346.376	10.69
346.759	26.96
347.142	10.47
347.525	36.23
347.908	56.34
348.291	80.07
348.674	97.47
349.057	121.42
349.44	120.97
349.823	126.62
350.206	131.59
350.588	172.95
350.971	187.41
351.354	229.67
351.737	218.37
352.119	212.27
352.502	239.84
352.884	227.41
353.267	246.17
353.65	247.97
354.032	281.19
354.414	273.06
354.797	267.41
355.179	287.29
355.562	282.32
355.944	289.78
356.326	298.14
356.709	292.72
357.091	304.24
357.473	317.58
357.855	297.46
358.238	331.36
358.62	333.62
359.002	307.63
359.384	296.56
359.766	320.74
360.148	300.63
360.53	308.54
360.912	302.89
361.294	308.09
361.676	323.9
362.057	303.11
362.439	301.76
362.821	297.46
363.203	297.69
363.584	304.7
363.966	285.26
364.348	308.76
364.729	292.27
365.111	280.97
365.493	305.37
365.874	289.1
366.256	297.01
366.637	274.64
367.019	286.16
367.4	283.45
367.781	282.32
368.163	278.03
368.544	275.32
368.925	289.78
369.306	268.99
369.688	259.05
370.069	280.06
370.45	281.65
370.831	288.65
371.212	275.32
371.593	272.83
371.974	272.15
372.355	273.28
372.736	260.4
373.117	283.45
373.498	273.51
373.879	311.47
374.26	297.24
374.641	267.63
375.021	277.35
375.402	287.07
375.783	267.86
376.163	266.05
376.544	280.52
376.925	272.83
377.305	278.48
377.686	286.39
378.066	298.59
378.447	290.68
378.827	284.13
379.208	282.1
379.588	281.65
379.968	280.29
380.349	283.45
380.729	285.71
381.109	288.42
381.489	286.39
381.87	285.26
382.25	286.84
382.63	299.72
383.01	300.4
383.39	302.89
383.77	290.68
384.15	294.75
384.53	311.25
384.91	304.7
385.29	294.07
385.67	308.76
386.049	322.1
386.429	288.65
386.809	292.72
387.189	299.5
387.568	288.88
387.948	298.14
388.328	316.9
388.707	304.47
389.087	289.55
389.466	313.51
389.846	293.4
390.225	308.54
390.605	313.73
390.984	322.32
391.363	298.37
391.743	306.05
392.122	293.17
392.501	318.71
392.881	327.75
393.26	313.96
393.639	299.27
394.018	290.68
394.397	307.41
394.776	279.16
395.155	306.5
395.534	315.32
395.913	306.5
396.292	320.29
396.671	315.99
397.05	292.94
397.429	313.06
397.808	306.05
398.186	281.19
398.565	304.92
398.944	315.99
399.323	310.34
399.701	333.62
400.08	320.74
400.458	297.46
400.837	316.67
401.215	324.81
401.594	296.79
401.972	319.38
402.351	318.93
402.729	312.83
403.107	312.83
403.486	313.06
403.864	324.58
404.242	299.72
404.62	311.02
404.999	317.35
405.377	318.48
405.755	315.77
406.133	315.77
406.511	308.54
406.889	308.99
407.267	313.96
407.645	317.35
408.023	315.99
408.401	325.49
408.779	318.25
409.156	329.55
409.534	312.6
409.912	329.55
410.29	323.9
410.667	320.74
411.045	323.68
411.422	299.27
411.8	301.76
412.178	325.71
412.555	337.91
412.933	342.21
413.31	321.64
413.687	331.36
414.065	321.42
414.442	335.43
414.819	331.59
415.197	316.67
415.574	332.04
415.951	348.99
416.328	345.37
416.705	344.02
417.082	345.15
417.46	317.12
417.837	334.98
418.214	318.03
418.591	336.78
418.967	344.69
419.344	321.19
419.721	325.49
420.098	348.76
420.475	352.6
420.852	340.4
421.228	353.51
421.605	338.37
421.982	350.8
422.358	334.3
422.735	340.85
423.111	359.38
423.488	342.66
423.864	355.77
424.241	341.76
424.617	363
424.994	333.17
425.37	324.13
425.746	359.84
426.123	350.57
426.499	350.12
426.875	347.63
427.251	345.82
427.627	352.83
428.003	338.37
428.379	345.15
428.756	346.28
429.132	342.89
429.507	347.18
429.883	372.04
430.259	351.02
430.635	354.86
431.011	365.26
431.387	375.43
431.763	379.27
432.138	357.35
432.514	368.65
432.89	369.55
433.265	365.94
433.641	365.03
434.016	362.32
434.392	358.93
434.767	381.53
435.143	387.18
435.518	372.49
435.894	379.5
436.269	389.21
436.644	371.59
437.02	386.5
437.395	375.43
437.77	381.08
438.145	400.74
438.52	388.99
438.895	386.28
439.271	380.4
439.646	386.73
440.021	385.37
440.395	383.34
440.77	390.34
441.145	370.23
441.52	389.89
441.895	395.77
442.27	412.49
442.645	407.74
443.019	410
443.394	389.89
443.769	406.16
444.143	404.13
444.518	409.55
444.892	407.07
445.267	376.11
445.641	385.6
446.016	402.09
446.39	389.66
446.764	415.65
447.139	401.42
447.513	410.23
447.887	407.97
448.262	405.71
448.636	405.94
449.01	408.42
449.384	428.53
449.758	404.58
450.132	412.04
450.506	415.88
450.88	427.63
451.254	405.94
451.628	425.6
452.002	426.73
452.376	417.91
452.75	418.14
453.123	401.64
453.497	398.93
453.871	413.39
454.244	430.12
454.618	432.83
454.992	431.7
455.365	422.21
455.739	451.58
456.112	444.58
456.486	433.51
456.859	452.94
457.232	452.71
457.606	441.19
457.979	446.39
458.352	464.47
458.725	437.8
459.099	457.23
459.472	445.26
459.845	452.94
460.218	459.49
460.591	445.71
460.964	448.42
461.337	475.09
461.71	466.73
462.083	464.24
462.456	458.14
462.829	486.16
463.201	466.5
463.574	478.25
463.947	499.94
464.32	482.32
464.692	486.61
465.065	474.86
465.438	502.43
465.81	513.73
466.183	494.52
466.555	496.1
466.928	490
467.3	517.8
467.672	522.54
468.045	501.3
468.417	506.95
468.789	526.38
469.161	525.48
469.534	525.71
469.906	546.5
470.278	539.04
470.65	536.1
471.022	532.26
471.394	548.08
471.766	553.28
472.138	545.59
472.51	547.63
472.882	584.46
473.253	539.72
473.625	571.81
473.997	589.21
474.369	587.63
474.74	581.52
475.112	597.57
475.484	598.92
475.855	594.41
476.227	601.86
476.598	614.97
476.97	611.13
477.341	613.39
477.713	634.63
478.084	617
478.455	634.4
478.827	637.12
479.198	650
479.569	658.36
479.94	666.95
480.311	674.4
480.682	673.27
481.053	706.72
481.424	686.38
481.795	687.51
482.166	701.07
482.537	676.89
482.908	711.01
483.279	708.75
483.65	733.84
484.021	745.36
484.391	750.79
484.762	747.62
485.133	750.56
485.503	773.38
485.874	786.94
486.244	789.88
486.615	781.52
486.985	809.54
487.356	785.81
487.726	825.59
488.097	824.68
488.467	845.02
488.837	850.9
489.207	847.73
489.578	862.42
489.948	861.97
490.318	862.42
490.688	863.55
491.058	885.7
491.428	881.63
491.798	906.04
492.168	928.63
492.538	918.69
492.908	924.79
493.278	909.43
493.648	918.69
494.017	958.92
494.387	947.62
494.757	953.49
495.126	953.04
495.496	984.23
495.866	991.23
496.235	987.16
496.605	988.29
496.974	986.94
497.344	970.67
497.713	972.7
498.082	990.33
498.452	1014.28
498.821	1025.13
499.19	992.59
499.559	1002.53
499.928	1034.85
500.298	1044.34
500.667	1043.43
501.036	1026.48
501.405	1044.11
501.774	1017.67
502.143	1028.74
502.512	1044.56
502.88	1053.38
503.249	1049.76
503.618	1064.68
503.987	1073.94
504.356	1068.07
504.724	1093.6
505.093	1081.62
505.462	1075.75
505.83	1081.62
506.199	1088.4
506.567	1098.35
506.936	1101.28
507.304	1115.3
507.672	1105.8
508.041	1118.23
508.409	1099.7
508.777	1149.42
509.145	1124.11
509.514	1105.13
509.882	1135.63
510.25	1136.09
510.618	1146.03
510.986	1116.65
511.354	1147.16
511.722	1166.59
512.09	1162.98
512.458	1138.12
512.826	1154.16
513.193	1186.25
513.561	1210.21
513.929	1182.41
514.297	1179.93
514.664	1189.42
515.032	1185.12
515.4	1198.68
515.767	1195.52
516.135	1203.65
516.502	1221.28
516.869	1237.55
517.237	1215.63
517.604	1202.98
517.972	1221.73
518.339	1236.65
518.706	1237.1
519.073	1202.52
519.44	1260.6
519.808	1242.07
520.175	1248.4
520.542	1254.5
520.909	1264.67
521.276	1250.21
521.643	1277.33
522.009	1282.3
522.376	1272.58
522.743	1269.87
523.11	1280.71
523.477	1292.24
523.843	1309.41
524.21	1282.07
524.577	1284.33
524.943	1312.8
525.31	1318.45
525.676	1320.26
526.043	1328.17
526.409	1327.04
526.776	1344.67
527.142	1348.74
527.508	1346.25
527.874	1354.39
528.241	1330.21
528.607	1351.45
528.973	1344.89
529.339	1326.36
529.705	1359.13
530.071	1368.4
530.437	1378.11
530.803	1374.05
531.169	1374.95
531.535	1371.33
531.901	1368.17
532.267	1374.72
532.632	1375.85
532.998	1393.03
533.364	1404.33
533.73	1379.47
534.095	1405.46
534.461	1385.12
534.826	1397.32
535.192	1406.59
535.557	1391.22
535.923	1407.49
536.288	1389.64
536.653	1414.27
537.019	1387.83
537.384	1407.94
537.749	1396.42
538.114	1398.68
538.479	1413.82
538.845	1417.66
539.21	1387.15
539.575	1401.84
539.94	1414.04
540.305	1428.73
540.67	1405.01
541.034	1411.33
541.399	1414.27
541.764	1418.11
542.129	1420.15
542.494	1402.52
542.858	1426.93
543.223	1429.64
543.587	1414.72
543.952	1412.01
544.316	1408.85
544.681	1404.55
545.045	1418.79
545.41	1419.69
545.774	1418.34
546.138	1401.39
546.503	1432.12
546.867	1437.55
547.231	1419.24
547.595	1410.2
547.959	1424.44
548.324	1436.64
548.688	1433.93
549.052	1430.77
549.416	1432.58
549.779	1400.94
550.143	1438.68
550.507	1457.89
550.871	1436.42
551.235	1466.47
551.599	1444.78
551.962	1476.87
552.326	1446.13
552.689	1475.29
553.053	1462.86
553.417	1440.26
553.78	1481.61
554.143	1438.68
554.507	1447.72
554.87	1453.59
555.234	1485.68
555.597	1445.91
555.96	1480.03
556.323	1480.71
556.686	1477.55
557.05	1454.27
557.413	1508.51
557.776	1489.07
558.139	1488.39
558.502	1445.23
558.865	1462.63
559.228	1495.17
559.59	1515.74
559.953	1484.78
560.316	1476.42
560.679	1500.6
561.041	1511.22
561.404	1508.05
561.767	1524.78
562.129	1492.46
562.492	1497.43
562.854	1523.42
563.217	1523.42
563.579	1516.19
563.941	1524.1
564.304	1538.79
564.666	1543.31
565.028	1525.23
565.39	1531.33
565.753	1555.74
566.115	1520.48
566.477	1536.08
566.839	1515.96
567.201	1543.76
567.563	1525.68
567.925	1565
568.287	1566.13
568.648	1559.8
569.01	1540.82
569.372	1557.32
569.734	1547.15
570.095	1556.64
570.457	1547.15
570.819	1583.53
571.18	1572.01
571.542	1544.44
571.903	1570.65
572.265	1545.11
572.626	1570.42
572.987	1567.04
573.349	1548.05
573.71	1575.17
574.071	1577.43
574.432	1588.28
574.794	1609.75
575.155	1589.18
575.516	1550.99
575.877	1572.91
576.238	1572.91
576.599	1575.62
576.96	1583.76
577.32	1552.12
577.681	1571.33
578.042	1568.16
578.403	1565.68
578.763	1560.71
579.124	1545.57
579.485	1574.04
579.845	1565.68
580.206	1567.49
580.566	1567.04
580.927	1584.44
581.287	1573.36
581.648	1562.06
582.008	1551.89
582.368	1556.41
582.728	1581.5
583.089	1533.82
583.449	1551.22
583.809	1540.37
584.169	1564.1
584.529	1548.05
584.889	1510.77
585.249	1518
585.609	1539.01
585.969	1557.54
586.329	1508.96
586.688	1543.53
587.048	1550.99
587.408	1509.64
587.768	1532.46
588.127	1547.6
588.487	1529.07
588.846	1542.63
589.206	1545.11
589.565	1504.44
589.925	1518.45
590.284	1512.35
590.643	1511.67
591.003	1503.99
591.362	1498.79
591.721	1507.6
592.08	1536.53
592.44	1525.23
592.799	1519.13
593.158	1515.29
593.517	1514.38
593.876	1518.22
594.235	1505.79
594.593	1504.44
594.952	1478
595.311	1509.64
595.67	1502.4
596.029	1531.33
596.387	1486.36
596.746	1498.34
597.104	1482.97
597.463	1520.03
597.822	1513.25
598.18	1486.13
598.538	1486.81
598.897	1502.63
599.255	1522.52
599.613	1494.95
599.972	1477.32
600.33	1504.66
600.688	1483.42
601.046	1513.03
601.404	1489.97
601.762	1508.05
602.12	1502.18
602.478	1527.94
602.836	1513.48
603.194	1524.1
603.552	1527.71
603.91	1502.18
604.268	1526.36
604.625	1512.57
604.983	1525.23
605.341	1506.92
605.698	1508.51
606.056	1517.09
606.413	1530.43
606.771	1498.34
607.128	1539.01
607.485	1529.75
607.843	1513.93
608.2	1541.72
608.557	1523.19
608.914	1537.43
609.272	1539.47
609.629	1535.4
609.986	1544.21
610.343	1542.4
610.7	1531.1
611.057	1568.84
611.414	1532.23
611.771	1542.85
612.127	1536.08
612.484	1573.36
612.841	1595.73
613.198	1565
613.554	1524.32
613.911	1558.22
614.267	1536.08
614.624	1553.02
614.98	1560.26
615.337	1565.23
615.693	1546.24
616.05	1571.78
616.406	1561.16
616.762	1556.41
617.118	1573.14
617.475	1548.28
617.831	1573.14
618.187	1578.79
618.543	1562.06
618.899	1605.9
619.255	1568.84
619.611	1568.62
619.967	1558
620.323	1601.16
620.678	1573.14
621.034	1578.56
621.39	1588.28
621.746	1562.29
622.101	1599.8
622.457	1567.94
622.812	1591.44
623.168	1551.22
623.523	1547.37
623.879	1574.27
624.234	1561.39
624.589	1547.6
624.945	1579.01
625.3	1571.55
625.655	1586.24
626.01	1577.88
626.365	1545.34
626.72	1552.57
627.075	1569.07
627.43	1583.31
627.785	1569.07
628.14	1575.17
628.495	1575.4
628.85	1575.62
629.205	1564.32
629.559	1544.66
629.914	1546.92
630.269	1549.63
630.623	1558
630.978	1545.79
631.332	1547.6
631.687	1554.15
632.041	1565.68
632.396	1565.68
632.75	1547.6
633.104	1561.16
633.459	1545.34
633.813	1517.32
634.167	1542.85
634.521	1557.09
634.875	1561.16
635.229	1562.29
635.583	1533.14
635.937	1539.01
636.291	1518.22
636.645	1519.13
636.999	1532.46
637.352	1529.3
637.706	1545.34
638.06	1503.31
638.413	1549.41
638.767	1512.35
639.121	1542.63
639.474	1539.47
639.828	1588.96
640.181	1532.01
640.534	1531.33
640.888	1549.18
641.241	1542.85
641.594	1524.32
641.947	1542.18
642.301	1546.47
642.654	1527.04
643.007	1559.58
643.36	1553.7
643.713	1560.93
644.066	1550.76
644.419	1550.99
644.771	1532.23
645.124	1531.33
645.477	1522.06
645.83	1516.87
646.182	1536.75
646.535	1511.67
646.888	1504.44
647.24	1508.96
647.593	1548.05
647.945	1534.04
648.298	1520.71
648.65	1517.54
649.002	1555.51
649.355	1543.98
649.707	1510.99
650.059	1538.79
650.411	1559.58
650.763	1577.43
651.115	1576.3
651.467	1572.68
651.819	1589.18
652.171	1591.22
652.523	1614.04
652.875	1602.97
653.227	1583.08
653.578	1603.87
653.93	1592.57
654.282	1602.97
654.633	1614.49
654.985	1623.53
655.337	1620.37
655.688	1611.33
656.039	1603.87
656.391	1635.73
656.742	1661.95
657.094	1653.36
657.445	1659.69
657.796	1660.37
658.147	1656.52
658.498	1684.77
658.849	1695.62
659.2	1693.36
659.551	1704.66
659.902	1706.01
660.253	1727.48
660.604	1676.41
660.955	1737.65
661.306	1721.61
661.656	1734.94
662.007	1710.99
662.358	1763.64
662.708	1756.86
663.059	1788.95
663.409	1785.56
663.76	1781.72
664.11	1808.16
664.461	1823.53
664.811	1829.63
665.161	1855.62
665.511	1817.88
665.862	1834.37
666.212	1851.32
666.562	1862.85
666.912	1880.25
667.262	1861.94
667.612	1931.55
667.962	1908.72
668.312	1943.07
668.662	1955.95
669.011	1984.88
669.361	1958.89
669.711	1950.98
670.06	1979.91
670.41	1982.84
670.76	2010.87
671.109	2040.24
671.459	2029.17
671.808	2062.39
672.157	2046.34
672.507	2059.45
672.856	2098.32
673.205	2117.08
673.554	2120.24
673.904	2113.91
674.253	2150.97
674.602	2138.32
674.951	2140.13
675.3	2167.47
675.649	2208.15
675.998	2171.31
676.346	2256.96
676.695	2251.31
677.044	2249.73
677.393	2303.96
677.741	2320.24
678.09	2321.59
678.438	2324.08
678.787	2311.87
679.135	2352.1
679.484	2355.49
679.832	2417.63
680.181	2374.92
680.529	2425.77
680.877	2447.92
681.225	2438.88
681.573	2489.95
681.922	2496.05
682.27	2501.47
682.618	2514.13
682.966	2558.65
683.314	2533.34
683.661	2550.74
684.009	2543.51
684.357	2588.03
684.705	2634.58
685.053	2628.02
685.4	2655.82
685.748	2676.84
686.095	2697.85
686.443	2708.25
686.79	2691.53
687.138	2744.86
687.485	2733.78
687.832	2810.39
688.18	2828.02
688.527	2790.73
688.874	2819.88
689.221	2882.48
689.568	2865.53
689.915	2889.03
690.262	2906.21
690.609	2936.49
690.956	2929.26
691.303	2950.73
691.65	2980.78
691.997	3002.25
692.344	3011.52
692.69	3034.34
693.037	3056.49
693.383	3048.58
693.73	3108.69
694.077	3083.61
694.423	3122.7
694.769	3124.73
695.116	3134.9
695.462	3165.41
695.808	3185.3
696.155	3150.5
696.501	3199.31
696.847	3209.03
697.193	3226.2
697.539	3242.25
697.885	3279.53
698.231	3254
698.577	3328.57
698.923	3321.57
699.269	3315.01
699.614	3352.3
699.96	3332.86
700.306	3383.48
700.651	3351.62
700.997	3393.2
701.342	3413.77
701.688	3445.63
702.033	3455.12
702.379	3441.79
702.724	3455.35
703.069	3513.2
703.415	3486.76
703.76	3548.9
704.105	3536.47
704.45	3521.79
704.795	3556.14
705.14	3582.58
705.485	3586.64
705.83	3568.79
706.175	3600.65
706.52	3610.15
706.865	3630.94
707.209	3660.09
707.554	3663.48
707.899	3667.77
708.243	3694.89
708.588	3696.7
708.932	3711.39
709.277	3714.55
709.621	3721.33
709.966	3720.88
710.31	3774.43
710.654	3764.94
710.998	3818.28
711.342	3772.85
711.687	3772.17
712.031	3773.53
712.375	3811.72
712.719	3833.87
713.063	3846.75
713.407	3891.27
713.75	3889.46
714.094	3883.58
714.438	3909.12
714.782	3886.52
715.125	3888.56
715.469	3932.17
715.812	3906.63
716.156	3954.77
716.499	3958.38
716.843	3983.24
717.186	3952.51
717.53	3980.76
717.873	4009.46
718.216	3990.47
718.559	4018.5
718.902	3999.51
719.246	4051.72
719.589	4003.81
719.932	4000.19
720.275	4002.68
720.617	4043.13
720.96	4092.39
721.303	4059.85
721.646	4086.74
721.989	4073.18
722.331	4111.15
722.674	4094.65
723.016	4068.44
723.359	4069.57
723.701	4100.75
724.044	4105.95
724.386	4079.96
724.729	4072.51
725.071	4124.26
725.413	4160.19
725.755	4149.79
726.097	4137.81
726.439	4150.7
726.782	4148.21
727.124	4145.95
727.465	4158.15
727.807	4188.44
728.149	4146.18
728.491	4206.29
728.833	4187.53
729.175	4140.07
729.516	4192.95
729.858	4168.1
730.199	4210.58
730.541	4206.06
730.882	4168.32
731.224	4192.5
731.565	4195.44
731.906	4218.04
732.248	4237.7
732.589	4260.3
732.93	4207.87
733.271	4186.85
733.612	4232.95
733.953	4206.29
734.294	4218.72
734.635	4207.64
734.976	4242.22
735.317	4169.23
735.658	4232.28
735.999	4219.62
736.339	4200.41
736.68	4230.02
737.021	4216
737.361	4188.21
737.702	4233.86
738.042	4223.46
738.383	4215.1
738.723	4198.6
739.063	4229.11
739.404	4252.84
739.744	4234.76
740.084	4240.41
740.424	4203.8
740.764	4203.8
741.104	4197.02
741.444	4209.23
741.784	4176.23
742.124	4164.25
742.464	4186.18
742.804	4216
743.143	4174.42
743.483	4156.12
743.823	4216.23
744.162	4156.12
744.502	4202.22
744.841	4193.63
745.181	4212.39
745.52	4227.76
745.86	4176.23
746.199	4249.22
746.538	4149.11
746.877	4173.07
747.216	4212.16
747.556	4145.72
747.895	4199.73
748.234	4206.06
748.573	4191.82
748.911	4155.67
749.25	4141.2
749.589	4138.72
749.928	4143.01
750.267	4147.53
750.605	4149.57
750.944	4166.74
751.283	4078.16
751.621	4130.13
751.96	4056.24
752.298	4112.73
752.636	4041.55
752.975	4124.71
753.313	4040.64
753.651	4041.09
753.989	4042.68
754.327	4070.7
754.666	4047.65
755.004	4053.75
755.342	4067.99
755.679	4025.28
756.017	4011.04
756.355	4054.2
756.693	4060.98
757.031	3997.71
757.368	3969.91
757.706	4011.94
758.044	4003.81
758.381	4001.32
758.719	4002.23
759.056	3926.97
759.394	3934.88
759.731	3942.57
760.068	3942.34
760.405	3914.54
760.743	3897.37
761.08	3926.52
761.417	3865.73
761.754	3900.53
762.091	3898.73
762.428	3836.81
762.765	3888.56
763.102	3845.85
763.438	3846.75
763.775	3809.69
764.112	3815.34
764.449	3815.11
764.785	3775.79
765.122	3765.4
765.458	3785.28
765.795	3729.24
766.131	3784.38
766.467	3717.26
766.804	3718.16
767.14	3676.58
767.476	3710.03
767.812	3693.31
768.148	3727.66
768.485	3682.46
768.821	3664.38
769.157	3683.82
769.492	3653.76
769.828	3650.37
770.164	3619.86
770.5	3600.65
770.836	3654.44
771.171	3594.55
771.507	3619.86
771.842	3574.44
772.178	3535.12
772.513	3593.65
772.849	3542.35
773.184	3546.42
773.519	3596.13
773.855	3503.71
774.19	3501
774.525	3501.45
774.86	3505.74
775.195	3475.01
775.53	3502.13
775.865	3422.13
776.2	3451.96
776.535	3427.55
776.87	3397.04
777.205	3379.19
777.539	3418.74
777.874	3399.3
778.209	3391.39
778.543	3360.21
778.878	3336.03
779.212	3355.24
779.547	3324.73
779.881	3324.95
780.215	3328.12
780.55	3307.33
780.884	3301.23
781.218	3260.1
781.552	3300.32
781.886	3242.47
782.22	3249.25
782.554	3222.13
782.888	3223.04
783.222	3206.54
783.556	3243.6
783.889	3240.44
784.223	3200.89
784.557	3193.88
784.89	3192.76
785.224	3161.8
785.557	3146.88
785.891	3127.22
786.224	3153.66
786.558	3122.47
786.891	3093.77
787.224	3119.99
787.557	3102.14
787.891	3119.54
788.224	3097.84
788.557	3077.5
788.89	3070.27
789.223	3077.73
789.556	3046.09
789.888	3056.49
790.221	3032.99
790.554	3025.98
790.887	2981.69
791.219	3005.19
791.552	3000.22
791.884	2981.46
792.217	2990.73
792.549	2958.18
792.882	2943.04
793.214	2930.84
793.546	2932.65
793.879	2890.62
794.211	2884.74
794.543	2893.55
794.875	2921.35
795.207	2891.07
795.539	2878.41
795.871	2891.29
796.203	2873.44
796.535	2873.67
796.867	2861.92
797.198	2836.61
797.53	2855.81
797.862	2814.91
798.193	2816.27
798.525	2789.6
798.856	2826.44
799.188	2781.92
799.519	2770.85
799.85	2731.98
800.182	2771.3
800.513	2762.48
800.844	2741.69
801.175	2758.19
801.506	2757.29
801.837	2757.96
802.168	2769.04
802.499	2730.17
802.83	2701.92
803.161	2673.9
803.491	2694.46
803.822	2693.79
804.153	2678.64
804.483	2664.41
804.814	2658.53
805.145	2656.95
805.475	2657.85
805.805	2680.23
806.136	2627.35
806.466	2609.49
806.796	2648.14
807.126	2599.1
807.457	2608.36
807.787	2607.91
808.117	2635.03
808.447	2642.04
808.777	2610.17
809.107	2599.55
809.436	2618.08
809.766	2579.21
810.096	2554.81
810.426	2572.21
810.755	2551.19
811.085	2571.08
811.414	2581.25
811.744	2522.04
812.073	2552.55
812.403	2549.83
812.732	2539.21
813.061	2534.02
813.39	2531.53
813.719	2467.12
814.049	2528.59
814.378	2506.22
814.707	2480.46
815.036	2478.88
815.365	2496.73
815.693	2453.79
816.022	2444.07
816.351	2419.89
816.68	2471.64
817.008	2426.22
817.337	2446.79
817.665	2412.21
817.994	2410.63
818.322	2451.31
818.651	2408.82
818.979	2434.81
819.307	2402.04
819.636	2424.87
819.964	2393
820.292	2401.14
820.62	2403.62
820.948	2382.83
821.276	2420.57
821.604	2377.64
821.932	2409.05
822.259	2411.08
822.587	2377.18
822.915	2393.45
823.243	2416.5
823.57	2400.69
823.898	2400.46
824.225	2411.76
824.553	2377.41
824.88	2414.47
825.207	2386.9
825.535	2387.58
825.862	2369.73
826.189	2397.3
826.516	2386.22
826.843	2389.61
827.17	2374.25
827.497	2388.03
827.824	2416.5
828.151	2394.58
828.478	2384.87
828.805	2395.94
829.131	2366.34
829.458	2347.81
829.785	2358.65
830.111	2373.79
830.438	2378.54
830.764	2382.15
831.09	2413.11
831.417	2357.52
831.743	2400.91
832.069	2377.64
832.395	2354.58
832.722	2403.17
833.048	2393
833.374	2398.43
833.7	2360.01
834.026	2387.13
834.351	2370.4
834.677	2371.76
835.003	2381.48
835.329	2360.01
835.654	2374.02
835.98	2374.25
836.306	2326.79
836.631	2365.43
836.956	2351.65
837.282	2330.86
837.607	2308.03
837.932	2322.04
838.258	2313.46
838.583	2318.65
838.908	2323.17
839.233	2336.28
839.558	2330.86
839.883	2315.26
840.208	2297.19
840.533	2286.79
840.858	2286.56
841.182	2294.02
841.507	2321.59
841.832	2270.52
842.156	2301.03
842.481	2277.75
842.805	2292.21
843.13	2277.75
843.454	2286.56
843.778	2269.62
844.103	2242.5
844.427	2263.74
844.751	2235.72
845.075	2235.94
845.399	2227.81
845.723	2198.43
846.047	2226.9
846.371	2207.92
846.695	2206.79
847.019	2192.56
847.343	2174.93
847.666	2204.31
847.99	2140.13
848.313	2181.48
848.637	2185.1
848.96	2182.16
849.284	2176.28
849.607	2128.6
849.931	2131.77
850.254	2136.96
850.577	2137.87
850.9	2114.59
851.223	2123.18
851.546	2110.3
851.869	2097.87
852.192	2097.64
852.515	2091.77
852.838	2117.98
853.161	2051.32
853.483	2059.45
853.806	2045.67
854.129	2052.22
854.451	2067.13
854.774	2061.49
855.096	2022.39
855.419	2055.61
855.741	2005.89
856.063	2030.07
856.385	2001.83
856.708	2019.68
857.03	2025.33
857.352	1993.46
857.674	2003.18
857.996	1956.4
858.318	1975.16
858.64	1968.61
858.961	1964.99
859.283	1996.4
859.605	1965.89
859.926	1934.93
860.248	1971.09
860.57	1939
860.891	1959.57
861.212	1957.31
861.534	1969.96
861.855	1940.13
862.176	1960.92
862.498	1965.22
862.819	1930.64
863.14	1921.15
863.461	1960.02
863.782	1902.39
864.103	1909.62
864.424	1898.78
864.745	1931.77
865.065	1887.48
865.386	1900.13
865.707	1891.09
866.027	1913.92
866.348	1897.2
866.668	1891.77
866.989	1884.31
867.309	1892.22
867.63	1879.34
867.95	1890.19
868.27	1892
868.59	1901.04
868.91	1884.09
869.23	1869.63
869.55	1881.6
869.87	1878.67
870.19	1874.15
870.51	1842.28
870.83	1878.89
871.15	1870.76
871.469	1849.06
871.789	1829.85
872.109	1836.63
872.428	1845.22
872.748	1844.32
873.067	1838.67
873.386	1832.79
873.706	1816.07
874.025	1817.88
874.344	1874.15
874.663	1829.18
874.982	1808.16
875.301	1821.04
875.62	1791.44
875.939	1819.68
876.258	1809.74
876.577	1809.97
876.896	1848.84
877.214	1791.89
877.533	1792.79
877.852	1808.38
878.17	1804.32
878.489	1823.07
878.807	1798.89
879.125	1767.26
879.444	1782.17
879.762	1801.83
880.08	1808.84
880.398	1793.47
880.716	1812.9
881.034	1762.51
881.352	1763.19
881.67	1799.12
881.988	1802.51
882.306	1773.13
882.624	1752.34
882.941	1734.26
883.259	1761.15
883.577	1719.12
883.894	1762.28
884.212	1762.28
884.529	1779.23
884.846	1761.83
885.164	1736.97
885.481	1761.61
885.798	1733.13
886.115	1715.96
886.432	1752.34
886.75	1716.18
887.067	1709.63
887.383	1702.4
887.7	1714.83
888.017	1716.18
888.334	1707.82
888.651	1699.91
888.967	1718.9
889.284	1694.72
889.6	1685.45
889.917	1713.25
890.233	1695.39
890.55	1687.71
890.866	1707.82
891.182	1674.6
891.498	1660.37
891.815	1657.65
892.131	1649.52
892.447	1662.17
892.763	1648.84
893.079	1636.64
893.395	1657.88
893.71	1607.71
894.026	1630.08
894.342	1651.1
894.657	1604.77
894.973	1616.75
895.289	1591.67
895.604	1639.12
895.92	1617.43
896.235	1620.59
896.55	1640.03
896.865	1614.49
897.181	1608.16
897.496	1604.32
897.811	1616.98
898.126	1571.33
898.441	1560.26
898.756	1563.19
899.071	1551.22
899.386	1555.06
899.7	1560.71
900.015	1578.79
900.33	1542.63
900.644	1537.43
900.959	1541.72
901.273	1540.6
901.588	1520.48
901.902	1548.5
902.216	1549.86
902.531	1509.86
902.845	1500.6
903.159	1494.04
903.473	1489.07
903.787	1482.52
904.101	1511.9
904.415	1506.7
904.729	1487.04
905.042	1493.36
905.356	1474.83
905.67	1468.73
905.984	1469.86
906.297	1470.77
906.611	1492.46
906.924	1444.78
907.237	1452.24
907.551	1438.68
907.864	1478.22
908.177	1440.03
908.491	1445
908.804	1423.54
909.117	1426.93
909.43	1445.46
909.743	1417.21
910.056	1412.46
910.368	1430.32
910.681	1413.14
910.994	1398
911.307	1389.19
911.619	1372.46
911.932	1387.38
912.244	1383.99
912.557	1365.46
912.869	1368.4
913.181	1377.89
913.494	1365.01
913.806	1360.49
914.118	1332.24
914.43	1328.62
914.742	1369.3
915.054	1348.06
915.366	1347.61
915.678	1337.66
915.99	1294.73
916.302	1298.79
916.613	1319.58
916.925	1325.01
917.236	1346.93
917.548	1280.26
917.859	1280.71
918.171	1286.14
918.482	1309.64
918.794	1319.36
919.105	1305.8
919.416	1273.26
919.727	1271.68
920.038	1278.23
920.349	1281.62
920.66	1280.04
920.971	1268.06
921.282	1247.95
921.593	1271
921.903	1244.56
922.214	1244.11
922.525	1254.5
922.835	1248.17
923.146	1225.12
923.456	1224.67
923.767	1231.9
924.077	1228.96
924.387	1216.08
924.697	1235.07
925.008	1217.67
925.318	1190.77
925.628	1204.11
925.938	1193.26
926.248	1186.93
926.558	1180.6
926.867	1176.76
927.177	1187.38
927.487	1185.58
927.796	1179.25
928.106	1181.96
928.416	1172.24
928.725	1162.3
929.034	1144.45
929.344	1161.17
929.653	1154.62
929.962	1145.58
930.271	1124.79
930.581	1149.19
930.89	1121.85
931.199	1134.73
931.508	1137.89
931.817	1131.11
932.125	1117.56
932.434	1120.49
932.743	1125.24
933.051	1101.96
933.36	1098.57
933.669	1102.87
933.977	1099.02
934.286	1099.02
934.594	1101.96
934.902	1080.49
935.21	1120.04
935.519	1083.88
935.827	1068.74
936.135	1070.78
936.443	1074.62
936.751	1046.82
937.059	1087.5
937.367	1062.87
937.674	1067.61
937.982	1070.55
938.29	1044.79
938.597	1046.82
938.905	1038.01
939.213	1049.99
939.52	1044.79
939.827	1049.99
940.135	1036.88
940.442	1043.66
940.749	1032.36
941.056	1017.67
941.363	1023.09
941.67	1012.25
941.977	1055.86
942.284	994.17
942.591	997.33
942.898	1007.28
943.205	1004.34
943.511	988.07
943.818	999.14
944.125	965.69
944.431	992.81
944.738	981.74
945.044	977.9
945.35	979.71
945.657	976.54
945.963	984
946.269	993.04
946.575	966.37
946.881	973.83
947.187	958.69
947.493	956.66
947.799	970.89
948.105	965.47
948.41	956.43
948.716	962.31
949.022	962.98
949.327	934.51
949.633	951.01
949.938	932.48
950.244	941.97
950.549	965.69
950.854	919.37
951.16	940.61
951.465	933.38
951.77	882.99
952.075	926.83
952.38	908.97
952.685	921.63
952.99	909.43
953.294	898.58
953.599	909.88
953.904	913.27
954.209	916.66
954.513	912.59
954.818	891.12
955.122	894.51
955.426	864.91
955.731	886.37
956.035	889.99
956.339	871.23
956.643	875.53
956.948	880.95
957.252	887.73
957.556	873.95
957.86	864.91
958.163	849.77
958.467	872.82
958.771	868.75
959.075	851.35
959.378	861.97
959.682	848.86
959.985	848.18
960.289	853.61
960.592	833.95
960.896	849.99
961.199	826.94
961.502	830.11
961.805	812.48
962.108	823.55
962.411	854.29
962.714	821.97
963.017	807.96
963.32	825.59
963.623	811.57
963.926	849.31
964.228	819.48
964.531	823.55
964.833	814.74
965.136	817.22
965.438	796.89
965.741	797.34
966.043	788.98
966.345	798.02
966.648	807.06
966.95	792.37
967.252	817
967.554	779.49
967.856	799.37
968.158	792.82
968.46	767.28
968.761	790.56
969.063	804.12
969.365	764.57
969.666	765.7
969.968	763.44
970.269	765.93
970.571	777.45
970.872	773.38
971.174	760.73
971.475	758.92
971.776	760.5
972.077	760.95
972.378	759.82
972.679	729.54
972.98	747.17
973.281	754.4
973.582	755.76
973.883	738.36
974.183	729.77
974.484	750.79
974.785	725.93
975.085	736.55
975.386	733.16
975.686	723.44
975.986	750.11
976.287	720.28
976.587	717.11
976.887	717.11
977.187	703.1
977.487	698.13
977.787	723.22
978.087	737.45
978.387	692.03
978.687	706.04
978.987	728.87
979.286	718.24
979.586	720.5
979.885	694.52
980.185	688.19
980.484	692.93
980.784	725.02
981.083	708.07
981.382	683.44
981.682	689.09
981.981	661.52
982.28	678.92
982.579	687.74
982.878	689.32
983.177	676.44
983.475	668.75
983.774	703.55
984.073	673.27
984.372	681.18
984.67	657.45
984.969	660.84
985.267	688.64
985.566	663.33
985.864	642.99
986.162	643.9
986.461	647.96
986.759	653.61
987.057	680.5
987.355	662.2
987.653	649.77
987.951	629.88
988.249	639.6
988.547	661.52
988.844	643.44
989.142	671.01
989.44	647.74
989.737	654.52
990.035	640.73
990.332	642.31
990.63	638.47
990.927	642.77
991.224	606.38
991.521	634.18
991.819	635.08
992.116	624.01
992.413	628.3
992.71	610.45
993.006	632.6
993.303	625.14
993.6	622.65
993.897	612.03
994.193	628.3
994.49	627.17
994.787	614.52
995.083	611.35
995.379	648.42
995.676	587.17
995.972	590.34
996.268	618.36
996.565	605.48
996.861	594.18
997.157	616.1
997.453	599.38
997.749	576.33
998.044	612.48
998.34	616.33
998.636	587.4
998.932	601.86
999.227	585.37
999.523	594.63
999.818	580.62
1000.114	577.46
1000.409	584.01
1000.704	582.88
1001	582.88
1001.295	600.73
1001.59	583.56
1001.885	569.77
1002.18	579.04
1002.475	563.67
1002.77	548.76
1003.065	570
1003.359	581.3
1003.654	570.23
1003.949	560.96
1004.243	557.34
1004.538	570.23
1004.832	548.3
1005.127	553.73
1005.421	549.21
1005.715	560.51
1006.009	547.63
1006.304	559.38
1006.598	549.66
1006.892	532.94
1007.186	583.33
1007.48	555.31
1007.773	559.38
1008.067	545.14
1008.361	531.36
1008.655	534.07
1008.948	534.52
1009.242	515.76
1009.535	549.89
1009.829	543.56
1010.122	526.61
1010.415	523.67
1010.708	513.73
1011.001	524.12
1011.295	526.84
1011.588	527.74
1011.881	522.99
1012.173	513.73
1012.466	504.46
1012.759	501.75
1013.052	539.49
1013.344	524.8
1013.637	509.66
1013.93	520.28
1014.222	502.2
1014.514	514.86
1014.807	484.35
1015.099	503.79
1015.391	495.88
1015.683	499.04
1015.976	496.1
1016.268	497.01
1016.56	520.51
1016.851	483.45
1017.143	492.94
1017.435	489.55
1017.727	507.4
1018.018	503.79
1018.31	513.96
1018.602	498.81
1018.893	480.06
1019.185	500.62
1019.476	503.79
1019.767	478.48
1020.058	485.93
1020.35	488.65
1020.641	498.36
1020.932	486.39
1021.223	485.93
1021.514	466.05
1021.804	484.8
1022.095	462.88
1022.386	460.85
1022.677	459.72
1022.967	467.4
1023.258	473.5
1023.548	481.19
1023.839	466.05
1024.129	450.91
1024.419	443.22
1024.709	459.49
1025	471.7
1025.29	467.85
1025.58	456.1
1025.87	444.58
1026.16	436.67
1026.449	449.32
1026.739	457.91
1027.029	445.48
1027.319	445.93
1027.608	434.64
1027.898	436.22
1028.187	452.04
1028.477	457.23
1028.766	448.87
1029.055	444.35
1029.344	450.91
1029.634	429.66
1029.923	433.05
1030.212	453.17
1030.501	427.4
1030.79	446.84
1031.078	424.47
1031.367	422.43
1031.656	414.97
1031.945	433.96
1032.233	434.64
1032.522	434.18
1032.81	408.42
1033.099	422.66
1033.387	432.6
1033.675	425.37
1033.963	431.25
1034.251	429.44
1034.54	407.29
1034.828	435.99
1035.116	424.24
1035.403	431.47
1035.691	422.43
1035.979	410.91
1036.267	416.1
1036.554	407.52
1036.842	407.52
1037.129	420.4
1037.417	392.38
1037.704	404.81
1037.992	409.55
1038.279	406.16
1038.566	414.3
1038.853	414.3
1039.14	414.3
