Data from carpet_green_FLMS001491_00014.txt Node
Date: Wed Feb 08 10:34:58 GMT 2017
User: dcchb
Spectrometer: FLMS00149
Trigger mode: 0
Integration Time (sec): 2.000000E-2
Scans to average: 10
Electric dark correction enabled: true
Nonlinearity correction enabled: false
Boxcar width: 0
XAxis mode: Wavelengths
Number of Pixels in Spectrum: 2048
>>>>>Begin Spectral Data<<<<<
341.393	-16.69
341.776	-16.69
342.16	-16.69
342.543	-53.76
342.927	-67.99
343.31	-71.61
343.693	-78.39
344.077	-65.51
344.46	-62.57
344.843	-46.52
345.226	-33.64
345.61	-29.58
345.993	-26.64
346.376	-23.47
346.759	16.07
347.142	28.95
347.525	66.69
347.908	49.07
348.291	62.17
348.674	108.05
349.057	106.92
349.44	117.54
349.823	124.32
350.206	165.22
350.588	186.24
350.971	190.76
351.354	227.14
351.737	203.64
352.119	218.1
352.502	255.16
352.884	255.39
353.267	252
353.65	276.86
354.032	277.99
354.414	277.08
354.797	302.17
355.179	284.31
355.562	308.72
355.944	294.48
356.326	302.39
356.709	296.74
357.091	320.25
357.473	317.31
357.855	326.57
358.238	310.98
358.62	314.14
359.002	299.68
359.384	324.99
359.766	303.3
360.148	328.38
360.53	289.06
360.912	315.95
361.294	292.22
361.676	321.83
362.057	318.21
362.439	304.2
362.821	303.52
363.203	292.45
363.584	310.53
363.966	310.08
364.348	286.12
364.729	291.09
365.111	316.18
365.493	277.54
365.874	298.78
366.256	303.3
366.637	325.22
367.019	289.74
367.4	280.47
367.781	296.52
368.163	271.66
368.544	300.81
368.925	294.48
369.306	294.71
369.688	277.08
370.069	294.48
370.45	292.9
370.831	271.43
371.212	285.44
371.593	281.15
371.974	287.93
372.355	289.06
372.736	282.96
373.117	261.26
373.498	285.44
373.879	262.62
374.26	287.93
374.641	304.88
375.021	287.25
375.402	301.04
375.783	295.39
376.163	284.99
376.544	287.93
376.925	304.65
377.305	295.84
377.686	285.67
378.066	299
378.447	289.29
378.827	279.79
379.208	283.18
379.588	286.57
379.968	296.52
380.349	282.73
380.729	276.18
381.109	289.74
381.489	282.51
381.87	301.94
382.25	313.69
382.63	296.97
383.01	289.29
383.39	326.57
383.77	285.22
384.15	280.7
384.53	293.35
384.91	320.92
385.29	309.4
385.67	302.85
386.049	299.68
386.429	282.28
386.809	293.58
387.189	288.83
387.568	286.12
387.948	315.05
388.328	273.47
388.707	299.68
389.087	300.59
389.466	296.52
389.846	315.27
390.225	315.5
390.605	323.64
390.984	312.34
391.363	317.76
391.743	293.58
392.122	314.6
392.501	305.56
392.881	330.64
393.26	298.33
393.639	301.26
394.018	304.65
394.397	301.94
394.776	302.39
395.155	311.21
395.534	329.96
395.913	291.77
396.292	318.89
396.671	310.98
397.05	292
397.429	333.13
397.808	295.16
398.186	312.56
398.565	296.07
398.944	295.16
399.323	310.75
399.701	313.69
400.08	303.07
400.458	301.94
400.837	320.02
401.215	309.17
401.594	310.53
401.972	327.03
402.351	313.47
402.729	308.72
403.107	339.68
403.486	312.11
403.864	313.24
404.242	338.32
404.62	315.95
404.999	326.35
405.377	317.53
405.755	325.67
406.133	307.82
406.511	308.04
406.889	341.71
407.267	308.72
407.645	330.42
408.023	311.88
408.401	326.12
408.779	316.63
409.156	347.14
409.534	305.33
409.912	325.44
410.29	303.07
410.667	309.4
411.045	327.7
411.422	324.54
411.8	315.05
412.178	338.1
412.555	325.44
412.933	326.57
413.31	316.86
413.687	344.43
414.065	336.52
414.442	331.77
414.819	328.16
415.197	332.9
415.574	330.42
415.951	322.51
416.328	318.21
416.705	334.71
417.082	347.82
417.46	320.02
417.837	352.11
418.214	336.52
418.591	336.52
418.967	353.01
419.344	334.48
419.721	323.41
420.098	330.19
420.475	338.1
420.852	362.5
421.228	340.58
421.605	348.95
421.982	341.26
422.358	337.19
422.735	364.31
423.111	347.59
423.488	344.43
423.864	354.82
424.241	368.15
424.617	361.83
424.994	334.26
425.37	339.45
425.746	344.43
426.123	334.26
426.499	354.37
426.875	339.23
427.251	355.27
427.627	353.69
428.003	367.93
428.379	351.88
428.756	367.02
429.132	339.68
429.507	325.9
429.883	364.31
430.259	366.57
430.635	352.34
431.011	338.55
431.387	335.39
431.763	362.96
432.138	364.31
432.514	353.69
432.89	353.69
433.265	377.19
433.641	389.85
434.016	368.61
434.392	369.28
434.767	346.23
435.143	369.06
435.518	350.08
435.894	372.67
436.269	362.28
436.644	378.55
437.02	349.17
437.395	365.44
437.77	374.03
438.145	390.98
438.52	383.97
438.895	389.85
439.271	363.86
439.646	393.69
440.021	384.42
440.395	381.94
440.77	377.19
441.145	391.66
441.52	385.78
441.895	404.54
442.27	398.21
442.645	399.34
443.019	398.44
443.394	402.73
443.769	401.6
444.143	382.17
444.518	400.47
444.892	404.54
445.267	402.28
445.641	397.31
446.016	399.11
446.39	410.19
446.764	390.98
447.139	403.18
447.513	381.94
447.887	411.54
448.262	406.8
448.636	410.41
449.01	397.08
449.384	419.9
449.758	398.44
450.132	426.01
450.506	393.92
450.88	423.52
451.254	402.05
451.628	400.92
452.002	426.23
452.376	426.23
452.75	433.46
453.123	400.24
453.497	421.49
453.871	412.67
454.244	446.12
454.618	414.71
454.992	431.2
455.365	442.05
455.739	436.85
456.112	438.66
456.486	438.89
456.859	437.98
457.232	452.9
457.606	458.32
457.979	442.73
458.352	432.11
458.725	440.02
459.099	441.82
459.472	451.54
459.845	451.77
460.218	452.9
460.591	436.4
460.964	459.23
461.337	459.9
461.71	448.15
462.083	465.55
462.456	469.85
462.829	473.69
463.201	473.69
463.574	447.02
463.947	500.81
464.32	477.53
464.692	458.32
465.065	481.15
465.438	484.31
465.81	501.26
466.183	468.04
466.555	491.31
466.928	526.79
467.3	497.19
467.672	517.98
468.045	499.45
468.417	509.17
468.789	512.78
469.161	504.65
469.534	526.79
469.906	518.43
470.278	512.56
470.65	522.5
471.022	529.05
471.394	538.32
471.766	523.63
472.138	521.6
472.51	543.06
472.882	553.69
473.253	548.94
473.625	555.04
473.997	569.05
474.369	575.38
474.74	567.02
475.112	571.09
475.484	580.58
475.855	586.23
476.227	580.13
476.598	593.68
476.97	586.45
477.341	601.37
477.713	618.32
478.084	592.78
478.455	606.79
478.827	622.16
479.198	626.23
479.569	625.55
479.94	646.56
480.311	643.85
480.682	646.56
481.053	653.8
481.424	671.42
481.795	651.54
482.166	649.95
482.537	674.13
482.908	690.41
483.279	703.51
483.65	705.32
484.021	712.55
484.391	716.39
484.762	704.19
485.133	725.21
485.503	734.47
485.874	766.79
486.244	734.47
486.615	748.48
486.985	762.72
487.356	775.6
487.726	782.15
488.097	765.66
488.467	770.18
488.837	780.35
489.207	825.77
489.578	818.99
489.948	815.83
490.318	840.46
490.688	823.06
491.058	839.78
491.428	843.62
491.798	848.37
492.168	864.64
492.538	857.63
492.908	872.1
493.278	876.84
493.648	872.32
494.017	850.4
494.387	886.11
494.757	892.21
495.126	915.71
495.496	907.58
495.866	908.25
496.235	920.91
496.605	918.87
496.974	933.79
497.344	902.15
497.713	922.49
498.082	936.73
498.452	932.21
498.821	960
499.19	947.35
499.559	942.38
499.928	961.36
500.298	960.91
500.667	966.78
501.036	988.7
501.405	1009.27
501.774	986.89
502.143	975.82
502.512	974.69
502.88	988.02
503.249	1004.97
503.618	1006.33
503.987	993.67
504.356	1005.88
504.724	1021.47
505.093	1016.72
505.462	1009.04
505.83	1017.85
506.199	1011.3
506.567	1045.65
506.936	1024.63
507.304	1017.63
507.672	1057.85
508.041	1044.52
508.409	1053.11
508.777	1037.74
509.145	1053.79
509.514	1060.79
509.882	1080
510.25	1048.36
510.618	1074.58
510.986	1066.89
511.354	1094.46
511.722	1086.55
512.09	1103.05
512.458	1082.49
512.826	1087.23
513.193	1114.12
513.561	1092.43
513.929	1103.28
514.297	1142.6
514.664	1120.9
515.032	1094.24
515.4	1118.64
515.767	1103.73
516.135	1129.94
516.502	1111.19
516.869	1128.36
517.237	1150.96
517.604	1122.71
517.972	1140.11
518.339	1137.63
518.706	1153.67
519.073	1136.27
519.44	1150.28
519.808	1163.16
520.175	1171.52
520.542	1170.84
520.909	1173.1
521.276	1169.49
521.643	1176.49
522.009	1184.4
522.376	1207.68
522.743	1201.8
523.11	1193.67
523.477	1178.75
523.843	1220.79
524.21	1213.1
524.577	1199.77
524.943	1229.15
525.31	1229.6
525.676	1207.45
526.043	1236.61
526.409	1258.53
526.776	1244.06
527.142	1245.87
527.508	1230.28
527.874	1242.03
528.241	1267.34
528.607	1260.33
528.973	1271.41
529.339	1275.7
529.705	1244.06
530.071	1287.23
530.437	1294.68
530.803	1289.94
531.169	1283.84
531.535	1284.97
531.901	1288.13
532.267	1293.1
532.632	1284.74
532.998	1284.29
533.364	1306.43
533.73	1271.41
534.095	1296.04
534.461	1284.97
534.826	1328.35
535.192	1324.51
535.557	1317.28
535.923	1295.59
536.288	1315.02
536.653	1310.5
537.019	1317.06
537.384	1313.67
537.749	1310.28
538.114	1318.86
538.479	1294.46
538.845	1271.18
539.21	1304.17
539.575	1321.8
539.94	1303.95
540.305	1341.24
540.67	1324.06
541.034	1315.47
541.399	1329.48
541.764	1329.94
542.129	1332.87
542.494	1322.25
542.858	1339.65
543.223	1327.45
543.587	1328.58
543.952	1290.16
544.316	1319.77
544.681	1336.04
545.045	1347.11
545.41	1335.13
545.774	1298.3
546.138	1331.97
546.503	1336.72
546.867	1319.09
547.231	1321.35
547.595	1338.07
547.959	1325.87
548.324	1337.85
548.688	1328.81
549.052	1338.98
549.416	1341.91
549.779	1376.26
550.143	1345.76
550.507	1335.59
550.871	1346.21
551.235	1369.94
551.599	1325.19
551.962	1349.37
552.326	1366.32
552.689	1353.89
553.053	1349.6
553.417	1364.51
553.78	1362.03
554.143	1362.93
554.507	1367.45
554.87	1352.76
555.234	1339.43
555.597	1365.87
555.96	1377.62
556.323	1363.83
556.686	1375.13
557.05	1371.74
557.413	1381.69
557.776	1382.14
558.139	1411.97
558.502	1391.63
558.865	1382.36
559.228	1394.12
559.59	1393.89
559.953	1372.65
560.316	1380.78
560.679	1390.05
561.041	1400.44
561.404	1392.53
561.767	1384.4
562.129	1383.27
562.492	1423.04
562.854	1439.31
563.217	1407
563.579	1401.8
563.941	1423.27
564.304	1402.48
564.666	1409.03
565.028	1430.05
565.39	1428.47
565.753	1437.5
566.115	1428.24
566.477	1448.58
566.839	1417.62
567.201	1445.19
567.563	1439.54
567.925	1453.32
568.287	1448.35
568.648	1426.21
569.01	1427.11
569.372	1431.86
569.734	1459.65
570.095	1443.61
570.457	1428.47
570.819	1426.21
571.18	1465.98
571.542	1468.46
571.903	1413.1
572.265	1452.65
572.626	1437.28
572.987	1457.62
573.349	1470.05
573.71	1462.59
574.071	1450.84
574.432	1454.68
574.794	1467.56
575.155	1444.28
575.516	1442.7
575.877	1455.36
576.238	1468.01
576.599	1463.72
576.96	1450.39
577.32	1435.7
577.681	1476.6
578.042	1459.2
578.403	1447.45
578.763	1461.68
579.124	1463.72
579.485	1442.02
579.845	1434.11
580.206	1448.8
580.566	1454.45
580.927	1446.09
581.287	1451.06
581.648	1418.3
582.008	1441.8
582.368	1444.96
582.728	1458.97
583.089	1437.5
583.449	1431.63
583.809	1451.29
584.169	1428.92
584.529	1447.9
584.889	1415.13
585.249	1440.67
585.609	1430.27
585.969	1400.9
586.329	1430.5
586.688	1425.08
587.048	1418.3
587.408	1416.94
587.768	1397.96
588.127	1421.91
588.487	1395.02
588.846	1428.01
589.206	1401.12
589.565	1404.74
589.925	1403.61
590.284	1388.24
590.643	1407.9
591.003	1401.8
591.362	1383.72
591.721	1430.5
592.08	1402.03
592.44	1385.3
592.799	1420.1
593.158	1383.95
593.517	1401.57
593.876	1395.92
594.235	1390.05
594.593	1362.48
594.952	1416.26
595.311	1388.92
595.67	1411.52
596.029	1400.22
596.387	1386.43
596.746	1438.86
597.104	1414.23
597.463	1392.31
597.822	1405.64
598.18	1399.99
598.538	1388.47
598.897	1388.92
599.255	1390.73
599.613	1397.96
599.972	1406.32
600.33	1393.21
600.688	1405.64
601.046	1422.82
601.404	1435.92
601.762	1386.43
602.12	1398.64
602.478	1411.29
602.836	1407.9
603.194	1402.7
603.552	1372.42
603.91	1413.55
604.268	1412.19
604.625	1407.22
604.983	1419.65
605.341	1411.97
605.698	1432.53
606.056	1432.08
606.413	1429.37
606.771	1435.92
607.128	1410.84
607.485	1397.96
607.843	1454.23
608.2	1434.34
608.557	1440.89
608.914	1449.71
609.272	1441.12
609.629	1451.06
609.986	1449.26
610.343	1431.18
610.7	1439.76
611.057	1472.08
611.414	1430.5
611.771	1428.47
612.127	1460.33
612.484	1471.18
612.841	1438.41
613.198	1414.45
613.554	1434.57
613.911	1436.6
614.267	1478.18
614.624	1437.5
614.98	1428.24
615.337	1470.95
615.693	1450.16
616.05	1476.6
616.406	1477.05
616.762	1454.45
617.118	1446.32
617.475	1446.54
617.831	1460.33
618.187	1474.79
618.543	1450.39
618.899	1441.57
619.255	1472.31
619.611	1464.85
619.967	1458.07
620.323	1489.71
620.678	1479.76
621.034	1456.49
621.39	1428.69
621.746	1449.93
622.101	1472.53
622.457	1445.64
622.812	1458.75
623.168	1485.64
623.523	1464.85
623.879	1467.56
624.234	1453.78
624.589	1463.72
624.945	1471.63
625.3	1459.65
625.655	1448.13
626.01	1446.32
626.365	1488.58
626.72	1467.79
627.075	1462.81
627.43	1467.11
627.785	1456.04
628.14	1456.49
628.495	1455.81
628.85	1487.22
629.205	1458.07
629.559	1449.03
629.914	1451.52
630.269	1456.04
630.623	1440.22
630.978	1449.48
631.332	1450.16
631.687	1432.53
632.041	1459.2
632.396	1452.42
632.75	1454.91
633.104	1454
633.459	1453.32
633.813	1450.39
634.167	1429.6
634.521	1440.22
634.875	1444.74
635.229	1456.49
635.583	1418.3
635.937	1430.95
636.291	1441.35
636.645	1439.99
636.999	1418.07
637.352	1427.79
637.706	1444.06
638.06	1427.11
638.413	1466.88
638.767	1439.31
639.121	1410.16
639.474	1432.31
639.828	1451.97
640.181	1426.88
640.534	1423.95
640.888	1433.89
641.241	1420.1
641.594	1428.24
641.947	1440.44
642.301	1427.79
642.654	1422.14
643.007	1421.69
643.36	1452.87
643.713	1434.34
644.066	1444.28
644.419	1439.99
644.771	1432.53
645.124	1429.14
645.477	1428.69
645.83	1420.1
646.182	1410.39
646.535	1406.77
646.888	1411.29
647.24	1421.69
647.593	1444.51
647.945	1444.06
648.298	1451.52
648.65	1435.02
649.002	1441.8
649.355	1450.61
649.707	1438.86
650.059	1486.54
650.411	1453.78
650.763	1484.51
651.115	1482.25
651.467	1473.89
651.819	1486.09
652.171	1537.39
652.523	1496.49
652.875	1503.04
653.227	1508.24
653.578	1501.68
653.93	1513.43
654.282	1512.08
654.633	1493.1
654.985	1521.8
655.337	1552.3
655.688	1553.21
656.039	1550.27
656.391	1566.54
656.742	1570.16
657.094	1567.44
657.445	1592.53
657.796	1569.25
658.147	1577.39
658.498	1583.26
658.849	1597.5
659.2	1567.22
659.551	1606.99
659.902	1609.48
660.253	1644.28
660.604	1653.09
660.955	1648.12
661.306	1632.75
661.656	1666.88
662.007	1672.53
662.358	1686.31
662.708	1689.7
663.059	1673.66
663.409	1661
663.76	1702.13
664.11	1735.35
664.461	1743.94
664.811	1723.82
665.161	1762.47
665.511	1751.39
665.862	1750.49
666.212	1790.94
666.562	1764.28
666.912	1780.55
667.262	1793.2
667.612	1813.54
667.962	1811.73
668.312	1829.58
668.662	1799.08
669.011	1845.63
669.361	1844.73
669.711	1851.73
670.06	1874.56
670.41	1854.22
670.76	1911.62
671.109	1913.65
671.459	1964.04
671.808	1918.85
672.157	1932.86
672.507	1963.82
672.856	1975.57
673.205	1969.47
673.554	1993.65
673.904	1996.81
674.253	2023.25
674.602	2015.57
674.951	2015.79
675.3	1994.1
675.649	2083.14
675.998	2086.53
676.346	2085.4
676.695	2099.41
677.044	2129.01
677.393	2135.34
677.741	2127.43
678.09	2154.1
678.438	2159.29
678.787	2168.33
679.135	2173.53
679.484	2186.19
679.832	2189.12
680.181	2205.39
680.529	2233.42
680.877	2221.44
681.225	2243.59
681.573	2305.96
681.922	2288.33
682.27	2275.9
682.618	2315.45
682.966	2353.19
683.314	2291.72
683.661	2349.12
684.009	2356.12
684.357	2379.63
684.705	2357.03
685.053	2382.56
685.4	2455.56
685.748	2442.22
686.095	2447.42
686.443	2480.19
686.79	2463.24
687.138	2537.14
687.485	2507.98
687.832	2486.97
688.18	2543.46
688.527	2548.89
688.874	2562.45
689.221	2588.66
689.568	2565.84
689.915	2576.01
690.262	2597.02
690.609	2641.99
690.956	2601.09
691.303	2602.22
691.65	2626.63
691.997	2688.09
692.344	2698.04
692.69	2692.61
693.037	2684.7
693.383	2695.32
693.73	2712.5
694.077	2720.63
694.423	2747.3
694.769	2737.36
695.116	2773.51
695.462	2759.05
695.808	2820.75
696.155	2805.15
696.501	2850.12
696.847	2801.76
697.193	2799.73
697.539	2843.34
697.885	2866.62
698.231	2851.7
698.577	2891.48
698.923	2918.6
699.269	2887.64
699.614	2898.71
699.96	2918.37
700.306	2953.17
700.651	2934.41
700.997	2953.62
701.342	2971.25
701.688	2981.42
702.033	2990.23
702.379	2971.7
702.724	3010.57
703.069	2997.01
703.415	3040.17
703.76	3041.76
704.105	3044.69
704.45	3091.02
704.795	3039.95
705.14	3071.59
705.485	3024.81
705.83	3068.42
706.175	3085.37
706.52	3096.9
706.865	3153.17
707.209	3130.79
707.554	3132.83
707.899	3134.41
708.243	3128.08
708.588	3160.17
708.932	3115.43
709.277	3191.36
709.621	3190.9
709.966	3192.26
710.31	3201.07
710.654	3176.44
710.998	3209.66
711.342	3236.1
711.687	3229.1
712.031	3207.85
712.375	3260.96
712.719	3230.45
713.063	3259.38
713.407	3272.26
713.75	3271.13
714.094	3301.41
714.438	3286.5
714.782	3291.02
715.125	3314.97
715.469	3328.98
715.812	3302.54
716.156	3321.75
716.499	3322.43
716.843	3355.87
717.186	3326.95
717.53	3353.16
717.873	3387.28
718.216	3346.83
718.559	3349.32
718.902	3341.64
719.246	3367.4
719.589	3381.63
719.932	3371.24
720.275	3416.89
720.617	3408.3
720.96	3402.88
721.303	3393.84
721.646	3437.68
721.989	3413.5
722.331	3420.5
722.674	3407.4
723.016	3447.62
723.359	3390.9
723.701	3422.31
724.044	3435.64
724.386	3462.99
724.729	3454.63
725.071	3447.62
725.413	3413.5
725.755	3457.56
726.097	3436.55
726.439	3447.62
726.782	3433.38
727.124	3446.94
727.465	3449.2
727.807	3453.27
728.149	3480.61
728.491	3475.19
728.833	3476.1
729.175	3467.51
729.516	3468.19
729.858	3472.93
730.199	3465.7
730.541	3489.43
730.882	3475.42
731.224	3481.52
731.565	3481.29
731.906	3494.4
732.248	3507.96
732.589	3459.6
732.93	3473.61
733.271	3437
733.612	3479.48
733.953	3521.07
734.294	3471.8
734.635	3500.5
734.976	3449.66
735.317	3454.4
735.658	3485.36
735.999	3483.1
736.339	3466.38
736.68	3437.23
737.021	3449.66
737.361	3450.33
737.702	3463.89
738.042	3471.12
738.383	3439.71
738.723	3504.57
739.063	3460.73
739.404	3477.9
739.744	3429.32
740.084	3413.72
740.424	3412.37
740.764	3429.54
741.104	3415.53
741.444	3445.36
741.784	3411.92
742.124	3394.06
742.464	3460.73
742.804	3447.4
743.143	3430.22
743.483	3471.12
743.823	3437.45
744.162	3411.69
744.502	3427.28
744.841	3422.54
745.181	3418.24
745.52	3400.84
745.86	3405.36
746.199	3426.83
746.538	3387.06
746.877	3407.17
747.216	3425.25
747.556	3425.02
747.895	3384.8
748.234	3325.82
748.573	3378.02
748.911	3395.65
749.25	3370.79
749.589	3378.7
749.928	3341.41
750.267	3371.47
750.605	3399.26
750.944	3376.66
751.283	3324.23
751.621	3351.8
751.96	3314.74
752.298	3336.89
752.636	3350.22
752.975	3303.67
753.313	3353.61
753.651	3360.39
753.989	3343.44
754.327	3334.63
754.666	3277.91
755.004	3330.56
755.342	3325.36
755.679	3282.65
756.017	3266.84
756.355	3258.25
756.693	3266.61
757.031	3252.6
757.368	3262.32
757.706	3286.95
758.044	3272.48
758.381	3253.73
758.719	3203.33
759.056	3213.05
759.394	3269.09
759.731	3196.78
760.068	3232.26
760.405	3170.34
760.743	3189.55
761.08	3206.5
761.417	3168.31
761.754	3200.85
762.091	3207.4
762.428	3219.15
762.765	3148.19
763.102	3161.75
763.438	3132.15
763.775	3126.5
764.112	3127.86
764.449	3136.89
764.785	3103.68
765.122	3102.32
765.458	3067.97
765.795	3092.83
766.131	3088.76
766.467	3080.85
766.804	3021.87
767.14	3038.37
767.476	3033.39
767.812	3018.93
768.148	3017.35
768.485	3027.75
768.821	2973.74
769.157	2995.2
769.492	2973.51
769.828	3005.37
770.164	2980.51
770.5	2960.85
770.836	2943.91
771.171	2942.32
771.507	2907.97
771.842	2947.52
772.178	2955.66
772.513	2912.27
772.849	2905.94
773.184	2892.61
773.519	2862.33
773.855	2872.95
774.19	2867.3
774.525	2857.13
774.86	2856
775.195	2857.13
775.53	2846.28
775.865	2798.82
776.2	2830.69
776.535	2778.71
776.87	2843.8
777.205	2797.24
777.539	2747.3
777.874	2765.61
778.209	2752.95
778.543	2754.08
778.878	2767.41
779.212	2765.15
779.547	2677.7
779.881	2733.74
780.215	2738.94
780.55	2708.88
780.884	2679.05
781.218	2703.23
781.552	2689.22
781.886	2665.49
782.22	2688.09
782.554	2678.6
782.888	2631.82
783.222	2645.61
783.556	2633.41
783.889	2609
784.223	2625.72
784.557	2566.29
784.89	2602.22
785.224	2569.9
785.557	2575.78
785.891	2552.28
786.224	2584.82
786.558	2546.4
786.891	2527.42
787.224	2526.74
787.557	2503.92
787.891	2513.41
788.224	2544.59
788.557	2508.89
788.89	2530.36
789.223	2492.17
789.556	2486.06
789.888	2524.93
790.221	2502.34
790.554	2449.68
790.887	2416.24
791.219	2453.52
791.552	2481.32
791.884	2456.69
792.217	2449.68
792.549	2464.37
792.882	2422.11
793.214	2381.66
793.546	2412.17
793.879	2418.5
794.211	2364.26
794.543	2369.01
794.875	2389.12
795.207	2391.83
795.539	2354.99
795.871	2383.24
796.203	2310.25
796.535	2374.2
796.867	2336.01
797.198	2329.01
797.53	2304.37
797.862	2321.1
798.193	2319.74
798.525	2316.35
798.856	2319.52
799.188	2288.56
799.519	2297.14
799.85	2293.08
800.182	2244.71
800.513	2273.64
800.844	2252.4
801.175	2235.45
801.506	2266.86
801.837	2231.16
802.168	2254.43
802.499	2233.64
802.83	2226.41
803.161	2220.53
803.491	2193.19
803.822	2210.37
804.153	2240.2
804.483	2229.8
804.814	2180.99
805.145	2212.4
805.475	2182.8
805.805	2171.95
806.136	2155.68
806.466	2159.52
806.796	2177.37
807.126	2135.34
807.457	2177.6
807.787	2117.49
808.117	2173.08
808.447	2143.02
808.777	2145.51
809.107	2117.49
809.436	2140.99
809.766	2120.88
810.096	2096.02
810.426	2135.11
810.755	2105.51
811.085	2133.08
811.414	2119.52
811.744	2125.62
812.073	2097.15
812.403	2099.63
812.732	2077.26
813.061	2089.01
813.39	2100.54
813.719	2073.87
814.049	2065.06
814.378	2039.3
814.707	2052.86
815.036	2026.87
815.365	2065.74
815.693	2042.23
816.022	1995
816.351	2038.39
816.68	2004.27
817.008	2033.65
817.337	2027.32
817.665	2028.45
817.994	2029.81
818.322	2009.01
818.651	1998.85
818.979	1988.45
819.307	1980.32
819.636	2012.18
819.964	1970.15
820.292	1966.98
820.62	1977.38
820.948	1955.01
821.276	1989.58
821.604	1972.18
821.932	1967.66
822.259	2005.17
822.587	1973.08
822.915	1980.32
823.243	1964.95
823.57	1967.21
823.898	1958.39
824.225	1959.52
824.553	1984.83
824.88	1966.3
825.207	1969.02
825.535	1960.43
825.862	1955.91
826.189	1963.14
826.516	1988.9
826.843	1978.06
827.17	1961.33
827.497	1956.81
827.824	1989.58
828.151	1976.25
828.478	1978.73
828.805	1975.8
829.131	1986.87
829.458	1982.57
829.785	1974.67
830.111	1962.01
830.438	1947.55
830.764	1967.89
831.09	1971.28
831.417	1949.36
831.743	1944.38
832.069	1932.41
832.395	1952.07
832.722	1964.72
833.048	1955.23
833.374	1931.28
833.7	1954.78
834.026	1975.12
834.351	1942.58
834.677	1952.97
835.003	1947.32
835.329	1954.33
835.654	1950.49
835.98	1980.77
836.306	1930.15
836.631	1952.29
836.956	1924.72
837.282	1949.81
837.607	1932.86
837.932	1952.07
838.258	1954.55
838.583	1921.33
838.908	1910.94
839.233	1933.54
839.558	1905.51
839.883	1886.53
840.208	1898.51
840.533	1894.22
840.858	1906.42
841.182	1918.17
841.507	1886.53
841.832	1871.62
842.156	1898.51
842.481	1906.87
842.805	1875.91
843.13	1884.72
843.454	1898.51
843.778	1858.96
844.103	1876.59
844.427	1864.61
844.751	1868.91
845.075	1840.66
845.399	1831.17
845.723	1848.79
846.047	1846.76
846.371	1849.25
846.695	1828.68
847.019	1816.48
847.343	1833.43
847.666	1821
847.99	1794.33
848.313	1799.53
848.637	1760.43
848.96	1784.84
849.284	1767.89
849.607	1778.51
849.931	1743.03
850.254	1792.3
850.577	1762.47
850.9	1769.7
851.223	1757.27
851.546	1753.65
851.869	1736.48
852.192	1751.62
852.515	1729.25
852.838	1709.59
853.161	1726.76
853.483	1694.9
853.806	1735.35
854.129	1725.18
854.451	1711.17
854.774	1665.97
855.096	1681.34
855.419	1672.75
855.741	1672.75
856.063	1679.08
856.385	1688.12
856.708	1661.91
857.03	1659.42
857.352	1681.34
857.674	1644.05
857.996	1661
858.318	1655.8
858.64	1621
858.961	1624.17
859.283	1626.88
859.605	1623.49
859.926	1649.48
860.248	1651.96
860.57	1614.45
860.891	1636.14
861.212	1636.37
861.534	1606.77
861.855	1599.76
862.176	1618.52
862.498	1585.98
862.819	1581.91
863.14	1612.64
863.461	1588.24
863.782	1612.19
864.103	1606.09
864.424	1563.38
864.745	1594.34
865.065	1589.82
865.386	1600.21
865.707	1584.62
866.027	1567.67
866.348	1595.92
866.668	1591.62
866.989	1581.91
867.309	1584.39
867.63	1601.34
867.95	1542.81
868.27	1600.66
868.59	1560.21
868.91	1541
869.23	1561.8
869.55	1545.3
869.87	1554.11
870.19	1554.79
870.51	1564.28
870.83	1570.16
871.15	1553.21
871.469	1570.16
871.789	1530.61
872.109	1560.67
872.428	1526.99
872.748	1533.32
873.067	1549.82
873.386	1527.45
873.706	1539.2
874.025	1541
874.344	1526.54
874.663	1560.89
874.982	1554.56
875.301	1522.25
875.62	1544.85
875.939	1526.32
876.258	1516.82
876.577	1515.02
876.896	1517.73
877.214	1526.99
877.533	1528.12
877.852	1504.4
878.17	1553.21
878.489	1533.55
878.807	1495.36
879.125	1503.04
879.444	1501.23
879.762	1501.46
880.08	1494.23
880.398	1489.25
880.716	1501.91
881.034	1448.8
881.352	1488.35
881.67	1471.63
881.988	1500.55
882.306	1469.14
882.624	1469.14
882.941	1470.05
883.259	1449.48
883.577	1499.2
883.894	1461.23
884.212	1459.65
884.529	1431.86
884.846	1439.76
885.164	1469.37
885.481	1448.13
885.798	1429.6
886.115	1452.19
886.432	1436.15
886.75	1461.01
887.067	1458.75
887.383	1413.1
887.7	1432.76
888.017	1428.01
888.334	1458.07
888.651	1438.18
888.967	1421.69
889.284	1412.19
889.6	1412.65
889.917	1396.38
890.233	1418.97
890.55	1410.39
890.866	1416.71
891.182	1388.24
891.498	1388.47
891.815	1393.66
892.131	1385.08
892.447	1392.53
892.763	1388.24
893.079	1380.33
893.395	1382.82
893.71	1383.27
894.026	1330.39
894.342	1377.17
894.657	1373.33
894.973	1345.53
895.289	1349.82
895.604	1374.46
895.92	1330.16
896.235	1338.98
896.55	1356.15
896.865	1330.61
897.181	1335.13
897.496	1359.99
897.811	1339.2
898.126	1336.04
898.441	1331.29
898.756	1323.38
899.071	1288.13
899.386	1317.51
899.7	1300.33
900.015	1310.5
900.33	1310.05
900.644	1283.16
900.959	1309.6
901.273	1306.43
901.588	1297.62
901.902	1266.66
902.216	1281.58
902.531	1281.58
902.845	1275.93
903.159	1271.41
903.473	1266.21
903.787	1286.32
904.101	1257.62
904.415	1252.65
904.729	1261.46
905.042	1234.8
905.356	1240.9
905.67	1237.06
905.984	1253.33
906.297	1229.15
906.611	1228.02
906.924	1245.42
907.237	1227.34
907.551	1228.92
907.864	1208.13
908.177	1225.31
908.491	1241.58
908.804	1216.72
909.117	1211.75
909.43	1214.23
909.743	1205.19
910.056	1181.69
910.368	1190.05
910.681	1194.57
910.994	1170.39
911.307	1183.27
911.619	1175.59
911.932	1160
912.244	1185.08
912.557	1163.84
912.869	1162.94
913.181	1154.35
913.494	1148.02
913.806	1124.29
914.118	1169.72
914.43	1132.65
914.742	1124.74
915.054	1134.69
915.366	1141.24
915.678	1139.89
915.99	1102.37
916.302	1138.3
916.613	1129.72
916.925	1129.26
917.236	1083.16
917.548	1133.78
917.859	1116.84
918.171	1099.66
918.482	1106.89
918.794	1090.17
919.105	1100.56
919.416	1113.22
919.727	1069.6
920.038	1097.85
920.349	1056.72
920.66	1059.66
920.971	1074.35
921.282	1066.67
921.593	1082.94
921.903	1034.8
922.214	1039.1
922.525	1061.92
922.835	1059.66
923.146	1034.8
923.456	1027.57
923.767	1033
924.077	1043.16
924.387	1037.74
924.697	1047.46
925.008	1019.44
925.318	1031.64
925.628	1036.84
925.938	1028.25
926.248	1013.79
926.558	1020.34
926.867	1031.87
927.177	1018.76
927.487	1012.43
927.796	975.82
928.106	1020.11
928.416	1010.85
928.725	985.99
929.034	1005.2
929.344	973.34
929.653	993
929.962	995.48
930.271	987.12
930.581	981.7
930.89	968.82
931.199	980.57
931.508	985.77
931.817	980.57
932.125	951.64
932.434	964.3
932.743	968.36
933.051	937.18
933.36	949.38
933.669	937.4
933.977	942.38
934.286	920.91
934.594	940.57
934.902	962.26
935.21	929.95
935.519	928.14
935.827	922.49
936.135	913.45
936.443	927.69
936.751	935.82
937.059	909.61
937.367	917.97
937.674	925.2
937.982	896.05
938.29	921.59
938.597	913.45
938.905	885.88
939.213	884.3
939.52	893.56
939.827	892.21
940.135	903.51
940.442	877.97
940.749	896.5
941.056	888.14
941.363	911.64
941.67	880.91
941.977	876.84
942.284	889.27
942.591	886.33
942.898	868.03
943.205	863.28
943.511	897.86
943.818	862.15
944.125	861.7
944.431	886.11
944.738	868.25
945.044	846.56
945.35	845.66
945.657	844.98
945.963	862.6
946.269	852.44
946.575	834.81
946.881	831.42
947.187	843.17
947.493	829.61
947.799	831.19
948.105	825.09
948.41	827.35
948.716	835.26
949.022	809.27
949.327	833.9
949.633	820.12
949.938	838.2
950.244	833.23
950.549	805.88
950.854	798.88
951.16	829.38
951.465	801.59
951.77	802.49
952.075	796.17
952.38	796.17
952.685	819.22
952.99	787.8
953.294	786.22
953.599	791.42
953.904	783.06
954.209	793.91
954.513	796.17
954.818	755.71
955.122	776.51
955.426	783.28
955.731	771.53
956.035	786.67
956.339	770.86
956.643	762.49
956.948	757.75
957.252	779.89
957.556	769.73
957.86	739.22
958.163	747.81
958.467	733.12
958.771	767.69
959.075	753
959.378	746.68
959.682	736.96
959.985	735.83
960.289	726.56
960.592	732.89
960.896	745.32
961.199	751.87
961.502	722.5
961.805	731.08
962.108	752.78
962.411	712.33
962.714	720.24
963.017	736.51
963.32	700.12
963.623	709.16
963.926	706.9
964.228	728.6
964.531	739.9
964.833	696.51
965.136	692.89
965.438	723.63
965.741	701.7
966.043	697.41
966.345	696.51
966.648	704.64
966.95	705.32
967.252	699.67
967.554	701.48
967.856	710.07
968.158	692.44
968.46	700.8
968.761	691.99
969.063	699.9
969.365	661.71
969.666	680.69
969.968	713.68
970.269	688.15
970.571	677.75
970.872	688.82
971.174	660.35
971.475	687.92
971.776	647.24
972.077	648.6
972.378	661.03
972.679	669.84
972.98	689.28
973.281	690.41
973.582	651.08
973.883	676.17
974.183	680.69
974.484	662.84
974.785	647.69
975.085	647.02
975.386	671.65
975.686	647.02
975.986	646.56
976.287	641.82
976.587	644.31
976.887	649.28
977.187	668.71
977.487	633.23
977.787	616.74
978.087	657.41
978.387	640.01
978.687	639.56
978.987	614.02
979.286	623.74
979.586	634.14
979.885	631.88
980.185	625.77
980.484	627.81
980.784	635.27
981.083	616.96
981.382	639.56
981.682	612.22
981.981	621.25
982.28	619.45
982.579	610.63
982.878	626.9
983.177	622.38
983.475	605.21
983.774	595.04
984.073	602.72
984.372	611.09
984.67	611.54
984.969	587.58
985.267	595.49
985.566	618.77
985.864	602.05
986.162	600.69
986.461	606.34
986.759	595.49
987.057	594.81
987.355	572.44
987.653	593.23
987.951	598.43
988.249	592.1
988.547	601.37
988.844	560.24
989.142	580.58
989.44	569.28
989.737	594.14
990.035	583.06
990.332	604.53
990.63	596.4
990.927	584.87
991.224	565.66
991.521	557.98
991.819	586.45
992.116	576.28
992.413	560.01
992.71	581.03
993.006	575.15
993.303	572.89
993.6	546.91
993.897	546.45
994.193	563.63
994.49	582.61
994.787	580.13
995.083	574.48
995.379	560.24
995.676	525.44
995.972	554.59
996.268	561.37
996.565	539.45
996.861	541.03
997.157	557.75
997.453	548.26
997.749	527.92
998.044	546.45
998.34	569.73
998.636	530.41
998.932	544.87
999.227	557.3
999.523	532.22
999.818	552.56
1000.114	525.89
1000.409	533.57
1000.704	534.03
1001	512.56
1001.295	520.01
1001.59	510.75
1001.885	524.08
1002.18	514.37
1002.475	526.57
1002.77	516.85
1003.065	518.43
1003.359	510.75
1003.654	521.6
1003.949	513.24
1004.243	508.04
1004.538	522.05
1004.832	506
1005.127	507.36
1005.421	511.88
1005.715	507.36
1006.009	492.22
1006.304	530.18
1006.598	507.36
1006.892	514.37
1007.186	502.16
1007.48	518.21
1007.773	499.9
1008.067	491.54
1008.361	487.02
1008.655	511.88
1008.948	498.09
1009.242	506.68
1009.535	518.43
1009.829	507.59
1010.122	491.54
1010.415	491.09
1010.708	515.72
1011.001	506.23
1011.295	499
1011.588	487.02
1011.881	478.89
1012.173	482.28
1012.466	497.87
1012.759	491.99
1013.052	486.8
1013.344	469.62
1013.637	475.5
1013.93	452.9
1014.222	478.21
1014.514	469.39
1014.807	477.3
1015.099	489.28
1015.391	483.41
1015.683	459.45
1015.976	478.43
1016.268	480.02
1016.56	458.1
1016.851	462.16
1017.143	452.9
1017.435	464.42
1017.727	463.07
1018.018	490.18
1018.31	478.43
1018.602	469.62
1018.893	456.97
1019.185	459.23
1019.476	453.8
1019.767	455.38
1020.058	437.76
1020.35	442.5
1020.641	465.55
1020.932	456.29
1021.223	460.13
1021.514	444.08
1021.804	451.54
1022.095	437.3
1022.386	469.62
1022.677	452.67
1022.967	452.9
1023.258	466.91
1023.548	438.89
1023.839	471.43
1024.129	441.15
1024.419	439.56
1024.709	440.24
1025	437.3
1025.29	443.63
1025.58	436.85
1025.87	439.34
1026.16	431.43
1026.449	438.21
1026.739	445.67
1027.029	421.03
1027.319	424.88
1027.608	433.01
1027.898	440.47
1028.187	434.59
1028.477	419.68
1028.766	438.21
1029.055	413.8
1029.344	416.51
1029.634	400.47
1029.923	411.99
1030.212	423.97
1030.501	413.12
1030.79	429.17
1031.078	434.37
1031.367	413.8
1031.656	418.1
1031.945	397.98
1032.233	427.36
1032.522	413.58
1032.81	407.7
1033.099	405.89
1033.387	400.02
1033.675	419.23
1033.963	407.7
1034.251	403.63
1034.54	404.76
1034.828	430.07
1035.116	410.86
1035.403	414.93
1035.691	421.26
1035.979	400.7
1036.267	386.91
1036.554	395.27
1036.842	401.83
1037.129	382.84
1037.417	381.94
1037.704	404.31
1037.992	402.05
1038.279	384.42
1038.566	386.91
1038.853	386.91
1039.14	386.91
