Data from carpet_green_FLMS001491_00084.txt Node
Date: Wed Feb 08 10:35:58 GMT 2017
User: dcchb
Spectrometer: FLMS00149
Trigger mode: 0
Integration Time (sec): 2.000000E-2
Scans to average: 10
Electric dark correction enabled: true
Nonlinearity correction enabled: false
Boxcar width: 0
XAxis mode: Wavelengths
Number of Pixels in Spectrum: 2048
>>>>>Begin Spectral Data<<<<<
341.393	-10.45
341.776	-10.45
342.16	-10.45
342.543	-74.4
342.927	-59.26
343.31	-67.4
343.693	-57.23
344.077	-69.89
344.46	-54.29
344.843	-61.98
345.226	-23.11
345.61	-43.45
345.993	-19.72
346.376	-8.42
346.759	7.63
347.142	10.56
347.525	36.55
347.908	66.61
348.291	86.04
348.674	95.76
349.057	102.31
349.44	100.28
349.823	146.83
350.206	165.14
350.588	175.98
350.971	192.25
351.354	192.25
351.737	197.23
352.119	232.71
352.502	252.82
352.884	250.78
353.267	263.21
353.65	286.72
354.032	287.85
354.414	271.35
354.797	269.54
355.179	283.78
355.562	296.88
355.944	303.44
356.326	308.41
356.709	294.17
357.091	302.76
357.473	314.51
357.855	295.75
358.238	312.25
358.62	321.29
359.002	321.52
359.384	306.15
359.766	326.71
360.148	306.83
360.53	308.86
360.912	298.69
361.294	315.19
361.676	290.33
362.057	317.22
362.439	290.11
362.821	304.12
363.203	282.42
363.584	292.37
363.966	302.08
364.348	320.39
364.729	286.26
365.111	288.75
365.493	285.81
365.874	289.88
366.256	292.59
366.637	283.78
367.019	286.94
367.4	301.4
367.781	290.33
368.163	270.67
368.544	268.19
368.925	278.81
369.306	286.49
369.688	281.29
370.069	292.82
370.45	272.93
370.831	270.44
371.212	257.34
371.593	278.81
371.974	281.97
372.355	305.7
372.736	272.93
373.117	270.44
373.498	280.84
373.879	282.65
374.26	293.72
374.641	293.04
375.021	286.26
375.402	284.46
375.783	274.06
376.163	283.55
376.544	275.64
376.925	280.84
377.305	295.3
377.686	299.14
378.066	282.87
378.447	288.3
378.827	283.78
379.208	295.53
379.588	278.58
379.968	296.88
380.349	296.66
380.729	294.17
381.109	305.47
381.489	309.77
381.87	272.93
382.25	298.92
382.63	308.86
383.01	284.68
383.39	295.08
383.77	282.65
384.15	295.98
384.53	284.23
384.91	299.82
385.29	306.83
385.67	298.69
386.049	291.01
386.429	307.05
386.809	302.99
387.189	294.17
387.568	276.09
387.948	311.57
388.328	314.96
388.707	301.18
389.087	304.79
389.466	278.81
389.846	303.21
390.225	294.63
390.605	302.08
390.984	296.88
391.363	315.87
391.743	292.14
392.122	301.4
392.501	296.88
392.881	296.43
393.26	309.09
393.639	302.76
394.018	300.05
394.397	310.22
394.776	317.9
395.155	300.27
395.534	310.9
395.913	301.18
396.292	308.18
396.671	318.58
397.05	312.03
397.429	291.46
397.808	316.32
398.186	313.83
398.565	312.48
398.944	305.7
399.323	311.35
399.701	310.44
400.08	314.96
400.458	330.33
400.837	304.57
401.215	321.07
401.594	300.05
401.972	318.58
402.351	293.27
402.729	302.08
403.107	309.77
403.486	300.27
403.864	310.67
404.242	298.69
404.62	314.29
404.999	346.6
405.377	313.16
405.755	311.35
406.133	307.28
406.511	324.91
406.889	318.81
407.267	336.43
407.645	329.2
408.023	331.91
408.401	317.9
408.779	329.88
409.156	312.25
409.534	331.01
409.912	322.65
410.29	333.04
410.667	321.97
411.045	347.73
411.422	326.49
411.8	325.58
412.178	333.04
412.555	322.42
412.933	323.1
413.31	324.68
413.687	310.9
414.065	355.41
414.442	320.84
414.819	323.1
415.197	329.65
415.574	342.31
415.951	330.1
416.328	311.35
416.705	348.41
417.082	322.87
417.46	328.3
417.837	337.11
418.214	353.38
418.591	331.23
418.967	337.56
419.344	341.4
419.721	316.55
420.098	324
420.475	331.91
420.852	364.68
421.228	341.86
421.605	335.98
421.982	338.24
422.358	332.82
422.735	372.59
423.111	371.46
423.488	356.09
423.864	356.77
424.241	351.35
424.617	339.14
424.994	347.28
425.37	342.53
425.746	363.55
426.123	345.7
426.499	362.19
426.875	372.14
427.251	352.02
427.627	337.34
428.003	364.91
428.379	361.52
428.756	338.01
429.132	318.81
429.507	355.87
429.883	357.45
430.259	346.38
430.635	360.61
431.011	357.9
431.387	355.87
431.763	359.48
432.138	364.68
432.514	365.36
432.89	368.97
433.265	357.9
433.641	364.45
434.016	356.09
434.392	384.79
434.767	380.72
435.143	375.53
435.518	393.61
435.894	378.69
436.269	355.64
436.644	367.39
437.02	372.59
437.395	368.3
437.77	397
438.145	384.57
438.52	374.62
438.895	383.44
439.271	382.31
439.646	366.94
440.021	379.82
440.395	371.01
440.77	392.7
441.145	370.56
441.52	395.41
441.895	396.77
442.27	409.2
442.645	401.51
443.019	368.75
443.394	380.95
443.769	400.61
444.143	400.61
444.518	378.69
444.892	396.32
445.267	387.5
445.641	394.51
446.016	405.13
446.39	382.98
446.764	421.63
447.139	416.66
447.513	411.23
447.887	403.55
448.262	391.35
448.636	404
449.01	391.35
449.384	407.84
449.758	385.47
450.132	400.38
450.506	394.74
450.88	405.58
451.254	411.23
451.628	406.03
452.002	409.42
452.376	438.58
452.75	400.84
453.123	432.25
453.497	411.68
453.871	430.21
454.244	450.33
454.618	430.21
454.992	439.25
455.365	411.01
455.739	444.45
456.112	436.09
456.486	427.05
456.859	448.29
457.232	433.38
457.606	438.12
457.979	440.16
458.352	432.93
458.725	426.6
459.099	460.27
459.472	451.01
459.845	453.26
460.218	451.23
460.591	458.01
460.964	460.72
461.337	445.36
461.71	450.78
462.083	458.24
462.456	479.03
462.829	460.5
463.201	446.49
463.574	470.44
463.947	474.28
464.32	460.04
464.692	486.48
465.065	473.83
465.438	477.67
465.81	478.35
466.183	473.15
466.555	502.53
466.928	486.48
467.3	469.31
467.672	506.6
468.045	479.48
468.417	511.57
468.789	498.24
469.161	508.63
469.534	520.16
469.906	517.9
470.278	527.61
470.65	514.51
471.022	519.48
471.394	543.21
471.766	526.48
472.138	533.49
472.51	535.52
472.882	541.62
473.253	531.45
473.625	556.31
473.997	581.17
474.369	560.61
474.74	557.67
475.112	560.38
475.484	550.66
475.855	573.49
476.227	576.43
476.598	583.66
476.97	584.56
477.341	591.34
477.713	605.58
478.084	601.74
478.455	586.14
478.827	602.19
479.198	626.59
479.569	609.87
479.94	615.75
480.311	646.25
480.682	641.73
481.053	642.41
481.424	670.43
481.795	658.01
482.166	676.31
482.537	661.4
482.908	670.66
483.279	661.62
483.65	712.24
484.021	706.82
484.391	708.4
484.762	728.96
485.133	719.7
485.503	746.14
485.874	724.22
486.244	758.79
486.615	738.23
486.985	754.05
487.356	763.31
487.726	797.44
488.097	758.79
488.467	760.83
488.837	800.15
489.207	782.3
489.578	842.18
489.948	818.45
490.318	836.53
490.688	826.14
491.058	843.76
491.428	842.63
491.798	841.73
492.168	845.57
492.538	862.52
492.908	860.94
493.278	878.34
493.648	898.68
494.017	886.47
494.387	932.57
494.757	906.36
495.126	888.51
495.496	910.2
495.866	896.64
496.235	923.54
496.605	920.37
496.974	932.8
497.344	934.16
497.713	940.03
498.082	945.23
498.452	937.32
498.821	947.04
499.19	950.88
499.559	963.31
499.928	962.4
500.298	963.99
500.667	968.96
501.036	977.32
501.405	974.16
501.774	959.92
502.143	975.51
502.512	975.74
502.88	1009.63
503.249	986.36
503.618	999.01
503.987	989.07
504.356	1021.61
504.724	1021.61
505.093	1015.06
505.462	1014.38
505.83	1023.42
506.199	1033.81
506.567	1016.41
506.936	1038.33
507.304	1024.32
507.672	1072.68
508.041	1048.96
508.409	1068.39
508.777	1065.45
509.145	1074.72
509.514	1074.49
509.882	1080.14
510.25	1067.94
510.618	1094.38
510.986	1078.33
511.354	1072.91
511.722	1107.49
512.09	1078.11
512.458	1102.74
512.826	1093.25
513.193	1098.45
513.561	1093.7
513.929	1113.13
514.297	1135.05
514.664	1116.98
515.032	1148.39
515.4	1139.35
515.767	1125.56
516.135	1145.45
516.502	1141.83
516.869	1140.7
517.237	1144.32
517.604	1155.85
517.972	1163.98
518.339	1160.14
518.706	1161.95
519.073	1179.57
519.44	1176.86
519.808	1175.96
520.175	1167.6
520.542	1173.25
520.909	1170.76
521.276	1184.09
521.643	1204.88
522.009	1211.66
522.376	1203.08
522.743	1189.29
523.11	1219.35
523.477	1228.16
523.843	1236.52
524.21	1231.32
524.577	1221.38
524.943	1244.43
525.31	1227.26
525.676	1256.86
526.043	1242.62
526.409	1240.59
526.776	1257.09
527.142	1236.75
527.508	1243.75
527.874	1249.63
528.241	1252.11
528.607	1270.42
528.973	1263.41
529.339	1281.49
529.705	1286.69
530.071	1279.23
530.437	1292.11
530.803	1289.63
531.169	1314.26
531.535	1304.99
531.901	1313.13
532.267	1286.46
532.632	1302.06
532.998	1297.76
533.364	1333.69
533.73	1298.67
534.095	1326.01
534.461	1305.9
534.826	1292.79
535.192	1300.7
535.557	1303.41
535.923	1312.68
536.288	1321.94
536.653	1320.59
537.019	1323.98
537.384	1334.15
537.749	1330.53
538.114	1332.79
538.479	1327.59
538.845	1306.8
539.21	1327.59
539.575	1334.82
539.94	1357.2
540.305	1346.57
540.67	1337.54
541.034	1315.62
541.399	1329.85
541.764	1335.73
542.129	1317.2
542.494	1333.92
542.858	1336.86
543.223	1333.69
543.587	1328.04
543.952	1332.34
544.316	1370.75
544.681	1361.72
545.045	1333.69
545.41	1340.47
545.774	1326.46
546.138	1344.31
546.503	1338.44
546.867	1348.38
547.231	1362.39
547.595	1325.56
547.959	1360.13
548.324	1343.64
548.688	1336.86
549.052	1365.78
549.416	1381.6
549.779	1344.99
550.143	1336.18
550.507	1377.53
550.871	1368.27
551.235	1348.83
551.599	1362.62
551.962	1361.26
552.326	1401.49
552.689	1382.28
553.053	1379.79
553.417	1385.67
553.78	1387.03
554.143	1380.02
554.507	1362.85
554.87	1375.95
555.234	1408.72
555.597	1360.13
555.96	1374.37
556.323	1383.64
556.686	1402.84
557.05	1385.44
557.413	1404.2
557.776	1405.56
558.139	1411.21
558.502	1393.81
558.865	1407.14
559.228	1424.09
559.59	1400.58
559.953	1442.84
560.316	1429.74
560.679	1424.31
561.041	1430.87
561.404	1430.87
561.767	1436.97
562.129	1440.13
562.492	1441.04
562.854	1454.59
563.217	1420.25
563.579	1448.94
563.941	1427.02
564.304	1450.53
564.666	1456.85
565.028	1455.5
565.39	1445.1
565.753	1454.82
566.115	1468.38
566.477	1470.64
566.839	1443.75
567.201	1474.48
567.563	1467.02
567.925	1450.75
568.287	1476.74
568.648	1486.23
569.01	1463.63
569.372	1480.81
569.734	1470.19
570.095	1469.96
570.457	1505.21
570.819	1507.25
571.18	1481.03
571.542	1476.74
571.903	1491.43
572.265	1477.87
572.626	1488.94
572.987	1466.12
573.349	1490.07
573.71	1510.19
574.071	1474.93
574.432	1481.71
574.794	1509.73
575.155	1495.72
575.516	1470.19
575.877	1502.5
576.238	1477.87
576.599	1497.98
576.96	1469.06
577.32	1483.75
577.681	1506.12
578.042	1504.99
578.403	1490.07
578.763	1474.71
579.124	1483.97
579.485	1468.83
579.845	1484.2
580.206	1483.29
580.566	1472.9
580.927	1495.95
581.287	1521.26
581.648	1467.02
582.008	1476.74
582.368	1464.54
582.728	1500.02
583.089	1478.77
583.449	1476.74
583.809	1505.89
584.169	1474.03
584.529	1453.24
584.889	1486.01
585.249	1478.32
585.609	1445.78
585.969	1458.66
586.329	1461.15
586.688	1455.5
587.048	1445.56
587.408	1431.77
587.768	1424.54
588.127	1436.97
588.487	1454.82
588.846	1459.34
589.206	1443.52
589.565	1424.99
589.925	1430.64
590.284	1436.06
590.643	1439
591.003	1406.69
591.362	1436.74
591.721	1427.7
592.08	1410.3
592.44	1438.1
592.799	1425.44
593.158	1419.34
593.517	1409.4
593.876	1445.1
594.235	1412.79
594.593	1439.23
594.952	1423.18
595.311	1420.92
595.67	1418.44
596.029	1413.24
596.387	1422.73
596.746	1415.5
597.104	1412.11
597.463	1437.19
597.822	1424.31
598.18	1428.38
598.538	1423.18
598.897	1432.67
599.255	1406.69
599.613	1462.05
599.972	1429.06
600.33	1440.81
600.688	1413.69
601.046	1452.56
601.404	1441.04
601.762	1462.73
602.12	1457.31
602.478	1430.41
602.836	1442.84
603.194	1441.26
603.552	1443.07
603.91	1426.8
604.268	1439.91
604.625	1434.71
604.983	1420.7
605.341	1445.33
605.698	1430.64
606.056	1444.88
606.413	1448.04
606.771	1443.3
607.128	1451.2
607.485	1439
607.843	1471.09
608.2	1464.09
608.557	1489.17
608.914	1452.56
609.272	1492.56
609.629	1476.74
609.986	1455.95
610.343	1438.78
610.7	1476.06
611.057	1479.45
611.414	1473.35
611.771	1477.19
612.127	1468.83
612.484	1481.71
612.841	1480.81
613.198	1470.64
613.554	1510.41
613.911	1464.09
614.267	1476.97
614.624	1467.93
614.98	1466.57
615.337	1474.71
615.693	1480.36
616.05	1455.5
616.406	1472.9
616.762	1476.06
617.118	1497.76
617.475	1495.27
617.831	1512.45
618.187	1491.43
618.543	1474.03
618.899	1486.01
619.255	1465.44
619.611	1496.63
619.967	1469.96
620.323	1480.36
620.678	1487.81
621.034	1486.91
621.39	1512.9
621.746	1446.69
622.101	1502.73
622.457	1484.2
622.812	1495.72
623.168	1477.42
623.523	1509.28
623.879	1519.68
624.234	1493.69
624.589	1526.01
624.945	1481.26
625.3	1503.86
625.655	1472.22
626.01	1502.73
626.365	1512.67
626.72	1479.9
627.075	1492.11
627.43	1495.5
627.785	1488.94
628.14	1469.28
628.495	1441.49
628.85	1494.37
629.205	1495.5
629.559	1485.55
629.914	1497.31
630.269	1488.04
630.623	1493.92
630.978	1492.33
631.332	1482.16
631.687	1504.54
632.041	1443.97
632.396	1460.7
632.75	1472.9
633.104	1481.71
633.459	1449.4
633.813	1480.36
634.167	1477.19
634.521	1443.97
634.875	1464.99
635.229	1454.82
635.583	1474.26
635.937	1472.67
636.291	1442.39
636.645	1466.12
636.999	1472
637.352	1454.59
637.706	1471.77
638.06	1474.93
638.413	1476.29
638.767	1460.7
639.121	1493.24
639.474	1465.89
639.828	1450.3
640.181	1469.51
640.534	1471.54
640.888	1483.97
641.241	1478.32
641.594	1458.66
641.947	1473.8
642.301	1434.03
642.654	1458.89
643.007	1465.44
643.36	1464.31
643.713	1465.67
644.066	1446.91
644.419	1468.38
644.771	1474.48
645.124	1484.65
645.477	1438.78
645.83	1454.14
646.182	1465.22
646.535	1430.19
646.888	1465.89
647.24	1443.07
647.593	1476.06
647.945	1461.37
648.298	1460.02
648.65	1457.76
649.002	1439.68
649.355	1469.51
649.707	1440.13
650.059	1488.72
650.411	1492.56
650.763	1507.47
651.115	1498.66
651.467	1509.51
651.819	1522.62
652.171	1488.72
652.523	1522.39
652.875	1545.44
653.227	1521.03
653.578	1560.58
653.93	1547.47
654.282	1525.78
654.633	1547.47
654.985	1542.5
655.337	1549.51
655.688	1554.25
656.039	1558.55
656.391	1549.51
656.742	1562.39
657.094	1561.03
657.445	1618.88
657.796	1551.32
658.147	1580.47
658.498	1594.03
658.849	1615.72
659.2	1592.9
659.551	1606
659.902	1622.05
660.253	1637.19
660.604	1662.5
660.955	1676.51
661.306	1636.74
661.656	1659.33
662.007	1667.47
662.358	1679
662.708	1670.41
663.059	1684.19
663.409	1662.27
663.76	1689.62
664.11	1715.6
664.461	1725.1
664.811	1748.82
665.161	1772.78
665.511	1744.3
665.862	1751.76
666.212	1778.88
666.562	1776.39
666.912	1784.08
667.262	1783.63
667.612	1811.87
667.962	1814.59
668.312	1797.86
668.662	1869.95
669.011	1844.87
669.361	1882.38
669.711	1903.17
670.06	1882.61
670.41	1891.19
670.76	1907.24
671.109	1933.45
671.459	1940.01
671.808	1932.32
672.157	1945.2
672.507	1953.79
672.856	1983.39
673.205	1996.05
673.554	2017.29
673.904	2000.57
674.253	2016.16
674.602	2036.27
674.951	2015.94
675.3	2020.91
675.649	2065.2
675.998	2071.08
676.346	2099.1
676.695	2108.81
677.044	2120.57
677.393	2141.13
677.741	2150.17
678.09	2180.9
678.438	2171.64
678.787	2215.7
679.135	2251.18
679.484	2247.34
679.832	2253.44
680.181	2268.58
680.529	2277.4
680.877	2298.87
681.225	2301.13
681.573	2337.06
681.922	2339.99
682.27	2332.99
682.618	2359.2
682.966	2402.37
683.314	2394.91
683.661	2399.88
684.009	2402.59
684.357	2419.09
684.705	2466.55
685.053	2473.55
685.4	2497.28
685.748	2494.12
686.095	2523.04
686.443	2488.47
686.79	2518.07
687.138	2518.07
687.485	2573.21
687.832	2570.95
688.18	2594.45
688.527	2610.72
688.874	2634
689.221	2638.97
689.568	2639.42
689.915	2637.39
690.262	2681
690.609	2698.63
690.956	2697.73
691.303	2728.01
691.65	2744.05
691.997	2792.86
692.344	2779.76
692.69	2810.27
693.037	2809.36
693.383	2831.96
693.73	2858.85
694.077	2862.47
694.423	2891.17
694.769	2881.68
695.116	2902.24
695.462	2925.52
695.808	2939.08
696.155	2944.05
696.501	2973.65
696.847	2977.27
697.193	3023.82
697.539	2997.15
697.885	3010.94
698.231	2992.41
698.577	3096.13
698.923	3081.44
699.269	3116.92
699.614	3065.85
699.96	3149.47
700.306	3102.46
700.651	3130.48
700.997	3113.76
701.342	3191.05
701.688	3173.42
702.033	3159.63
702.379	3241.67
702.724	3217.94
703.069	3248.67
703.415	3202.57
703.76	3222.23
704.105	3296.35
704.45	3288.22
704.795	3313.53
705.14	3295.22
705.485	3326.64
705.83	3321.21
706.175	3318.73
706.52	3334.09
706.865	3390.81
707.209	3411.83
707.554	3410.25
707.899	3444.82
708.243	3404.15
708.588	3458.38
708.932	3382.91
709.277	3481.43
709.621	3461.32
709.966	3433.53
710.31	3466.29
710.654	3476.01
710.998	3523.24
711.342	3518.27
711.687	3511.49
712.031	3542.22
712.375	3563.24
712.719	3528.66
713.063	3604.82
713.407	3566.4
713.75	3591.26
714.094	3615.44
714.438	3616.57
714.782	3631.49
715.125	3626.74
715.469	3641.66
715.812	3645.5
716.156	3680.07
716.499	3687.98
716.843	3660.41
717.186	3708.55
717.53	3700.64
717.873	3718.49
718.216	3702.67
718.559	3713.52
718.902	3730.01
719.246	3729.79
719.589	3741.77
719.932	3741.09
720.275	3721.88
720.617	3776.79
720.96	3773.4
721.303	3756
721.646	3778.15
721.989	3758.04
722.331	3798.71
722.674	3794.65
723.016	3830.58
723.359	3810.46
723.701	3857.47
724.044	3821.99
724.386	3776.57
724.729	3826.74
725.071	3831.71
725.413	3860.41
725.755	3825.83
726.097	3815.66
726.439	3813.85
726.782	3867.41
727.124	3858.6
727.465	3848.66
727.807	3857.24
728.149	3821.99
728.491	3876.68
728.833	3860.41
729.175	3843.46
729.516	3885.94
729.858	3853.63
730.199	3883.46
730.541	3848.2
730.882	3905.38
731.224	3888.2
731.565	3913.06
731.906	3902.67
732.248	3910.8
732.589	3868.54
732.93	3869.9
733.271	3906.28
733.612	3916.9
733.953	3933.85
734.294	3895.89
734.635	3908.54
734.976	3928.88
735.317	3892.5
735.658	3945.15
735.999	3921.65
736.339	3908.09
736.68	3930.46
737.021	3932.27
737.361	3890.46
737.702	3918.26
738.042	3926.85
738.383	3864.47
738.723	3911.48
739.063	3942.66
739.404	3929.78
739.744	3949.67
740.084	3901.54
740.424	3948.99
740.764	3902.21
741.104	3932.5
741.444	3919.16
741.784	3917.13
742.124	3916.45
742.464	3908.99
742.804	3902.44
743.143	3873.74
743.483	3878.71
743.823	3889.78
744.162	3930.91
744.502	3859.5
744.841	3882.33
745.181	3892.72
745.52	3872.84
745.86	3890.69
746.199	3903.12
746.538	3869.22
746.877	3828.32
747.216	3877.58
747.556	3888.2
747.895	3889.33
748.234	3871.48
748.573	3847.75
748.911	3810.46
749.25	3876.9
749.589	3820.18
749.928	3812.95
750.267	3840.97
750.605	3854.98
750.944	3802.33
751.283	3799.17
751.621	3814.76
751.96	3839.62
752.298	3807.08
752.636	3751.48
752.975	3748.32
753.313	3779.51
753.651	3797.36
753.989	3776.57
754.327	3800.97
754.666	3762.33
755.004	3774.76
755.342	3772.05
755.679	3742.44
756.017	3693.63
756.355	3740.18
756.693	3763.01
757.031	3730.01
757.368	3728.89
757.706	3708.09
758.044	3720.07
758.381	3706.29
758.719	3680.52
759.056	3678.49
759.394	3671.03
759.731	3669.23
760.068	3653.18
760.405	3636.46
760.743	3657.7
761.08	3628.1
761.417	3624.48
761.754	3611.37
762.091	3605.05
762.428	3636.91
762.765	3570.92
763.102	3609.79
763.438	3547.19
763.775	3572.05
764.112	3555.78
764.449	3531.83
764.785	3559.62
765.122	3493.86
765.458	3518.5
765.795	3522.56
766.131	3502.68
766.467	3536.12
766.804	3480.08
767.14	3507.2
767.476	3489.57
767.812	3453.64
768.148	3426.52
768.485	3459.97
768.821	3465.84
769.157	3449.57
769.492	3405.5
769.828	3375
770.164	3391.72
770.5	3365.96
770.836	3392.62
771.171	3343.81
771.507	3365.05
771.842	3340.87
772.178	3325.28
772.513	3363.02
772.849	3304.04
773.184	3320.08
773.519	3311.27
773.855	3304.72
774.19	3307.43
774.525	3269.01
774.86	3275.79
775.195	3257.03
775.53	3237.6
775.865	3231.27
776.2	3183.59
776.535	3231.04
776.87	3192.4
777.205	3164.15
777.539	3200.31
777.874	3186.07
778.209	3144.72
778.543	3151.95
778.878	3138.84
779.212	3139.07
779.547	3155.11
779.881	3136.36
780.215	3102.91
780.55	3116.92
780.884	3072.18
781.218	3122.35
781.552	3065.63
781.886	3117.83
782.22	3048.9
782.554	3023.82
782.888	3001.67
783.222	3022.01
783.556	2991.28
783.889	3003.93
784.223	2991.96
784.557	2954.89
784.89	2976.59
785.224	2966.65
785.557	2939.98
785.891	2938.62
786.224	2920.32
786.558	2922.13
786.891	2915.57
787.224	2924.84
787.557	2864.5
787.891	2914.9
788.224	2865.4
788.557	2864.05
788.89	2899.98
789.223	2864.05
789.556	2872.86
789.888	2833.99
790.221	2828.8
790.554	2829.02
790.887	2825.63
791.219	2811.62
791.552	2824.95
791.884	2818.17
792.217	2786.08
792.549	2782.7
792.882	2732.53
793.214	2734.33
793.546	2766.2
793.879	2719.65
794.211	2720.32
794.543	2737.95
794.875	2693.88
795.207	2690.72
795.539	2713.77
795.871	2720.78
796.203	2677.39
796.535	2688.23
796.867	2671.74
797.198	2663.38
797.53	2698.63
797.862	2645.3
798.193	2645.52
798.525	2629.48
798.856	2607.78
799.188	2601.68
799.519	2613.89
799.85	2580.44
800.182	2579.08
800.513	2620.67
800.844	2635.13
801.175	2594.45
801.506	2612.3
801.837	2567.33
802.168	2548.13
802.499	2551.51
802.83	2516.26
803.161	2547.9
803.491	2570.5
803.822	2546.09
804.153	2521.23
804.483	2485.75
804.814	2501.57
805.145	2503.61
805.475	2529.37
805.805	2501.57
806.136	2494.79
806.466	2506.54
806.796	2480.56
807.126	2464.74
807.457	2494.34
807.787	2446.43
808.117	2433.33
808.447	2430.16
808.777	2435.81
809.107	2442.82
809.436	2448.47
809.766	2444.85
810.096	2389.49
810.426	2420.9
810.755	2387.23
811.085	2421.12
811.414	2391.75
811.744	2373.89
812.073	2353.1
812.403	2382.71
812.732	2398.3
813.061	2347
813.39	2358.53
813.719	2387.45
814.049	2381.58
814.378	2358.07
814.707	2337.96
815.036	2372.54
815.365	2342.25
815.693	2314.01
816.022	2290.73
816.351	2300.9
816.68	2290.28
817.008	2337.51
817.337	2281.92
817.665	2281.47
817.994	2274.91
818.322	2334.35
818.651	2300.67
818.979	2278.08
819.307	2269.94
819.636	2276.04
819.964	2289.6
820.292	2270.39
820.62	2291.63
820.948	2244.4
821.276	2241.47
821.604	2279.21
821.932	2274.91
822.259	2238.98
822.587	2264.74
822.915	2266.1
823.243	2237.62
823.57	2227
823.898	2232.88
824.225	2241.47
824.553	2247.57
824.88	2243.73
825.207	2244.18
825.535	2257.06
825.862	2275.36
826.189	2224.97
826.516	2282.14
826.843	2263.16
827.17	2241.92
827.497	2263.39
827.824	2257.29
828.151	2214.12
828.478	2281.92
828.805	2269.49
829.131	2238.3
829.458	2269.49
829.785	2247.57
830.111	2260
830.438	2238.98
830.764	2223.39
831.09	2252.77
831.417	2222.03
831.743	2284.86
832.069	2253.9
832.395	2236.27
832.722	2269.26
833.048	2236.27
833.374	2229.72
833.7	2249.15
834.026	2196.5
834.351	2217.51
834.677	2220.22
835.003	2235.82
835.329	2198.98
835.654	2216.83
835.98	2210.51
836.306	2235.59
836.631	2214.8
836.956	2223.39
837.282	2225.42
837.607	2188.59
837.932	2203.5
838.258	2207.34
838.583	2203.5
838.908	2187.91
839.233	2196.72
839.558	2193.11
839.883	2178.64
840.208	2168.93
840.533	2181.81
840.858	2192.65
841.182	2169.83
841.507	2166.67
841.832	2175.71
842.156	2137.29
842.481	2165.76
842.805	2170.96
843.13	2149.49
843.454	2162.15
843.778	2127.57
844.103	2151.98
844.427	2103.62
844.751	2098.87
845.075	2148.59
845.399	2120.11
845.723	2071.3
846.047	2103.17
846.371	2097.29
846.695	2142.26
847.019	2095.03
847.343	2091.41
847.666	2053.67
847.99	2049.16
848.313	2083.96
848.637	2057.52
848.96	2053.45
849.284	2056.39
849.607	2036.05
849.931	2043.05
850.254	2036.95
850.577	2033.34
850.9	1976.84
851.223	2007.35
851.546	1989.72
851.869	1982.94
852.192	1972.55
852.515	1956.73
852.838	1949.72
853.161	1943.62
853.483	1958.54
853.806	1969.16
854.129	1942.94
854.451	1949.72
854.774	1936.16
855.096	1924.64
855.419	1919.22
855.741	1921.47
856.063	1911.53
856.385	1911.76
856.708	1901.14
857.03	1872.44
857.352	1921.25
857.674	1874.24
857.996	1896.16
858.318	1877.18
858.64	1884.87
858.961	1901.59
859.283	1877.41
859.605	1856.62
859.926	1856.84
860.248	1879.22
860.57	1838.99
860.891	1884.64
861.212	1865.88
861.534	1841.93
861.855	1846.67
862.176	1841.48
862.498	1845.09
862.819	1843.74
863.14	1815.94
863.461	1813.91
863.782	1834.92
864.103	1820.69
864.424	1813.68
864.745	1821.59
865.065	1832.89
865.386	1809.84
865.707	1789.95
866.027	1828.6
866.348	1800.8
866.668	1819.33
866.989	1782.95
867.309	1806.9
867.63	1806.45
867.95	1760.58
868.27	1789.5
868.59	1755.15
868.91	1807.81
869.23	1806.45
869.55	1779.78
869.87	1783.63
870.19	1769.16
870.51	1778.88
870.83	1782.72
871.15	1733.01
871.469	1737.52
871.789	1787.69
872.109	1790.63
872.428	1735.72
872.748	1772.55
873.067	1729.39
873.386	1734.14
873.706	1731.42
874.025	1762.16
874.344	1748.37
874.663	1737.52
874.982	1720.8
875.301	1738.43
875.62	1725.77
875.939	1739.33
876.258	1713.57
876.577	1705.44
876.896	1732.55
877.214	1711.76
877.533	1700.69
877.852	1695.72
878.17	1726.9
878.489	1725.77
878.807	1716.96
879.125	1692.33
879.444	1696.62
879.762	1691.42
880.08	1702.72
880.398	1693.68
880.716	1699.79
881.034	1683.74
881.352	1660.24
881.67	1694.59
881.988	1707.7
882.306	1684.87
882.624	1699.79
882.941	1671.76
883.259	1674.48
883.577	1661.82
883.894	1658.2
884.212	1680.8
884.529	1677.87
884.846	1657.98
885.164	1644.42
885.481	1638.54
885.798	1650.52
886.115	1619.11
886.432	1630.41
886.75	1651.2
887.067	1628.38
887.383	1625.89
887.7	1618.66
888.017	1640.13
888.334	1621.14
888.651	1627.7
888.967	1640.13
889.284	1589.73
889.6	1606.45
889.917	1614.14
890.233	1618.43
890.55	1584.08
890.866	1611.65
891.182	1580.01
891.498	1578.43
891.815	1601.94
892.131	1571.2
892.447	1580.47
892.763	1577.08
893.079	1545.67
893.395	1609.39
893.71	1554.03
894.026	1574.82
894.342	1557.87
894.657	1526.23
894.973	1527.13
895.289	1546.8
895.604	1542.95
895.92	1506.8
896.235	1511.09
896.55	1505.44
896.865	1532.78
897.181	1529.17
897.496	1515.16
897.811	1494.82
898.126	1508.15
898.441	1493.01
898.756	1473.13
899.071	1515.16
899.386	1478.1
899.7	1469.74
900.015	1473.58
900.33	1452.56
900.644	1454.82
900.959	1474.93
901.273	1451.66
901.588	1464.54
901.902	1440.58
902.216	1458.21
902.531	1469.74
902.845	1442.17
903.159	1424.09
903.473	1441.71
903.787	1452.33
904.101	1448.49
904.415	1396.74
904.729	1439.91
905.042	1424.31
905.356	1407.36
905.67	1419.57
905.984	1413.92
906.297	1429.96
906.611	1393.58
906.924	1392.9
907.237	1390.87
907.551	1373.47
907.864	1386.12
908.177	1389.74
908.491	1369.17
908.804	1354.48
909.117	1367.37
909.43	1371.88
909.743	1345.22
910.056	1346.57
910.368	1356.74
910.681	1345.22
910.994	1294.82
911.307	1329.4
911.619	1312.68
911.932	1303.64
912.244	1314.49
912.557	1311.55
912.869	1312.9
913.181	1292.56
913.494	1297.76
913.806	1288.72
914.118	1280.59
914.43	1302.73
914.742	1275.84
915.054	1287.82
915.366	1295.95
915.678	1284.88
915.99	1281.94
916.302	1269.51
916.613	1272.45
916.925	1263.19
917.236	1246.69
917.548	1240.59
917.859	1214.15
918.171	1242.17
918.482	1231.1
918.794	1221.83
919.105	1232
919.416	1238.56
919.727	1206.01
920.038	1219.12
920.349	1231.78
920.66	1226.8
920.971	1206.47
921.282	1213.02
921.593	1209.63
921.903	1169.63
922.214	1189.52
922.525	1194.94
922.835	1200.36
923.146	1184.32
923.456	1153.13
923.767	1176.64
924.077	1157.65
924.387	1166.69
924.697	1139.12
925.008	1129.86
925.318	1173.25
925.628	1138.9
925.938	1122.85
926.248	1124.21
926.558	1138.9
926.867	1168.05
927.177	1140.25
927.487	1112.68
927.796	1152
928.106	1130.54
928.416	1113.59
928.725	1113.36
929.034	1093.25
929.344	1118.78
929.653	1098.67
929.962	1111.1
930.271	1102.06
930.581	1094.38
930.89	1100.93
931.199	1081.05
931.508	1098.22
931.817	1085.34
932.125	1064.55
932.434	1078.56
932.743	1051.44
933.051	1084.89
933.36	1067.03
933.669	1053.93
933.977	1073.14
934.286	1053.02
934.594	1046.02
934.902	1036.98
935.21	1045.79
935.519	1055.51
935.827	1022.52
936.135	1046.92
936.443	1028.84
936.751	1027.04
937.059	1045.79
937.367	1019.8
937.674	1020.71
937.982	1030.2
938.29	1020.26
938.597	1003.08
938.905	1007.6
939.213	1004.89
939.52	1020.48
939.827	997.43
940.135	994.49
940.442	1005.79
940.749	984.78
941.056	1015.51
941.363	990.43
941.67	963.53
941.977	957.21
942.284	980.26
942.591	986.58
942.898	973.7
943.205	971.22
943.511	951.33
943.818	920.82
944.125	940.03
944.431	943.2
944.738	951.56
945.044	953.14
945.35	966.7
945.657	959.01
945.963	949.98
946.269	943.87
946.575	957.43
946.881	977.09
947.187	940.71
947.493	922.41
947.799	928.51
948.105	928.28
948.41	928.73
948.716	918.34
949.022	907.26
949.327	926.47
949.633	885.57
949.938	902.07
950.244	907.04
950.549	930.09
950.854	921.05
951.16	887.6
951.465	905.68
951.77	898.45
952.075	892.12
952.38	891.45
952.685	882.63
952.99	879.69
953.294	870.66
953.599	879.02
953.904	862.29
954.209	859.81
954.513	855.74
954.818	813.71
955.122	870.43
955.426	857.1
955.731	835.4
956.035	839.24
956.339	849.41
956.643	848.06
956.948	850.99
957.252	838.57
957.556	812.13
957.86	841.96
958.163	831.56
958.467	832.92
958.771	851.45
959.075	828.62
959.378	808.96
959.682	811.9
959.985	848.28
960.289	831.56
960.592	820.94
960.896	789.08
961.199	799.24
961.502	797.89
961.805	809.19
962.108	805.8
962.411	818.91
962.714	794.5
963.017	782.3
963.32	794.5
963.623	815.29
963.926	776.87
964.228	810.09
964.531	788.17
964.833	758.12
965.136	798.11
965.438	793.14
965.741	791.56
966.043	791.34
966.345	788.85
966.648	786.14
966.95	775.06
967.252	770.54
967.554	771
967.856	758.12
968.158	778.23
968.46	741.84
968.761	749.08
969.063	764.44
969.365	735.52
969.666	724.44
969.968	740.26
970.269	733.94
970.571	756.99
970.872	742.3
971.174	745.69
971.475	752.69
971.776	743.65
972.077	728.06
972.378	745.69
972.679	743.43
972.98	731.9
973.281	752.47
973.582	720.83
973.883	732.35
974.183	705.24
974.484	712.47
974.785	704.56
975.085	712.02
975.386	703.65
975.686	726.03
975.986	719.92
976.287	704.78
976.587	697.55
976.887	705.24
977.187	703.65
977.487	705.24
977.787	694.61
978.087	692.13
978.387	683.77
978.687	673.82
978.987	691.68
979.286	703.88
979.586	693.94
979.885	682.86
980.185	657.1
980.484	675.63
980.784	685.35
981.083	680.83
981.382	669.08
981.682	662.07
981.981	654.62
982.28	670.89
982.579	664.11
982.878	680.38
983.177	705.01
983.475	658.68
983.774	662.75
984.073	648.51
984.372	676.76
984.67	662.3
984.969	661.85
985.267	640.83
985.566	652.58
985.864	617.55
986.162	652.36
986.461	648.74
986.759	623.88
987.057	656.42
987.355	646.93
987.653	649.19
987.951	638.34
988.249	643.32
988.547	601.96
988.844	615.97
989.142	626.59
989.44	621.85
989.737	622.98
990.035	611.9
990.332	619.14
990.63	613.71
990.927	619.14
991.224	596.09
991.521	616.65
991.819	634.28
992.116	617.1
992.413	603.32
992.71	619.81
993.006	599.48
993.303	606.48
993.6	605.13
993.897	626.82
994.193	624.56
994.49	606.48
994.787	612.81
995.083	593.15
995.379	592.24
995.676	584.79
995.972	593.37
996.268	592.7
996.565	573.26
996.861	594.28
997.157	585.01
997.453	589.76
997.749	603.77
998.044	591.79
998.34	577.78
998.636	586.82
998.932	563.77
999.227	594.73
999.523	587.95
999.818	571.68
1000.114	572.81
1000.409	563.32
1000.704	601.51
1001	569.87
1001.295	561.28
1001.59	534.39
1001.885	566.93
1002.18	565.8
1002.475	554.73
1002.77	547.73
1003.065	535.3
1003.359	575.3
1003.654	553.6
1003.949	561.06
1004.243	527.84
1004.538	525.13
1004.832	542.53
1005.127	561.51
1005.421	568.52
1005.715	541.17
1006.009	536.65
1006.304	527.16
1006.598	552.47
1006.892	523.55
1007.186	536.88
1007.48	555.64
1007.773	556.09
1008.067	527.16
1008.361	526.26
1008.655	548.18
1008.948	534.62
1009.242	517.67
1009.535	542.98
1009.829	541.17
1010.122	531
1010.415	517.44
1010.708	534.62
1011.001	531.91
1011.295	527.84
1011.588	512.25
1011.881	516.09
1012.173	518.8
1012.466	523.77
1012.759	495.98
1013.052	519.7
1013.344	492.59
1013.637	514.05
1013.93	510.21
1014.222	511.57
1014.514	505.47
1014.807	488.07
1015.099	500.95
1015.391	487.39
1015.683	482.64
1015.976	485.58
1016.268	476.99
1016.56	496.43
1016.851	489.2
1017.143	481.51
1017.435	477.67
1017.727	471.8
1018.018	475.19
1018.31	492.59
1018.602	495.75
1018.893	468.86
1019.185	481.51
1019.476	476.32
1019.767	489.87
1020.058	479.93
1020.35	498.46
1020.641	490.33
1020.932	479.93
1021.223	481.29
1021.514	481.06
1021.804	484
1022.095	461.85
1022.386	460.04
1022.677	471.8
1022.967	465.24
1023.258	452.81
1023.548	457.78
1023.839	449.42
1024.129	466.6
1024.419	465.02
1024.709	446.03
1025	451.91
1025.29	452.81
1025.58	453.49
1025.87	451.91
1026.16	462.98
1026.449	448.52
1026.739	449.65
1027.029	447.84
1027.319	446.94
1027.608	459.59
1027.898	448.97
1028.187	456.43
1028.477	437.45
1028.766	438.12
1029.055	427.05
1029.344	419.14
1029.634	442.87
1029.923	416.2
1030.212	417.56
1030.501	442.19
1030.79	435.64
1031.078	421.85
1031.367	420.5
1031.656	435.19
1031.945	433.15
1032.233	431.57
1032.522	418.69
1032.81	438.35
1033.099	425.24
1033.387	439.48
1033.675	411.01
1033.963	396.32
1034.251	413.72
1034.54	436.09
1034.828	421.63
1035.116	404.45
1035.403	440.16
1035.691	416.88
1035.979	406.94
1036.267	408.07
1036.554	428.63
1036.842	436.77
1037.129	415.75
1037.417	411.46
1037.704	426.6
1037.992	418.01
1038.279	399.48
1038.566	406.49
1038.853	406.49
1039.14	406.49
