Data from carpet_green_FLMS001491_00015.txt Node
Date: Wed Feb 08 10:34:58 GMT 2017
User: dcchb
Spectrometer: FLMS00149
Trigger mode: 0
Integration Time (sec): 2.000000E-2
Scans to average: 10
Electric dark correction enabled: true
Nonlinearity correction enabled: false
Boxcar width: 0
XAxis mode: Wavelengths
Number of Pixels in Spectrum: 2048
>>>>>Begin Spectral Data<<<<<
341.393	-35.69
341.776	-35.69
342.16	-35.69
342.543	-71.4
342.927	-66.88
343.31	-72.07
343.693	-57.16
344.077	-54
344.46	-65.29
344.843	-55.8
345.226	-56.03
345.61	-22.36
345.993	-18.74
346.376	-14.45
346.759	0.47
347.142	43.18
347.525	47.24
347.908	45.21
348.291	73.46
348.674	89.5
349.057	116.85
349.44	121.37
349.823	155.94
350.206	154.13
350.588	167.92
350.971	175.83
351.354	209.73
351.737	212.89
352.119	228.48
352.502	224.87
352.884	250.4
353.267	260.8
353.65	270.06
354.032	275.26
354.414	264.87
354.797	291.53
355.179	291.76
355.562	295.6
355.944	299.89
356.326	303.73
356.709	298.31
357.091	312.1
357.473	315.71
357.855	312.77
358.238	321.36
358.62	290.4
359.002	304.19
359.384	311.42
359.766	308.71
360.148	283.62
360.53	302.15
360.912	294.47
361.294	320.91
361.676	313.9
362.057	312.32
362.439	291.08
362.821	289.72
363.203	284.07
363.584	305.77
363.966	297.86
364.348	286.79
364.729	282.27
365.111	290.18
365.493	288.82
365.874	290.85
366.256	281.14
366.637	288.14
367.019	285.66
367.4	289.72
367.781	291.53
368.163	288.14
368.544	278.65
368.925	297.63
369.306	291.76
369.688	265.54
370.069	297.41
370.45	280.01
370.831	277.97
371.212	268.71
371.593	294.47
371.974	285.43
372.355	276.62
372.736	295.6
373.117	264.87
373.498	290.18
373.879	261.02
374.26	300.12
374.641	288.37
375.021	282.72
375.402	280.46
375.783	272.55
376.163	278.2
376.544	275.94
376.925	282.72
377.305	287.69
377.686	277.07
378.066	279.78
378.447	293.57
378.827	283.85
379.208	298.09
379.588	294.47
379.968	293.34
380.349	296.28
380.729	276.39
381.109	290.85
381.489	298.99
381.87	307.35
382.25	300.8
382.63	299.22
383.01	292.44
383.39	307.35
383.77	304.86
384.15	283.85
384.53	291.08
384.91	300.57
385.29	288.14
385.67	301.48
386.049	305.32
386.429	290.4
386.809	315.03
387.189	318.2
387.568	303.51
387.948	303.73
388.328	290.63
388.707	293.79
389.087	287.01
389.466	305.77
389.846	302.83
390.225	303.96
390.605	284.75
390.984	313.45
391.363	315.49
391.743	286.79
392.122	307.58
392.501	320.46
392.881	301.93
393.26	303.51
393.639	278.2
394.018	304.19
394.397	278.2
394.776	295.6
395.155	301.02
395.534	314.36
395.913	314.58
396.292	305.54
396.671	310.97
397.05	312.55
397.429	306.45
397.808	304.41
398.186	320.91
398.565	304.41
398.944	302.15
399.323	304.86
399.701	327.92
400.08	290.4
400.458	312.77
400.837	320.91
401.215	316.62
401.594	302.83
401.972	301.25
402.351	319.55
402.729	320.46
403.107	327.46
403.486	325.43
403.864	304.19
404.242	311.42
404.62	320.91
404.999	320.68
405.377	302.61
405.755	325.88
406.133	344.19
406.511	328.82
406.889	327.92
407.267	312.32
407.645	311.64
408.023	324.53
408.401	312.77
408.779	315.71
409.156	309.38
409.534	327.69
409.912	309.16
410.29	314.81
410.667	317.07
411.045	336.73
411.422	325.88
411.8	315.03
412.178	337.18
412.555	324.75
412.933	305.99
413.31	336.95
413.687	326.56
414.065	353
414.442	311.42
414.819	339.44
415.197	318.42
415.574	325.2
415.951	325.43
416.328	319.78
416.705	313.23
417.082	324.07
417.46	326.56
417.837	305.99
418.214	320.23
418.591	335.82
418.967	331.53
419.344	333.56
419.721	320.23
420.098	326.56
420.475	337.63
420.852	331.08
421.228	324.53
421.605	313.45
421.982	326.79
422.358	339.44
422.735	332.43
423.111	351.87
423.488	336.95
423.864	346.9
424.241	348.93
424.617	325.88
424.994	336.95
425.37	343.51
425.746	340.34
426.123	352.55
426.499	334.24
426.875	348.71
427.251	345.99
427.627	338.31
428.003	344.64
428.379	341.7
428.756	346.67
429.132	355.26
429.507	372.21
429.883	345.99
430.259	357.29
430.635	364.75
431.011	353
431.387	358.65
431.763	338.31
432.138	365.2
432.514	361.36
432.89	359.55
433.265	376.5
433.641	384.64
434.016	360.23
434.392	377.63
434.767	384.41
435.143	375.37
435.518	351.87
435.894	362.49
436.269	361.13
436.644	368.59
437.02	357.29
437.395	366.33
437.77	370.4
438.145	356.84
438.52	390.74
438.895	383.51
439.271	388.48
439.646	364.3
440.021	380.34
440.395	386.44
440.77	376.5
441.145	376.05
441.52	381.02
441.895	398.42
442.27	353.23
442.645	395.71
443.019	377.18
443.394	366.33
443.769	370.63
444.143	370.4
444.518	365.43
444.892	381.47
445.267	399.78
445.641	401.13
446.016	388.25
446.39	402.72
446.764	408.59
447.139	386.44
447.513	402.26
447.887	391.19
448.262	386.44
448.636	388.03
449.01	416.27
449.384	383.96
449.758	385.99
450.132	406.56
450.506	416.5
450.88	386.67
451.254	404.52
451.628	422.6
452.002	396.61
452.376	414.47
452.75	406.78
453.123	434.35
453.497	429.38
453.871	410.85
454.244	417.18
454.618	411.08
454.992	433.68
455.365	405.43
455.739	401.36
456.112	424.18
456.486	435.26
456.859	407.46
457.232	413.34
457.606	447.23
457.979	432.77
458.352	441.81
458.725	474.13
459.099	447.23
459.472	454.92
459.845	453.11
460.218	454.69
460.591	444.3
460.964	465.99
461.337	461.24
461.71	447.46
462.083	467.35
462.456	453.79
462.829	470.74
463.201	473.9
463.574	461.47
463.947	472.54
464.32	462.37
464.692	488.59
465.065	465.76
465.438	487.68
465.81	461.24
466.183	477.29
466.555	501.24
466.928	482.94
467.3	482.26
467.672	507.12
468.045	485.65
468.417	506.89
468.789	501.02
469.161	522.26
469.534	504.63
469.906	507.57
470.278	529.27
470.65	513.67
471.022	538.08
471.394	534.46
471.766	552.32
472.138	527.01
472.51	543.5
472.882	535.14
473.253	553.67
473.625	546.89
473.997	552.09
474.369	552.99
474.74	548.25
475.112	559.55
475.484	578.98
475.855	575.82
476.227	590.73
476.598	576.5
476.97	615.82
477.341	622.37
477.713	604.29
478.084	596.83
478.455	606.33
478.827	618.3
479.198	615.37
479.569	626.66
479.94	640.68
480.311	645.19
480.682	663.05
481.053	637.74
481.424	653.1
481.795	661.92
482.166	654.69
482.537	696.27
482.908	678.41
483.279	705.76
483.65	681.35
484.021	696.04
484.391	706.44
484.762	732.42
485.133	719.32
485.503	717.28
485.874	736.04
486.244	747.57
486.615	756.83
486.985	735.36
487.356	765.64
487.726	778.3
488.097	768.58
488.467	776.04
488.837	807
489.207	802.93
489.578	791.18
489.948	821.01
490.318	797.51
490.688	831.4
491.058	844.96
491.428	832.08
491.798	837.51
492.168	844.29
492.538	839.99
492.908	863.72
493.278	874.34
493.648	880.89
494.017	861.91
494.387	891.06
494.757	881.12
495.126	904.62
495.496	877.28
495.866	924.06
496.235	866.66
496.605	902.14
496.974	921.35
497.344	917.96
497.713	907.79
498.082	928.8
498.452	920.22
498.821	936.94
499.19	942.81
499.559	929.48
499.928	930.39
500.298	948.46
500.667	967.45
501.036	969.48
501.405	958.41
501.774	995.02
502.143	967.22
502.512	974.9
502.88	980.55
503.249	987.33
503.618	998.63
503.987	975.81
504.356	1004.73
504.724	989.82
505.093	1002.93
505.462	1002.25
505.83	1009.03
506.199	1014.45
506.567	1032.76
506.936	1022.59
507.304	1011.51
507.672	1011.29
508.041	1022.59
508.409	1071.85
508.777	1047.67
509.145	1066.88
509.514	1054.9
509.882	1056.26
510.25	1058.07
510.618	1060.55
510.986	1049.03
511.354	1063.26
511.722	1102.13
512.09	1079.99
512.458	1086.31
512.826	1081.34
513.193	1107.78
513.561	1111.17
513.929	1093.54
514.297	1121.57
514.664	1127.89
515.032	1094.67
515.4	1110.72
515.767	1120.21
516.135	1109.14
516.502	1089.48
516.869	1144.62
517.237	1103.26
517.604	1117.5
517.972	1125.86
518.339	1122.47
518.706	1167.67
519.073	1144.84
519.44	1151.85
519.808	1152.53
520.175	1159.98
520.542	1178.29
520.909	1163.37
521.276	1169.02
521.643	1202.24
522.009	1172.86
522.376	1162.7
522.743	1176.03
523.11	1203.37
523.477	1205.41
523.843	1181
524.21	1186.88
524.577	1225.74
524.943	1208.12
525.31	1208.57
525.676	1249.7
526.043	1232.3
526.409	1239.53
526.776	1246.54
527.142	1247.44
527.508	1251.96
527.874	1230.04
528.241	1249.47
528.607	1249.02
528.973	1262.81
529.339	1261
529.705	1275.46
530.071	1261
530.437	1271.39
530.803	1246.54
531.169	1276.14
531.535	1281.56
531.901	1279.53
532.267	1269.81
532.632	1289.47
532.998	1299.41
533.364	1277.72
533.73	1284.95
534.095	1284.27
534.461	1293.31
534.826	1334.67
535.192	1303.71
535.557	1301.9
535.923	1309.13
536.288	1306.42
536.653	1284.73
537.019	1308.68
537.384	1283.37
537.749	1313.2
538.114	1294.44
538.479	1289.02
538.845	1301.67
539.21	1320.43
539.575	1302.35
539.94	1309.81
540.305	1332.86
540.67	1310.04
541.034	1306.19
541.399	1320.43
541.764	1276.36
542.129	1304.16
542.494	1323.14
542.858	1296.25
543.223	1333.76
543.587	1316.59
543.952	1322.69
544.316	1329.24
544.681	1305.74
545.045	1308.45
545.41	1347.78
545.774	1299.87
546.138	1324.95
546.503	1301
546.867	1331.28
547.231	1330.37
547.595	1326.31
547.959	1348.68
548.324	1338.06
548.688	1322.92
549.052	1353.65
549.416	1315.46
549.779	1315.01
550.143	1343.93
550.507	1360.88
550.871	1351.39
551.235	1305.52
551.599	1342.13
551.962	1340.77
552.326	1359.07
552.689	1336.48
553.053	1326.31
553.417	1341
553.78	1352.75
554.143	1348.45
554.507	1348
554.87	1353.88
555.234	1351.84
555.597	1362.24
555.96	1370.6
556.323	1355.91
556.686	1358.4
557.05	1360.88
557.413	1373.09
557.776	1368.34
558.139	1379.64
558.502	1371.5
558.865	1400.43
559.228	1377.61
559.59	1384.16
559.953	1399.53
560.316	1382.8
560.679	1401.33
561.041	1360.88
561.404	1370.37
561.767	1392.97
562.129	1388.9
562.492	1380.99
562.854	1421.67
563.217	1408.56
563.579	1429.36
563.941	1414.21
564.304	1387.1
564.666	1409.92
565.028	1392.75
565.39	1430.94
565.753	1416.47
566.115	1437.49
566.477	1432.07
566.839	1421.9
567.201	1419.86
567.563	1426.42
567.925	1411.05
568.287	1421.67
568.648	1410.6
569.01	1460.54
569.372	1440.2
569.734	1422.58
570.095	1431.39
570.457	1475
570.819	1409.92
571.18	1467.32
571.542	1443.14
571.903	1452.86
572.265	1440.2
572.626	1445.85
572.987	1455.12
573.349	1444.04
573.71	1483.14
574.071	1457.15
574.432	1471.39
574.794	1450.37
575.155	1468.9
575.516	1447.89
575.877	1462.57
576.238	1456.25
576.599	1448.56
576.96	1452.41
577.32	1444.5
577.681	1412.63
578.042	1464.16
578.403	1464.38
578.763	1438.17
579.124	1424.38
579.485	1427.1
579.845	1410.6
580.206	1414.21
580.566	1444.04
580.927	1438.17
581.287	1479.98
581.648	1433.42
582.008	1438.39
582.368	1471.39
582.728	1436.59
583.089	1423.25
583.449	1425.06
583.809	1420.99
584.169	1406.53
584.529	1429.81
584.889	1413.08
585.249	1402.92
585.609	1442.01
585.969	1400.2
586.329	1424.16
586.688	1400.43
587.048	1426.87
587.408	1411.28
587.768	1393.88
588.127	1415.34
588.487	1390.94
588.846	1416.02
589.206	1401.33
589.565	1398.17
589.925	1413.08
590.284	1398.4
590.643	1390.71
591.003	1395.46
591.362	1407.21
591.721	1400.88
592.08	1390.26
592.44	1380.09
592.799	1390.03
593.158	1388.45
593.517	1379.41
593.876	1393.65
594.235	1394.33
594.593	1394.33
594.952	1396.14
595.311	1385.51
595.67	1376.93
596.029	1393.2
596.387	1417.38
596.746	1397.04
597.104	1403.37
597.463	1389.81
597.822	1357.04
598.18	1380.09
598.538	1389.13
598.897	1406.08
599.255	1384.61
599.613	1395.01
599.972	1382.35
600.33	1380.77
600.688	1387.55
601.046	1386.19
601.404	1385.97
601.762	1385.29
602.12	1409.24
602.478	1399.75
602.836	1409.02
603.194	1385.51
603.552	1386.42
603.91	1420.77
604.268	1422.58
604.625	1425.74
604.983	1391.39
605.341	1406.08
605.698	1432.52
606.056	1409.92
606.413	1401.33
606.771	1435.23
607.128	1402.46
607.485	1390.26
607.843	1411.28
608.2	1389.58
608.557	1398.17
608.914	1438.85
609.272	1437.04
609.629	1450.37
609.986	1419.19
610.343	1427.1
610.7	1446.08
611.057	1440.2
611.414	1439.3
611.771	1428.68
612.127	1483.36
612.484	1460.31
612.841	1470.26
613.198	1434.78
613.554	1436.36
613.911	1430.94
614.267	1456.02
614.624	1444.95
614.98	1450.6
615.337	1453.76
615.693	1466.64
616.05	1436.59
616.406	1437.49
616.762	1458.96
617.118	1417.38
617.475	1445.63
617.831	1478.62
618.187	1428.68
618.543	1472.74
618.899	1480.43
619.255	1455.8
619.611	1444.72
619.967	1462.35
620.323	1440.2
620.678	1467.09
621.034	1474.1
621.39	1459.86
621.746	1449.47
622.101	1458.51
622.457	1453.54
622.812	1473.2
623.168	1453.08
623.523	1474.78
623.879	1472.52
624.234	1439.98
624.589	1455.8
624.945	1478.62
625.3	1456.25
625.655	1438.85
626.01	1448.56
626.365	1476.13
626.72	1463.48
627.075	1467.55
627.43	1424.16
627.785	1453.08
628.14	1460.09
628.495	1440.65
628.85	1463.03
629.205	1454.21
629.559	1451.28
629.914	1445.63
630.269	1443.59
630.623	1440.2
630.978	1452.63
631.332	1441.33
631.687	1434.33
632.041	1417.38
632.396	1435.46
632.75	1428.9
633.104	1434.55
633.459	1454.21
633.813	1436.13
634.167	1425.97
634.521	1431.61
634.875	1413.76
635.229	1410.6
635.583	1450.82
635.937	1433.87
636.291	1434.33
636.645	1411.5
636.999	1426.87
637.352	1424.84
637.706	1425.74
638.06	1414.44
638.413	1412.63
638.767	1464.61
639.121	1449.92
639.474	1401.11
639.828	1463.03
640.181	1446.3
640.534	1421.9
640.888	1441.78
641.241	1451.95
641.594	1417.38
641.947	1416.47
642.301	1409.69
642.654	1418.51
643.007	1420.54
643.36	1407.21
643.713	1440.2
644.066	1424.84
644.419	1445.4
644.771	1455.12
645.124	1388
645.477	1433.87
645.83	1401.33
646.182	1425.06
646.535	1403.82
646.888	1430.71
647.24	1432.07
647.593	1400.43
647.945	1437.72
648.298	1419.19
648.65	1417.38
649.002	1416.25
649.355	1431.84
649.707	1449.02
650.059	1462.35
650.411	1462.8
650.763	1491.95
651.115	1487.66
651.467	1491.5
651.819	1466.42
652.171	1498.05
652.523	1509.58
652.875	1479.52
653.227	1498.96
653.578	1520.43
653.93	1534.44
654.282	1519.3
654.633	1519.07
654.985	1508.45
655.337	1502.12
655.688	1562.68
656.039	1544.61
656.391	1515.23
656.742	1553.65
657.094	1553.87
657.445	1569.69
657.796	1552.52
658.147	1594.32
658.498	1560.2
658.849	1582.35
659.2	1571.27
659.551	1601.55
659.902	1623.02
660.253	1620.31
660.604	1623.02
660.955	1642.46
661.306	1634.77
661.656	1636.81
662.007	1657.37
662.358	1664.15
662.708	1656.69
663.059	1700.76
663.409	1669.8
663.76	1719.74
664.11	1722.91
664.461	1691.72
664.811	1715
665.161	1712.74
665.511	1740.31
665.862	1747.54
666.212	1739.63
666.562	1785.28
666.912	1789.8
667.262	1804.03
667.612	1773.07
667.962	1788.67
668.312	1800.42
668.662	1825.5
669.011	1835.9
669.361	1833.86
669.711	1880.64
670.06	1866.63
670.41	1865.28
670.76	1901.89
671.109	1934.2
671.459	1922.45
671.808	1962.45
672.157	1943.24
672.507	1967.65
672.856	1962.22
673.205	1951.38
673.554	1961.54
673.904	1956.8
674.253	2023.24
674.602	2011.03
674.951	2025.5
675.3	1986.4
675.649	2027.31
675.998	2054.2
676.346	2083.58
676.695	2081.99
677.044	2082.67
677.393	2106.17
677.741	2131.03
678.09	2141.2
678.438	2131.03
678.787	2155.66
679.135	2163.35
679.484	2168.54
679.832	2220.52
680.181	2176.68
680.529	2232.5
680.877	2225.94
681.225	2243.34
681.573	2278.82
681.922	2265.27
682.27	2277.24
682.618	2263.46
682.966	2294.42
683.314	2309.11
683.661	2344.13
684.009	2390.01
684.357	2384.58
684.705	2371.03
685.053	2394.98
685.4	2392.49
685.748	2409.22
686.095	2418.03
686.443	2428.65
686.79	2418.03
687.138	2469.1
687.485	2485.6
687.832	2532.15
688.18	2514.52
688.527	2527.41
688.874	2534.86
689.221	2578.25
689.568	2523.79
689.915	2573.05
690.262	2564.01
690.609	2591.36
690.956	2598.59
691.303	2623.9
691.65	2653.28
691.997	2631.81
692.344	2655.54
692.69	2686.95
693.037	2707.06
693.383	2706.61
693.73	2726.27
694.077	2737.57
694.423	2746.38
694.769	2739.83
695.116	2787.29
695.462	2822.31
695.808	2781.64
696.155	2820.05
696.501	2809.88
696.847	2867.74
697.193	2814.86
697.539	2844.46
697.885	2870.67
698.231	2864.35
698.577	2917.23
698.923	2904.57
699.269	2888.53
699.614	2921.75
699.96	2917.9
700.306	2914.06
700.651	2936.66
700.997	2925.13
701.342	2938.69
701.688	2975.53
702.033	2972.14
702.379	2959.48
702.724	2991.57
703.069	3011.91
703.415	2977.79
703.76	3031.12
704.105	3060.05
704.45	3065.92
704.795	3037.45
705.14	3095.3
705.485	3106.15
705.83	3115.64
706.175	3105.47
706.52	3106.37
706.865	3148.63
707.209	3086.94
707.554	3102.08
707.899	3154.96
708.243	3147.95
708.588	3161.51
708.932	3186.15
709.277	3169.2
709.621	3200.38
709.966	3202.19
710.31	3200.61
710.654	3163.77
710.998	3190.21
711.342	3202.87
711.687	3248.97
712.031	3215.3
712.375	3222.08
712.719	3274.05
713.063	3252.36
713.407	3259.59
713.75	3273.37
714.094	3258.01
714.438	3315.63
714.782	3280.38
715.125	3320.83
715.469	3334.16
715.812	3291.23
716.156	3309.08
716.499	3376.65
716.843	3339.59
717.186	3320.15
717.53	3364.22
717.873	3345.69
718.216	3359.93
718.559	3352.92
718.902	3319.25
719.246	3337.55
719.589	3359.7
719.932	3357.89
720.275	3389.53
720.617	3372.58
720.96	3394.28
721.303	3403.09
721.646	3409.87
721.989	3413.26
722.331	3433.37
722.674	3373.48
723.016	3449.41
723.359	3374.39
723.701	3447.61
724.044	3424.56
724.386	3438.57
724.729	3469.08
725.071	3413.48
725.413	3465.01
725.755	3478.34
726.097	3448.51
726.439	3436.53
726.782	3423.88
727.124	3461.62
727.465	3427.49
727.807	3442.18
728.149	3479.47
728.491	3420.26
728.833	3460.71
729.175	3464.56
729.516	3470.21
729.858	3433.14
730.199	3458.23
730.541	3438.12
730.882	3439.25
731.224	3443.09
731.565	3467.04
731.906	3479.7
732.248	3456.42
732.589	3434.73
732.93	3432.47
733.271	3464.56
733.612	3524.67
733.953	3498.23
734.294	3479.02
734.635	3512.69
734.976	3500.94
735.317	3469.98
735.658	3455.52
735.999	3472.47
736.339	3429.08
736.68	3417.78
737.021	3468.62
737.361	3463.88
737.702	3471.11
738.042	3468.85
738.383	3466.36
738.723	3458.23
739.063	3415.97
739.404	3435.63
739.744	3417.55
740.084	3439.7
740.424	3465.91
740.764	3454.84
741.104	3471.56
741.444	3469.53
741.784	3425.46
742.124	3446.48
742.464	3496.87
742.804	3460.71
743.143	3407.61
743.483	3405.12
743.823	3432.01
744.162	3412.58
744.502	3430.21
744.841	3383.88
745.181	3462.07
745.52	3405.35
745.86	3432.47
746.199	3417.55
746.538	3402.41
746.877	3417.78
747.216	3383.88
747.556	3400.38
747.895	3400.6
748.234	3433.37
748.573	3402.64
748.911	3390.21
749.25	3383.43
749.589	3335.75
749.928	3341.17
750.267	3395.63
750.605	3364.45
750.944	3382.07
751.283	3335.75
751.621	3381.17
751.96	3343.43
752.298	3322.64
752.636	3339.36
752.975	3300.27
753.313	3360.6
753.651	3337.55
753.989	3317.67
754.327	3344.78
754.666	3261.17
755.004	3270.66
755.342	3279.48
755.679	3303.2
756.017	3272.24
756.355	3307.5
756.693	3277.89
757.031	3293.03
757.368	3265.24
757.706	3233.83
758.044	3229.53
758.381	3256.65
758.719	3215.52
759.056	3223.88
759.394	3229.53
759.731	3172.36
760.068	3213.71
760.405	3165.35
760.743	3215.3
761.08	3196.77
761.417	3149.08
761.754	3193.15
762.091	3181.85
762.428	3162.42
762.765	3132.81
763.102	3149.76
763.438	3113.38
763.775	3086.94
764.112	3105.92
764.449	3106.83
764.785	3092.14
765.122	3055.98
765.458	3087.16
765.795	3067.96
766.131	3073.15
766.467	3070.89
766.804	3053.95
767.14	3017.11
767.476	3061.85
767.812	3014.17
768.148	3029.99
768.485	3033.83
768.821	2980.73
769.157	2971.24
769.492	2964.46
769.828	2956.55
770.164	2935.76
770.5	2949.09
770.836	2920.39
771.171	2977.34
771.507	2925.13
771.842	2901.86
772.178	2907.28
772.513	2915.87
772.849	2888.75
773.184	2896.89
773.519	2922.88
773.855	2897.11
774.19	2862.76
774.525	2888.07
774.86	2854.63
775.195	2839.26
775.53	2829.54
775.865	2805.82
776.2	2823.89
776.535	2775.99
776.87	2742.77
777.205	2779.83
777.539	2755.87
777.874	2755.2
778.209	2779.6
778.543	2712.26
778.878	2719.94
779.212	2716.33
779.547	2713.62
779.881	2696.67
780.215	2735.31
780.55	2690.56
780.884	2717.46
781.218	2663.67
781.552	2692.6
781.886	2644.92
782.22	2655.31
782.554	2639.49
782.888	2625.26
783.222	2599.72
783.556	2633.62
783.889	2637.01
784.223	2606.27
784.557	2575.09
784.89	2578.7
785.224	2585.03
785.557	2554.75
785.891	2570.57
786.224	2543.68
786.558	2606.05
786.891	2581.64
787.224	2519.04
787.557	2531.02
787.891	2520.63
788.224	2511.13
788.557	2520.4
788.89	2482.43
789.223	2500.51
789.556	2467.52
789.888	2469.33
790.221	2476.11
790.554	2455.09
790.887	2456.9
791.219	2428.42
791.552	2446.28
791.884	2411.93
792.217	2423.45
792.549	2453.73
792.882	2399.95
793.214	2414.41
793.546	2421.87
793.879	2384.81
794.211	2420.97
794.543	2384.81
794.875	2387.75
795.207	2386.84
795.539	2367.18
795.871	2359.5
796.203	2328.31
796.535	2318.37
796.867	2371.03
797.198	2317.24
797.53	2362.89
797.862	2314.76
798.193	2308.88
798.525	2304.36
798.856	2314.3
799.188	2306.62
799.519	2254.42
799.85	2264.59
800.182	2263.23
800.513	2276.56
800.844	2244.7
801.175	2284.93
801.506	2251.93
801.837	2222.78
802.168	2257.36
802.499	2245.6
802.83	2234.08
803.161	2216.23
803.491	2247.86
803.822	2192.05
804.153	2193.18
804.483	2229.79
804.814	2186.85
805.145	2197.24
805.475	2204.93
805.805	2179.17
806.136	2201.09
806.466	2187.53
806.796	2182.78
807.126	2153.18
807.457	2142.78
807.787	2141.43
808.117	2121.54
808.447	2155.44
808.777	2142.56
809.107	2113.63
809.436	2142.78
809.766	2136.91
810.096	2114.31
810.426	2139.17
810.755	2078.6
811.085	2110.24
811.414	2091.71
811.744	2092.61
812.073	2070.24
812.403	2067.3
812.732	2077.25
813.061	2080.41
813.39	2042.67
813.719	2049.45
814.049	2049.23
814.378	2077.25
814.707	2046.51
815.036	2039.06
815.365	2019.4
815.693	2004.48
816.022	2054.42
816.351	2040.86
816.68	2011.26
817.008	2019.62
817.337	2002.45
817.665	2024.82
817.994	1994.99
818.322	2013.52
818.651	1999.51
818.979	1994.54
819.307	1990.7
819.636	2008.1
819.964	1949.79
820.292	1962.22
820.62	1981.2
820.948	1995.22
821.276	2001.32
821.604	1962.67
821.932	1982.56
822.259	2008.77
822.587	1971.04
822.915	1954.31
823.243	1971.94
823.57	1967.65
823.898	1963.35
824.225	1986.85
824.553	2001.32
824.88	1952.51
825.207	1981.2
825.535	1967.19
825.862	1970.58
826.189	1981.88
826.516	1981.66
826.843	1967.87
827.17	1943.01
827.497	1952.51
827.824	1963.13
828.151	1954.99
828.478	1959.06
828.805	1990.47
829.131	1938.04
829.458	1971.26
829.785	1933.3
830.111	1962.67
830.438	1961.32
830.764	1959.06
831.09	1971.94
831.417	1955.67
831.743	1949.12
832.069	1912.73
832.395	1962.22
832.722	1954.09
833.048	1972.84
833.374	1933.3
833.7	1910.47
834.026	1926.29
834.351	1944.37
834.677	1932.84
835.003	1953.64
835.329	1957.25
835.654	1951.83
835.98	1909.79
836.306	1926.07
836.631	1914.99
836.956	1940.53
837.282	1925.16
837.607	1898.72
837.932	1927.2
838.258	1920.64
838.583	1931.94
838.908	1902.34
839.233	1935.78
839.558	1901.66
839.883	1906.86
840.208	1891.49
840.533	1903.24
840.858	1911.15
841.182	1917.7
841.507	1883.58
841.832	1884.94
842.156	1875.9
842.481	1896.69
842.805	1866.18
843.13	1862.56
843.454	1876.57
843.778	1895.33
844.103	1879.74
844.427	1870.7
844.751	1842.23
845.075	1855.11
845.399	1823.69
845.723	1863.24
846.047	1850.81
846.371	1880.42
846.695	1831.38
847.019	1802.9
847.343	1825.5
847.666	1811.27
847.99	1802.23
848.313	1791.15
848.637	1806.29
848.96	1769.91
849.284	1781.89
849.607	1772.62
849.931	1761.1
850.254	1741.21
850.577	1788.22
850.9	1764.71
851.223	1756.35
851.546	1713.87
851.869	1730.36
852.192	1728.56
852.515	1723.36
852.838	1701.44
853.161	1694.21
853.483	1704.6
853.806	1677.03
854.129	1695.34
854.451	1696.47
854.774	1703.25
855.096	1692.85
855.419	1688.56
855.741	1695.34
856.063	1666.19
856.385	1682.46
856.708	1676.13
857.03	1645.39
857.352	1654.21
857.674	1681.55
857.996	1619.41
858.318	1640.42
858.64	1647.2
858.961	1637.03
859.283	1626.86
859.605	1609.01
859.926	1622.57
860.248	1621.67
860.57	1639.52
860.891	1644.72
861.212	1600.2
861.534	1636.13
861.855	1576.47
862.176	1619.18
862.498	1600.2
862.819	1598.39
863.14	1613.08
863.461	1623.25
863.782	1601.55
864.103	1603.59
864.424	1596.58
864.745	1561.1
865.065	1597.49
865.386	1576.7
865.707	1582.35
866.027	1557.04
866.348	1594.55
866.668	1566.75
866.989	1577.37
867.309	1577.15
867.63	1569.01
867.95	1563.81
868.27	1557.71
868.59	1586.19
868.91	1554.78
869.23	1576.47
869.55	1534.66
869.87	1556.81
870.19	1524.72
870.51	1544.38
870.83	1539.86
871.15	1550.71
871.469	1555.68
871.789	1580.31
872.109	1555.91
872.428	1528.56
872.748	1561.1
873.067	1552.29
873.386	1548.67
873.706	1524.72
874.025	1520.43
874.344	1540.99
874.663	1505.51
874.982	1533.53
875.301	1522.69
875.62	1531.27
875.939	1517.71
876.258	1518.84
876.577	1461.22
876.896	1506.64
877.214	1491.73
877.533	1506.64
877.852	1501.22
878.17	1505.74
878.489	1514.55
878.807	1486.75
879.125	1484.95
879.444	1496.92
879.762	1486.75
880.08	1487.43
880.398	1513.42
880.716	1475
881.034	1466.87
881.352	1477.49
881.67	1476.81
881.988	1484.72
882.306	1484.95
882.624	1426.42
882.941	1452.63
883.259	1479.07
883.577	1466.19
883.894	1478.62
884.212	1446.3
884.529	1442.01
884.846	1432.29
885.164	1451.73
885.481	1451.95
885.798	1464.38
886.115	1421.45
886.432	1436.81
886.75	1437.26
887.067	1428.45
887.383	1425.29
887.7	1417.83
888.017	1413.99
888.334	1432.07
888.651	1467.55
888.967	1442.46
889.284	1426.19
889.6	1421.22
889.917	1399.75
890.233	1410.15
890.55	1406.98
890.866	1411.28
891.182	1399.53
891.498	1373.31
891.815	1404.95
892.131	1351.39
892.447	1348.23
892.763	1354.55
893.079	1389.81
893.395	1376.02
893.71	1367.66
894.026	1379.19
894.342	1325.85
894.657	1345.52
894.973	1327.89
895.289	1352.29
895.604	1378.06
895.92	1331.05
896.235	1329.24
896.55	1338.51
896.865	1348.91
897.181	1337.61
897.496	1319.53
897.811	1325.85
898.126	1352.07
898.441	1314.1
898.756	1295.35
899.071	1321.79
899.386	1313.65
899.7	1333.09
900.015	1298.96
900.33	1290.6
900.644	1289.02
900.959	1267.55
901.273	1302.58
901.588	1284.05
901.902	1272.52
902.216	1286.08
902.531	1266.42
902.845	1265.52
903.159	1266.87
903.473	1269.81
903.787	1286.53
904.101	1273.43
904.415	1244.28
904.729	1260.55
905.042	1225.29
905.356	1247.89
905.67	1250.83
905.984	1243.82
906.297	1219.42
906.611	1244.5
906.924	1228.68
907.237	1223.03
907.551	1221
907.864	1228.23
908.177	1251.28
908.491	1221.68
908.804	1199.98
909.117	1177.61
909.43	1187.78
909.743	1203.82
910.056	1177.61
910.368	1175.8
910.681	1171.28
910.994	1154.11
911.307	1169.02
911.619	1150.94
911.932	1141.91
912.244	1149.36
912.557	1161.79
912.869	1137.16
913.181	1179.19
913.494	1127.67
913.806	1121.11
914.118	1115.47
914.43	1130.38
914.742	1129.02
915.054	1123.83
915.366	1125.18
915.678	1110.27
915.99	1122.7
916.302	1117.72
916.613	1120.21
916.925	1120.44
917.236	1105.3
917.548	1088.35
917.859	1093.77
918.171	1082.92
918.482	1107.33
918.794	1115.01
919.105	1088.57
919.416	1114.11
919.727	1080.89
920.038	1067.56
920.349	1080.44
920.66	1039.31
920.971	1072.53
921.282	1034.56
921.593	1052.87
921.903	1047.44
922.214	1047.44
922.525	1053.32
922.835	1065.52
923.146	1056.48
923.456	1061.23
923.767	1051.29
924.077	1028.91
924.387	1021.23
924.697	1013.32
925.008	1030.27
925.318	1023.26
925.628	1011.51
925.938	1048.35
926.248	1026.88
926.558	1014.9
926.867	996.37
927.177	1014
927.487	1042.7
927.796	1012.42
928.106	980.55
928.416	977.62
928.725	977.39
929.034	990.5
929.344	984.85
929.653	964.06
929.962	965.41
930.271	953.89
930.581	968.35
930.89	975.81
931.199	962.02
931.508	974.9
931.817	969.48
932.125	952.53
932.434	963.6
932.743	949.14
933.051	909.82
933.36	929.93
933.669	974
933.977	927.22
934.286	934.9
934.594	934.45
934.902	916.15
935.21	934.23
935.519	914.57
935.827	919.76
936.135	931.97
936.443	915.92
936.751	916.83
937.059	892.42
937.367	935.81
937.674	898.97
937.982	901.23
938.29	942.14
938.597	916.6
938.905	925.19
939.213	900.33
939.52	871.86
939.827	897.39
940.135	913.21
940.442	892.19
940.749	869.82
941.056	894.45
941.363	882.02
941.67	866.66
941.977	870.73
942.284	862.82
942.591	882.25
942.898	876.38
943.205	865.98
943.511	863.04
943.818	852.65
944.125	835.25
944.431	839.09
944.738	866.66
945.044	844.74
945.35	850.61
945.657	876.83
945.963	821.46
946.269	819.88
946.575	849.48
946.881	837.73
947.187	820.78
947.493	828.01
947.799	816.04
948.105	828.24
948.41	812.65
948.716	811.52
949.022	821.46
949.327	812.87
949.633	819.65
949.938	810.39
950.244	817.85
950.549	793.89
950.854	794.57
951.16	788.24
951.465	798.19
951.77	798.64
952.075	792.08
952.38	785.3
952.685	797.06
952.99	795.93
953.294	809.26
953.599	796.83
953.904	774.68
954.209	789.37
954.513	760.22
954.818	792.08
955.122	760.22
955.426	776.04
955.731	777.85
956.035	774.46
956.339	781.46
956.643	770.84
956.948	750.28
957.252	763.38
957.556	757.96
957.86	764.51
958.163	757.73
958.467	749.37
958.771	753.21
959.075	737.85
959.378	752.31
959.682	729.26
959.985	732.2
960.289	756.83
960.592	743.05
960.896	746.21
961.199	742.59
961.502	715.25
961.805	733.78
962.108	729.03
962.411	722.93
962.714	738.75
963.017	718.19
963.32	720.67
963.623	732.42
963.926	733.1
964.228	723.38
964.531	716.61
964.833	719.77
965.136	734.01
965.438	699.66
965.741	707.79
966.043	709.37
966.345	725.42
966.648	716.15
966.95	675.7
967.252	703.95
967.554	691.52
967.856	689.49
968.158	685.42
968.46	688.13
968.761	679.32
969.063	691.52
969.365	694.23
969.666	700.11
969.968	700.11
970.269	681.13
970.571	692.88
970.872	654.46
971.174	658.53
971.475	661.01
971.776	676.38
972.077	653.78
972.378	678.19
972.679	675.48
972.98	673.89
973.281	646.55
973.582	667.79
973.883	670.05
974.183	665.99
974.484	642.03
974.785	658.98
975.085	642.94
975.386	649.26
975.686	632.99
975.986	676.83
976.287	650.39
976.587	619.21
976.887	654.01
977.187	654.46
977.487	632.77
977.787	641.81
978.087	627.12
978.387	652.88
978.687	625.31
978.987	617.85
979.286	614.24
979.586	633.44
979.885	608.36
980.185	597.51
980.484	621.69
980.784	629.6
981.083	634.57
981.382	589.15
981.682	612.88
981.981	603.39
982.28	623.95
982.579	599.77
982.878	619.43
983.177	598.19
983.475	589.15
983.774	590.28
984.073	609.26
984.372	624.63
984.67	587.34
984.969	583.73
985.267	585.54
985.566	597.74
985.864	587.34
986.162	590.73
986.461	596.61
986.759	592.99
987.057	583.5
987.355	589.38
987.653	601.13
987.951	561.36
988.249	576.27
988.547	561.36
988.844	580.34
989.142	553.67
989.44	581.47
989.737	578.08
990.035	567.91
990.332	581.47
990.63	553.45
990.927	561.13
991.224	591.86
991.521	552.54
991.819	557.51
992.116	575.37
992.413	578.53
992.71	571.07
993.006	576.5
993.303	566.1
993.6	556.84
993.897	574.46
994.193	552.32
994.49	566.33
994.787	574.01
995.083	570.85
995.379	555.48
995.676	567.23
995.972	552.54
996.268	570.85
996.565	549.38
996.861	565.42
997.157	546.67
997.453	527.46
997.749	551.86
998.044	543.28
998.34	547.34
998.636	539.89
998.932	547.57
999.227	555.93
999.523	533.11
999.818	517.29
1000.114	532.2
1000.409	513.22
1000.704	504.18
1001	537.85
1001.295	521.13
1001.59	525.2
1001.885	544.63
1002.18	525.2
1002.475	532.2
1002.77	530.17
1003.065	500.11
1003.359	497.4
1003.654	492.88
1003.949	529.04
1004.243	498.53
1004.538	510.96
1004.832	504.41
1005.127	515.03
1005.421	492.88
1005.715	511.64
1006.009	495.82
1006.304	503.05
1006.598	478.87
1006.892	498.98
1007.186	502.6
1007.48	520.45
1007.773	508.7
1008.067	484.3
1008.361	498.08
1008.655	494.01
1008.948	494.24
1009.242	496.72
1009.535	480.23
1009.829	476.84
1010.122	474.35
1010.415	485.43
1010.708	487.01
1011.001	480
1011.295	465.31
1011.588	472.09
1011.881	483.17
1012.173	480.91
1012.466	464.86
1012.759	468.48
1013.052	479.32
1013.344	460.57
1013.637	481.36
1013.93	492.66
1014.222	472.09
1014.514	468.93
1014.807	463.96
1015.099	456.73
1015.391	472.32
1015.683	483.62
1015.976	473.45
1016.268	470.28
1016.56	455.82
1016.851	462.15
1017.143	454.47
1017.435	444.07
1017.727	454.92
1018.018	456.05
1018.31	449.27
1018.602	434.13
1018.893	465.99
1019.185	425.54
1019.476	456.27
1019.767	446.33
1020.058	419.21
1020.35	472.09
1020.641	454.01
1020.932	453.11
1021.223	454.92
1021.514	432.09
1021.804	454.01
1022.095	419.21
1022.386	432.55
1022.677	424.18
1022.967	424.64
1023.258	434.35
1023.548	433.9
1023.839	464.63
1024.129	443.84
1024.419	428.7
1024.709	423.73
1025	428.93
1025.29	447.91
1025.58	429.61
1025.87	426.67
1026.16	425.99
1026.449	436.16
1026.739	431.19
1027.029	432.55
1027.319	419.44
1027.608	421.25
1027.898	419.21
1028.187	426.22
1028.477	442.04
1028.766	399.1
1029.055	414.01
1029.344	421.25
1029.634	409.95
1029.923	416.05
1030.212	403.39
1030.501	413.56
1030.79	402.04
1031.078	410.62
1031.367	395.48
1031.656	386.22
1031.945	393.68
1032.233	394.58
1032.522	405.65
1032.81	413.34
1033.099	396.39
1033.387	415.14
1033.675	416.73
1033.963	398.65
1034.251	396.61
1034.54	422.15
1034.828	396.84
1035.116	399.78
1035.403	390.96
1035.691	398.2
1035.979	403.62
1036.267	407.46
1036.554	385.31
1036.842	390.51
1037.129	405.43
1037.417	389.16
1037.704	390.96
1037.992	390.96
1038.279	401.13
1038.566	373.34
1038.853	373.34
1039.14	373.34
