Data from carpet_green_FLMS001491_00065.txt Node
Date: Wed Feb 08 10:35:42 GMT 2017
User: dcchb
Spectrometer: FLMS00149
Trigger mode: 0
Integration Time (sec): 2.000000E-2
Scans to average: 10
Electric dark correction enabled: true
Nonlinearity correction enabled: false
Boxcar width: 0
XAxis mode: Wavelengths
Number of Pixels in Spectrum: 2048
>>>>>Begin Spectral Data<<<<<
341.393	-20.18
341.776	-20.18
342.16	-20.18
342.543	-51.59
342.927	-65.61
343.31	-62.67
343.693	-79.16
344.077	-65.83
344.46	-43.69
344.843	-37.13
345.226	-50.92
345.61	-34.19
345.993	-31.93
346.376	-4.59
346.759	-6.85
347.142	18.01
347.525	46.93
347.908	69.98
348.291	85.35
348.674	98.46
349.057	98.23
349.44	117.21
349.823	156.99
350.206	141.17
350.588	192.24
350.971	173.94
351.354	210.09
351.737	207.83
352.119	205.8
352.502	208.29
352.884	259.58
353.267	253.26
353.65	249.64
354.032	286.7
354.414	277.44
354.797	290.54
355.179	283.76
355.562	281.05
355.944	291.67
356.326	321.5
356.709	305.68
357.091	321.5
357.473	327.15
357.855	311.33
358.238	308.62
358.62	280.83
359.002	307.49
359.384	307.72
359.766	316.31
360.148	315.4
360.53	317.21
360.912	333.25
361.294	301.39
361.676	300.71
362.057	304.1
362.439	306.14
362.821	310.88
363.203	300.49
363.584	302.75
363.966	293.03
364.348	308.62
364.729	297.32
365.111	289.64
365.493	270.43
365.874	292.35
366.256	285.57
366.637	300.94
367.019	287.83
367.4	278.79
367.781	279.47
368.163	283.31
368.544	290.09
368.925	267.27
369.306	279.24
369.688	302.97
370.069	267.94
370.45	277.89
370.831	281.5
371.212	295.06
371.593	283.99
371.974	264.33
372.355	293.26
372.736	261.84
373.117	302.97
373.498	290.09
373.879	276.08
374.26	288.51
374.641	283.09
375.021	291
375.402	286.25
375.783	287.61
376.163	288.28
376.544	280.83
376.925	302.52
377.305	322.41
377.686	287.61
378.066	295.97
378.447	289.64
378.827	271.33
379.208	306.81
379.588	287.61
379.968	291.9
380.349	305.68
380.729	293.93
381.109	286.7
381.489	300.94
381.87	296.19
382.25	277.44
382.63	287.15
383.01	290.54
383.39	316.08
383.77	300.26
384.15	320.15
384.53	302.52
384.91	302.07
385.29	315.18
385.67	297.32
386.049	301.16
386.429	286.48
386.809	298.68
387.189	298.45
387.568	329.19
387.948	302.29
388.328	318.57
388.707	314.5
389.087	301.16
389.466	305.46
389.846	311.79
390.225	302.07
390.605	312.24
390.984	319.02
391.363	291.45
391.743	318.11
392.122	312.46
392.501	302.75
392.881	312.92
393.26	298
393.639	308.4
394.018	304.55
394.397	300.71
394.776	312.24
395.155	295.29
395.534	315.18
395.913	311.79
396.292	300.71
396.671	326.25
397.05	287.38
397.429	319.47
397.808	308.4
398.186	320.15
398.565	302.52
398.944	336.87
399.323	311.56
399.701	305.01
400.08	319.69
400.458	334.38
400.837	329.19
401.215	339.36
401.594	323.76
401.972	307.27
402.351	340.26
402.729	325.12
403.107	323.99
403.486	325.34
403.864	331.9
404.242	321.05
404.62	326.02
404.999	324.89
405.377	310.66
405.755	330.77
406.133	310.88
406.511	301.39
406.889	325.34
407.267	356.3
407.645	323.31
408.023	338
408.401	314.27
408.779	311.33
409.156	340.71
409.534	317.21
409.912	320.82
410.29	323.99
410.667	333.71
411.045	338.23
411.422	340.03
411.8	332.8
412.178	340.03
412.555	338
412.933	336.64
413.31	345.23
413.687	329.19
414.065	338.9
414.442	334.16
414.819	336.64
415.197	334.16
415.574	352.91
415.951	353.82
416.328	344.1
416.705	332.35
417.082	340.26
417.46	359.92
417.837	345.23
418.214	354.95
418.591	336.87
418.967	363.76
419.344	336.19
419.721	336.19
420.098	367.6
420.475	354.5
420.852	355.17
421.228	370.54
421.605	330.32
421.982	336.64
422.358	356.76
422.735	365.12
423.111	342.52
423.488	354.72
423.864	350.2
424.241	371.22
424.617	363.99
424.994	359.69
425.37	362.18
425.746	330.54
426.123	369.19
426.499	362.41
426.875	364.89
427.251	378.45
427.627	352.46
428.003	382.29
428.379	388.17
428.756	360.6
429.132	379.81
429.507	371.45
429.883	371.9
430.259	371.67
430.635	357.43
431.011	368.51
431.387	375.29
431.763	359.69
432.138	371.67
432.514	392.69
432.89	376.42
433.265	410.09
433.641	392.01
434.016	399.69
434.392	373.48
434.767	398.11
435.143	389.75
435.518	399.47
435.894	403.31
436.269	393.59
436.644	389.52
437.02	398.79
437.395	379.13
437.77	390.65
438.145	390.65
438.52	387.94
438.895	378.9
439.271	390.43
439.646	402.86
440.021	410.99
440.395	392.46
440.77	423.87
441.145	395.17
441.52	418.68
441.895	427.49
442.27	414.38
442.645	422.74
443.019	411.22
443.394	410.54
443.769	433.36
444.143	409.41
444.518	413.48
444.892	425
445.267	415.06
445.641	431.78
446.016	427.04
446.39	419.13
446.764	422.52
447.139	426.36
447.513	422.97
447.887	420.03
448.262	429.07
448.636	451.44
449.01	441.95
449.384	436.3
449.758	441.73
450.132	446.25
450.506	446.02
450.88	424.55
451.254	450.31
451.628	446.02
452.002	446.47
452.376	440.37
452.75	436.98
453.123	459.13
453.497	459.13
453.871	443.76
454.244	466.81
454.618	453.93
454.992	468.17
455.365	456.87
455.739	461.39
456.112	465.91
456.486	462.97
456.859	462.06
457.232	488.96
457.606	478.33
457.979	477.66
458.352	496.64
458.725	478.56
459.099	494.15
459.472	483.31
459.845	493.7
460.218	497.54
460.591	478.33
460.964	489.63
461.337	487.83
461.71	492.57
462.083	503.64
462.456	504.55
462.829	538.22
463.201	502.74
463.574	515.4
463.947	507.49
464.32	518.11
464.692	501.61
465.065	493.48
465.438	509.97
465.81	539.8
466.183	576.19
466.555	541.61
466.928	562.17
467.3	571.21
467.672	565.34
468.045	565.34
468.417	553.59
468.789	563.3
469.161	577.32
469.534	576.64
469.906	596.52
470.278	570.99
470.65	556.52
471.022	561.04
471.394	586.35
471.766	599.91
472.138	571.89
472.51	613.47
472.882	626.81
473.253	631.1
473.625	618.44
473.997	628.61
474.369	652.34
474.74	643.3
475.112	644.43
475.484	659.12
475.855	646.69
476.227	643.3
476.598	650.99
476.97	680.14
477.341	683.75
477.713	670.87
478.084	690.53
478.455	699.35
478.827	720.81
479.198	734.37
479.569	736.41
479.94	711.55
480.311	747.25
480.682	753.58
481.053	745.67
481.424	765.33
481.795	771.21
482.166	783.41
482.537	765.78
482.908	808.27
483.279	806.01
483.65	825.44
484.021	827.93
484.391	853.69
484.762	846.69
485.133	846.23
485.503	849.17
485.874	853.47
486.244	879.23
486.615	879
486.985	890.3
487.356	916.29
487.726	888.27
488.097	943.63
488.467	929.62
488.837	931.66
489.207	932.33
489.578	991.77
489.948	973.69
490.318	977.08
490.688	985.89
491.058	985.89
491.428	979.11
491.798	1008.04
492.168	1022.28
492.538	1031.77
492.908	1027.47
493.278	1038.55
493.648	1062.27
494.017	1071.31
494.387	1063.63
494.757	1066.34
495.126	1081.03
495.496	1097.53
495.866	1097.3
496.235	1111.54
496.605	1097.75
496.974	1128.26
497.344	1128.26
497.713	1149.28
498.082	1129.17
498.452	1137.75
498.821	1132.78
499.19	1130.97
499.559	1170.07
499.928	1152.22
500.298	1157.41
500.667	1183.18
501.036	1182.5
501.405	1176.17
501.774	1177.75
502.143	1164.87
502.512	1197.64
502.88	1201.48
503.249	1205.32
503.618	1238.09
503.987	1206.68
504.356	1201.25
504.724	1227.47
505.093	1228.82
505.462	1238.09
505.83	1229.05
506.199	1249.39
506.567	1266.56
506.936	1260.46
507.304	1267.01
507.672	1261.82
508.041	1271.99
508.409	1262.72
508.777	1261.59
509.145	1274.25
509.514	1262.72
509.882	1286.9
510.25	1301.82
510.618	1259.11
510.986	1304.3
511.354	1325.09
511.722	1289.39
512.09	1337.3
512.458	1338.43
512.826	1337.3
513.193	1331.65
513.561	1349.5
513.929	1344.07
514.297	1325.54
514.664	1368.71
515.032	1357.18
515.4	1357.86
515.767	1367.58
516.135	1355.37
516.502	1358.99
516.869	1395.6
517.237	1381.36
517.604	1377.75
517.972	1409.84
518.339	1399.89
518.706	1413
519.073	1427.24
519.44	1404.19
519.808	1427.46
520.175	1404.41
520.542	1420.01
520.909	1445.09
521.276	1415.49
521.643	1460.68
522.009	1458.65
522.376	1461.13
522.743	1473.79
523.11	1464.98
523.477	1509.49
523.843	1491.42
524.21	1496.16
524.577	1488.7
524.943	1538.65
525.31	1494.58
525.676	1535.71
526.043	1502.26
526.409	1533.22
526.776	1554.46
527.142	1487.8
527.508	1535.26
527.874	1535.03
528.241	1568.25
528.607	1546.78
528.973	1555.37
529.339	1543.39
529.705	1563.96
530.071	1551.75
530.437	1562.6
530.803	1573.9
531.169	1585.65
531.535	1596.05
531.901	1579.32
532.267	1579.77
532.632	1579.32
532.998	1587.68
533.364	1606.67
533.73	1605.99
534.095	1594.46
534.461	1612.99
534.826	1594.92
535.192	1634.01
535.557	1626.1
535.923	1573.9
536.288	1582.94
536.653	1649.6
537.019	1609.15
537.384	1612.77
537.749	1625.42
538.114	1614.58
538.479	1633.33
538.845	1629.49
539.21	1634.01
539.575	1631.3
539.94	1647.57
540.305	1620.9
540.67	1631.75
541.034	1609.83
541.399	1621.13
541.764	1638.98
542.129	1621.81
542.494	1633.56
542.858	1614.35
543.223	1631.52
543.587	1640.79
543.952	1654.12
544.316	1631.75
544.681	1622.71
545.045	1609.6
545.41	1646.67
545.774	1621.58
546.138	1641.24
546.503	1648.7
546.867	1648.02
547.231	1656.61
547.595	1639.21
547.959	1619.1
548.324	1659.32
548.688	1634.91
549.052	1641.02
549.416	1665.42
549.779	1640.34
550.143	1675.37
550.507	1638.76
550.871	1643.28
551.235	1634.24
551.599	1666.55
551.962	1679.66
552.326	1659.55
552.689	1668.81
553.053	1663.61
553.417	1669.26
553.78	1680.79
554.143	1672.88
554.507	1689.38
554.87	1702.94
555.234	1696.83
555.597	1667.46
555.96	1675.59
556.323	1700.9
556.686	1705.2
557.05	1708.81
557.413	1694.35
557.776	1705.42
558.139	1713.1
558.502	1721.24
558.865	1744.06
559.228	1742.03
559.59	1717.85
559.953	1701.58
560.316	1743.39
560.679	1723.05
561.041	1744.52
561.404	1755.36
561.767	1758.53
562.129	1755.82
562.492	1761.69
562.854	1773.67
563.217	1760.11
563.579	1755.82
563.941	1756.72
564.304	1788.58
564.666	1765.76
565.028	1784.74
565.39	1788.36
565.753	1806.89
566.115	1810.05
566.477	1798.3
566.839	1760.79
567.201	1783.16
567.563	1811.41
567.925	1822.48
568.287	1791.75
568.648	1834.46
569.01	1800.79
569.372	1803.72
569.734	1806.89
570.095	1802.14
570.457	1812.09
570.819	1801.01
571.18	1801.01
571.542	1808.02
571.903	1826.77
572.265	1837.85
572.626	1817.51
572.987	1845.08
573.349	1820.45
573.71	1817.96
574.071	1848.24
574.432	1850.05
574.794	1838.75
575.155	1822.71
575.516	1813.89
575.877	1824.51
576.238	1839.2
576.599	1841.01
576.96	1817.06
577.32	1858.86
577.681	1841.01
578.042	1866.77
578.403	1801.01
578.763	1822.48
579.124	1831.29
579.485	1824.74
579.845	1819.77
580.206	1803.72
580.566	1814.8
580.927	1790.16
581.287	1822.25
581.648	1781.35
582.008	1802.59
582.368	1795.59
582.728	1844.63
583.089	1817.73
583.449	1782.26
583.809	1801.46
584.169	1775.7
584.529	1779.54
584.889	1777.51
585.249	1755.82
585.609	1782.26
585.969	1776.83
586.329	1776.83
586.688	1782.71
587.048	1764.85
587.408	1774.35
587.768	1788.58
588.127	1742.93
588.487	1760.56
588.846	1777.06
589.206	1755.59
589.565	1756.49
589.925	1745.42
590.284	1757.85
590.643	1730.73
591.003	1742.71
591.362	1726.89
591.721	1735.03
592.08	1731.64
592.44	1747.91
592.799	1786.32
593.158	1730.28
593.517	1717.17
593.876	1772.99
594.235	1735.48
594.593	1729.83
594.952	1749.04
595.311	1753.56
595.67	1756.49
596.029	1754.01
596.387	1744.52
596.746	1737.74
597.104	1732.99
597.463	1753.78
597.822	1737.96
598.18	1712.65
598.538	1731.64
598.897	1747
599.255	1702.94
599.613	1724.63
599.972	1714.69
600.33	1730.51
600.688	1726.44
601.046	1742.93
601.404	1731.18
601.762	1747.68
602.12	1732.77
602.478	1751.07
602.836	1757.4
603.194	1746.1
603.552	1729.83
603.91	1777.28
604.268	1749.26
604.625	1756.27
604.983	1752.65
605.341	1744.97
605.698	1730.96
606.056	1773.67
606.413	1781.35
606.771	1756.49
607.128	1762.59
607.485	1770.28
607.843	1787
608.2	1769.6
608.557	1766.89
608.914	1767.57
609.272	1805.98
609.629	1773.67
609.986	1753.1
610.343	1758.75
610.7	1772.09
611.057	1797.85
611.414	1791.29
611.771	1800.79
612.127	1791.75
612.484	1787
612.841	1825.87
613.198	1763.95
613.554	1793.1
613.911	1773.89
614.267	1777.06
614.624	1781.58
614.98	1787.45
615.337	1790.16
615.693	1762.14
616.05	1786.55
616.406	1779.77
616.762	1771.41
617.118	1784.29
617.475	1799.88
617.831	1807.57
618.187	1807.34
618.543	1776.15
618.899	1812.09
619.255	1797.17
619.611	1809.6
619.967	1824.51
620.323	1806.89
620.678	1791.52
621.034	1812.76
621.39	1778.41
621.746	1812.09
622.101	1817.96
622.457	1787.45
622.812	1816.15
623.168	1826.1
623.523	1793.1
623.879	1805.76
624.234	1813.89
624.589	1795.59
624.945	1803.05
625.3	1805.53
625.655	1831.97
626.01	1787.23
626.365	1793.33
626.72	1749.26
627.075	1797.4
627.43	1799.88
627.785	1798.3
628.14	1821.35
628.495	1806.21
628.85	1771.86
629.205	1780.45
629.559	1783.39
629.914	1761.69
630.269	1787.23
630.623	1802.59
630.978	1802.59
631.332	1784.29
631.687	1794.91
632.041	1795.81
632.396	1777.96
632.75	1785.87
633.104	1768.02
633.459	1788.81
633.813	1784.06
634.167	1785.42
634.521	1793.1
634.875	1761.24
635.229	1793.33
635.583	1760.34
635.937	1769.6
636.291	1764.63
636.645	1763.95
636.999	1790.62
637.352	1760.79
637.706	1756.27
638.06	1774.12
638.413	1756.27
638.767	1785.65
639.121	1763.5
639.474	1759.66
639.828	1783.61
640.181	1773.67
640.534	1758.3
640.888	1732.77
641.241	1766.44
641.594	1741.58
641.947	1735.93
642.301	1729.6
642.654	1753.1
643.007	1761.24
643.36	1768.02
643.713	1760.34
644.066	1757.17
644.419	1777.74
644.771	1751.75
645.124	1744.97
645.477	1780
645.83	1725.08
646.182	1713.56
646.535	1709.04
646.888	1749.04
647.24	1772.54
647.593	1738.64
647.945	1765.31
648.298	1738.41
648.65	1733.67
649.002	1735.7
649.355	1756.49
649.707	1772.76
650.059	1757.62
650.411	1770.73
650.763	1773.67
651.115	1819.77
651.467	1808.02
651.819	1780.9
652.171	1792.42
652.523	1809.83
652.875	1848.69
653.227	1819.77
653.578	1843.27
653.93	1820.9
654.282	1855.02
654.633	1811.18
654.985	1842.14
655.337	1851.63
655.688	1839.2
656.039	1854.8
656.391	1858.64
656.742	1877.39
657.094	1884.4
657.445	1890.05
657.796	1888.69
658.147	1873.78
658.498	1878.98
658.849	1918.52
659.2	1928.01
659.551	1925.08
659.902	1933.44
660.253	1943.16
660.604	1954.45
660.955	1951.06
661.306	1972.53
661.656	1949.26
662.007	1953.1
662.358	1982.02
662.708	1981.57
663.059	2005.75
663.409	2028.58
663.76	2035.81
664.11	2043.27
664.461	2055.47
664.811	2063.15
665.161	2047.79
665.511	2098.63
665.862	2104.73
666.212	2099.76
666.562	2091.4
666.912	2129.36
667.262	2136.6
667.612	2132.98
667.962	2184.73
668.312	2178.18
668.662	2220.21
669.011	2188.57
669.361	2215.01
669.711	2266.08
670.06	2230.15
670.41	2249.81
670.76	2255.24
671.109	2283.49
671.459	2300.21
671.808	2302.47
672.157	2341.11
672.507	2325.29
672.856	2334.11
673.205	2338.4
673.554	2341.79
673.904	2402.8
674.253	2398.28
674.602	2424.27
674.951	2442.35
675.3	2411.39
675.649	2451.39
675.998	2476.02
676.346	2486.42
676.695	2519.19
677.044	2498.39
677.393	2540.43
677.741	2583.14
678.09	2587.21
678.438	2570.48
678.787	2594.89
679.135	2647.54
679.484	2638.5
679.832	2668.33
680.181	2682.8
680.529	2696.58
680.877	2664.94
681.225	2738.39
681.573	2745.85
681.922	2756.47
682.27	2763.25
682.618	2794.88
682.966	2798.27
683.314	2838.95
683.661	2868.1
684.009	2870.59
684.357	2881.44
684.705	2899.29
685.053	2936.8
685.4	2961.66
685.748	2951.26
686.095	3000.98
686.443	2997.14
686.79	3012.73
687.138	3011.38
687.485	3061.54
687.832	3111.94
688.18	3120.75
688.527	3101.32
688.874	3178.83
689.221	3165.72
689.568	3130.69
689.915	3149.9
690.262	3227.42
690.609	3222.9
690.956	3264.93
691.303	3257.92
691.65	3261.54
691.997	3317.13
692.344	3311.25
692.69	3322.78
693.037	3358.49
693.383	3399.84
693.73	3402.1
694.077	3429.9
694.423	3460.4
694.769	3443.68
695.116	3488.65
695.462	3528.88
695.808	3524.58
696.155	3567.97
696.501	3527.29
696.847	3607.97
697.193	3628.53
697.539	3644.35
697.885	3627.4
698.231	3656.1
698.577	3699.27
698.923	3698.82
699.269	3759.83
699.614	3744.46
699.96	3796.67
700.306	3787.85
700.651	3800.06
700.997	3823.33
701.342	3814.52
701.688	3831.92
702.033	3889.32
702.379	3925.93
702.724	3881.64
703.069	3924.35
703.415	3906.04
703.76	3966.83
704.105	3991.69
704.45	4024.23
704.795	4045.25
705.14	4048.41
705.485	4080.05
705.83	4043.44
706.175	4125.47
706.52	4159.59
706.865	4181.06
707.209	4148.29
707.554	4152.59
707.899	4187.62
708.243	4256.31
708.588	4244.11
708.932	4254.05
709.277	4280.95
709.621	4277.56
709.966	4255.18
710.31	4334.05
710.654	4315.75
710.998	4351.23
711.342	4344.67
711.687	4388.74
712.031	4383.54
712.375	4422.41
712.719	4389.42
713.063	4437.33
713.407	4496.76
713.75	4495.63
714.094	4488.62
714.438	4506.48
714.782	4498.79
715.125	4543.54
715.469	4551.22
715.812	4554.61
716.156	4522.75
716.499	4575.85
716.843	4624.89
717.186	4554.16
717.53	4652.01
717.873	4686.81
718.216	4656.53
718.559	4697.66
718.902	4685.46
719.246	4718.9
719.589	4673.7
719.932	4750.31
720.275	4750.09
720.617	4793.25
720.96	4746.47
721.303	4743.08
721.646	4767.71
721.989	4814.72
722.331	4803.19
722.674	4821.95
723.016	4790.99
723.359	4845
723.701	4811.33
724.044	4787.6
724.386	4833.25
724.729	4849.07
725.071	4856.75
725.413	4893.13
725.755	4871.67
726.097	4890.42
726.439	4820.37
726.782	4863.76
727.124	4876.86
727.465	4924.09
727.807	4884.09
728.149	4916.41
728.491	4896.07
728.833	4920.93
729.175	4901.04
729.516	4945.11
729.858	4875.96
730.199	4960.93
730.541	4918.22
730.882	4905.56
731.224	4969.29
731.565	4919.57
731.906	4984.88
732.248	4966.58
732.589	4922.96
732.93	4925.45
733.271	4953.7
733.612	4992.79
733.953	4957.77
734.294	4997.76
734.635	4905.79
734.976	5027.59
735.317	5001.61
735.658	5014.49
735.999	4967.26
736.339	4974.26
736.68	4969.52
737.021	4968.84
737.361	4957.54
737.702	4947.14
738.042	4981.04
738.383	4975.17
738.723	4981.04
739.063	5006.13
739.404	4985.11
739.744	4967.71
740.084	4995.05
740.424	4979.23
740.764	4977.43
741.104	4984.21
741.444	4969.29
741.784	4972
742.124	4974.71
742.464	4982.4
742.804	4980.14
743.143	4957.09
743.483	4939.01
743.823	4941.72
744.162	4916.86
744.502	4937.65
744.841	4916.64
745.181	4940.82
745.52	4946.01
745.86	4901.27
746.199	4945.11
746.538	4920.93
746.877	4967.26
747.216	4987.82
747.556	4887.48
747.895	4984.88
748.234	4962.51
748.573	4922.06
748.911	4924.77
749.25	4928.39
749.589	4842.51
749.928	4908.05
750.267	4909.4
750.605	4850.65
750.944	4866.47
751.283	4832.12
751.621	4950.08
751.96	4834.83
752.298	4837.77
752.636	4840.25
752.975	4846.81
753.313	4806.81
753.651	4812.01
753.989	4812.01
754.327	4836.19
754.666	4772.69
755.004	4828.05
755.342	4812.68
755.679	4789.63
756.017	4706.25
756.355	4819.92
756.693	4776.3
757.031	4796.41
757.368	4710.54
757.706	4733.59
758.044	4729.52
758.381	4710.54
758.719	4721.39
759.056	4705.12
759.394	4696.53
759.731	4625.34
760.068	4681.61
760.405	4640.26
760.743	4650.2
761.08	4642.97
761.417	4606.59
761.754	4573.59
762.091	4592.13
762.428	4574.27
762.765	4570.88
763.102	4542.63
763.438	4545.35
763.775	4564.56
764.112	4499.25
764.449	4511
764.785	4463.77
765.122	4460.38
765.458	4449.3
765.795	4463.31
766.131	4434.84
766.467	4422.19
766.804	4424.9
767.14	4433.71
767.476	4393.26
767.812	4426.03
768.148	4358.91
768.485	4368.63
768.821	4340.15
769.157	4340.15
769.492	4324.79
769.828	4380.38
770.164	4299.7
770.5	4293.15
770.836	4273.49
771.171	4269.42
771.507	4265.35
771.842	4224.68
772.178	4237.78
772.513	4189.88
772.849	4218.58
773.184	4220.16
773.519	4152.59
773.855	4137.45
774.19	4153.72
774.525	4144.45
774.86	4131.57
775.195	4112.82
775.53	4100.16
775.865	4069.88
776.2	4062.87
776.535	4040.95
776.87	4063.33
777.205	4041.18
777.539	4037.34
777.874	4013.61
778.209	4029.2
778.543	3948.07
778.878	3951.46
779.212	4000.95
779.547	3909.66
779.881	3967.51
780.215	3937.9
780.55	3894.29
780.884	3868.75
781.218	3879.15
781.552	3862.65
781.886	3850
782.22	3837.34
782.554	3875.99
782.888	3794.41
783.222	3800.51
783.556	3760.73
783.889	3796.21
784.223	3754.41
784.557	3758.25
784.89	3731.13
785.224	3775.42
785.557	3733.62
785.891	3712.83
786.224	3696.1
786.558	3680.28
786.891	3660.17
787.224	3639.61
787.557	3698.36
787.891	3630.34
788.224	3636.44
788.557	3639.38
788.89	3636.22
789.223	3619.72
789.556	3583.11
789.888	3535.2
790.221	3554.86
790.554	3538.37
790.887	3550.34
791.219	3530.46
791.552	3500.18
791.884	3509.89
792.217	3488.88
792.549	3503.11
792.882	3471.93
793.214	3428.09
793.546	3460.63
793.879	3444.58
794.211	3426.28
794.543	3459.05
794.875	3445.04
795.207	3435.09
795.539	3421.08
795.871	3405.94
796.203	3369.56
796.535	3370.01
796.867	3332.27
797.198	3375.66
797.53	3330.92
797.862	3318.03
798.193	3351.71
798.525	3288.66
798.856	3339.95
799.188	3283.01
799.519	3289.56
799.85	3263.12
800.182	3258.37
800.513	3253.18
800.844	3252.05
801.175	3250.01
801.506	3229
801.837	3209.79
802.168	3184.7
802.499	3207.53
802.83	3190.13
803.161	3179.51
803.491	3209.11
803.822	3178.83
804.153	3171.15
804.483	3149.23
804.814	3159.17
805.145	3158.72
805.475	3124.14
805.805	3107.64
806.136	3128.43
806.466	3125.04
806.796	3147.19
807.126	3099.73
807.457	3119.4
807.787	3081.43
808.117	3092.28
808.447	3064.26
808.777	3062
809.107	3059.28
809.436	3019.06
809.766	3055.22
810.096	3021.32
810.426	3016.8
810.755	3010.47
811.085	3005.27
811.414	3008.66
811.744	2946.29
812.073	2987.87
812.403	2967.53
812.732	3010.92
813.061	2974.54
813.39	2960.08
813.719	2939.29
814.049	2953.98
814.378	2917.37
814.707	2928.21
815.036	2908.78
815.365	2915.11
815.693	2874.66
816.022	2915.78
816.351	2907.2
816.68	2862
817.008	2861.55
817.337	2859.74
817.665	2850.7
817.994	2847.09
818.322	2858.61
818.651	2883.7
818.979	2849.8
819.307	2826.07
819.636	2844.37
819.964	2858.84
820.292	2839.18
820.62	2836.01
820.948	2810.25
821.276	2835.56
821.604	2800.76
821.932	2840.53
822.259	2818.61
822.587	2824.94
822.915	2804.38
823.243	2798.95
823.57	2803.47
823.898	2809.12
824.225	2786.97
824.553	2791.95
824.88	2804.15
825.207	2822.68
825.535	2810.7
825.862	2814.54
826.189	2789.23
826.516	2827.2
826.843	2849.35
827.17	2812.28
827.497	2846.18
827.824	2807.99
828.151	2789.46
828.478	2821.32
828.805	2791.04
829.131	2769.35
829.458	2747.43
829.785	2734.77
830.111	2821.78
830.438	2776.81
830.764	2786.3
831.09	2822
831.417	2771.83
831.743	2835.56
832.069	2800.99
832.395	2777.94
832.722	2801.66
833.048	2804.6
833.374	2784.26
833.7	2798.05
834.026	2781.1
834.351	2768.44
834.677	2747.65
835.003	2723.02
835.329	2760.08
835.654	2756.69
835.98	2754.66
836.306	2755.56
836.631	2733.42
836.956	2789.01
837.282	2772.96
837.607	2781.55
837.932	2743.13
838.258	2718.5
838.583	2745.39
838.908	2711.04
839.233	2722.12
839.558	2751.5
839.883	2728.22
840.208	2704.72
840.533	2705.62
840.858	2665.85
841.182	2692.06
841.507	2689.35
841.832	2687.77
842.156	2687.77
842.481	2695.9
842.805	2655.45
843.13	2698.39
843.454	2634.66
843.778	2640.31
844.103	2692.06
844.427	2643.93
844.751	2658.84
845.075	2633.53
845.399	2629.92
845.723	2649.58
846.047	2624.72
846.371	2562.8
846.695	2610.48
847.019	2593.99
847.343	2571.61
847.666	2562.12
847.99	2567.77
848.313	2569.58
848.637	2542.91
848.96	2530.94
849.284	2507.43
849.607	2539.07
849.931	2493.42
850.254	2497.94
850.577	2501.11
850.9	2447.32
851.223	2464.27
851.546	2453.2
851.869	2444.38
852.192	2427.89
852.515	2440.77
852.838	2415.69
853.161	2447.32
853.483	2422.46
853.806	2398.96
854.129	2389.7
854.451	2424.72
854.774	2407.78
855.096	2418.62
855.419	2375.46
855.741	2342.47
856.063	2365.06
856.385	2369.13
856.708	2371.84
857.03	2357.61
857.352	2346.31
857.674	2323.71
857.996	2339.08
858.318	2301.34
858.64	2333.65
858.961	2331.62
859.283	2312.18
859.605	2288.68
859.926	2308.57
860.248	2317.83
860.57	2266.54
860.891	2302.02
861.212	2276.48
861.534	2283.94
861.855	2262.47
862.176	2279.87
862.498	2302.02
862.819	2268.34
863.14	2269.25
863.461	2280.77
863.782	2260.43
864.103	2263.82
864.424	2237.16
864.745	2252.07
865.065	2266.31
865.386	2205.52
865.707	2227.44
866.027	2228.12
866.348	2265.41
866.668	2191.06
866.989	2225.18
867.309	2161.68
867.63	2194
867.95	2189.25
868.27	2173.43
868.59	2194.22
868.91	2168.91
869.23	2191.06
869.55	2188.57
869.87	2184.05
870.19	2159.42
870.51	2198.52
870.83	2175.24
871.15	2135.24
871.469	2139.08
871.789	2185.63
872.109	2157.61
872.428	2150.16
872.748	2153.55
873.067	2149.93
873.386	2116.03
873.706	2133.21
874.025	2110.61
874.344	2118.29
874.663	2149.03
874.982	2139.53
875.301	2124.85
875.62	2120.1
875.939	2116.26
876.258	2126.2
876.577	2105.18
876.896	2115.58
877.214	2126.65
877.533	2124.85
877.852	2106.54
878.17	2102.92
878.489	2094.79
878.807	2058.86
879.125	2083.94
879.444	2077.61
879.762	2102.7
880.08	2077.39
880.398	2090.72
880.716	2071.97
881.034	2049.82
881.352	2037.16
881.67	2034
881.988	2039.88
882.306	2076.71
882.624	2032.19
882.941	2050.5
883.259	2048.01
883.577	2018.18
883.894	2035.58
884.212	2014.11
884.529	2049.14
884.846	2043.49
885.164	2008.01
885.481	1995.81
885.798	2002.59
886.115	1982.93
886.432	2015.47
886.75	1988.8
887.067	2018.86
887.383	1968.47
887.7	1976.15
888.017	1960.78
888.334	1984.96
888.651	2016.37
888.967	1993.32
889.284	1974.11
889.6	1946.77
889.917	1929.82
890.233	1959.2
890.55	1944.06
890.866	1949.93
891.182	1931.86
891.498	1973.66
891.815	1900.44
892.131	1937.51
892.447	1929.6
892.763	1921.69
893.079	1901.35
893.395	1897.73
893.71	1896.38
894.026	1910.39
894.342	1905.19
894.657	1854.57
894.973	1869.71
895.289	1880.56
895.604	1886.21
895.92	1870.84
896.235	1859.99
896.55	1858.64
896.865	1848.92
897.181	1845.53
897.496	1837.85
897.811	1830.39
898.126	1813.67
898.441	1856.6
898.756	1829.49
899.071	1817.28
899.386	1793.78
899.7	1785.42
900.015	1775.02
900.33	1775.7
900.644	1784.97
900.959	1779.54
901.273	1807.34
901.588	1790.62
901.902	1733.9
902.216	1727.34
902.531	1746.1
902.845	1772.54
903.159	1727.34
903.473	1730.28
903.787	1742.71
904.101	1719.43
904.415	1741.13
904.729	1718.53
905.042	1713.78
905.356	1720.56
905.67	1685.99
905.984	1725.31
906.297	1694.57
906.611	1673.11
906.924	1697.96
907.237	1681.47
907.551	1659.77
907.864	1643.05
908.177	1655.25
908.491	1648.25
908.804	1644.86
909.117	1680.56
909.43	1623.39
909.743	1647.8
910.056	1590.17
910.368	1603.28
910.681	1601.02
910.994	1638.76
911.307	1612.32
911.619	1621.13
911.932	1610.28
912.244	1576.84
912.557	1582.03
912.869	1586.33
913.181	1547.46
913.494	1544.3
913.806	1572.32
914.118	1561.7
914.43	1584.52
914.742	1576.84
915.054	1536.39
915.366	1525.76
915.678	1521.47
915.99	1542.71
916.302	1530.96
916.613	1500.45
916.925	1530.51
917.236	1489.61
917.548	1501.81
917.859	1516.27
918.171	1496.61
918.482	1500
918.794	1484.86
919.105	1507.69
919.416	1487.35
919.727	1481.7
920.038	1465.43
920.349	1437.63
920.66	1457.74
920.971	1427.69
921.282	1431.08
921.593	1442.38
921.903	1468.14
922.214	1429.27
922.525	1415.03
922.835	1449.16
923.146	1414.58
923.456	1424.98
923.767	1431.08
924.077	1420.01
924.387	1398.54
924.697	1383.85
925.008	1382.49
925.318	1384.98
925.628	1384.3
925.938	1370.29
926.248	1371.42
926.558	1346.56
926.867	1350.4
927.177	1339.78
927.487	1350.18
927.796	1327.8
928.106	1351.31
928.416	1324.87
928.725	1332.78
929.034	1310.4
929.344	1334.13
929.653	1328.03
929.962	1308.82
930.271	1306.79
930.581	1290.52
930.89	1299.1
931.199	1274.47
931.508	1307.47
931.817	1300.91
932.125	1289.16
932.434	1288.71
932.743	1277.86
933.051	1265.66
933.36	1249.16
933.669	1253.91
933.977	1266.56
934.286	1239.44
934.594	1255.72
934.902	1261.82
935.21	1241.7
935.519	1237.64
935.827	1236.06
936.135	1238.77
936.443	1237.41
936.751	1245.55
937.059	1198.54
937.367	1198.32
937.674	1203.97
937.982	1218.43
938.29	1186.79
938.597	1173.91
938.905	1163.29
939.213	1165.55
939.52	1185.21
939.827	1196.96
940.135	1157.87
940.442	1163.06
940.749	1178.43
941.056	1200.35
941.363	1150.41
941.67	1175.49
941.977	1154.02
942.284	1150.86
942.591	1146.79
942.898	1132.55
943.205	1151.09
943.511	1133.68
943.818	1158.54
944.125	1114.02
944.431	1119.22
944.738	1136.4
945.044	1135.27
945.35	1127.58
945.657	1117.41
945.963	1107.92
946.269	1110.63
946.575	1077.87
946.881	1108.83
947.187	1118.32
947.493	1082.16
947.799	1097.98
948.105	1106.57
948.41	1084.65
948.716	1085.1
949.022	1073.57
949.327	1062.5
949.633	1071.54
949.938	1071.54
950.244	1064.99
950.549	1068.83
950.854	1029.28
951.16	1055.49
951.465	1045.1
951.77	1053.24
952.075	1023.63
952.38	1054.14
952.685	1055.72
952.99	1014.14
953.294	1033.57
953.599	1023.41
953.904	1009.85
954.209	1012.78
954.513	1042.84
954.818	1029.28
955.122	980.69
955.426	991.99
955.731	980.02
956.035	973.69
956.339	1000.81
956.643	982.95
956.948	979.34
957.252	997.19
957.556	1000.13
957.86	956.97
958.163	970.75
958.467	947.93
958.771	978.43
959.075	946.57
959.378	953.58
959.682	975.95
959.985	954.93
960.289	955.38
960.592	944.54
960.896	966.91
961.199	938.44
961.502	930.3
961.805	942.05
962.108	936.4
962.411	911.77
962.714	917.42
963.017	922.39
963.32	942.73
963.623	934.59
963.926	916.74
964.228	927.14
964.531	908.38
964.833	909.74
965.136	898.89
965.438	921.04
965.741	899.79
966.043	905.22
966.345	864.99
966.648	897.53
966.95	854.82
967.252	896.18
967.554	887.14
967.856	873.58
968.158	878.1
968.46	890.53
968.761	859.12
969.063	862.96
969.365	857.76
969.666	870.64
969.968	874.03
970.269	872.45
970.571	861.38
970.872	861.83
971.174	863.41
971.475	834.71
971.776	849.62
972.077	849.4
972.378	826.35
972.679	862.96
972.98	833.58
973.281	834.94
973.582	830.64
973.883	817.31
974.183	806.01
974.484	818.89
974.785	811.43
975.085	795.39
975.386	815.5
975.686	817.99
975.986	823.86
976.287	795.39
976.587	813.02
976.887	812.56
977.187	794.94
977.487	838.1
977.787	794.71
978.087	776.63
978.387	795.16
978.687	790.19
978.987	773.69
979.286	802.62
979.586	773.92
979.885	777.54
980.185	762.4
980.484	768.5
980.784	767.14
981.083	777.08
981.382	778.89
981.682	781.38
981.981	780.93
982.28	748.84
982.579	755.84
982.878	771.43
983.177	734.6
983.475	759.01
983.774	754.03
984.073	750.64
984.372	737.09
984.67	743.41
984.969	740.47
985.267	765.33
985.566	755.16
985.864	723.53
986.162	709.29
986.461	742.96
986.759	730.08
987.057	703.41
987.355	736.41
987.653	711.78
987.951	722.85
988.249	714.49
988.547	744.32
988.844	722.17
989.142	697.76
989.44	690.31
989.737	708.61
990.035	691.66
990.332	689.18
990.63	694.6
990.927	697.31
991.224	716.29
991.521	699.57
991.819	667.03
992.116	701.15
992.413	686.01
992.71	700.25
993.006	691.21
993.303	695.96
993.6	680.82
993.897	665.67
994.193	692.79
994.49	677.2
994.787	689.63
995.083	672.68
995.379	664.32
995.676	670.87
995.972	648.05
996.268	648.73
996.565	646.24
996.861	653.92
997.157	662.28
997.453	668.39
997.749	662.74
998.044	645.11
998.34	679.01
998.636	644.88
998.932	649.63
999.227	650.76
999.523	654.15
999.818	652.79
1000.114	657.77
1000.409	629.52
1000.704	617.99
1001	632.91
1001.295	624.32
1001.59	628.16
1001.885	632.23
1002.18	644.43
1002.475	626.35
1002.77	635.84
1003.065	602.85
1003.359	626.13
1003.654	640.14
1003.949	624.32
1004.243	619.57
1004.538	614.38
1004.832	617.31
1005.127	620.93
1005.421	617.99
1005.715	601.04
1006.009	580.71
1006.304	602.63
1006.598	592.91
1006.892	575.73
1007.186	590.87
1007.48	590.87
1007.773	624.09
1008.067	592
1008.361	598.78
1008.655	598.33
1008.948	595.39
1009.242	564.66
1009.535	600.37
1009.829	577.09
1010.122	578.9
1010.415	588.84
1010.708	581.61
1011.001	578.67
1011.295	567.6
1011.588	561.5
1011.881	565.11
1012.173	571.44
1012.466	566.47
1012.759	565.11
1013.052	558.33
1013.344	563.76
1013.637	561.04
1013.93	555.4
1014.222	550.65
1014.514	550.42
1014.807	520.59
1015.099	553.81
1015.391	546.81
1015.683	539.58
1015.976	551.33
1016.268	541.84
1016.56	541.38
1016.851	531.89
1017.143	565.11
1017.435	529.18
1017.727	545.68
1018.018	512.91
1018.31	536.19
1018.602	525.11
1018.893	518.56
1019.185	533.02
1019.476	501.84
1019.767	511.78
1020.058	509.07
1020.35	523.76
1020.641	505
1020.932	517.88
1021.223	520.37
1021.514	525.79
1021.804	506.36
1022.095	497.32
1022.386	515.17
1022.677	499.58
1022.967	504.1
1023.258	510.88
1023.548	506.13
1023.839	487.83
1024.129	490.76
1024.419	495.28
1024.709	498.45
1025	461.84
1025.29	482.63
1025.58	501.84
1025.87	487.15
1026.16	494.15
1026.449	483.76
1026.739	489.41
1027.029	482.85
1027.319	487.6
1027.608	481.27
1027.898	481.05
1028.187	470.88
1028.477	475.62
1028.766	472.69
1029.055	460.71
1029.344	478.33
1029.634	471.33
1029.923	470.88
1030.212	475.17
1030.501	458.22
1030.79	461.16
1031.078	465
1031.367	453.93
1031.656	460.26
1031.945	468.62
1032.233	441.27
1032.522	453.7
1032.81	442.63
1033.099	438.56
1033.387	427.26
1033.675	442.86
1033.963	440.82
1034.251	446.7
1034.54	451.67
1034.828	446.47
1035.116	430.2
1035.403	454.61
1035.691	448.05
1035.979	448.05
1036.267	450.09
1036.554	429.07
1036.842	446.25
1037.129	432.01
1037.417	432.01
1037.704	446.02
1037.992	443.53
1038.279	452.57
1038.566	423.65
1038.853	423.65
1039.14	423.65
