Data from carpet_green_FLMS001491_00003.txt Node
Date: Wed Feb 08 10:34:47 GMT 2017
User: dcchb
Spectrometer: FLMS00149
Trigger mode: 0
Integration Time (sec): 2.000000E-2
Scans to average: 10
Electric dark correction enabled: true
Nonlinearity correction enabled: false
Boxcar width: 0
XAxis mode: Wavelengths
Number of Pixels in Spectrum: 2048
>>>>>Begin Spectral Data<<<<<
341.393	-27.89
341.776	-27.89
342.16	-27.89
342.543	-46.43
342.927	-58.85
343.31	-70.61
343.693	-54.11
344.077	-54.79
344.46	-56.37
344.843	-48.91
345.226	-56.14
345.61	-43.71
345.993	-15.92
346.376	-3.04
346.759	6.91
347.142	19.11
347.525	39.22
347.908	57.53
348.291	73.35
348.674	75.61
349.057	131.88
349.44	100.24
349.823	151.31
350.206	148.6
350.588	168.94
350.971	167.58
351.354	206.9
351.737	220.46
352.119	237.18
352.502	231.76
352.884	254.13
353.267	260.01
353.65	270.63
354.032	277.86
354.414	281.02
354.797	287.58
355.179	291.42
355.562	310.63
355.944	303.4
356.326	315.83
356.709	323.51
357.091	301.59
357.473	325.54
357.855	326.9
358.238	305.2
358.62	328.48
359.002	295.94
359.384	318.54
359.766	304.53
360.148	328.03
360.53	295.03
360.912	309.95
361.294	308.82
361.676	301.59
362.057	294.13
362.439	287.58
362.821	298.42
363.203	305.66
363.584	290.51
363.966	278.09
364.348	318.08
364.729	297.29
365.111	294.81
365.493	306.33
365.874	286.22
366.256	278.99
366.637	262.04
367.019	288.48
367.4	288.03
367.781	275.83
368.163	279.67
368.544	283.28
368.925	289.16
369.306	283.74
369.688	281.25
370.069	273.57
370.45	275.6
370.831	283.74
371.212	276.96
371.593	305.66
371.974	264.98
372.355	276.5
372.736	287.58
373.117	271.98
373.498	291.87
373.879	276.5
374.26	265.88
374.641	286.9
375.021	300.46
375.402	270.63
375.783	306.33
376.163	276.28
376.544	288.93
376.925	308.82
377.305	295.26
377.686	296.39
378.066	274.92
378.447	313.79
378.827	279.22
379.208	280.8
379.588	275.37
379.968	289.84
380.349	295.26
380.729	278.31
381.109	298.2
381.489	298.42
381.87	274.7
382.25	296.16
382.63	266.79
383.01	295.49
383.39	305.43
383.77	313.34
384.15	294.13
384.53	297.52
384.91	294.36
385.29	296.16
385.67	306.33
386.049	306.56
386.429	307.69
386.809	305.88
387.189	282.38
387.568	287.35
387.948	286
388.328	292.1
388.707	295.94
389.087	307.92
389.466	305.66
389.846	312.21
390.225	302.27
390.605	302.04
390.984	296.39
391.363	296.39
391.743	301.14
392.122	281.48
392.501	322.6
392.881	320.57
393.26	313.57
393.639	301.14
394.018	317.86
394.397	284.64
394.776	295.26
395.155	289.61
395.534	317.86
395.913	309.05
396.292	314.02
396.671	326.45
397.05	326.22
397.429	309.27
397.808	317.18
398.186	296.84
398.565	319.21
398.944	322.6
399.323	315.83
399.701	304.07
400.08	310.4
400.458	309.5
400.837	329.38
401.215	325.32
401.594	297.29
401.972	318.76
402.351	302.72
402.729	305.43
403.107	314.02
403.486	311.53
403.864	330.06
404.242	308.37
404.62	303.17
404.999	338.88
405.377	309.5
405.755	302.04
406.133	316.95
406.511	306.33
406.889	320.8
407.267	325.77
407.645	330.74
408.023	325.09
408.401	306.33
408.779	310.4
409.156	302.72
409.534	350.17
409.912	292.32
410.29	325.09
410.667	306.33
411.045	304.07
411.422	326.45
411.8	341.81
412.178	332.32
412.555	329.61
412.933	325.54
413.31	340.01
413.687	329.61
414.065	324.19
414.442	326.9
414.819	327.58
415.197	313.79
415.574	336.84
415.951	338.42
416.328	356.73
416.705	342.04
417.082	344.3
417.46	348.59
417.837	318.99
418.214	339.33
418.591	337.75
418.967	335.71
419.344	337.07
419.721	326.67
420.098	323.73
420.475	341.36
420.852	336.62
421.228	337.97
421.605	333
421.982	336.16
422.358	352.89
422.735	350.17
423.111	343.17
423.488	348.37
423.864	357.41
424.241	337.07
424.617	351.08
424.994	387.46
425.37	343.85
425.746	353.79
426.123	355.15
426.499	337.52
426.875	361.02
427.251	361.47
427.627	344.75
428.003	350.85
428.379	360.34
428.756	339.1
429.132	355.6
429.507	372.09
429.883	339.55
430.259	357.41
430.635	344.3
431.011	344.3
431.387	346.33
431.763	360.57
432.138	355.15
432.514	357.18
432.89	355.15
433.265	354.47
433.641	358.31
434.016	360.57
434.392	377.07
434.767	361.02
435.143	371.42
435.518	347.46
435.894	389.95
436.269	384.3
436.644	362.15
437.02	388.37
437.395	371.64
437.77	383.17
438.145	354.24
438.52	393.11
438.895	366.22
439.271	354.47
439.646	365.77
440.021	384.52
440.395	389.04
440.77	370.06
441.145	372.77
441.52	386.11
441.895	382.49
442.27	399.44
442.645	396.73
443.019	377.29
443.394	376.39
443.769	407.35
444.143	368.25
444.518	373
444.892	389.27
445.267	382.94
445.641	380
446.016	385.2
446.39	388.82
446.764	391.98
447.139	390.63
447.513	396.05
447.887	401.47
448.262	412.32
448.636	382.94
449.01	398.31
449.384	399.44
449.758	411.87
450.132	398.76
450.506	394.92
450.88	382.94
451.254	401.47
451.628	389.04
452.002	410.96
452.376	410.74
452.75	404.64
453.123	416.16
453.497	407.8
453.871	421.81
454.244	427.91
454.618	422.49
454.992	437.18
455.365	421.58
455.739	427.01
456.112	437.86
456.486	439.66
456.859	419.78
457.232	429.72
457.606	421.81
457.979	422.94
458.352	437.4
458.725	460
459.099	436.95
459.472	434.69
459.845	426.56
460.218	424.75
460.591	457.97
460.964	453.45
461.337	439.44
461.71	445.31
462.083	458.19
462.456	460
462.829	462.49
463.201	460
463.574	475.37
463.947	477.18
464.32	470.17
464.692	476.72
465.065	478.98
465.438	482.6
465.81	476.5
466.183	480.79
466.555	493.45
466.928	496.84
467.3	464.97
467.672	493.9
468.045	491.19
468.417	495.26
468.789	521.24
469.161	521.7
469.534	506.33
469.906	495.26
470.278	512.66
470.65	511.75
471.022	503.39
471.394	505.65
471.766	528.25
472.138	518.08
472.51	535.71
472.882	524.63
473.253	543.62
473.625	533.45
473.997	533.9
474.369	546.33
474.74	568.02
475.112	560.34
475.484	558.53
475.855	565.31
476.227	584.97
476.598	580.22
476.97	607.57
477.341	587.68
477.713	609.83
478.084	599.43
478.455	609.6
478.827	614.57
479.198	606.44
479.569	621.13
479.94	619.32
480.311	649.6
480.682	638.75
481.053	658.41
481.424	669.49
481.795	631.3
482.166	657.74
482.537	653.44
482.908	666.32
483.279	662.26
483.65	684.63
484.021	718.98
484.391	677.17
484.762	688.7
485.133	683.05
485.503	728.02
485.874	707
486.244	735.25
486.615	739.99
486.985	725.53
487.356	766.66
487.726	757.17
488.097	735.48
488.467	778.86
488.837	764.17
489.207	790.16
489.578	785.42
489.948	810.5
490.318	794.23
490.688	794.23
491.058	822.7
491.428	824.29
491.798	795.36
492.168	854.79
492.538	834.23
492.908	840.11
493.278	847.56
493.648	843.49
494.017	862.03
494.387	863.38
494.757	862.48
495.126	856.38
495.496	858.86
495.866	864.96
496.235	899.31
496.605	873.1
496.974	890.05
497.344	894.79
497.713	890.05
498.082	902.25
498.452	904.74
498.821	910.39
499.19	935.92
499.559	893.66
499.928	909.03
500.298	913.32
500.667	914.23
501.036	950.38
501.405	930.5
501.774	949.71
502.143	961.91
502.512	929.14
502.88	937.28
503.249	958.75
503.618	949.48
503.987	965.07
504.356	944.51
504.724	939.76
505.093	971.4
505.462	993.77
505.83	987.22
506.199	976.6
506.567	992.87
506.936	1003.72
507.304	993.55
507.672	1001.68
508.041	977.95
508.409	990.61
508.777	1031.06
509.145	1013.43
509.514	1021.8
509.882	1023.83
510.25	1028.8
510.618	1057.95
510.986	1016.6
511.354	1029.93
511.722	1024.51
512.09	1023.83
512.458	1026.54
512.826	1044.62
513.193	1057.5
513.561	1034.9
513.929	1051.17
514.297	1054.56
514.664	1085.07
515.032	1064.05
515.4	1064.51
515.767	1106.09
516.135	1081.45
516.502	1055.47
516.869	1085.07
517.237	1078.97
517.604	1075.58
517.972	1088.69
518.339	1080.1
518.706	1085.07
519.073	1100.44
519.44	1112.41
519.808	1101.79
520.175	1103.15
520.542	1125.07
520.909	1104.73
521.276	1108.35
521.643	1111.96
522.009	1125.97
522.376	1139.08
522.743	1145.18
523.11	1154
523.477	1122.58
523.843	1175.69
524.21	1156.25
524.577	1170.49
524.943	1175.69
525.31	1187.89
525.676	1175.69
526.043	1162.81
526.409	1187.89
526.776	1193.99
527.142	1196.25
527.508	1200.1
527.874	1220.21
528.241	1203.94
528.607	1186.31
528.973	1201.45
529.339	1180.66
529.705	1203.03
530.071	1191.73
530.437	1189.47
530.803	1205.07
531.169	1189.02
531.535	1227.21
531.901	1214.56
532.267	1231.06
532.632	1199.42
532.998	1225.18
533.364	1222.02
533.73	1237.61
534.095	1254.33
534.461	1218.85
534.826	1230.83
535.192	1242.81
535.557	1226.99
535.923	1245.07
536.288	1237.83
536.653	1230.38
537.019	1233.99
537.384	1243.94
537.749	1225.18
538.114	1228.57
538.479	1247.1
538.845	1254.33
539.21	1257.27
539.575	1234.44
539.94	1235.12
540.305	1225.63
540.67	1253.43
541.034	1232.64
541.399	1237.83
541.764	1250.26
542.129	1218.17
542.494	1233.32
542.858	1270.38
543.223	1238.06
543.587	1223.82
543.952	1262.47
544.316	1252.3
544.681	1228.12
545.045	1248
545.41	1252.52
545.774	1231.28
546.138	1262.24
546.503	1236.48
546.867	1244.84
547.231	1261.11
547.595	1237.83
547.959	1225.41
548.324	1254.11
548.688	1244.61
549.052	1250.26
549.416	1239.19
549.779	1245.52
550.143	1236.48
550.507	1260.43
550.871	1269.25
551.235	1255.01
551.599	1274.44
551.962	1239.87
552.326	1241.68
552.689	1254.33
553.053	1277.16
553.417	1261.11
553.78	1276.7
554.143	1257.95
554.507	1275.12
554.87	1280.77
555.234	1271.51
555.597	1267.21
555.96	1293.88
556.323	1276.93
556.686	1294.78
557.05	1306.08
557.413	1308.79
557.776	1292.52
558.139	1306.31
558.502	1292.07
558.865	1288.68
559.228	1297.04
559.59	1308.79
559.953	1314.22
560.316	1299.98
560.679	1325.29
561.041	1310.38
561.404	1308.34
561.767	1340.2
562.129	1306.31
562.492	1328.68
562.854	1310.6
563.217	1316.02
563.579	1344.72
563.941	1324.61
564.304	1359.41
564.666	1361.67
565.028	1361.67
565.39	1337.95
565.753	1361.67
566.115	1356.48
566.477	1361.67
566.839	1340.2
567.201	1344.72
567.563	1377.49
567.925	1347.89
568.287	1361
568.648	1331.62
569.01	1351.96
569.372	1383.59
569.734	1364.84
570.095	1357.15
570.457	1365.29
570.819	1406.19
571.18	1370.03
571.542	1365.06
571.903	1363.48
572.265	1385.63
572.626	1377.27
572.987	1379.75
573.349	1370.03
573.71	1379.3
574.071	1367.32
574.432	1372.75
574.794	1390.83
575.155	1376.59
575.516	1357.15
575.877	1381.11
576.238	1393.76
576.599	1392.63
576.96	1381.56
577.32	1373.42
577.681	1352.41
578.042	1365.97
578.403	1392.18
578.763	1358.74
579.124	1374.55
579.485	1342.92
579.845	1370.49
580.206	1388.11
580.566	1361.67
580.927	1384.27
581.287	1384.95
581.648	1368.23
582.008	1387.66
582.368	1382.01
582.728	1371.84
583.089	1360.09
583.449	1328
583.809	1348.34
584.169	1347.66
584.529	1323.03
584.889	1369.36
585.249	1352.18
585.609	1341.79
585.969	1355.57
586.329	1344.72
586.688	1358.06
587.048	1329.13
587.408	1341.79
587.768	1337.27
588.127	1302.47
588.487	1354.67
588.846	1354.22
589.206	1369.81
589.565	1310.38
589.925	1349.24
590.284	1313.54
590.643	1327.78
591.003	1329.58
591.362	1332.97
591.721	1320.54
592.08	1321.22
592.44	1312.86
592.799	1339.75
593.158	1327.32
593.517	1319.41
593.876	1324.39
594.235	1337.04
594.593	1323.26
594.952	1310.83
595.311	1354.67
595.67	1341.79
596.029	1311.51
596.387	1342.01
596.746	1352.86
597.104	1319.64
597.463	1321.9
597.822	1329.58
598.18	1351.05
598.538	1334.33
598.897	1340.2
599.255	1351.73
599.613	1330.04
599.972	1331.17
600.33	1328.91
600.688	1332.97
601.046	1342.92
601.404	1339.75
601.762	1302.01
602.12	1317.15
602.478	1343.37
602.836	1335.91
603.194	1325.52
603.552	1322.8
603.91	1312.63
604.268	1348.11
604.625	1332.07
604.983	1324.61
605.341	1365.51
605.698	1340.2
606.056	1357.83
606.413	1359.64
606.771	1351.05
607.128	1371.39
607.485	1328.45
607.843	1361.67
608.2	1341.56
608.557	1343.37
608.914	1368.9
609.272	1365.74
609.629	1339.3
609.986	1362.58
610.343	1345.4
610.7	1385.63
611.057	1349.24
611.414	1366.42
611.771	1365.06
612.127	1380.66
612.484	1350.6
612.841	1370.49
613.198	1370.49
613.554	1376.59
613.911	1369.13
614.267	1394.21
614.624	1381.56
614.98	1377.04
615.337	1394.67
615.693	1394.44
616.05	1367.55
616.406	1390.6
616.762	1375.68
617.118	1403.03
617.475	1375.23
617.831	1400.09
618.187	1388.79
618.543	1382.24
618.899	1402.12
619.255	1373.65
619.611	1356.02
619.967	1381.79
620.323	1396.02
620.678	1389.7
621.034	1377.72
621.39	1413.42
621.746	1387.44
622.101	1393.54
622.457	1396.02
622.812	1381.33
623.168	1354.89
623.523	1381.33
623.879	1374.33
624.234	1379.75
624.589	1375.01
624.945	1384.95
625.3	1395.12
625.655	1372.52
626.01	1361.9
626.365	1380.43
626.72	1361.9
627.075	1383.59
627.43	1394.21
627.785	1373.42
628.14	1389.47
628.495	1386.31
628.85	1389.7
629.205	1353.76
629.559	1366.64
629.914	1361.67
630.269	1362.8
630.623	1388.11
630.978	1355.12
631.332	1379.07
631.687	1384.5
632.041	1363.93
632.396	1357.15
632.75	1355.57
633.104	1389.7
633.459	1358.74
633.813	1336.36
634.167	1358.28
634.521	1342.01
634.875	1357.61
635.229	1349.7
635.583	1343.37
635.937	1372.52
636.291	1355.57
636.645	1358.51
636.999	1333.65
637.352	1329.81
637.706	1358.96
638.06	1360.77
638.413	1347.44
638.767	1347.89
639.121	1359.87
639.474	1355.8
639.828	1356.48
640.181	1327.55
640.534	1377.04
640.888	1328.23
641.241	1366.87
641.594	1336.59
641.947	1337.95
642.301	1340.88
642.654	1338.17
643.007	1370.26
643.36	1360.77
643.713	1376.14
644.066	1386.08
644.419	1345.63
644.771	1344.05
645.124	1331.39
645.477	1326.42
645.83	1333.65
646.182	1337.72
646.535	1344.27
646.888	1336.36
647.24	1345.63
647.593	1343.59
647.945	1339.75
648.298	1352.63
648.65	1342.46
649.002	1339.98
649.355	1361.45
649.707	1345.18
650.059	1384.5
650.411	1396.25
650.763	1400.77
651.115	1360.77
651.467	1407.32
651.819	1422.69
652.171	1403.93
652.523	1417.72
652.875	1394.21
653.227	1411.16
653.578	1431.73
653.93	1426.3
654.282	1403.48
654.633	1423.14
654.985	1440.09
655.337	1428.34
655.688	1505.62
656.039	1441.45
656.391	1446.42
656.742	1440.54
657.094	1460.88
657.445	1466.53
657.796	1495.23
658.147	1458.85
658.498	1460.2
658.849	1468.11
659.2	1494.78
659.551	1506.53
659.902	1510.14
660.253	1506.3
660.604	1504.95
660.955	1503.59
661.306	1554.66
661.656	1553.31
662.007	1520.31
662.358	1542.91
662.708	1569.35
663.059	1539.3
663.409	1577.94
663.76	1626.98
664.11	1586.75
664.461	1568.67
664.811	1598.96
665.161	1634.43
665.511	1622.91
665.862	1639.41
666.212	1654.55
666.562	1636.47
666.912	1657.94
667.262	1663.81
667.612	1721.44
667.962	1680.08
668.312	1718.05
668.662	1710.82
669.011	1744.49
669.361	1743.58
669.711	1764.83
670.06	1725.51
670.41	1776.8
670.76	1777.48
671.109	1817.03
671.459	1803.02
671.808	1805.96
672.157	1790.36
672.507	1846.18
672.856	1841.89
673.205	1881.89
673.554	1879.85
673.904	1891.6
674.253	1917.14
674.602	1918.95
674.951	1918.72
675.3	1926.63
675.649	1950.58
675.998	1969.11
676.346	1975.67
676.695	2000.53
677.044	2014.09
677.393	1994.2
677.741	2069.45
678.09	2049.79
678.438	2089.34
678.787	2121.2
679.135	2130.01
679.484	2135.44
679.832	2129.56
680.181	2105.83
680.529	2181.76
680.877	2181.76
681.225	2212.05
681.573	2201.43
681.922	2252.05
682.27	2254.53
682.618	2247.53
682.966	2261.08
683.314	2264.7
683.661	2317.81
684.009	2328.2
684.357	2334.98
684.705	2382.44
685.053	2380.4
685.4	2429.44
685.748	2387.63
686.095	2416.79
686.443	2473.73
686.79	2477.8
687.138	2495.65
687.485	2525.26
687.832	2522.55
688.18	2544.24
688.527	2540.17
688.874	2593.73
689.221	2567.74
689.568	2593.96
689.915	2658.36
690.262	2666.95
690.609	2678.7
690.956	2687.97
691.303	2716.44
691.65	2692.49
691.997	2753.5
692.344	2766.38
692.69	2795.53
693.037	2811.58
693.383	2824.01
693.73	2837.11
694.077	2831.92
694.423	2868.3
694.769	2932.93
695.116	2925.47
695.462	2914.17
695.808	2916.21
696.155	2975.64
696.501	2961.86
696.847	2974.29
697.193	3027.62
697.539	3022.19
697.885	3060.84
698.231	3086.6
698.577	3111.91
698.923	3101.06
699.269	3153.94
699.614	3165.02
699.96	3168.86
700.306	3195.75
700.651	3218.12
700.997	3231.23
701.342	3266.26
701.688	3279.36
702.033	3257.67
702.379	3296.54
702.724	3289.76
703.069	3365.91
703.415	3324.11
703.76	3385.57
704.105	3335.18
704.45	3412.01
704.795	3415.86
705.14	3438.23
705.485	3455.4
705.83	3476.19
706.175	3520.49
706.52	3543.76
706.865	3504.44
707.209	3568.39
707.554	3568.17
707.899	3594.61
708.243	3596.87
708.588	3609.75
708.932	3611.11
709.277	3649.3
709.621	3676.41
709.966	3701.5
710.31	3688.39
710.654	3705.79
710.998	3724.55
711.342	3767.94
711.687	3789.18
712.031	3783.08
712.375	3766.58
712.719	3787.82
713.063	3835.28
713.407	3891.1
713.75	3848.84
714.094	3869.86
714.438	3884.32
714.782	3908.95
715.125	3917.99
715.469	3961.6
715.812	3911.66
716.156	3948.27
716.499	3935.84
716.843	3997.99
717.186	3967.03
717.53	4023.75
717.873	4031.66
718.216	4030.08
718.559	4081.6
718.902	4001.15
719.246	4067.36
719.589	4062.39
719.932	4047.7
720.275	4111.43
720.617	4087.25
720.96	4102.62
721.303	4104.2
721.646	4132.9
721.989	4126.35
722.331	4171.99
722.674	4164.99
723.016	4222.16
723.359	4199.56
723.701	4167.48
724.044	4187.81
724.386	4178.32
724.729	4247.25
725.071	4190.3
725.413	4204.31
725.755	4215.61
726.097	4204.08
726.439	4224.65
726.782	4216.97
727.124	4252.22
727.465	4233.01
727.807	4255.38
728.149	4269.62
728.491	4277.08
728.833	4317.08
729.175	4279.56
729.516	4313.23
729.858	4288.15
730.199	4289.96
730.541	4356.4
730.882	4333.8
731.224	4332.67
731.565	4320.24
731.906	4340.58
732.248	4315.49
732.589	4307.36
732.93	4296.06
733.271	4366.34
733.612	4345.78
733.953	4327.47
734.294	4386.23
734.635	4348.94
734.976	4343.52
735.317	4367.24
735.658	4362.5
735.999	4343.06
736.339	4372.89
736.68	4392.55
737.021	4368.15
737.361	4350.07
737.702	4389.84
738.042	4395.94
738.383	4390.29
738.723	4356.62
739.063	4362.72
739.404	4397.98
739.744	4388.94
740.084	4378.77
740.424	4410.41
740.764	4360.24
741.104	4361.82
741.444	4356.17
741.784	4370.86
742.124	4351.43
742.464	4347.58
742.804	4367.7
743.143	4368.6
743.483	4353.23
743.823	4361.14
744.162	4292.9
744.502	4336.28
744.841	4343.52
745.181	4380.8
745.52	4359.33
745.86	4346.91
746.199	4301.48
746.538	4352.1
746.877	4341.03
747.216	4324.99
747.556	4343.06
747.895	4270.3
748.234	4298.32
748.573	4345.32
748.911	4340.58
749.25	4310.52
749.589	4241.6
749.928	4302.16
750.267	4290.86
750.605	4289.96
750.944	4320.01
751.283	4251.77
751.621	4276.17
751.96	4246.34
752.298	4299
752.636	4292.44
752.975	4252.44
753.313	4239.56
753.651	4262.61
753.989	4197.3
754.327	4203.63
754.666	4244.31
755.004	4242.5
755.342	4222.84
755.679	4190.53
756.017	4201.37
756.355	4224.65
756.693	4157.08
757.031	4161.83
757.368	4175.61
757.706	4146.91
758.044	4137.19
758.381	4138.32
758.719	4153.24
759.056	4121.6
759.394	4113.24
759.731	4122.05
760.068	4094.71
760.405	4071.88
760.743	4070.53
761.08	4046.35
761.417	4070.75
761.754	4028.04
762.091	4028.04
762.428	4029.17
762.765	3987.37
763.102	4016.97
763.438	4012.9
763.775	3971.32
764.112	4022.85
764.449	4004.09
764.785	3986.01
765.122	3948.5
765.458	3947.59
765.795	3973.36
766.131	3958.67
766.467	3906.01
766.804	3925.9
767.14	3878.22
767.476	3910.53
767.812	3859.46
768.148	3825.79
768.485	3835.28
768.821	3835.96
769.157	3823.53
769.492	3796.64
769.828	3805
770.164	3744.89
770.5	3798.45
770.836	3775.62
771.171	3741.95
771.507	3751.21
771.842	3742.85
772.178	3707.6
772.513	3706.24
772.849	3712.35
773.184	3680.26
773.519	3696.75
773.855	3680.26
774.19	3696.98
774.525	3644.1
774.86	3664.44
775.195	3631.44
775.53	3634.61
775.865	3575.63
776.2	3606.59
776.535	3583.08
776.87	3596.87
777.205	3601.84
777.539	3554.61
777.874	3513.48
778.209	3561.39
778.543	3516.87
778.878	3470.77
779.212	3541.73
779.547	3447.95
779.881	3479.36
780.215	3433.26
780.55	3454.05
780.884	3442.52
781.218	3441.17
781.552	3403.65
781.886	3388.96
782.22	3402.75
782.554	3380.15
782.888	3359.36
783.222	3318.01
783.556	3348.51
783.889	3320.04
784.223	3301.51
784.557	3276.43
784.89	3323.66
785.224	3292.24
785.557	3325.24
785.891	3274.17
786.224	3299.48
786.558	3254.28
786.891	3194.62
787.224	3238.23
787.557	3235.52
787.891	3200.95
788.224	3198.24
788.557	3219.03
788.89	3153.94
789.223	3214.96
789.556	3177.22
789.888	3191.23
790.221	3147.16
790.554	3156.65
790.887	3156.43
791.219	3124.79
791.552	3148.07
791.884	3123.66
792.217	3086.37
792.549	3068.52
792.882	3070.55
793.214	3078.01
793.546	3057
793.879	3042.98
794.211	3044.34
794.543	3056.77
794.875	3040.05
795.207	3053.83
795.539	3025.13
795.871	2966.38
796.203	3014.51
796.535	2939.48
796.867	3017.45
797.198	2984.91
797.53	2945.36
797.862	2972.25
798.193	2939.48
798.525	2940.61
798.856	2962.08
799.188	2908.07
799.519	2938.58
799.85	2885.25
800.182	2904.01
800.513	2889.54
800.844	2877.79
801.175	2890.67
801.506	2887.73
801.837	2875.53
802.168	2855.65
802.499	2795.76
802.83	2839.6
803.161	2831.92
803.491	2812.93
803.822	2843.89
804.153	2770.45
804.483	2768.87
804.814	2768.64
805.145	2780.84
805.475	2778.81
805.805	2770.68
806.136	2749.43
806.466	2752.6
806.796	2759.83
807.126	2746.04
807.457	2727.96
807.787	2757.12
808.117	2715.54
808.447	2675.76
808.777	2727.96
809.107	2679.6
809.436	2707.85
809.766	2687.51
810.096	2679.83
810.426	2684.8
810.755	2647.06
811.085	2676.21
811.414	2651.13
811.744	2641.87
812.073	2645.03
812.403	2639.83
812.732	2625.82
813.061	2610.68
813.39	2612.94
813.719	2605.03
814.049	2595.99
814.378	2607.06
814.707	2560.96
815.036	2576.56
815.365	2557.8
815.693	2602.09
816.022	2540.17
816.351	2553.73
816.68	2567.07
817.008	2535.2
817.337	2519.38
817.665	2567.07
817.994	2550.12
818.322	2530
818.651	2494.98
818.979	2500.4
819.307	2525.48
819.636	2497.01
819.964	2466.05
820.292	2499.72
820.62	2493.17
820.948	2492.04
821.276	2490.91
821.604	2511.93
821.932	2497.24
822.259	2516.9
822.587	2522.77
822.915	2492.49
823.243	2532.04
823.57	2471.7
823.898	2494.98
824.225	2447.75
824.553	2474.41
824.88	2475.77
825.207	2481.64
825.535	2472.38
825.862	2489.55
826.189	2460.4
826.516	2510.12
826.843	2485.03
827.17	2486.16
827.497	2488.42
827.824	2459.27
828.151	2492.26
828.478	2479.61
828.805	2488.2
829.131	2459.27
829.458	2449.78
829.785	2470.8
830.111	2480.06
830.438	2499.04
830.764	2502.43
831.09	2488.65
831.417	2447.97
831.743	2492.04
832.069	2475.99
832.395	2507.86
832.722	2461.98
833.048	2464.24
833.374	2485.71
833.7	2431.25
834.026	2449.55
834.351	2494.75
834.677	2453.62
835.003	2460.4
835.329	2454.75
835.654	2428.54
835.98	2458.14
836.306	2416.11
836.631	2451.36
836.956	2412.72
837.282	2452.27
837.607	2427.41
837.932	2431.93
838.258	2440.06
838.583	2424.7
838.908	2405.26
839.233	2414.3
839.558	2415.88
839.883	2399.61
840.208	2403
840.533	2376.79
840.858	2387.18
841.182	2392.83
841.507	2376.34
841.832	2366.17
842.156	2391.7
842.481	2386.96
842.805	2374.3
843.13	2374.08
843.454	2379.27
843.778	2337.24
844.103	2343.57
844.427	2317.13
844.751	2359.16
845.075	2360.74
845.399	2307.19
845.723	2299.95
846.047	2327.07
846.371	2272.84
846.695	2296.11
847.019	2289.78
847.343	2265.15
847.666	2249.56
847.99	2243.23
848.313	2250.46
848.637	2238.03
848.96	2223.35
849.284	2239.62
849.607	2236
849.931	2238.49
850.254	2241.65
850.577	2203.68
850.9	2190.13
851.223	2181.31
851.546	2164.59
851.869	2174.08
852.192	2179.28
852.515	2161.65
852.838	2161.65
853.161	2160.52
853.483	2175.66
853.806	2139.28
854.129	2156
854.451	2135.44
854.774	2108.32
855.096	2101.99
855.419	2135.21
855.741	2081.43
856.063	2100.64
856.385	2078.94
856.708	2091.37
857.03	2051.15
857.352	2038.94
857.674	2094.08
857.996	2066.29
858.318	2080.52
858.64	2090.92
858.961	2043.01
859.283	2058.38
859.605	2046.63
859.926	2024.48
860.248	2031.71
860.57	2039.62
860.891	2046.63
861.212	1997.59
861.534	2026.51
861.855	2017.7
862.176	2025.38
862.498	2024.03
862.819	2024.03
863.14	2017.48
863.461	2016.35
863.782	1969.57
864.103	2011.37
864.424	1982.45
864.745	2004.37
865.065	1995.1
865.386	2001.66
865.707	1965.05
866.027	1947.65
866.348	1975.89
866.668	1934.31
866.989	1989.45
867.309	1972.73
867.63	1956.69
867.95	1956.46
868.27	1925.95
868.59	1939.29
868.91	1954.65
869.23	1962.11
869.55	1934.09
869.87	1949.23
870.19	1940.42
870.51	1906.29
870.83	1911.94
871.15	1898.38
871.469	1908.1
871.789	1943.8
872.109	1924.82
872.428	1929.57
872.748	1935.22
873.067	1913.98
873.386	1902.22
873.706	1921.66
874.025	1930.47
874.344	1875.11
874.663	1911.04
874.982	1891.38
875.301	1922.34
875.62	1884.37
875.939	1925.27
876.258	1855.22
876.577	1887.99
876.896	1868.78
877.214	1882.79
877.533	1867.2
877.852	1869.46
878.17	1852.06
878.489	1884.15
878.807	1861.77
879.125	1837.37
879.444	1884.37
879.762	1853.41
880.08	1843.02
880.398	1857.71
880.716	1862.45
881.034	1847.31
881.352	1842.56
881.67	1822.45
881.988	1853.19
882.306	1850.02
882.624	1825.84
882.941	1859.29
883.259	1813.86
883.577	1796.01
883.894	1815.9
884.212	1832.17
884.529	1788.33
884.846	1797.14
885.164	1795.56
885.481	1811.6
885.798	1801.44
886.115	1786.29
886.432	1797.59
886.75	1783.58
887.067	1785.84
887.383	1796.46
887.7	1767.09
888.017	1757.82
888.334	1780.87
888.651	1771.83
888.967	1764.37
889.284	1751.49
889.6	1776.35
889.917	1744.71
890.233	1753.98
890.55	1752.62
890.866	1730.03
891.182	1717.6
891.498	1723.7
891.815	1692.29
892.131	1739.52
892.447	1722.57
892.763	1707.65
893.079	1711.72
893.395	1700.2
893.71	1684.6
894.026	1707.43
894.342	1704.49
894.657	1665.17
894.973	1661.33
895.289	1683.25
895.604	1670.14
895.92	1677.82
896.235	1654.55
896.55	1669.46
896.865	1663.81
897.181	1669.24
897.496	1643.93
897.811	1613.19
898.126	1652.06
898.441	1648.22
898.756	1658.84
899.071	1609.58
899.386	1615
899.7	1625.62
900.015	1596.92
900.33	1588.79
900.644	1591.27
900.959	1579.75
901.273	1608.67
901.588	1591.72
901.902	1592.18
902.216	1574.1
902.531	1570.48
902.845	1553.08
903.159	1548.56
903.473	1568.45
903.787	1542.91
904.101	1539.07
904.415	1560.31
904.729	1551.95
905.042	1504.04
905.356	1562.12
905.67	1538.84
905.984	1522.12
906.297	1511.05
906.611	1506.98
906.924	1518.05
907.237	1532.06
907.551	1501.78
907.864	1508.56
908.177	1512.63
908.491	1482.8
908.804	1483.48
909.117	1476.25
909.43	1472.86
909.743	1457.26
910.056	1466.3
910.368	1466.3
910.681	1459.98
910.994	1459.75
911.307	1445.29
911.619	1427.66
911.932	1431.95
912.244	1432.63
912.557	1426.76
912.869	1429.47
913.181	1411.39
913.494	1403.93
913.806	1402.8
914.118	1416.14
914.43	1384.5
914.742	1384.72
915.054	1382.01
915.366	1373.42
915.678	1365.97
915.99	1379.53
916.302	1370.71
916.613	1371.62
916.925	1336.36
917.236	1328.45
917.548	1352.18
917.859	1355.57
918.171	1351.5
918.482	1330.71
918.794	1337.49
919.105	1337.27
919.416	1330.04
919.727	1309.02
920.038	1348.57
920.349	1324.39
920.66	1292.97
920.971	1305.4
921.282	1294.78
921.593	1281.68
921.903	1292.75
922.214	1267.44
922.525	1271.96
922.835	1303.14
923.146	1279.42
923.456	1278.29
923.767	1258.85
924.077	1286.87
924.387	1272.64
924.697	1263.82
925.008	1239.19
925.318	1264.27
925.628	1223.37
925.938	1233.99
926.248	1227.67
926.558	1238.29
926.867	1220.21
927.177	1219.98
927.487	1224.05
927.796	1203.71
928.106	1193.32
928.416	1212.52
928.725	1224.73
929.034	1182.47
929.344	1202.81
929.653	1201.23
929.962	1174.79
930.271	1208.46
930.581	1173.66
930.89	1157.16
931.199	1181.56
931.508	1175.92
931.817	1172.53
932.125	1148.12
932.434	1157.61
932.743	1131.4
933.051	1140.21
933.36	1152.87
933.669	1150.38
933.977	1136.14
934.286	1123.71
934.594	1130.94
934.902	1123.94
935.21	1134.11
935.519	1124.17
935.827	1118.97
936.135	1129.14
936.443	1097.27
936.751	1095.92
937.059	1121.91
937.367	1105.41
937.674	1077.84
937.982	1089.82
938.29	1097.27
938.597	1105.86
938.905	1095.01
939.213	1092.08
939.52	1081.91
939.827	1088.91
940.135	1073.55
940.442	1059.31
940.749	1068.8
941.056	1067.67
941.363	1039.87
941.67	1057.95
941.977	1050.27
942.284	1041.23
942.591	1031.29
942.898	1038.07
943.205	1043.26
943.511	1015.92
943.818	1034.9
944.125	1043.04
944.431	1015.02
944.738	1004.17
945.044	1022.7
945.35	996.49
945.657	1005.75
945.963	1002.59
946.269	1001.46
946.575	998.07
946.881	991.51
947.187	1002.81
947.493	996.26
947.799	995.58
948.105	1007.33
948.41	957.16
948.716	986.77
949.022	986.99
949.327	974.79
949.633	940.89
949.938	957.39
950.244	985.64
950.549	939.54
950.854	957.39
951.16	950.84
951.465	972.08
951.77	974.79
952.075	946.77
952.38	959.2
952.685	921.23
952.99	941.35
953.294	934.57
953.599	946.54
953.904	924.62
954.209	925.07
954.513	907
954.818	897.5
955.122	924.4
955.426	936.15
955.731	932.76
956.035	920.1
956.339	942.93
956.643	927.11
956.948	890.73
957.252	885.75
957.556	893.44
957.86	884.4
958.163	900.67
958.467	899.99
958.771	878.07
959.075	894.57
959.378	867.9
959.682	877.17
959.985	857.05
960.289	859.99
960.592	869.48
960.896	861.8
961.199	871.52
961.502	857.28
961.805	862.48
962.108	828.58
962.411	849.14
962.714	852.08
963.017	842.82
963.32	865.19
963.623	855.47
963.926	850.73
964.228	817.28
964.531	831.52
964.833	834.23
965.136	851.18
965.438	786.77
965.741	843.49
966.043	842.82
966.345	835.13
966.648	813.44
966.95	805.98
967.252	812.08
967.554	790.16
967.856	807.34
968.158	815.25
968.46	786.1
968.761	807.11
969.063	801.69
969.365	809.37
969.666	807.79
969.968	797.39
970.269	813.21
970.571	803.27
970.872	811.18
971.174	811.63
971.475	765.3
971.776	791.29
972.077	788.58
972.378	806.89
972.679	758.98
972.98	741.58
973.281	769.82
973.582	786.55
973.883	758.75
974.183	760.79
974.484	770.05
974.785	774.57
975.085	758.75
975.386	770.28
975.686	751.07
975.986	748.13
976.287	758.53
976.587	747.68
976.887	727.34
977.187	751.07
977.487	751.29
977.787	710.16
978.087	751.07
978.387	751.97
978.687	726.66
978.987	737.06
979.286	742.25
979.586	718.07
979.885	702.71
980.185	728.92
980.484	725.76
980.784	702.71
981.083	726.89
981.382	724.85
981.682	704.29
981.981	691.63
982.28	690.96
982.579	692.09
982.878	701.35
983.177	700.22
983.475	700
983.774	698.41
984.073	694.57
984.372	683.27
984.67	683.72
984.969	678.53
985.267	694.8
985.566	674.23
985.864	690.73
986.162	697.28
986.461	676.95
986.759	680.34
987.057	694.57
987.355	675.59
987.653	686.21
987.951	673.78
988.249	664.06
988.547	669.26
988.844	641.69
989.142	662.03
989.44	674.91
989.737	638.3
990.035	680.79
990.332	667.23
990.63	655.03
990.927	634.91
991.224	645.99
991.521	654.57
991.819	631.52
992.116	638.53
992.413	667
992.71	643.73
993.006	630.39
993.303	671.97
993.6	616.83
993.897	628.59
994.193	610.96
994.49	622.26
994.787	645.08
995.083	614.8
995.379	625.42
995.676	609.83
995.972	644.18
996.268	617.06
996.565	621.58
996.861	637.17
997.157	598.76
997.453	628.36
997.749	616.83
998.044	613.67
998.34	601.24
998.636	628.36
998.932	607.57
999.227	588.81
999.523	620.9
999.818	605.99
1000.114	602.15
1000.409	572.09
1000.704	592.88
1001	597.4
1001.295	571.41
1001.59	596.72
1001.885	585.65
1002.18	602.82
1002.475	592.88
1002.77	579.55
1003.065	554.01
1003.359	561.92
1003.654	594.01
1003.949	557.63
1004.243	573.9
1004.538	568.02
1004.832	583.39
1005.127	558.76
1005.421	585.87
1005.715	563.28
1006.009	556.95
1006.304	567.8
1006.598	562.82
1006.892	547.23
1007.186	569.38
1007.48	543.84
1007.773	565.54
1008.067	550.17
1008.361	554.91
1008.655	548.81
1008.948	575.48
1009.242	547.91
1009.535	543.62
1009.829	542.94
1010.122	558.53
1010.415	543.62
1010.708	561.92
1011.001	518.08
1011.295	538.64
1011.588	517.18
1011.881	538.87
1012.173	534.35
1012.466	539.1
1012.759	525.09
1013.052	524.63
1013.344	514.01
1013.637	525.31
1013.93	513.79
1014.222	515.82
1014.514	537.51
1014.807	506.78
1015.099	511.53
1015.391	534.12
1015.683	521.24
1015.976	525.31
1016.268	508.36
1016.56	516.27
1016.851	525.09
1017.143	504.75
1017.435	502.26
1017.727	499.77
1018.018	502.94
1018.31	503.39
1018.602	494.13
1018.893	485.54
1019.185	506.33
1019.476	485.99
1019.767	505.42
1020.058	499.1
1020.35	492.09
1020.641	470.4
1020.932	493.9
1021.223	487.35
1021.514	503.16
1021.804	491.41
1022.095	472.21
1022.386	507.68
1022.677	479.44
1022.967	478.53
1023.258	457.97
1023.548	480.79
1023.839	476.27
1024.129	491.19
1024.419	467.69
1024.709	465.65
1025	446.22
1025.29	453
1025.58	457.52
1025.87	469.04
1026.16	461.36
1026.449	457.74
1026.739	442.15
1027.029	449.38
1027.319	438.53
1027.608	463.84
1027.898	476.5
1028.187	445.31
1028.477	448.02
1028.766	452.32
1029.055	444.86
1029.344	459.55
1029.634	467.69
1029.923	433.79
1030.212	451.87
1030.501	462.04
1030.79	449.15
1031.078	420.46
1031.367	451.19
1031.656	445.31
1031.945	426.56
1032.233	424.07
1032.522	432.66
1032.81	411.42
1033.099	453
1033.387	450.28
1033.675	422.71
1033.963	423.84
1034.251	417.07
1034.54	437.4
1034.828	451.87
1035.116	436.27
1035.403	427.91
1035.691	426.78
1035.979	408.48
1036.267	416.84
1036.554	435.14
1036.842	403.28
1037.129	430.62
1037.417	425.43
1037.704	395.37
1037.992	406.9
1038.279	408.25
1038.566	420.68
1038.853	420.68
1039.14	420.68
