Data from carpet_green_FLMS001491_00034.txt Node
Date: Wed Feb 08 10:35:16 GMT 2017
User: dcchb
Spectrometer: FLMS00149
Trigger mode: 0
Integration Time (sec): 2.000000E-2
Scans to average: 10
Electric dark correction enabled: true
Nonlinearity correction enabled: false
Boxcar width: 0
XAxis mode: Wavelengths
Number of Pixels in Spectrum: 2048
>>>>>Begin Spectral Data<<<<<
341.393	-13.28
341.776	-13.28
342.16	-13.28
342.543	-61.18
342.927	-74.52
343.31	-71.35
343.693	-59.6
344.077	-53.73
344.46	-50.79
344.843	-56.67
345.226	-53.95
345.61	-28.87
345.993	-16.44
346.376	-26.61
346.759	16.78
347.142	40.96
347.525	28.53
347.908	58.81
348.291	76.66
348.674	82.31
349.057	113.95
349.44	128.19
349.823	137.91
350.206	151.69
350.588	174.52
350.971	183.1
351.354	204.34
351.737	196.89
352.119	216.77
352.502	237.34
352.884	253.84
353.267	239.37
353.65	266.49
354.032	279.6
354.414	284.79
354.797	288.18
355.179	315.98
355.562	289.77
355.944	310.56
356.326	288.86
356.709	329.09
357.091	306.49
357.473	318.69
357.855	317.34
358.238	314.62
358.62	314.4
359.002	327.51
359.384	312.36
359.766	276.89
360.148	293.61
360.53	304.46
360.912	306.49
361.294	323.66
361.676	332.25
362.057	308.97
362.439	318.24
362.821	314.85
363.203	298.35
363.584	309.43
363.966	307.39
364.348	295.87
364.729	293.83
365.111	296.55
365.493	283.44
365.874	279.82
366.256	306.94
366.637	296.09
367.019	289.99
367.4	266.49
367.781	271.69
368.163	281.18
368.544	287.96
368.925	294.51
369.306	292.25
369.688	298.13
370.069	280.5
370.45	277.34
370.831	291.12
371.212	288.64
371.593	254.29
371.974	284.57
372.355	292.7
372.736	284.57
373.117	279.6
373.498	271.69
373.879	268.75
374.26	285.7
374.641	284.79
375.021	276.66
375.402	283.21
375.783	277.34
376.163	286.6
376.544	294.06
376.925	291.8
377.305	276.43
377.686	287.28
378.066	292.25
378.447	307.85
378.827	311.46
379.208	310.78
379.588	289.77
379.968	294.74
380.349	303.1
380.729	296.55
381.109	293.38
381.489	286.15
381.87	294.06
382.25	318.24
382.63	289.99
383.01	295.19
383.39	275.08
383.77	300.84
384.15	301.29
384.53	306.94
384.91	302.42
385.29	289.77
385.67	304
386.049	308.75
386.429	309.2
386.809	301.29
387.189	280.05
387.568	264.91
387.948	288.86
388.328	282.53
388.707	298.35
389.087	296.55
389.466	283.44
389.846	303.1
390.225	295.87
390.605	303.78
390.984	315.3
391.363	294.96
391.743	307.17
392.122	325.02
392.501	308.07
392.881	321.63
393.26	300.84
393.639	295.87
394.018	319.37
394.397	308.75
394.776	294.29
395.155	305.13
395.534	308.07
395.913	315.53
396.292	321.63
396.671	303.1
397.05	307.85
397.429	315.53
397.808	303.33
398.186	324.34
398.565	299.48
398.944	312.36
399.323	317.34
399.701	308.75
400.08	292.7
400.458	292.7
400.837	308.75
401.215	308.75
401.594	313.49
401.972	319.14
402.351	305.59
402.729	314.4
403.107	320.27
403.486	329.31
403.864	327.51
404.242	314.62
404.62	312.14
404.999	302.42
405.377	307.85
405.755	313.95
406.133	308.07
406.511	314.4
406.889	310.78
407.267	337.67
407.645	324.34
408.023	315.3
408.401	327.05
408.779	308.07
409.156	328.18
409.534	329.31
409.912	315.08
410.29	326.83
410.667	321.4
411.045	321.4
411.422	333.83
411.8	319.82
412.178	326.83
412.555	333.38
412.933	335.87
413.31	327.51
413.687	340.39
414.065	337.22
414.442	338.8
414.819	332.48
415.197	339.48
415.574	332.93
415.951	329.99
416.328	334.96
416.705	319.37
417.082	331.8
417.46	318.92
417.837	335.41
418.214	334.28
418.591	322.76
418.967	355.53
419.344	342.19
419.721	345.13
420.098	339.71
420.475	340.84
420.852	339.93
421.228	348.75
421.605	319.37
421.982	329.31
422.358	327.73
422.735	340.84
423.111	334.28
423.488	317.79
423.864	331.35
424.241	326.6
424.617	364.79
424.994	353.95
425.37	330.44
425.746	365.02
426.123	358.24
426.499	359.14
426.875	335.64
427.251	370.89
427.627	357.79
428.003	334.74
428.379	341.29
428.756	368.86
429.132	357.34
429.507	333.16
429.883	360.05
430.259	355.98
430.635	351.01
431.011	361.4
431.387	362.98
431.763	381.06
432.138	365.24
432.514	375.64
432.89	368.86
433.265	356.21
433.641	340.16
434.016	375.87
434.392	364.57
434.767	360.5
435.143	369.31
435.518	367.5
435.894	377.45
436.269	366.15
436.644	378.58
437.02	360.05
437.395	375.64
437.77	382.42
438.145	379.48
438.52	387.84
438.895	382.19
439.271	373.83
439.646	387.16
440.021	386.71
440.395	382.65
440.77	374.74
441.145	379.71
441.52	386.94
441.895	385.36
442.27	378.13
442.645	414.28
443.019	377.9
443.394	382.65
443.769	400.27
444.143	394.4
444.518	385.13
444.892	390.33
445.267	376.32
445.641	376.09
446.016	410.22
446.39	413.15
446.764	412.25
447.139	397.11
447.513	410.22
447.887	410.22
448.262	400.5
448.636	387.62
449.01	399.82
449.384	405.7
449.758	410.22
450.132	423.77
450.506	426.03
450.88	408.41
451.254	435.98
451.628	416.32
452.002	425.36
452.376	415.64
452.75	399.82
453.123	413.6
453.497	420.84
453.871	444.79
454.244	459.25
454.618	419.25
454.992	431.23
455.365	441.17
455.739	431.01
456.112	460.84
456.486	451.34
456.859	450.21
457.232	432.59
457.606	452.7
457.979	438.92
458.352	456.54
458.725	450.67
459.099	442.53
459.472	433.04
459.845	450.44
460.218	467.16
460.591	461.97
460.964	471.68
461.337	454.73
461.71	466.26
462.083	459.03
462.456	477.33
462.829	483.43
463.201	477.33
463.574	457.45
463.947	470.1
464.32	492.02
464.692	502.42
465.065	482.53
465.438	482.53
465.81	498.57
466.183	520.27
466.555	489.08
466.928	520.95
467.3	501.29
467.672	508.97
468.045	509.65
468.417	505.58
468.789	488.63
469.161	518.91
469.534	557.1
469.906	537.67
470.278	520.27
470.65	507.61
471.022	561.85
471.394	536.77
471.766	544.22
472.138	554.84
472.51	544
472.882	562.08
473.253	590.55
473.625	558.23
473.997	574.73
474.369	592.36
474.74	586.03
475.112	580.61
475.484	593.94
475.855	608.4
476.227	617.44
476.598	609.98
476.97	613.37
477.341	620.38
477.713	615.18
478.084	625.35
478.455	624.67
478.827	655.18
479.198	649.76
479.569	661.06
479.94	636.88
480.311	670.1
480.682	696.08
481.053	670.1
481.424	690.66
481.795	685.91
482.166	677.55
482.537	716.87
482.908	718.46
483.279	740.38
483.65	707.16
484.021	722.98
484.391	730.66
484.762	734.73
485.133	761.17
485.503	762.3
485.874	767.72
486.244	788.96
486.615	800.26
486.985	802.52
487.356	787.83
487.726	816.98
488.097	853.59
488.467	821.73
488.837	840.49
489.207	834.61
489.578	845.46
489.948	860.82
490.318	868.96
490.688	848.85
491.058	889.07
491.428	875.97
491.798	894.27
492.168	893.14
492.538	915.51
492.908	919.81
493.278	911.44
493.648	925.68
494.017	941.05
494.387	938.11
494.757	965
495.126	958.22
495.496	973.82
495.866	969.97
496.235	981.27
496.605	963.65
496.974	968.17
497.344	981.27
497.713	990.54
498.082	994.38
498.452	1003.42
498.821	979.69
499.19	1007.71
499.559	1034.83
499.928	1000.48
500.298	1016.98
500.667	1039.8
501.036	1038.9
501.405	1038.9
501.774	1033.93
502.143	1031.44
502.512	1066.24
502.88	1046.81
503.249	1035.51
503.618	1060.82
503.987	1058.56
504.356	1070.76
504.724	1114.83
505.093	1081.61
505.462	1063.53
505.83	1068.73
506.199	1090.65
506.567	1103.76
506.936	1073.93
507.304	1094.04
507.672	1104.43
508.041	1101.04
508.409	1113.93
508.777	1112.8
509.145	1125
509.514	1148.73
509.882	1145.79
510.25	1132
510.618	1159.57
510.986	1132.91
511.354	1148.5
511.722	1162.51
512.09	1164.32
512.458	1194.6
512.826	1167.71
513.193	1162.96
513.561	1161.61
513.929	1184.21
514.297	1206.8
514.664	1197.77
515.032	1171.78
515.4	1174.94
515.767	1212.91
516.135	1227.14
516.502	1187.37
516.869	1204.32
517.237	1210.42
517.604	1210.42
517.972	1230.31
518.339	1199.35
518.706	1185.11
519.073	1224.21
519.44	1236.86
519.808	1233.24
520.175	1216.52
520.542	1216.3
520.909	1273.47
521.276	1247.03
521.643	1273.7
522.009	1245.9
522.376	1255.16
522.743	1278.67
523.11	1289.29
523.477	1273.92
523.843	1263.98
524.21	1295.16
524.577	1305.11
524.943	1300.81
525.31	1325.67
525.676	1313.02
526.043	1329.06
526.409	1318.21
526.776	1316.63
527.142	1349.4
527.508	1316.18
527.874	1353.47
528.241	1360.92
528.607	1360.25
528.973	1315.73
529.339	1375.61
529.705	1362.28
530.071	1370.42
530.437	1375.84
530.803	1384.88
531.169	1400.7
531.535	1348.95
531.901	1365.67
532.267	1367.7
532.632	1364.09
532.998	1383.3
533.364	1374.26
533.73	1400.47
534.095	1386.01
534.461	1364.77
534.826	1383.97
535.192	1397.08
535.557	1394.14
535.923	1391.88
536.288	1379.68
536.653	1403.18
537.019	1408.16
537.384	1365.22
537.749	1388.27
538.114	1360.02
538.479	1411.77
538.845	1394.82
539.21	1392.56
539.575	1394.14
539.94	1389.62
540.305	1388.95
540.67	1417.19
541.034	1397.99
541.399	1404.09
541.764	1413.13
542.129	1404.77
542.494	1411.54
542.858	1386.46
543.223	1424.43
543.587	1412
543.952	1434.37
544.316	1422.62
544.681	1395.27
545.045	1419.23
545.41	1408.38
545.774	1402.05
546.138	1400.02
546.503	1421.94
546.867	1426.69
547.231	1396.18
547.595	1417.42
547.959	1445.22
548.324	1428.27
548.688	1411.09
549.052	1416.74
549.416	1438.89
549.779	1411.54
550.143	1420.13
550.507	1423.52
550.871	1420.58
551.235	1426.23
551.599	1434.14
551.962	1430.98
552.326	1418.32
552.689	1431.43
553.053	1406.35
553.417	1434.82
553.78	1430.98
554.143	1434.37
554.507	1429.62
554.87	1453.8
555.234	1441.15
555.597	1432.34
555.96	1444.54
556.323	1457.65
556.686	1460.36
557.05	1496.51
557.413	1470.07
557.776	1448.15
558.139	1498.1
558.502	1491.09
558.865	1487.48
559.228	1447.93
559.59	1484.54
559.953	1470.3
560.316	1521.15
560.679	1468.04
561.041	1479.57
561.404	1480.92
561.767	1492.9
562.129	1504.65
562.492	1518.43
562.854	1512.11
563.217	1521.82
563.579	1509.62
563.941	1526.57
564.304	1521.15
564.666	1539
565.028	1535.38
565.39	1511.2
565.753	1520.02
566.115	1549.17
566.477	1520.69
566.839	1496.97
567.201	1520.02
567.563	1545.55
567.925	1564.31
568.287	1516.4
568.648	1573.12
569.01	1556.85
569.372	1549.39
569.734	1513.69
570.095	1555.5
570.457	1561.15
570.819	1537.87
571.18	1573.35
571.542	1559.11
571.903	1566.57
572.265	1582.61
572.626	1552.56
572.987	1558.21
573.349	1579.22
573.71	1571.99
574.071	1578.55
574.432	1554.37
574.794	1585.55
575.155	1564.08
575.516	1559.79
575.877	1570.18
576.238	1526.34
576.599	1552.11
576.96	1535.16
577.32	1560.69
577.681	1557.76
578.042	1589.62
578.403	1543.52
578.763	1538.77
579.124	1572.67
579.485	1602.95
579.845	1568.6
580.206	1524.31
580.566	1536.06
580.927	1539.23
581.287	1546
581.648	1516.85
582.008	1561.6
582.368	1539.45
582.728	1517.76
583.089	1538.55
583.449	1552.56
583.809	1538.55
584.169	1539.68
584.529	1536.74
584.889	1532.45
585.249	1529.96
585.609	1511.2
585.969	1519.34
586.329	1534.93
586.688	1521.37
587.048	1513.01
587.408	1526.12
587.768	1477.08
588.127	1483.86
588.487	1541.26
588.846	1533.58
589.206	1501.94
589.565	1517.98
589.925	1518.43
590.284	1509.85
590.643	1501.03
591.003	1504.2
591.362	1514.59
591.721	1494.71
592.08	1480.02
592.44	1518.21
592.799	1460.13
593.158	1484.09
593.517	1505.78
593.876	1487.93
594.235	1476.63
594.593	1497.64
594.952	1495.16
595.311	1484.99
595.67	1449.06
596.029	1480.02
596.387	1502.16
596.746	1507.36
597.104	1468.04
597.463	1506.23
597.822	1466.46
598.18	1489.96
598.538	1493.12
598.897	1447.93
599.255	1482.28
599.613	1469.85
599.972	1496.74
600.33	1482.05
600.688	1498.1
601.046	1489.28
601.404	1493.12
601.762	1469.62
602.12	1465.1
602.478	1516.85
602.836	1507.81
603.194	1475.05
603.552	1470.98
603.91	1479.57
604.268	1504.65
604.625	1490.64
604.983	1451.54
605.341	1502.84
605.698	1515.27
606.056	1475.5
606.413	1504.2
606.771	1493.8
607.128	1503.29
607.485	1493.12
607.843	1506.01
608.2	1513.01
608.557	1506.23
608.914	1513.01
609.272	1536.06
609.629	1524.54
609.986	1528.83
610.343	1499
610.7	1530.64
611.057	1525.89
611.414	1541.03
611.771	1515.72
612.127	1526.12
612.484	1536.97
612.841	1538.55
613.198	1548.04
613.554	1524.76
613.911	1531.77
614.267	1523.63
614.624	1546
614.98	1546.91
615.337	1520.69
615.693	1579.22
616.05	1584.42
616.406	1556.63
616.762	1528.38
617.118	1529.96
617.475	1546.91
617.831	1543.07
618.187	1550.3
618.543	1541.48
618.899	1575.38
619.255	1577.87
619.611	1542.61
619.967	1558.21
620.323	1564.31
620.678	1525.21
621.034	1550.07
621.39	1535.84
621.746	1566.12
622.101	1590.98
622.457	1531.77
622.812	1584.87
623.168	1531.54
623.523	1559.56
623.879	1559.34
624.234	1551.88
624.589	1553.69
624.945	1586.68
625.3	1554.59
625.655	1547.36
626.01	1554.37
626.365	1541.71
626.72	1560.92
627.075	1541.71
627.43	1527.02
627.785	1544.87
628.14	1535.38
628.495	1548.72
628.85	1554.82
629.205	1552.11
629.559	1578.55
629.914	1538.77
630.269	1533.12
630.623	1527.47
630.978	1535.61
631.332	1533.35
631.687	1506.23
632.041	1527.25
632.396	1547.13
632.75	1541.94
633.104	1543.07
633.459	1543.52
633.813	1550.98
634.167	1552.33
634.521	1556.17
634.875	1533.58
635.229	1537.87
635.583	1545.1
635.937	1543.07
636.291	1530.41
636.645	1524.54
636.999	1543.07
637.352	1535.38
637.706	1502.16
638.06	1535.84
638.413	1510.53
638.767	1535.38
639.121	1514.82
639.474	1538.55
639.828	1505.33
640.181	1534.25
640.534	1515.95
640.888	1533.58
641.241	1504.2
641.594	1523.63
641.947	1491.77
642.301	1536.29
642.654	1499.45
643.007	1539.9
643.36	1518.43
643.713	1542.16
644.066	1534.25
644.419	1512.56
644.771	1510.53
645.124	1493.35
645.477	1499.45
645.83	1487.02
646.182	1483.86
646.535	1515.72
646.888	1499.45
647.24	1545.78
647.593	1531.99
647.945	1520.47
648.298	1513.24
648.65	1513.91
649.002	1513.01
649.355	1536.74
649.707	1537.42
650.059	1514.59
650.411	1550.52
650.763	1556.4
651.115	1570.41
651.467	1574.48
651.819	1549.62
652.171	1635.72
652.523	1585.55
652.875	1589.85
653.227	1582.84
653.578	1614.93
653.93	1603.63
654.282	1571.99
654.633	1598.43
654.985	1617.64
655.337	1619.9
655.688	1614.25
656.039	1628.94
656.391	1633.01
656.742	1609.73
657.094	1651.09
657.445	1659.67
657.796	1647.7
658.147	1667.13
658.498	1647.92
658.849	1656.74
659.2	1688.6
659.551	1690.86
659.902	1682.5
660.253	1744.87
660.604	1710.75
660.955	1707.58
661.306	1734.7
661.656	1701.93
662.007	1731.08
662.358	1734.93
662.708	1744.64
663.059	1764.08
663.409	1774.47
663.76	1738.32
664.11	1779.44
664.461	1799.33
664.811	1824.19
665.161	1816.51
665.511	1817.86
665.862	1814.02
666.212	1853.12
666.562	1859.89
666.912	1862.38
667.262	1881.59
667.612	1881.59
667.962	1889.05
668.312	1898.31
668.662	1939.21
669.011	1935.15
669.361	1980.34
669.711	1957.07
670.06	1955.49
670.41	1992.09
670.76	2022.15
671.109	2014.24
671.459	2032.55
671.808	2060.12
672.157	2035.71
672.507	2070.06
672.856	2083.17
673.205	2079.1
673.554	2122.71
673.904	2098.98
674.253	2141.92
674.602	2133.79
674.951	2122.94
675.3	2154.12
675.649	2187.57
675.998	2171.3
676.346	2205.42
676.695	2234.12
677.044	2248.36
677.393	2246.55
677.741	2304.18
678.09	2285.65
678.438	2312.31
678.787	2295.59
679.135	2319.77
679.484	2355.25
679.832	2366.77
680.181	2399.54
680.529	2399.99
680.877	2422.14
681.225	2442.25
681.573	2486.32
681.922	2457.84
682.27	2471.63
682.618	2495.36
682.966	2517.96
683.314	2529.71
683.661	2558.18
684.009	2568.35
684.357	2557.73
684.705	2598.18
685.053	2584.85
685.4	2619.65
685.748	2644.28
686.095	2669.59
686.443	2692.87
686.79	2691.29
687.138	2755.69
687.485	2732.41
687.832	2743.71
688.18	2762.47
688.527	2801.56
688.874	2802.47
689.221	2812.19
689.568	2861.45
689.915	2853.77
690.262	2892.18
690.609	2914.33
690.956	2915.46
691.303	2947.32
691.65	2962.01
691.997	2951.39
692.344	3005.85
692.69	2999.53
693.037	3045.85
693.383	3004.27
693.73	3077.26
694.077	3064.38
694.423	3081.56
694.769	3065.96
695.116	3112.52
695.462	3170.14
695.808	3180.09
696.155	3203.59
696.501	3164.27
696.847	3239.75
697.193	3201.55
697.539	3244.49
697.885	3218.05
698.231	3266.41
698.577	3270.25
698.923	3304.38
699.269	3326.3
699.614	3350.25
699.96	3291.5
700.306	3362.23
700.651	3350.93
700.997	3358.39
701.342	3398.39
701.688	3401.55
702.033	3449.01
702.379	3445.39
702.724	3447.42
703.069	3497.37
703.415	3488.55
703.76	3516.12
704.105	3515.9
704.45	3534.43
704.795	3534.65
705.14	3536.91
705.485	3543.92
705.83	3592.96
706.175	3566.06
706.52	3620.3
706.865	3594.31
707.209	3620.3
707.554	3668.43
707.899	3647.64
708.243	3667.08
708.588	3652.84
708.932	3646.97
709.277	3721.09
709.621	3692.39
709.966	3722.9
710.31	3752.05
710.654	3739.17
710.998	3761.99
711.342	3800.18
711.687	3783.91
712.031	3775.1
712.375	3797.02
712.719	3830.24
713.063	3819.17
713.407	3891.93
713.75	3875.89
714.094	3831.82
714.438	3848.54
714.782	3912.27
715.125	3928.77
715.469	3906.39
715.812	3928.77
716.156	3907.52
716.499	3897.58
716.843	3944.59
717.186	3942.33
717.53	4013.96
717.873	3982.1
718.216	3984.81
718.559	3945.49
718.902	3981.19
719.246	3996.79
719.589	3981.42
719.932	3991.36
720.275	4072.04
720.617	4057.58
720.96	4024.36
721.303	4070.46
721.646	4040.18
721.989	4057.35
722.331	4084.69
722.674	4075.66
723.016	4080.4
723.359	4095.09
723.701	4112.04
724.044	4073.85
724.386	4140.06
724.729	4096.22
725.071	4072.04
725.413	4121.08
725.755	4117.91
726.097	4132.15
726.439	4119.27
726.782	4145.71
727.124	4138.03
727.465	4103.68
727.807	4149.33
728.149	4183.22
728.491	4141.42
728.833	4150.68
729.175	4163.34
729.516	4184.35
729.858	4189.55
730.199	4205.82
730.541	4194.3
730.882	4174.86
731.224	4204.92
731.565	4174.64
731.906	4137.57
732.248	4239.04
732.589	4209.66
732.93	4151.36
733.271	4169.89
733.612	4166.27
733.953	4202.43
734.294	4211.25
734.635	4190.68
734.976	4135.77
735.317	4178.03
735.658	4197.01
735.999	4142.09
736.339	4182.09
736.68	4203.34
737.021	4209.66
737.361	4160.4
737.702	4193.39
738.042	4215.09
738.383	4196.78
738.723	4190.68
739.063	4251.47
739.404	4192.71
739.744	4247.85
740.084	4171.02
740.424	4237.46
740.764	4213.73
741.104	4213.28
741.444	4194.75
741.784	4160.63
742.124	4177.12
742.464	4197.23
742.804	4190
743.143	4170.79
743.483	4166.73
743.823	4159.5
744.162	4169.89
744.502	4125.82
744.841	4155.43
745.181	4168.08
745.52	4151.81
745.86	4154.75
746.199	4178.03
746.538	4164.69
746.877	4154.07
747.216	4197.69
747.556	4144.13
747.895	4155.88
748.234	4146.16
748.573	4091.93
748.911	4137.57
749.25	4118.14
749.589	4101.19
749.928	4125.37
750.267	4135.09
750.605	4081.31
750.944	4116.78
751.283	4104.58
751.621	4085.82
751.96	4064.36
752.298	4063.23
752.636	4113.85
752.975	4041.76
753.313	3989.78
753.651	4008.09
753.989	4076.56
754.327	4011.93
754.666	4006.05
755.004	4005.15
755.342	3967.41
755.679	4042.89
756.017	3981.65
756.355	4001.08
756.693	4022.1
757.031	4036.33
757.368	3996.79
757.706	3970.8
758.044	3976.9
758.381	3978.71
758.719	3949.56
759.056	3935.32
759.394	3964.7
759.731	3919.28
760.068	3903.68
760.405	3879.28
760.743	3832.5
761.08	3863.91
761.417	3853.97
761.754	3821.42
762.091	3883.57
762.428	3847.64
762.765	3814.87
763.102	3845.61
763.438	3862.1
763.775	3778.26
764.112	3777.13
764.449	3817.81
764.785	3790.92
765.122	3720.86
765.458	3779.62
765.795	3761.77
766.131	3763.57
766.467	3743.23
766.804	3706.63
767.14	3741.43
767.476	3711.15
767.812	3669.11
768.148	3712.05
768.485	3674.54
768.821	3629.34
769.157	3624.14
769.492	3656.23
769.828	3611.71
770.164	3613.75
770.5	3587.76
770.836	3585.5
771.171	3555.67
771.507	3562.22
771.842	3541.21
772.178	3585.95
772.513	3566.74
772.849	3566.74
773.184	3510.7
773.519	3521.55
773.855	3499.4
774.19	3485.16
774.525	3502.34
774.86	3502.34
775.195	3488.33
775.53	3498.27
775.865	3446.29
776.2	3463.02
776.535	3411.27
776.87	3418.05
777.205	3373.53
777.539	3364.94
777.874	3420.31
778.209	3356.8
778.543	3361.55
778.878	3317.71
779.212	3317.94
779.547	3357.71
779.881	3311.16
780.215	3263.02
780.55	3316.81
780.884	3253.76
781.218	3266.41
781.552	3238.16
781.886	3278.84
782.22	3278.39
782.554	3248.78
782.888	3199.97
783.222	3166.53
783.556	3161.1
783.889	3190.26
784.223	3157.71
784.557	3184.15
784.89	3128.79
785.224	3127.21
785.557	3121.33
785.891	3140.54
786.224	3098.28
786.558	3126.3
786.891	3113.42
787.224	3075.91
787.557	3079.52
787.891	3072.29
788.224	3068.9
788.557	3056.47
788.89	3063.48
789.223	3008.11
789.556	3052.41
789.888	3029.81
790.221	2984.61
790.554	2961.56
790.887	3007.89
791.219	2966.53
791.552	2933.99
791.884	2951.39
792.217	2978.51
792.549	2919.98
792.882	2933.76
793.214	2941.45
793.546	2913.88
793.879	2912.52
794.211	2901.22
794.543	2908.68
794.875	2891.96
795.207	2890.38
795.539	2839.98
795.871	2861
796.203	2872.98
796.535	2851.73
796.867	2799.98
797.198	2848.57
797.53	2816.71
797.862	2805.86
798.193	2818.29
798.525	2809.47
798.856	2785.97
799.188	2770.61
799.519	2807.44
799.85	2782.36
800.182	2739.87
800.513	2761.11
800.844	2730.15
801.175	2731.28
801.506	2751.17
801.837	2726.54
802.168	2703.49
802.499	2721.79
802.83	2674.79
803.161	2672.75
803.491	2688.57
803.822	2679.76
804.153	2679.76
804.483	2638.18
804.814	2646.54
805.145	2655.35
805.475	2668.01
805.805	2616.94
806.136	2635.92
806.466	2617.61
806.796	2651.51
807.126	2603.83
807.457	2607.45
807.787	2614
808.117	2612.19
808.447	2566.32
808.777	2588.01
809.107	2572.19
809.436	2599.08
809.766	2601.12
810.096	2581.46
810.426	2578.07
810.755	2563.83
811.085	2549.14
811.414	2545.75
811.744	2527.22
812.073	2489.71
812.403	2542.36
812.732	2518.86
813.061	2527.67
813.39	2525.19
813.719	2504.62
814.049	2491.97
814.378	2515.24
814.707	2473.89
815.036	2488.58
815.365	2482.93
815.693	2442.93
816.022	2408.35
816.351	2439.09
816.68	2439.99
817.008	2425.76
817.337	2419.2
817.665	2405.64
817.994	2437.73
818.322	2417.85
818.651	2439.09
818.979	2424.85
819.307	2414.68
819.636	2425.08
819.964	2386.21
820.292	2389.15
820.62	2411.29
820.948	2390.28
821.276	2423.5
821.604	2399.99
821.932	2371.97
822.259	2398.41
822.587	2390.28
822.915	2407.45
823.243	2409.26
823.57	2385.98
823.898	2368.58
824.225	2388.47
824.553	2368.81
824.88	2398.64
825.207	2392.99
825.535	2360.22
825.862	2378.3
826.189	2378.53
826.516	2381.46
826.843	2415.36
827.17	2369.03
827.497	2382.14
827.824	2421.91
828.151	2384.17
828.478	2357.06
828.805	2397.73
829.131	2396.6
829.458	2376.27
829.785	2373.1
830.111	2410.16
830.438	2376.94
830.764	2381.24
831.09	2360.67
831.417	2354.34
831.743	2340.33
832.069	2360.9
832.395	2363.38
832.722	2332.65
833.048	2356.15
833.374	2318.19
833.7	2363.38
834.026	2363.84
834.351	2376.04
834.677	2357.28
835.003	2358.19
835.329	2343.72
835.654	2315.25
835.98	2345.08
836.306	2362.71
836.631	2341.46
836.956	2333.33
837.282	2364.29
837.607	2333.33
837.932	2311.86
838.258	2331.07
838.583	2310.05
838.908	2329.26
839.233	2335.14
839.558	2310.96
839.883	2348.02
840.208	2303.95
840.533	2326.32
840.858	2329.03
841.182	2285.19
841.507	2309.15
841.832	2278.19
842.156	2279.09
842.481	2297.62
842.805	2287.45
843.13	2254.91
843.454	2246.33
843.778	2277.51
844.103	2238.19
844.427	2239.32
844.751	2241.81
845.075	2260.56
845.399	2236.16
845.723	2215.37
846.047	2223.05
846.371	2230.96
846.695	2240.45
847.019	2223.5
847.343	2197.51
847.666	2186.21
847.99	2192.99
848.313	2169.26
848.637	2165.42
848.96	2152.09
849.284	2145.31
849.607	2119.1
849.931	2171.07
850.254	2085.65
850.577	2091.07
850.9	2073.22
851.223	2084.07
851.546	2129.49
851.869	2059.66
852.192	2126.78
852.515	2059.66
852.838	2050.85
853.161	2058.31
853.483	2055.37
853.806	2069.83
854.129	2018.99
854.451	2020.79
854.774	2038.42
855.096	2042.71
855.419	1997.97
855.741	2014.92
856.063	2044.97
856.385	1991.42
856.708	2003.85
857.03	1978.31
857.352	1977.86
857.674	2013.56
857.996	1962.72
858.318	1973.56
858.64	1956.16
858.961	1944.86
859.283	1957.75
859.605	1957.29
859.926	2001.59
860.248	1943.73
860.57	1947.35
860.891	1920.91
861.212	1951.64
861.534	1939.21
861.855	1951.87
862.176	1931.53
862.498	1955.03
862.819	1951.19
863.14	1913.68
863.461	1944.19
863.782	1938.31
864.103	1899.44
864.424	1916.84
864.745	1960
865.065	1907.12
865.386	1879.1
865.707	1879.78
866.027	1909.84
866.348	1888.82
866.668	1896.73
866.989	1890.85
867.309	1877.07
867.63	1886.56
867.95	1870.06
868.27	1880.01
868.59	1861.25
868.91	1877.75
869.23	1848.82
869.55	1867.58
869.87	1873.23
870.19	1866.9
870.51	1854.92
870.83	1882.27
871.15	1838.88
871.469	1879.56
871.789	1831.42
872.109	1846.79
872.428	1861.93
872.748	1848.82
873.067	1860.35
873.386	1816.73
873.706	1830.29
874.025	1816.05
874.344	1827.81
874.663	1837.52
874.982	1837.75
875.301	1815.38
875.62	1835.94
875.939	1794.81
876.258	1777.64
876.577	1815.6
876.896	1788.03
877.214	1795.72
877.533	1823.29
877.852	1802.95
878.17	1830.52
878.489	1780.57
878.807	1792.78
879.125	1802.72
879.444	1793.46
879.762	1784.19
880.08	1779.44
880.398	1785.77
880.716	1783.96
881.034	1769.5
881.352	1791.87
881.67	1760.91
881.988	1780.8
882.306	1747.13
882.624	1757.07
882.941	1765.43
883.259	1783.74
883.577	1732.44
883.894	1748.26
884.212	1733.8
884.529	1728.37
884.846	1730.63
885.164	1703.97
885.481	1731.76
885.798	1743.51
886.115	1756.62
886.432	1729.5
886.75	1687.24
887.067	1718.66
887.383	1695.38
887.7	1720.46
888.017	1695.38
888.334	1717.3
888.651	1709.39
888.967	1700.35
889.284	1718.43
889.6	1714.14
889.917	1699.45
890.233	1665.1
890.55	1646.79
890.866	1659.22
891.182	1682.05
891.498	1670.97
891.815	1693.57
892.131	1659.22
892.447	1637.75
892.763	1624.65
893.079	1629.17
893.395	1642.5
893.71	1613.35
894.026	1652.89
894.342	1639.56
894.657	1632.33
894.973	1607.47
895.289	1621.03
895.604	1635.04
895.92	1615.38
896.235	1593.01
896.55	1613.35
896.865	1597.75
897.181	1604.08
897.496	1569.73
897.811	1576.96
898.126	1590.75
898.441	1583.07
898.756	1556.17
899.071	1564.08
899.386	1559.11
899.7	1517.08
900.015	1525.21
900.33	1522.05
900.644	1532.22
900.959	1536.06
901.273	1535.61
901.588	1531.32
901.902	1513.01
902.216	1507.36
902.531	1522.28
902.845	1510.75
903.159	1500.13
903.473	1490.64
903.787	1506.91
904.101	1497.64
904.415	1488.15
904.729	1457.19
905.042	1486.8
905.356	1466.01
905.67	1461.26
905.984	1490.64
906.297	1471.66
906.611	1468.72
906.924	1442.28
907.237	1436.4
907.551	1430.75
907.864	1430.08
908.177	1452.22
908.491	1441.83
908.804	1423.3
909.117	1404.54
909.43	1410.19
909.743	1422.84
910.056	1441.37
910.368	1393.92
910.681	1380.59
910.994	1379.68
911.307	1405.44
911.619	1391.21
911.932	1423.3
912.244	1381.26
912.557	1393.92
912.869	1374.71
913.181	1368.38
913.494	1371.55
913.806	1339.68
914.118	1342.39
914.43	1338.78
914.742	1360.92
915.054	1335.16
915.366	1304.2
915.678	1365.44
915.99	1303.3
916.302	1313.47
916.613	1308.04
916.925	1284.77
917.236	1269.18
917.548	1316.86
917.859	1288.38
918.171	1302.85
918.482	1302.85
918.794	1276.18
919.105	1278.89
919.416	1243.87
919.727	1254.03
920.038	1267.59
920.349	1261.72
920.66	1254.49
920.971	1268.5
921.282	1231.89
921.593	1252
921.903	1243.41
922.214	1252.68
922.525	1248.84
922.835	1215.17
923.146	1217.88
923.456	1227.14
923.767	1237.99
924.077	1233.47
924.387	1212.45
924.697	1238.89
925.008	1231.89
925.318	1217.2
925.628	1186.92
925.938	1202.74
926.248	1152.79
926.558	1180.59
926.867	1190.08
927.177	1170.87
927.487	1187.82
927.796	1166.13
928.106	1170.65
928.416	1173.13
928.725	1188.95
929.034	1160.7
929.344	1165.22
929.653	1169.52
929.962	1110.54
930.271	1149.86
930.581	1172.23
930.89	1154.15
931.199	1126.13
931.508	1155.73
931.817	1134.72
932.125	1100.82
932.434	1098.78
932.743	1113.47
933.051	1115.28
933.36	1104.66
933.669	1093.81
933.977	1117.77
934.286	1104.21
934.594	1101.04
934.902	1068.73
935.21	1085.45
935.519	1087.26
935.827	1071.67
936.135	1084.1
936.443	1047.71
936.751	1099.69
937.059	1074.38
937.367	1063.53
937.674	1079.58
937.982	1056.53
938.29	1049.29
938.597	1036.41
938.905	1056.3
939.213	1047.71
939.52	1033.25
939.827	1050.88
940.135	1031.44
940.442	1025.79
940.749	1014.95
941.056	1030.99
941.363	1013.36
941.67	1026.24
941.977	1001.84
942.284	1003.19
942.591	1008.62
942.898	1003.87
943.205	1009.97
943.511	1002.06
943.818	997.77
944.125	1000.71
944.431	990.09
944.738	982.4
945.044	966.58
945.35	986.47
945.657	979.24
945.963	990.99
946.269	980.82
946.575	964.1
946.881	982.18
947.187	985.57
947.493	959.35
947.799	978.56
948.105	953.48
948.41	955.51
948.716	936.3
949.022	973.36
949.327	955.51
949.633	942.18
949.938	945.57
950.244	937.66
950.549	940.82
950.854	948.96
951.16	925.46
951.465	908.06
951.77	920.48
952.075	920.26
952.38	913.03
952.685	915.29
952.99	892.91
953.294	910.54
953.599	901.05
953.904	909.19
954.209	905.57
954.513	894.95
954.818	882.29
955.122	875.74
955.426	863.99
955.731	908.06
956.035	852.01
956.339	894.5
956.643	858.56
956.948	872.58
957.252	875.06
957.556	861.73
957.86	877.32
958.163	859.47
958.467	864.67
958.771	875.74
959.075	842.52
959.378	835.06
959.682	859.47
959.985	834.61
960.289	813.37
960.592	841.62
960.896	850.2
961.199	850.43
961.502	838.23
961.805	843.42
962.108	840.03
962.411	814.05
962.714	810.2
963.017	845.46
963.32	821.96
963.623	813.37
963.926	815.4
964.228	845.23
964.531	815.63
964.833	802.52
965.136	808.85
965.438	811.56
965.741	816.53
966.043	805.23
966.345	820.83
966.648	804.33
966.95	798.68
967.252	790.77
967.554	814.72
967.856	810.43
968.158	810.66
968.46	771.11
968.761	774.27
969.063	759.58
969.365	783.54
969.666	786.02
969.968	767.72
970.269	762.97
970.571	769.98
970.872	763.65
971.174	790.09
971.475	754.61
971.776	784.89
972.077	741.73
972.378	737.66
972.679	741.73
972.98	749.19
973.281	756.19
973.582	749.19
973.883	767.72
974.183	734.5
974.484	738.12
974.785	754.84
975.085	728.85
975.386	735.4
975.686	737.66
975.986	731.56
976.287	734.05
976.587	711.9
976.887	734.73
977.187	726.14
977.487	712.81
977.787	727.27
978.087	731.34
978.387	701.96
978.687	700.15
978.987	694.95
979.286	711.22
979.586	703.09
979.885	695.18
980.185	721.62
980.484	720.49
980.784	713.26
981.083	708.06
981.382	728.4
981.682	696.31
981.981	678
982.28	680.72
982.579	697.89
982.878	663.09
983.177	690.21
983.475	675.74
983.774	677.78
984.073	657.21
984.372	691.34
984.67	655.63
984.969	688.4
985.267	686.59
985.566	675.52
985.864	672.36
986.162	665.58
986.461	651.11
986.759	671.23
987.057	647.95
987.355	678.91
987.653	652.24
987.951	652.47
988.249	658.34
988.547	638.91
988.844	671.45
989.142	661.06
989.44	649.98
989.737	649.98
990.035	638.23
990.332	647.5
990.63	630.1
990.927	633.94
991.224	647.72
991.521	631
991.819	650.21
992.116	645.92
992.413	653.37
992.71	635.75
993.006	619.25
993.303	616.76
993.6	638.23
993.897	607.72
994.193	622.41
994.49	611.57
994.787	636.2
995.083	630.32
995.379	608.85
995.676	594.39
995.972	605.46
996.268	625.35
996.565	587.84
996.861	628.06
997.157	608.85
997.453	600.04
997.749	583.77
998.044	599.36
998.34	580.38
998.636	573.15
998.932	594.17
999.227	585.8
999.523	595.75
999.818	561.85
1000.114	571.57
1000.409	586.93
1000.704	599.14
1001	579.48
1001.295	602.98
1001.59	545.35
1001.885	553.71
1002.18	567.05
1002.475	561.4
1002.77	559.82
1003.065	581.06
1003.359	554.17
1003.654	574.28
1003.949	568.63
1004.243	575.41
1004.538	527.05
1004.832	566.14
1005.127	548.97
1005.421	569.76
1005.715	559.59
1006.009	547.39
1006.304	531.79
1006.598	555.75
1006.892	535.41
1007.186	546.71
1007.48	547.16
1007.773	535.86
1008.067	538.8
1008.361	550.1
1008.655	545.35
1008.948	536.31
1009.242	525.92
1009.535	527.05
1009.829	531.12
1010.122	525.69
1010.415	523.66
1010.708	540.16
1011.001	529.53
1011.295	512.36
1011.588	529.53
1011.881	521.4
1012.173	515.52
1012.466	535.41
1012.759	503.09
1013.052	507.39
1013.344	496.54
1013.637	509.87
1013.93	508.07
1014.222	517.56
1014.514	518.69
1014.807	501.06
1015.099	512.59
1015.391	500.16
1015.683	521.85
1015.976	511.91
1016.268	510.1
1016.56	497.9
1016.851	490.67
1017.143	490.89
1017.435	520.04
1017.727	499.03
1018.018	505.58
1018.31	479.14
1018.602	504.9
1018.893	498.57
1019.185	495.18
1019.476	497.67
1019.767	481.85
1020.058	467.39
1020.35	490.21
1020.641	483.43
1020.932	476.65
1021.223	470.78
1021.514	477.33
1021.804	455.64
1022.095	471.46
1022.386	484.34
1022.677	475.07
1022.967	472.81
1023.258	454.73
1023.548	464.9
1023.839	484.11
1024.129	476.2
1024.419	478.46
1024.709	454.06
1025	451.12
1025.29	449.54
1025.58	458.58
1025.87	462.42
1026.16	455.64
1026.449	433.27
1026.739	423.77
1027.029	424.68
1027.319	462.64
1027.608	446.15
1027.898	456.32
1028.187	443.21
1028.477	437.33
1028.766	452.25
1029.055	461.51
1029.344	452.47
1029.634	458.12
1029.923	427.84
1030.212	436.2
1030.501	448.18
1030.79	429.42
1031.078	426.03
1031.367	444.11
1031.656	432.14
1031.945	434.4
1032.233	439.82
1032.522	429.65
1032.81	422.64
1033.099	434.62
1033.387	421.97
1033.675	438.92
1033.963	429.65
1034.251	405.02
1034.54	423.1
1034.828	422.42
1035.116	407.28
1035.403	431.01
1035.691	423.32
1035.979	423.1
1036.267	405.7
1036.554	406.37
1036.842	400.95
1037.129	398.46
1037.417	423.77
1037.704	428.52
1037.992	410.89
1038.279	408.41
1038.566	410.22
1038.853	410.22
1039.14	410.22
