Data from carpet_green_FLMS001491_00085.txt Node
Date: Wed Feb 08 10:35:58 GMT 2017
User: dcchb
Spectrometer: FLMS00149
Trigger mode: 0
Integration Time (sec): 2.000000E-2
Scans to average: 10
Electric dark correction enabled: true
Nonlinearity correction enabled: false
Boxcar width: 0
XAxis mode: Wavelengths
Number of Pixels in Spectrum: 2048
>>>>>Begin Spectral Data<<<<<
341.393	-18.38
341.776	-18.38
342.16	-18.38
342.543	-58.37
342.927	-62.44
343.31	-84.81
343.693	-71.03
344.077	-52.95
344.46	-57.92
344.843	-46.62
345.226	-32.84
345.61	-14.99
345.993	-14.76
346.376	-24.25
346.759	27.5
347.142	15.97
347.525	43.54
347.908	74.28
348.291	56.2
348.674	68.63
349.057	114.05
349.44	133.71
349.823	111.56
350.206	157.44
350.588	168.06
350.971	204.67
351.354	210.32
351.737	200.15
352.119	216.19
352.502	220.71
352.884	219.13
353.267	259.13
353.65	263.88
354.032	253.71
354.414	282.41
354.797	309.75
355.179	290.32
355.562	294.38
355.944	281.73
356.326	288.28
356.709	299.81
357.091	307.27
357.473	307.94
357.855	301.39
358.238	327.83
358.62	318.34
359.002	309.3
359.384	315.63
359.766	300.26
360.148	324.21
360.53	319.47
360.912	281.28
361.294	295.29
361.676	328.73
362.057	318.11
362.439	295.06
362.821	306.36
363.203	290.09
363.584	304.33
363.966	290.54
364.348	283.09
364.729	294.16
365.111	303.42
365.493	288.28
365.874	292.35
366.256	292.35
366.637	279.24
367.019	284.89
367.4	290.54
367.781	304.33
368.163	296.19
368.544	282.18
368.925	282.41
369.306	262.3
369.688	280.37
370.069	298.68
370.45	290.54
370.831	276.08
371.212	288.74
371.593	279.47
371.974	295.06
372.355	286.7
372.736	290.54
373.117	281.5
373.498	281.5
373.879	303.65
374.26	278.11
374.641	293.26
375.021	280.83
375.402	279.24
375.783	278.57
376.163	294.61
376.544	289.41
376.925	272.01
377.305	299.13
377.686	286.25
378.066	298
378.447	301.62
378.827	286.48
379.208	288.74
379.588	270.43
379.968	304.55
380.349	300.71
380.729	296.87
381.109	300.94
381.489	288.06
381.87	286.48
382.25	292.58
382.63	274.27
383.01	299.81
383.39	288.74
383.77	288.28
384.15	297.77
384.53	295.06
384.91	295.51
385.29	297.32
385.67	294.38
386.049	292.58
386.429	323.99
386.809	305.91
387.189	286.93
387.568	302.75
387.948	298
388.328	287.61
388.707	314.5
389.087	306.81
389.466	300.26
389.846	304.78
390.225	299.81
390.605	307.72
390.984	317.66
391.363	327.6
391.743	298.68
392.122	300.26
392.501	313.14
392.881	318.34
393.26	307.49
393.639	311.11
394.018	316.31
394.397	309.53
394.776	292.58
395.155	286.93
395.534	293.71
395.913	291.67
396.292	308.17
396.671	315.85
397.05	298
397.429	301.84
397.808	297.55
398.186	297.77
398.565	310.43
398.944	305.01
399.323	314.5
399.701	305.91
400.08	295.74
400.458	306.81
400.837	322.86
401.215	302.75
401.594	319.24
401.972	302.75
402.351	323.08
402.729	289.19
403.107	302.52
403.486	322.86
403.864	296.64
404.242	323.31
404.62	314.72
404.999	319.69
405.377	335.51
405.755	338.23
406.133	309.53
406.511	312.24
406.889	307.49
407.267	296.87
407.645	315.18
408.023	332.8
408.401	323.08
408.779	327.38
409.156	338.45
409.534	341.62
409.912	332.12
410.29	325.8
410.667	316.53
411.045	315.85
411.422	326.25
411.8	333.93
412.178	323.08
412.555	338.23
412.933	315.63
413.31	324.67
413.687	343.2
414.065	318.79
414.442	327.15
414.819	352.91
415.197	328.28
415.574	322.86
415.951	323.08
416.328	325.57
416.705	327.83
417.082	336.42
417.46	346.13
417.837	340.03
418.214	340.71
418.591	339.58
418.967	337.55
419.344	322.86
419.721	346.36
420.098	350.2
420.475	363.54
420.852	364.67
421.228	340.71
421.605	328.96
421.982	337.77
422.358	337.77
422.735	348.85
423.111	352.46
423.488	330.09
423.864	335.74
424.241	342.75
424.617	365.34
424.994	353.59
425.37	340.71
425.746	342.52
426.123	345.01
426.499	344.78
426.875	357.43
427.251	360.15
427.627	355.17
428.003	363.99
428.379	335.97
428.756	352.69
429.132	363.31
429.507	377.09
429.883	366.02
430.259	356.53
430.635	333.48
431.011	339.58
431.387	349.75
431.763	370.77
432.138	372.12
432.514	353.37
432.89	363.99
433.265	344.33
433.641	377.32
434.016	364.67
434.392	364.44
434.767	365.8
435.143	383.87
435.518	385.46
435.894	388.39
436.269	380.03
436.644	370.09
437.02	364.21
437.395	394.5
437.77	376.19
438.145	367.38
438.52	386.59
438.895	379.13
439.271	364.67
439.646	372.12
440.021	363.31
440.395	386.13
440.77	368.06
441.145	379.35
441.52	387.72
441.895	362.18
442.27	375.51
442.645	381.39
443.019	406.7
443.394	382.29
443.769	360.15
444.143	372.57
444.518	389.98
444.892	382.52
445.267	399.47
445.641	371.22
446.016	395.85
446.39	392.01
446.764	405.34
447.139	386.81
447.513	408.28
447.887	392.01
448.262	409.64
448.636	398.56
449.01	402.86
449.384	393.59
449.758	422.52
450.132	399.24
450.506	427.94
450.88	415.06
451.254	393.14
451.628	403.31
452.002	406.92
452.376	426.13
452.75	430.88
453.123	415.74
453.497	422.52
453.871	407.6
454.244	422.52
454.618	442.4
454.992	434.27
455.365	419.58
455.739	420.48
456.112	424.33
456.486	422.07
456.859	410.31
457.232	425
457.606	421.61
457.979	438.56
458.352	440.82
458.725	434.04
459.099	437.88
459.472	442.86
459.845	441.95
460.218	476.08
460.591	443.08
460.964	452.57
461.337	441.5
461.71	436.3
462.083	456.87
462.456	472.91
462.829	448.05
463.201	456.19
463.574	487.15
463.947	474.95
464.32	498.67
464.692	486.7
465.065	490.31
465.438	474.49
465.81	480.14
466.183	491.67
466.555	487.83
466.928	474.49
467.3	491.22
467.672	495.28
468.045	514.27
468.417	492.12
468.789	492.57
469.161	480.37
469.534	483.53
469.906	497.77
470.278	506.58
470.65	511.1
471.022	544.77
471.394	526.92
471.766	511.55
472.138	522.85
472.51	534.83
472.882	530.76
473.253	551.1
473.625	571.67
473.997	539.12
474.369	540.25
474.74	578.45
475.112	586.13
475.484	584.09
475.855	560.37
476.227	566.02
476.598	580.48
476.97	597.65
477.341	609.86
477.713	594.04
478.084	607.37
478.455	607.6
478.827	625.22
479.198	644.21
479.569	640.14
479.94	626.58
480.311	645.34
480.682	648.5
481.053	658.9
481.424	669.29
481.795	679.69
482.166	678.78
482.537	689.4
482.908	681.72
483.279	682.17
483.65	693.92
484.021	714.26
484.391	720.81
484.762	707.03
485.133	732.11
485.503	734.6
485.874	734.6
486.244	771.89
486.615	755.84
486.985	745.9
487.356	781.83
487.726	754.94
488.097	785.22
488.467	766.01
488.837	779.12
489.207	799.91
489.578	785.67
489.948	810.98
490.318	831.32
490.688	828.83
491.058	820.7
491.428	868.16
491.798	855.73
492.168	850.3
492.538	859.57
492.908	872
493.278	873.58
493.648	876.74
494.017	898.21
494.387	885.1
494.757	900.47
495.126	874.71
495.496	909.96
495.866	913.58
496.235	935.27
496.605	924.88
496.974	911.09
497.344	926.91
497.713	940.47
498.082	938.66
498.452	950.86
498.821	939.57
499.19	939.57
499.559	965.33
499.928	986.57
500.298	961.71
500.667	969.62
501.036	969.17
501.405	975.27
501.774	961.94
502.143	1007.59
502.512	987.02
502.88	987.02
503.249	999
503.618	985.44
503.987	1006.68
504.356	998.55
504.724	1018.89
505.093	981.15
505.462	1037.19
505.83	1034.48
506.199	1022.05
506.567	1021.15
506.936	1022.95
507.304	1017.53
507.672	1033.35
508.041	1068.15
508.409	1041.03
508.777	1049.85
509.145	1055.72
509.514	1065.89
509.882	1066.79
510.25	1082.16
510.618	1084.42
510.986	1089.62
511.354	1080.35
511.722	1099.11
512.09	1095.04
512.458	1097.53
512.826	1102.5
513.193	1113.57
513.561	1081.48
513.929	1124.87
514.297	1105.89
514.664	1113.57
515.032	1117.19
515.4	1115.61
515.767	1132.78
516.135	1135.49
516.502	1131.88
516.869	1157.87
517.237	1151.54
517.604	1135.94
517.972	1144.76
518.339	1171.88
518.706	1161.25
519.073	1168.26
519.44	1159.9
519.808	1154.7
520.175	1191.54
520.542	1197.41
520.909	1188.15
521.276	1188.82
521.643	1220.69
522.009	1207.13
522.376	1189.28
522.743	1188.37
523.11	1212.33
523.477	1221.59
523.843	1239.22
524.21	1223.85
524.577	1247.13
524.943	1232.44
525.31	1244.19
525.676	1216.85
526.043	1243.51
526.409	1258.43
526.776	1243.51
527.142	1242.16
527.508	1271.76
527.874	1278.54
528.241	1266.34
528.607	1276.96
528.973	1289.16
529.339	1303.17
529.705	1269.05
530.071	1285.55
530.437	1274.7
530.803	1274.47
531.169	1330.97
531.535	1293.45
531.901	1307.01
532.267	1301.59
532.632	1299.78
532.998	1298.2
533.364	1304.98
533.73	1323.96
534.095	1319.22
534.461	1326
534.826	1324.41
535.192	1309.95
535.557	1315.15
535.923	1330.52
536.288	1309.73
536.653	1332.32
537.019	1314.25
537.384	1329.16
537.749	1344.53
538.114	1336.62
538.479	1358.31
538.845	1330.74
539.21	1315.6
539.575	1339.56
539.94	1346.11
540.305	1340.69
540.67	1350.18
541.034	1336.84
541.399	1331.87
541.764	1344.53
542.129	1327.8
542.494	1324.64
542.858	1343.85
543.223	1351.76
543.587	1343.4
543.952	1333.23
544.316	1334.58
544.681	1362.83
545.045	1341.14
545.41	1355.15
545.774	1327.13
546.138	1336.84
546.503	1335.49
546.867	1345.88
547.231	1340.91
547.595	1357.63
547.959	1359.22
548.324	1376.16
548.688	1363.96
549.052	1358.99
549.416	1361.7
549.779	1378.88
550.143	1341.59
550.507	1363.28
550.871	1367.58
551.235	1356.96
551.599	1381.14
551.962	1384.75
552.326	1384.07
552.689	1362.38
553.053	1362.61
553.417	1382.04
553.78	1377.75
554.143	1382.04
554.507	1379.33
554.87	1375.71
555.234	1378.65
555.597	1377.29
555.96	1401.02
556.323	1403.51
556.686	1375.49
557.05	1370.74
557.413	1386.79
557.776	1440.12
558.139	1420.01
558.502	1382.04
558.865	1425.65
559.228	1415.26
559.59	1428.14
559.953	1420.68
560.316	1423.85
560.679	1421.36
561.041	1437.41
561.404	1408.25
561.767	1449.16
562.129	1411.19
562.492	1428.37
562.854	1420.01
563.217	1469.27
563.579	1442.6
563.941	1440.12
564.304	1464.52
564.666	1448.7
565.028	1465.88
565.39	1436.95
565.753	1458.65
566.115	1462.72
566.477	1463.39
566.839	1451.87
567.201	1462.94
567.563	1478.53
567.925	1480.34
568.287	1486.67
568.648	1490.74
569.01	1496.16
569.372	1463.85
569.734	1490.96
570.095	1496.61
570.457	1488.25
570.819	1502.71
571.18	1492.77
571.542	1487.8
571.903	1469.72
572.265	1473.79
572.626	1495.48
572.987	1478.08
573.349	1482.15
573.71	1474.92
574.071	1508.36
574.432	1511.75
574.794	1478.08
575.155	1495.94
575.516	1474.69
575.877	1492.09
576.238	1501.36
576.599	1476.73
576.96	1528.25
577.32	1504.97
577.681	1519.44
578.042	1476.73
578.403	1459.1
578.763	1502.04
579.124	1467.01
579.485	1483.05
579.845	1480.34
580.206	1499.78
580.566	1501.58
580.927	1508.59
581.287	1495.48
581.648	1470.17
582.008	1469.04
582.368	1475.6
582.728	1462.72
583.089	1439.44
583.449	1463.17
583.809	1449.16
584.169	1460.91
584.529	1447.57
584.889	1482.6
585.249	1450.96
585.609	1443.06
585.969	1476.27
586.329	1448.03
586.688	1440.34
587.048	1426.78
587.408	1425.2
587.768	1458.2
588.127	1442.6
588.487	1466.78
588.846	1464.75
589.206	1466.56
589.565	1415.49
589.925	1417.75
590.284	1453.22
590.643	1413.68
591.003	1449.83
591.362	1449.83
591.721	1423.39
592.08	1437.63
592.44	1428.14
592.799	1434.24
593.158	1431.53
593.517	1426.56
593.876	1403.96
594.235	1421.81
594.593	1436.5
594.952	1439.44
595.311	1436.28
595.67	1405.54
596.029	1428.37
596.387	1415.26
596.746	1413.23
597.104	1417.07
597.463	1409.61
597.822	1404.41
598.18	1426.78
598.538	1422.49
598.897	1422.04
599.255	1413.23
599.613	1407.35
599.972	1420.68
600.33	1435.15
600.688	1437.41
601.046	1422.26
601.404	1420.91
601.762	1430.63
602.12	1448.48
602.478	1454.13
602.836	1445.32
603.194	1436.5
603.552	1437.18
603.91	1438.08
604.268	1429.95
604.625	1455.48
604.983	1419.33
605.341	1445.77
605.698	1452.09
606.056	1480.57
606.413	1445.32
606.771	1429.72
607.128	1461.36
607.485	1431.76
607.843	1440.12
608.2	1475.14
608.557	1451.64
608.914	1468.37
609.272	1452.09
609.629	1486.67
609.986	1457.29
610.343	1447.57
610.7	1457.97
611.057	1466.11
611.414	1472.43
611.771	1483.51
612.127	1484.64
612.484	1484.18
612.841	1485.99
613.198	1478.08
613.554	1469.72
613.911	1493.68
614.267	1480.79
614.624	1466.11
614.98	1471.53
615.337	1483.51
615.693	1492.55
616.05	1490.96
616.406	1497.52
616.762	1490.06
617.118	1486.67
617.475	1490.06
617.831	1515.37
618.187	1493.9
618.543	1472.43
618.899	1480.57
619.255	1499.32
619.611	1515.82
619.967	1484.86
620.323	1510.17
620.678	1472.89
621.034	1486.9
621.39	1469.95
621.746	1482.15
622.101	1473.56
622.457	1518.76
622.812	1483.05
623.168	1509.27
623.523	1492.32
623.879	1520.12
624.234	1486.67
624.589	1482.83
624.945	1491.42
625.3	1501.81
625.655	1488.03
626.01	1474.92
626.365	1469.5
626.72	1502.04
627.075	1465.43
627.43	1470.85
627.785	1492.32
628.14	1491.64
628.495	1475.37
628.85	1499.1
629.205	1509.27
629.559	1493.22
629.914	1482.38
630.269	1460.46
630.623	1507.46
630.978	1480.79
631.332	1463.39
631.687	1487.12
632.041	1499.78
632.396	1472.21
632.75	1505.43
633.104	1463.85
633.459	1470.17
633.813	1481.47
634.167	1478.31
634.521	1485.77
634.875	1475.82
635.229	1475.37
635.583	1503.17
635.937	1483.51
636.291	1447.8
636.645	1460.46
636.999	1448.7
637.352	1448.93
637.706	1456.84
638.06	1474.47
638.413	1470.63
638.767	1478.31
639.121	1471.53
639.474	1494.35
639.828	1459.55
640.181	1490.51
640.534	1505.88
640.888	1455.71
641.241	1483.28
641.594	1476.73
641.947	1463.17
642.301	1442.15
642.654	1466.11
643.007	1486.44
643.36	1467.46
643.713	1449.16
644.066	1480.34
644.419	1467.91
644.771	1459.1
645.124	1467.46
645.477	1437.86
645.83	1425.2
646.182	1449.61
646.535	1453
646.888	1452.09
647.24	1467.46
647.593	1471.98
647.945	1434.24
648.298	1479.21
648.65	1462.49
649.002	1483.96
649.355	1487.35
649.707	1448.93
650.059	1468.59
650.411	1479.21
650.763	1486.9
651.115	1515.6
651.467	1518.08
651.819	1499.1
652.171	1535.48
652.523	1550.4
652.875	1502.26
653.227	1527.57
653.578	1557.18
653.93	1517.63
654.282	1534.8
654.633	1543.84
654.985	1555.14
655.337	1579.32
655.688	1556.95
656.039	1587.91
656.391	1554.01
656.742	1595.14
657.094	1610.51
657.445	1575.71
657.796	1600.57
658.147	1599.21
658.498	1580.23
658.849	1598.76
659.2	1594.69
659.551	1624.52
659.902	1634.91
660.253	1631.98
660.604	1671.98
660.955	1648.25
661.306	1636.27
661.656	1664.29
662.007	1654.35
662.358	1692.99
662.708	1682.37
663.059	1675.37
663.409	1693.22
663.76	1739.09
664.11	1741.58
664.461	1744.06
664.811	1717.17
665.161	1763.27
665.511	1754.69
665.862	1761.46
666.212	1773.67
666.562	1763.72
666.912	1821.12
667.262	1803.5
667.612	1798.98
667.962	1817.73
668.312	1816.6
668.662	1839.43
669.011	1849.82
669.361	1868.58
669.711	1863.38
670.06	1871.07
670.41	1917.85
670.76	1895.02
671.109	1913.55
671.459	1921.23
671.808	1946.54
672.157	1946.09
672.507	1963.27
672.856	1968.92
673.205	2006.66
673.554	2019.54
673.904	2008.69
674.253	2028.12
674.602	2024.06
674.951	2025.41
675.3	2052.98
675.649	2077.61
675.998	2086.43
676.346	2111.51
676.695	2125.75
677.044	2141.57
677.393	2149.7
677.741	2152.87
678.09	2178.63
678.438	2181.34
678.787	2211.62
679.135	2246.65
679.484	2234.67
679.832	2273.99
680.181	2264.95
680.529	2295.46
680.877	2289.36
681.225	2318.51
681.573	2349.02
681.922	2324.84
682.27	2342.69
682.618	2350.83
682.966	2362.13
683.314	2395.8
683.661	2423.14
684.009	2378.62
684.357	2462.24
684.705	2450.71
685.053	2453.2
685.4	2487.77
685.748	2483.25
686.095	2518.06
686.443	2551.05
686.79	2525.96
687.138	2529.35
687.485	2572.29
687.832	2555.79
688.18	2623.14
688.527	2565.06
688.874	2637.6
689.221	2645.28
689.568	2658.84
689.915	2676.02
690.262	2716.47
690.609	2715.79
690.956	2724.38
691.303	2702.46
691.65	2742
691.997	2767.99
692.344	2758.5
692.69	2800.53
693.037	2815.22
693.383	2785.17
693.73	2853.19
694.077	2826.3
694.423	2915.11
694.769	2892.28
695.116	2919.85
695.462	2947.42
695.808	2908.78
696.155	2936.12
696.501	2970.92
696.847	2965.95
697.193	2939.06
697.539	3039.62
697.885	2975.67
698.231	3005.27
698.577	3031.49
698.923	3055.89
699.269	3061.32
699.614	3080.07
699.96	3142.67
700.306	3120.75
700.651	3154.2
700.997	3151.71
701.342	3139.28
701.688	3197.13
702.033	3188.09
702.379	3211.14
702.724	3254.76
703.069	3250.47
703.415	3246.4
703.76	3235.78
704.105	3268.32
704.45	3319.62
704.795	3323.23
705.14	3275.55
705.485	3349.45
705.83	3339.5
706.175	3337.47
706.52	3376.56
706.865	3416.56
707.209	3393.29
707.554	3419.27
707.899	3441.19
708.243	3387.18
708.588	3484.81
708.932	3421.53
709.277	3435.55
709.621	3487.75
709.966	3461.76
710.31	3465.6
710.654	3492.94
710.998	3485.71
711.342	3539.5
711.687	3546.05
712.031	3557.58
712.375	3539.72
712.719	3565.71
713.063	3583.34
713.407	3566.16
713.75	3624.92
714.094	3596.9
714.438	3609.78
714.782	3642.77
715.125	3641.87
715.469	3650.45
715.812	3617.46
716.156	3622.66
716.499	3669.44
716.843	3672.83
717.186	3678.93
717.53	3657.91
717.873	3716.89
718.216	3747.18
718.559	3705.82
718.902	3714.63
719.246	3688.87
719.589	3709.89
719.932	3769.32
720.275	3771.58
720.617	3757.8
720.96	3744.46
721.303	3762.32
721.646	3797.57
721.989	3792.82
722.331	3761.19
722.674	3795.08
723.016	3805.25
723.359	3825.59
723.701	3848.42
724.044	3835.53
724.386	3810.9
724.729	3827.17
725.071	3842.99
725.413	3863.33
725.755	3897.45
726.097	3849.09
726.439	3826.5
726.782	3865.36
727.124	3867.17
727.465	3848.19
727.807	3859.04
728.149	3843.22
728.491	3842.77
728.833	3882.31
729.175	3866.72
729.516	3857.68
729.858	3910.79
730.199	3892.26
730.541	3917.11
730.882	3900.39
731.224	3927.28
731.565	3892.48
731.906	3877.34
732.248	3937.23
732.589	3882.31
732.93	3857.23
733.271	3918.02
733.612	3911.24
733.953	3915.31
734.294	3932.26
734.635	3900.17
734.976	3905.59
735.317	3901.07
735.658	3954.85
735.999	3941.75
736.339	3868.3
736.68	3905.14
737.021	3923.22
737.361	3887.96
737.702	3925.7
738.042	3891.8
738.383	3897.91
738.723	3932.48
739.063	3907.17
739.404	3897.45
739.744	3921.86
740.084	3899.49
740.424	3916.21
740.764	3912.14
741.104	3881.18
741.444	3922.09
741.784	3908.08
742.124	3904.46
742.464	3913.05
742.804	3915.08
743.143	3906.49
743.483	3886.61
743.823	3905.36
744.162	3897.45
744.502	3904.69
744.841	3892.26
745.181	3877.79
745.52	3886.38
745.86	3911.01
746.199	3901.07
746.538	3868.53
746.877	3891.58
747.216	3866.95
747.556	3851.35
747.895	3837.12
748.234	3908.53
748.573	3867.85
748.911	3868.98
749.25	3812.48
749.589	3834.4
749.928	3844.12
750.267	3845.25
750.605	3867.85
750.944	3866.04
751.283	3795.54
751.621	3823.78
751.96	3843.22
752.298	3822.43
752.636	3837.12
752.975	3758.47
753.313	3787.85
753.651	3789.21
753.989	3764.35
754.327	3786.27
754.666	3736.78
755.004	3757.8
755.342	3745.82
755.679	3764.12
756.017	3732.71
756.355	3757.57
756.693	3713.28
757.031	3769.1
757.368	3732.49
757.706	3751.7
758.044	3734.29
758.381	3673.05
758.719	3676.44
759.056	3697.91
759.394	3677.12
759.731	3609.78
760.068	3647.74
760.405	3662.66
760.743	3602.09
761.08	3644.35
761.417	3590.12
761.754	3617.01
762.091	3591.93
762.428	3597.12
762.765	3570.46
763.102	3659.49
763.438	3586.73
763.775	3567.07
764.112	3554.64
764.449	3550.57
764.785	3537.01
765.122	3513.28
765.458	3516.9
765.795	3499.95
766.131	3495.43
766.467	3467.86
766.804	3520.51
767.14	3496.33
767.476	3420.18
767.812	3464.02
768.148	3478.03
768.485	3476.45
768.821	3380.63
769.157	3409.33
769.492	3401.65
769.828	3403.68
770.164	3407.98
770.5	3377.47
770.836	3383.57
771.171	3394.19
771.507	3343.8
771.842	3366.39
772.178	3358.03
772.513	3337.24
772.849	3321.42
773.184	3341.08
773.519	3310.12
773.855	3316.9
774.19	3287.07
774.525	3246.62
774.86	3225.61
775.195	3273.29
775.53	3249.56
775.865	3250.47
776.2	3207.98
776.535	3226.29
776.87	3204.36
777.205	3176.57
777.539	3187.87
777.874	3193.52
778.209	3134.31
778.543	3174.99
778.878	3138.38
779.212	3152.16
779.547	3139.51
779.881	3126.63
780.215	3111.26
780.55	3125.72
780.884	3078.94
781.218	3126.85
781.552	3093.63
781.886	3068.32
782.22	3061.77
782.554	3015.9
782.888	3006.4
783.222	2999.85
783.556	2964.82
783.889	3006.86
784.223	2972.28
784.557	3026.74
784.89	2957.82
785.224	2954.65
785.557	2962.11
785.891	2933.64
786.224	2941.55
786.558	2936.35
786.891	2912.85
787.224	2920.3
787.557	2888.44
787.891	2883.47
788.224	2897.48
788.557	2899.29
788.89	2878.72
789.223	2892.06
789.556	2837.14
789.888	2838.5
790.221	2852.96
790.554	2819.06
790.887	2860.65
791.219	2819.06
791.552	2805.51
791.884	2799.63
792.217	2761.44
792.549	2765.73
792.882	2754.43
793.214	2751.04
793.546	2777.94
793.879	2709.24
794.211	2707.43
794.543	2724.6
794.875	2718.73
795.207	2729.58
795.539	2696.81
795.871	2712.4
796.203	2687.77
796.535	2655
796.867	2676.47
797.198	2692.06
797.53	2666.07
797.862	2627.43
798.193	2653.64
798.525	2599.86
798.856	2664.94
799.188	2617.94
799.519	2606.41
799.85	2568.68
800.182	2610.26
800.513	2597.15
800.844	2581.78
801.175	2565.06
801.506	2558.96
801.837	2597.6
802.168	2548.79
802.499	2547.43
802.83	2518.73
803.161	2520.77
803.491	2516.02
803.822	2527.32
804.153	2495.23
804.483	2491.62
804.814	2488
805.145	2515.12
805.475	2516.7
805.805	2475.8
806.136	2510.37
806.466	2498.62
806.796	2486.64
807.126	2451.62
807.457	2471.5
807.787	2491.62
808.117	2457.04
808.447	2464.72
808.777	2447.32
809.107	2415.01
809.436	2440.77
809.766	2415.23
810.096	2414.33
810.426	2418.62
810.755	2425.63
811.085	2451.62
811.414	2412.52
811.744	2393.31
812.073	2388.79
812.403	2401.45
812.732	2374.1
813.061	2346.31
813.39	2370.94
813.719	2347.21
814.049	2362.58
814.378	2350.83
814.707	2370.26
815.036	2361.68
815.365	2306.08
815.693	2296.14
816.022	2347.66
816.351	2333.65
816.68	2319.64
817.008	2320.55
817.337	2288.68
817.665	2310.15
817.994	2262.69
818.322	2298.17
818.651	2289.13
818.979	2261.11
819.307	2327.33
819.636	2271.06
819.964	2260.66
820.292	2281.23
820.62	2287.33
820.948	2276.03
821.276	2278.97
821.604	2282.36
821.932	2255.92
822.259	2268.12
822.587	2255.92
822.915	2261.79
823.243	2282.58
823.57	2272.64
823.898	2250.94
824.225	2250.94
824.553	2252.53
824.88	2223.83
825.207	2271.73
825.535	2260.43
825.862	2241.68
826.189	2245.29
826.516	2254.33
826.843	2225.63
827.17	2220.21
827.497	2272.19
827.824	2255.92
828.151	2207.55
828.478	2242.36
828.805	2260.43
829.131	2265.18
829.458	2214.79
829.785	2264.73
830.111	2248.23
830.438	2261.79
830.764	2285.29
831.09	2262.24
831.417	2245.97
831.743	2257.95
832.069	2263.6
832.395	2258.18
832.722	2235.8
833.048	2225.86
833.374	2236.71
833.7	2202.81
834.026	2255.69
834.351	2226.76
834.677	2214.11
835.003	2183.15
835.329	2207.1
835.654	2234.22
835.98	2208.01
836.306	2219.08
836.631	2205.75
836.956	2213.66
837.282	2248.01
837.607	2212.07
837.932	2215.92
838.258	2212.07
838.583	2209.81
838.908	2196.48
839.233	2181.34
839.558	2198.97
839.883	2165.07
840.208	2193.32
840.533	2159.87
840.858	2163.71
841.182	2179.99
841.507	2203.49
841.832	2156.03
842.156	2152.19
842.481	2162.13
842.805	2157.61
843.13	2116.71
843.454	2163.49
843.778	2139.31
844.103	2136.82
844.427	2134.34
844.751	2141.57
845.075	2123.94
845.399	2094.79
845.723	2098.18
846.047	2101.34
846.371	2105.41
846.695	2095.92
847.019	2036.94
847.343	2106.09
847.666	2045.98
847.99	2047.11
848.313	2078.97
848.637	2083.94
848.96	2044.85
849.284	2036.03
849.607	2027.45
849.931	2000.33
850.254	1993.1
850.577	2017.73
850.9	2009.37
851.223	1956.04
851.546	1953.32
851.869	1976.15
852.192	1992.19
852.515	1965.98
852.838	2005.07
853.161	1942.25
853.483	1919.88
853.806	1946.32
854.129	1958.75
854.451	1934.79
854.774	1915.81
855.096	1930.73
855.419	1919.65
855.741	1920.1
856.063	1935.47
856.385	1913.78
856.708	1923.27
857.03	1900.9
857.352	1862.25
857.674	1898.64
857.996	1891.63
858.318	1860.45
858.64	1861.12
858.961	1870.61
859.283	1864.97
859.605	1830.62
859.926	1845.53
860.248	1845.3
860.57	1857.73
860.891	1882.59
861.212	1824.06
861.534	1840.56
861.855	1865.19
862.176	1862.71
862.498	1839.88
862.819	1835.81
863.14	1836.72
863.461	1853.21
863.782	1833.33
864.103	1819.54
864.424	1822.48
864.745	1820.45
865.065	1799.2
865.386	1820.67
865.707	1831.07
866.027	1834.91
866.348	1804.4
866.668	1827.68
866.989	1799.2
867.309	1763.5
867.63	1789.03
867.95	1786.78
868.27	1774.12
868.59	1825.19
868.91	1800.56
869.23	1787
869.55	1765.31
869.87	1776.38
870.19	1752.65
870.51	1731.41
870.83	1738.64
871.15	1769.15
871.469	1756.04
871.789	1791.52
872.109	1761.01
872.428	1754.23
872.748	1740.45
873.067	1740.67
873.386	1758.75
873.706	1752.2
874.025	1727.12
874.344	1722.37
874.663	1740.9
874.982	1750.39
875.301	1748.58
875.62	1701.81
875.939	1711.07
876.258	1724.18
876.577	1732.77
876.896	1727.79
877.214	1746.55
877.533	1704.97
877.852	1713.33
878.17	1743.16
878.489	1719.21
878.807	1724.4
879.125	1722.6
879.444	1681.47
879.762	1699.55
880.08	1721.24
880.398	1714.46
880.716	1704.97
881.034	1702.71
881.352	1681.24
881.67	1692.31
881.988	1716.04
882.306	1666.55
882.624	1676.72
882.941	1642.6
883.259	1665.2
883.577	1648.7
883.894	1688.25
884.212	1654.58
884.529	1681.69
884.846	1668.81
885.164	1683.05
885.481	1675.82
885.798	1676.27
886.115	1627.91
886.432	1631.98
886.75	1642.15
887.067	1650.73
887.383	1615.48
887.7	1638.98
888.017	1638.08
888.334	1638.3
888.651	1625.42
888.967	1628.81
889.284	1619.77
889.6	1605.31
889.917	1586.78
890.233	1608.7
890.55	1592.88
890.866	1567.57
891.182	1593.56
891.498	1578.42
891.815	1610.96
892.131	1544.07
892.447	1571.64
892.763	1616.16
893.079	1552.2
893.395	1567.57
893.71	1546.1
894.026	1557.85
894.342	1566.44
894.657	1554.01
894.973	1520.57
895.289	1563.28
895.604	1541.81
895.92	1537.52
896.235	1548.59
896.55	1540.68
896.865	1519.66
897.181	1520.79
897.496	1513.56
897.811	1521.25
898.126	1504.97
898.441	1483.05
898.756	1495.26
899.071	1496.39
899.386	1506.1
899.7	1448.03
900.015	1505.65
900.33	1484.41
900.644	1456.39
900.959	1459.78
901.273	1450.29
901.588	1471.98
901.902	1483.28
902.216	1460
902.531	1464.98
902.845	1450.29
903.159	1450.29
903.473	1418.65
903.787	1425.43
904.101	1413.68
904.415	1441.02
904.729	1416.84
905.042	1407.12
905.356	1416.84
905.67	1401.02
905.984	1384.53
906.297	1409.84
906.611	1389.72
906.924	1387.92
907.237	1388.14
907.551	1379.33
907.864	1366.22
908.177	1372.1
908.491	1391.98
908.804	1387.24
909.117	1346.33
909.43	1359.44
909.743	1360.12
910.056	1345.43
910.368	1340.46
910.681	1356.05
910.994	1323.51
911.307	1337.75
911.619	1313.57
911.932	1322.38
912.244	1304.75
912.557	1334.81
912.869	1305.43
913.181	1323.74
913.494	1291.42
913.806	1291.19
914.118	1302.72
914.43	1280.12
914.742	1278.77
915.054	1274.92
915.366	1268.82
915.678	1256.85
915.99	1271.99
916.302	1247.58
916.613	1256.62
916.925	1242.61
917.236	1264.75
917.548	1242.61
917.859	1252.33
918.171	1237.18
918.482	1238.54
918.794	1220.24
919.105	1220.46
919.416	1240.35
919.727	1208.94
920.038	1188.82
920.349	1210.07
920.66	1217.52
920.971	1208.49
921.282	1213.68
921.593	1191.76
921.903	1205.77
922.214	1197.41
922.525	1207.13
922.835	1175.04
923.146	1180.69
923.456	1176.85
923.767	1170.29
924.077	1179.79
924.387	1154.48
924.697	1177.3
925.008	1126.45
925.318	1160.35
925.628	1145.89
925.938	1157.19
926.248	1132.33
926.558	1141.37
926.867	1146.34
927.177	1131.43
927.487	1128.26
927.796	1147.02
928.106	1135.04
928.416	1107.92
928.725	1101.14
929.034	1131.43
929.344	1107.47
929.653	1118.77
929.962	1090.75
930.271	1089.39
930.581	1107.7
930.89	1072.67
931.199	1077.87
931.508	1109.05
931.817	1074.48
932.125	1075.83
932.434	1075.61
932.743	1064.53
933.051	1078.09
933.36	1064.53
933.669	1056.4
933.977	1065.89
934.286	1073.12
934.594	1031.31
934.902	1067.7
935.21	1037.87
935.519	1060.24
935.827	1042.39
936.135	1053.24
936.443	1020.69
936.751	1010.75
937.059	1011.65
937.367	1032.22
937.674	1006.68
937.982	1009.62
938.29	999.9
938.597	1000.81
938.905	985.21
939.213	980.92
939.52	975.95
939.827	1008.94
940.135	1018.21
940.442	989.51
940.749	995.84
941.056	1012.11
941.363	996.97
941.67	971.43
941.977	956.51
942.284	969.62
942.591	972.79
942.898	943.41
943.205	959.9
943.511	947.93
943.818	980.02
944.125	940.47
944.431	937.53
944.738	944.54
945.044	919.68
945.35	964.2
945.657	951.54
945.963	926.68
946.269	937.53
946.575	930.07
946.881	925.1
947.187	918.55
947.493	917.65
947.799	921.04
948.105	944.09
948.41	947.02
948.716	912.67
949.022	902.5
949.327	900.92
949.633	931.2
949.938	922.39
950.244	880.13
950.549	896.4
950.854	914.93
951.16	910.87
951.465	853.24
951.77	876.52
952.075	879.68
952.38	893.47
952.685	884.88
952.99	898.21
953.294	875.84
953.599	856.86
953.904	889.17
954.209	879.45
954.513	858.44
954.818	860.02
955.122	857.08
955.426	841.49
955.731	873.35
956.035	864.77
956.339	843.97
956.643	803.75
956.948	853.47
957.252	843.07
957.556	832.9
957.86	841.26
958.163	837.87
958.467	790.19
958.771	830.87
959.075	845.78
959.378	832.9
959.682	829.06
959.985	843.52
960.289	832.68
960.592	804.65
960.896	801.49
961.199	810.3
961.502	815.28
961.805	805.78
962.108	809.4
962.411	796.74
962.714	822.28
963.017	814.82
963.32	782.51
963.623	810.53
963.926	791.55
964.228	759.68
964.531	799.23
964.833	815.73
965.136	805.78
965.438	780.25
965.741	775.5
966.043	769.63
966.345	759.01
966.648	782.96
966.95	754.26
967.252	794.26
967.554	751.32
967.856	738.89
968.158	767.37
968.46	756.97
968.761	749.51
969.063	747.71
969.365	767.82
969.666	748.61
969.968	770.08
970.269	753.58
970.571	756.07
970.872	774.6
971.174	716.52
971.475	726.24
971.776	732.79
972.077	750.87
972.378	727.37
972.679	742.28
972.98	752.23
973.281	726.24
973.582	714.71
973.883	704.32
974.183	714.26
974.484	699.35
974.785	716.75
975.085	710.87
975.386	692.34
975.686	707.71
975.986	731.89
976.287	699.35
976.587	706.35
976.887	697.31
977.187	688.27
977.487	693.02
977.787	680.82
978.087	667.71
978.387	714.03
978.687	711.55
978.987	683.75
979.286	680.82
979.586	683.08
979.885	681.04
980.185	674.04
980.484	688.05
980.784	685.56
981.083	662.28
981.382	677.43
981.682	665.22
981.981	651.21
982.28	684.43
982.579	688.72
982.878	677.88
983.177	646.01
983.475	661.15
983.774	660.25
984.073	650.31
984.372	661.61
984.67	660.25
984.969	640.82
985.267	655.05
985.566	638.56
985.864	640.82
986.162	631.1
986.461	650.08
986.759	661.83
987.057	656.41
987.355	647.37
987.653	638.78
987.951	651.66
988.249	642.4
988.547	632.68
988.844	626.35
989.142	621.61
989.44	630.2
989.737	635.62
990.035	624.77
990.332	636.07
990.63	609.63
990.927	627.03
991.224	631.1
991.521	621.16
991.819	624.09
992.116	610.76
992.413	609.86
992.71	612.12
993.006	633.13
993.303	609.63
993.6	602.17
993.897	617.99
994.193	600.82
994.49	593.81
994.787	584.09
995.083	599.24
995.379	601.72
995.676	587.26
995.972	600.14
996.268	571.21
996.565	563.3
996.861	584.55
997.157	587.94
997.453	587.71
997.749	575.96
998.044	570.76
998.34	599.24
998.636	587.71
998.932	570.54
999.227	559.01
999.523	584.77
999.818	576.64
1000.114	573.25
1000.409	565.34
1000.704	549.52
1001	552.23
1001.295	571.89
1001.59	581.16
1001.885	562.63
1002.18	535.28
1002.475	548.84
1002.77	561.72
1003.065	551.1
1003.359	563.98
1003.654	565.11
1003.949	560.59
1004.243	557.88
1004.538	547.03
1004.832	540.93
1005.127	537.99
1005.421	540.03
1005.715	556.07
1006.009	540.93
1006.304	544.1
1006.598	537.32
1006.892	536.64
1007.186	522.18
1007.48	533.7
1007.773	502.06
1008.067	544.32
1008.361	532.12
1008.655	539.8
1008.948	508.84
1009.242	527.6
1009.535	524.89
1009.829	530.08
1010.122	537.32
1010.415	524.44
1010.708	505.68
1011.001	521.72
1011.295	531.44
1011.588	539.35
1011.881	522.4
1012.173	521.05
1012.466	503.42
1012.759	497.77
1013.052	502.97
1013.344	480.82
1013.637	497.54
1013.93	478.33
1014.222	500.26
1014.514	526.7
1014.807	499.35
1015.099	515.62
1015.391	516.98
1015.683	493.25
1015.976	490.54
1016.268	512.23
1016.56	499.35
1016.851	497.77
1017.143	494.15
1017.435	478.56
1017.727	470.43
1018.018	483.08
1018.31	453.25
1018.602	479.69
1018.893	480.37
1019.185	505.23
1019.476	481.5
1019.767	455.28
1020.058	476.75
1020.35	473.59
1020.641	466.13
1020.932	459.58
1021.223	483.08
1021.514	478.33
1021.804	479.01
1022.095	457.32
1022.386	456.87
1022.677	449.64
1022.967	470.88
1023.258	470.2
1023.548	453.93
1023.839	447.6
1024.129	461.84
1024.419	442.86
1024.709	448.96
1025	468.62
1025.29	457.09
1025.58	442.18
1025.87	455.28
1026.16	437.88
1026.449	446.25
1026.739	465
1027.029	448.51
1027.319	458.45
1027.608	428.17
1027.898	441.73
1028.187	474.27
1028.477	429.52
1028.766	441.05
1029.055	434.49
1029.344	432.23
1029.634	436.53
1029.923	422.52
1030.212	435.62
1030.501	416.64
1030.79	424.33
1031.078	434.49
1031.367	437.66
1031.656	415.74
1031.945	419.13
1032.233	430.2
1032.522	417.09
1032.81	411.44
1033.099	420.71
1033.387	405.79
1033.675	409.18
1033.963	408.05
1034.251	425.91
1034.54	423.2
1034.828	391.11
1035.116	427.94
1035.403	412.8
1035.691	406.92
1035.979	416.87
1036.267	415.29
1036.554	427.49
1036.842	409.64
1037.129	400.6
1037.417	387.26
1037.704	392.69
1037.992	394.72
1038.279	411.44
1038.566	416.64
1038.853	416.64
1039.14	416.64
