Data from carpet_green_FLMS001491_00070.txt Node
Date: Wed Feb 08 10:35:43 GMT 2017
User: dcchb
Spectrometer: FLMS00149
Trigger mode: 0
Integration Time (sec): 2.000000E-2
Scans to average: 10
Electric dark correction enabled: true
Nonlinearity correction enabled: false
Boxcar width: 0
XAxis mode: Wavelengths
Number of Pixels in Spectrum: 2048
>>>>>Begin Spectral Data<<<<<
341.393	-21.67
341.776	-21.67
342.16	-21.67
342.543	-69.12
342.927	-49.46
343.31	-76.81
343.693	-72.96
344.077	-79.74
344.46	-43.13
344.843	-50.59
345.226	-39.52
345.61	-21.67
345.993	-15.34
346.376	-8.79
346.759	12.91
347.142	40.93
347.525	33.47
347.908	45.9
348.291	75.96
348.674	92.91
349.057	106.47
349.44	115.05
349.823	129.74
350.206	171.1
350.588	178.78
350.971	183.07
351.354	207.48
351.737	213.58
352.119	226.24
352.502	257.65
352.884	255.61
353.267	247.48
353.65	254.03
354.032	265.56
354.414	282.05
354.797	277.99
355.179	293.58
355.562	303.07
355.944	333.8
356.326	313.24
356.709	300.81
357.091	311.66
357.473	295.16
357.855	305.78
358.238	311.66
358.62	318.21
359.002	318.21
359.384	322.28
359.766	311.21
360.148	332.22
360.53	319.79
360.912	319.57
361.294	316.86
361.676	297.87
362.057	300.59
362.439	313.69
362.821	292.22
363.203	305.56
363.584	344.88
363.966	298.55
364.348	302.17
364.729	280.02
365.111	284.31
365.493	283.41
365.874	276.63
366.256	279.79
366.637	280.7
367.019	305.1
367.4	290.42
367.781	292.22
368.163	280.47
368.544	291.09
368.925	269.17
369.306	284.54
369.688	291.55
370.069	275.05
370.45	285.67
370.831	285.67
371.212	296.74
371.593	263.07
371.974	292
372.355	299.68
372.736	282.73
373.117	286.8
373.498	270.53
373.879	284.54
374.26	272.34
374.641	287.48
375.021	295.16
375.402	301.49
375.783	275.05
376.163	261.49
376.544	276.86
376.925	286.8
377.305	299.68
377.686	282.51
378.066	287.48
378.447	277.54
378.827	258.33
379.208	292
379.588	289.29
379.968	287.03
380.349	277.99
380.729	294.48
381.109	298.55
381.489	304.88
381.87	299.91
382.25	317.76
382.63	306.01
383.01	285.44
383.39	295.39
383.77	287.25
384.15	286.35
384.53	303.07
384.91	295.39
385.29	292.45
385.67	290.87
386.049	311.21
386.429	320.25
386.809	314.6
387.189	295.39
387.568	289.74
387.948	301.49
388.328	287.7
388.707	300.13
389.087	319.79
389.466	324.31
389.846	308.04
390.225	315.5
390.605	327.03
390.984	323.41
391.363	303.75
391.743	313.47
392.122	322.51
392.501	310.53
392.881	298.78
393.26	286.57
393.639	322.96
394.018	288.83
394.397	307.82
394.776	320.25
395.155	327.48
395.534	307.36
395.913	327.48
396.292	317.76
396.671	322.28
397.05	297.42
397.429	308.95
397.808	321.38
398.186	315.27
398.565	301.26
398.944	327.7
399.323	324.99
399.701	324.99
400.08	305.56
400.458	319.57
400.837	312.79
401.215	329.29
401.594	314.82
401.972	334.26
402.351	332.22
402.729	326.35
403.107	321.38
403.486	323.41
403.864	296.52
404.242	332.67
404.62	322.96
404.999	312.34
405.377	336.52
405.755	313.92
406.133	309.17
406.511	321.15
406.889	324.09
407.267	331.32
407.645	332.9
408.023	321.6
408.401	330.87
408.779	334.48
409.156	342.62
409.534	341.04
409.912	344.2
410.29	343.3
410.667	321.6
411.045	340.13
411.422	332.9
411.8	328.83
412.178	332.22
412.555	311.43
412.933	332.67
413.31	339.91
413.687	336.06
414.065	339
414.442	340.81
414.819	346.23
415.197	312.11
415.574	353.92
415.951	341.26
416.328	364.54
416.705	347.14
417.082	336.06
417.46	334.71
417.837	341.94
418.214	329.74
418.591	365.89
418.967	346.69
419.344	355.73
419.721	356.63
420.098	330.42
420.475	321.6
420.852	368.15
421.228	350.98
421.605	362.05
421.982	363.18
422.358	373.8
422.735	324.99
423.111	351.88
423.488	354.6
423.864	358.44
424.241	350.75
424.617	376.06
424.994	381.49
425.37	355.5
425.746	345.78
426.123	368.61
426.499	359.79
426.875	369.28
427.251	367.7
427.627	347.36
428.003	374.03
428.379	373.8
428.756	374.48
429.132	373.13
429.507	366.35
429.883	374.93
430.259	385.55
430.635	387.14
431.011	386.91
431.387	383.3
431.763	369.06
432.138	386.91
432.514	363.63
432.89	394.37
433.265	390.07
433.641	379.91
434.016	394.59
434.392	396.63
434.767	365.44
435.143	391.43
435.518	399.57
435.894	358.21
436.269	397.53
436.644	392.56
437.02	387.81
437.395	389.62
437.77	404.31
438.145	404.99
438.52	388.49
438.895	395.95
439.271	397.08
439.646	415.84
440.021	400.02
440.395	417.19
440.77	403.86
441.145	418.1
441.52	394.59
441.895	444.31
442.27	432.79
442.645	406.57
443.019	433.92
443.394	410.41
443.769	411.54
444.143	436.63
444.518	423.29
444.892	421.49
445.267	423.29
445.641	423.29
446.016	422.16
446.39	439.34
446.764	420.13
447.139	425.1
447.513	421.49
447.887	422.39
448.262	426.23
448.636	434.59
449.01	436.85
449.384	444.76
449.758	427.59
450.132	449.06
450.506	430.98
450.88	428.72
451.254	429.85
451.628	446.34
452.002	442.5
452.376	466
452.75	439.56
453.123	443.86
453.497	454.03
453.871	447.47
454.244	443.63
454.618	462.16
454.992	451.09
455.365	469.85
455.739	473.46
456.112	466.46
456.486	477.53
456.859	461.49
457.232	451.99
457.606	427.59
457.979	488.38
458.352	481.82
458.725	482.5
459.099	478.43
459.472	492.9
459.845	488.6
460.218	468.94
460.591	486.8
460.964	493.57
461.337	498.09
461.71	520.92
462.083	521.82
462.456	501.03
462.829	512.11
463.201	528.83
463.574	545.1
463.947	523.86
464.32	544.19
464.692	527.47
465.065	533.12
465.438	560.01
465.81	538.55
466.183	537.64
466.555	531.54
466.928	553.46
467.3	553.23
467.672	563.4
468.045	568.37
468.417	562.73
468.789	545.78
469.161	575.83
469.534	594.14
469.906	579.67
470.278	576.96
470.65	597.3
471.022	615.38
471.394	598.66
471.766	595.04
472.138	618.77
472.51	629.16
472.882	620.58
473.253	624.87
473.625	611.99
473.997	622.61
474.369	650.41
474.74	630.07
475.112	655.38
475.484	658.32
475.855	665.55
476.227	659.45
476.598	655.83
476.97	689.28
477.341	675.49
477.713	696.28
478.084	681.14
478.455	706.68
478.827	682.95
479.198	733.12
479.569	733.57
479.94	722.27
480.311	746
480.682	735.15
481.053	742.83
481.424	786.22
481.795	778.76
482.166	797.97
482.537	785.32
482.908	819.44
483.279	791.19
483.65	813.79
484.021	857.18
484.391	843.4
484.762	839.55
485.133	835.49
485.503	859.44
485.874	889.27
486.244	876.39
486.615	873.23
486.985	914.13
487.356	921.13
487.726	932.21
488.097	925.2
488.467	950.29
488.837	941.7
489.207	961.58
489.578	955.94
489.948	968.36
490.318	989.38
490.688	960.45
491.058	1008.36
491.428	993.45
491.798	1019.21
492.168	1017.63
492.538	1008.14
492.908	1042.71
493.278	1061.7
493.648	1068.7
494.017	1036.39
494.387	1082.26
494.757	1063.73
495.126	1081.58
495.496	1091.98
495.866	1077.74
496.235	1074.58
496.605	1130.62
496.974	1095.59
497.344	1115.25
497.713	1126.55
498.082	1139.89
498.452	1132.43
498.821	1126.78
499.19	1151.41
499.559	1166.55
499.928	1162.94
500.298	1175.36
500.667	1174.46
501.036	1170.62
501.405	1174.46
501.774	1171.07
502.143	1185.53
502.512	1208.81
502.88	1218.53
503.249	1176.49
503.618	1222.82
503.987	1188.25
504.356	1218.3
504.724	1221.47
505.093	1220.11
505.462	1229.37
505.83	1233.44
506.199	1232.54
506.567	1273.22
506.936	1252.65
507.304	1251.75
507.672	1261.24
508.041	1271.86
508.409	1270.96
508.777	1278.86
509.145	1303.5
509.514	1281.8
509.882	1272.54
510.25	1292.2
510.618	1303.5
510.986	1324.29
511.354	1322.03
511.722	1333.33
512.09	1326.55
512.458	1341.24
512.826	1344.17
513.193	1324.97
513.561	1327.22
513.929	1324.06
514.297	1351.63
514.664	1388.92
515.032	1367
515.4	1367.45
515.767	1362.48
516.135	1386.43
516.502	1350.73
516.869	1376.26
517.237	1384.85
517.604	1369.48
517.972	1378.07
518.339	1379.88
518.706	1412.87
519.073	1390.05
519.44	1392.08
519.808	1403.83
520.175	1409.26
520.542	1451.06
520.909	1439.09
521.276	1433.44
521.643	1435.92
522.009	1474.57
522.376	1450.39
522.743	1457.39
523.11	1478.41
523.477	1458.07
523.843	1498.97
524.21	1477.5
524.577	1512.3
524.943	1500.78
525.31	1491.29
525.676	1523.83
526.043	1524.96
526.409	1516.82
526.776	1530.38
527.142	1490.84
527.508	1551.63
527.874	1558.41
528.241	1541
528.607	1558.63
528.973	1554.79
529.339	1537.84
529.705	1543.26
530.071	1562.25
530.437	1572.19
530.803	1597.5
531.169	1578.52
531.535	1601.79
531.901	1573.32
532.267	1592.3
532.632	1567.9
532.998	1565.18
533.364	1609.25
533.73	1556.37
534.095	1613.77
534.461	1606.54
534.826	1597.05
535.192	1621.45
535.557	1573.32
535.923	1589.14
536.288	1575.13
536.653	1623.71
537.019	1587.78
537.384	1627.1
537.749	1618.06
538.114	1607.9
538.479	1611.29
538.845	1624.39
539.21	1616.71
539.575	1611.96
539.94	1611.96
540.305	1587.56
540.67	1619.87
541.034	1631.62
541.399	1632.3
541.764	1640.44
542.129	1601.57
542.494	1637.95
542.858	1607.67
543.223	1616.26
543.587	1626.88
543.952	1602.02
544.316	1609.25
544.681	1644.96
545.045	1626.2
545.41	1653.32
545.774	1643.15
546.138	1649.02
546.503	1644.28
546.867	1663.26
547.231	1667.1
547.595	1649.93
547.959	1645.86
548.324	1636.37
548.688	1646.76
549.052	1672.07
549.416	1645.18
549.779	1665.75
550.143	1636.82
550.507	1639.53
550.871	1661.68
551.235	1671.17
551.599	1639.99
551.962	1693.77
552.326	1661.68
552.689	1680.44
553.053	1653.54
553.417	1671.17
553.78	1656.48
554.143	1682.92
554.507	1698.97
554.87	1649.48
555.234	1685.41
555.597	1651.74
555.96	1688.35
556.323	1689.02
556.686	1694
557.05	1720.66
557.413	1688.35
557.776	1661.45
558.139	1709.81
558.502	1690.15
558.865	1702.58
559.228	1724.28
559.59	1728.34
559.953	1730.6
560.316	1735.58
560.679	1719.53
561.041	1726.99
561.404	1771.73
561.767	1737.38
562.129	1731.51
562.492	1786.87
562.854	1729.02
563.217	1755.69
563.579	1756.14
563.941	1743.71
564.304	1755.46
564.666	1778.29
565.028	1792.3
565.39	1796.82
565.753	1771.28
566.115	1792.07
566.477	1772.19
566.839	1806.99
567.201	1807.89
567.563	1818.96
567.925	1797.04
568.287	1798.4
568.648	1799.08
569.01	1799.75
569.372	1809.25
569.734	1801.79
570.095	1812.86
570.457	1845.18
570.819	1790.94
571.18	1783.26
571.542	1810.15
571.903	1830.26
572.265	1824.39
572.626	1805.63
572.987	1828.91
573.349	1824.84
573.71	1811.28
574.071	1790.04
574.432	1837.95
574.794	1825.52
575.155	1829.58
575.516	1821.68
575.877	1824.16
576.238	1794.78
576.599	1826.87
576.96	1847.21
577.32	1848.12
577.681	1839.98
578.042	1832.3
578.403	1813.09
578.763	1817.83
579.124	1835.23
579.485	1842.01
579.845	1841.34
580.206	1853.54
580.566	1801.56
580.927	1810.15
581.287	1813.31
581.648	1838.4
582.008	1805.63
582.368	1773.99
582.728	1793.65
583.089	1797.72
583.449	1806.08
583.809	1792.07
584.169	1804.73
584.529	1789.13
584.889	1788.46
585.249	1769.93
585.609	1759.08
585.969	1781.22
586.329	1741.68
586.688	1800.66
587.048	1759.3
587.408	1770.83
587.768	1763.15
588.127	1761.11
588.487	1756.59
588.846	1759.53
589.206	1737.84
589.565	1737.61
589.925	1710.72
590.284	1769.93
590.643	1760.43
591.003	1727.21
591.362	1756.37
591.721	1729.02
592.08	1742.13
592.44	1716.82
592.799	1755.91
593.158	1745.97
593.517	1748.91
593.876	1781.22
594.235	1737.16
594.593	1729.7
594.952	1739.87
595.311	1753.43
595.67	1750.94
596.029	1737.38
596.387	1726.31
596.746	1689.93
597.104	1732.64
597.463	1742.36
597.822	1736.48
598.18	1744.16
598.538	1711.4
598.897	1748
599.255	1708.46
599.613	1734.9
599.972	1709.36
600.33	1746.2
600.688	1733.99
601.046	1742.58
601.404	1738.74
601.762	1769.47
602.12	1739.42
602.478	1749.81
602.836	1715.92
603.194	1721.11
603.552	1741
603.91	1748
604.268	1732.86
604.625	1752.75
604.983	1726.76
605.341	1722.69
605.698	1756.37
606.056	1779.64
606.413	1757.95
606.771	1755.24
607.128	1748.68
607.485	1718.85
607.843	1760.21
608.2	1744.84
608.557	1763.15
608.914	1745.75
609.272	1753.88
609.629	1752.07
609.986	1765.41
610.343	1765.18
610.7	1773.31
611.057	1785.52
611.414	1757.04
611.771	1792.98
612.127	1784.39
612.484	1790.26
612.841	1791.62
613.198	1781.9
613.554	1784.39
613.911	1781.68
614.267	1784.84
614.624	1781.9
614.98	1764.73
615.337	1801.79
615.693	1827.32
616.05	1785.52
616.406	1760.43
616.762	1813.77
617.118	1786.65
617.475	1801.34
617.831	1803.14
618.187	1806.99
618.543	1785.74
618.899	1819.42
619.255	1804.73
619.611	1790.49
619.967	1799.08
620.323	1815.8
620.678	1830.94
621.034	1805.86
621.39	1808.79
621.746	1820.09
622.101	1811.28
622.457	1797.27
622.812	1810.38
623.168	1800.88
623.523	1791.39
623.879	1818.74
624.234	1794.56
624.589	1797.04
624.945	1791.85
625.3	1804.95
625.655	1798.17
626.01	1781.68
626.365	1791.39
626.72	1805.18
627.075	1788.46
627.43	1770.15
627.785	1773.99
628.14	1790.49
628.495	1780.55
628.85	1797.5
629.205	1772.41
629.559	1791.17
629.914	1777.61
630.269	1784.61
630.623	1808.12
630.978	1808.34
631.332	1781.68
631.687	1775.57
632.041	1769.93
632.396	1767.89
632.75	1791.39
633.104	1776.25
633.459	1782.81
633.813	1786.87
634.167	1752.3
634.521	1783.26
634.875	1779.87
635.229	1796.14
635.583	1756.82
635.937	1775.12
636.291	1751.85
636.645	1752.75
636.999	1756.37
637.352	1773.77
637.706	1733.32
638.06	1759.08
638.413	1750.26
638.767	1768.12
639.121	1751.62
639.474	1735.58
639.828	1743.71
640.181	1753.43
640.534	1743.26
640.888	1748.23
641.241	1769.93
641.594	1750.04
641.947	1752.3
642.301	1724.73
642.654	1774.67
643.007	1755.91
643.36	1755.24
643.713	1784.16
644.066	1743.71
644.419	1773.54
644.771	1758.4
645.124	1731.28
645.477	1743.26
645.83	1696.25
646.182	1729.7
646.535	1726.99
646.888	1735.35
647.24	1731.28
647.593	1759.98
647.945	1741.9
648.298	1737.84
648.65	1761.79
649.002	1729.02
649.355	1761.34
649.707	1734.22
650.059	1779.42
650.411	1776.03
650.763	1748.23
651.115	1798.17
651.467	1786.65
651.819	1791.17
652.171	1809.92
652.523	1763.15
652.875	1794.56
653.227	1795.69
653.578	1799.53
653.93	1826.19
654.282	1822.81
654.633	1824.39
654.985	1848.79
655.337	1841.79
655.688	1857.83
656.039	1863.71
656.391	1863.03
656.742	1856.48
657.094	1911.39
657.445	1872.52
657.796	1870.04
658.147	1891.28
658.498	1900.54
658.849	1906.19
659.2	1936.93
659.551	1911.39
659.902	1926.76
660.253	1900.54
660.604	1942.35
660.955	1897.15
661.306	1944.61
661.656	1942.58
662.007	1972.86
662.358	1981.9
662.708	1977.83
663.059	1987.77
663.409	1996.81
663.76	1994.55
664.11	2049.24
664.461	2034.33
664.811	2052.63
665.161	2075.45
665.511	2049.69
665.862	2079.75
666.212	2081.33
666.562	2111.61
666.912	2130.14
667.262	2123.81
667.612	2128.56
667.962	2175.56
668.312	2180.99
668.662	2167.43
669.011	2176.92
669.361	2216.24
669.711	2225.73
670.06	2227.09
670.41	2240.87
670.76	2266.64
671.109	2275.67
671.459	2253.53
671.808	2296.01
672.157	2322.23
672.507	2320.19
672.856	2338.95
673.205	2354.32
673.554	2351.6
673.904	2386.41
674.253	2393.64
674.602	2405.16
674.951	2399.97
675.3	2417.37
675.649	2421.89
675.998	2469.34
676.346	2509.34
676.695	2522
677.044	2495.78
677.393	2547.31
677.741	2579.85
678.09	2552.5
678.438	2618.04
678.787	2604.48
679.135	2635.89
679.484	2611.49
679.832	2632.28
680.181	2675.89
680.529	2675.66
680.877	2693.74
681.225	2717.92
681.573	2749.79
681.922	2758.83
682.27	2797.92
682.618	2787.75
682.966	2788.88
683.314	2820.75
683.661	2854.87
684.009	2887.86
684.357	2853.51
684.705	2880.18
685.053	2911.14
685.4	2939.61
685.748	2942.55
686.095	2990.46
686.443	2981.87
686.79	3001.76
687.138	3054.19
687.485	3042.89
687.832	3068.65
688.18	3072.04
688.527	3120.85
688.874	3144.35
689.221	3173.28
689.568	3208.08
689.915	3220.28
690.262	3216.21
690.609	3223.22
690.956	3275.2
691.303	3272.03
691.65	3265.93
691.997	3294.18
692.344	3336.44
692.69	3327.62
693.037	3375.08
693.383	3345.93
693.73	3400.84
694.077	3416.66
694.423	3382.99
694.769	3483.78
695.116	3470.22
695.462	3499.6
695.808	3557.67
696.155	3570.78
696.501	3538.69
696.847	3555.19
697.193	3566.04
697.539	3636.54
697.885	3629.76
698.231	3648.07
698.577	3717.22
698.923	3672.93
699.269	3735.75
699.614	3747.27
699.96	3766.48
700.306	3753.38
700.651	3769.42
700.997	3811
701.342	3855.29
701.688	3884.22
702.033	3853.03
702.379	3902.07
702.724	3949.08
703.069	4003.99
703.415	4005.12
703.76	3980.26
704.105	4006.02
704.45	3989.75
704.795	4026.36
705.14	4042.63
705.485	4062.75
705.83	4096.42
706.175	4093.25
706.52	4124.44
706.865	4159.01
707.209	4163.76
707.554	4210.99
707.899	4203.31
708.243	4220.03
708.588	4246.02
708.932	4227.94
709.277	4266.13
709.621	4319.46
709.966	4315.62
710.31	4283.98
710.654	4333.02
710.998	4370.08
711.342	4372.34
711.687	4349.52
712.031	4406.69
712.375	4356.98
712.719	4451.44
713.063	4463.41
713.407	4513.36
713.75	4465
714.094	4512.68
714.438	4525.78
714.782	4554.48
715.125	4520.81
715.469	4568.04
715.812	4621.6
716.156	4604.88
716.499	4595.39
716.843	4607.36
717.186	4554.71
717.53	4587.48
717.873	4698.44
718.216	4682.84
718.559	4634.71
718.902	4638.78
719.246	4716.06
719.589	4670.64
719.932	4765.55
720.275	4726.01
720.617	4718.32
720.96	4724.42
721.303	4765.1
721.646	4798.09
721.989	4749.06
722.331	4810.75
722.674	4764.65
723.016	4801.94
723.359	4858.43
723.701	4825.66
724.044	4835.83
724.386	4830.86
724.729	4839.22
725.071	4847.13
725.413	4889.17
725.755	4862.5
726.097	4865.21
726.439	4892.1
726.782	4863.4
727.124	4918.09
727.465	4939.33
727.807	4873.12
728.149	4856.62
728.491	4875.83
728.833	4937.98
729.175	4882.39
729.516	4908.6
729.858	4926.45
730.199	4940.46
730.541	4912.44
730.882	4920.8
731.224	4948.15
731.565	4913.8
731.906	4962.61
732.248	4937.3
732.589	4964.42
732.93	4925.55
733.271	4913.57
733.612	4990.63
733.953	4986.79
734.294	4965.32
734.635	4970.29
734.976	4993.57
735.317	4953.8
735.658	4983.4
735.999	5005.32
736.339	4967.36
736.68	5027.69
737.021	4957.86
737.361	4994.93
737.702	4994.93
738.042	5020.24
738.383	4956.06
738.723	4987.47
739.063	4993.34
739.404	5000.35
739.744	4983.4
740.084	4915.15
740.424	4978.43
740.764	5004.87
741.104	5015.49
741.444	4997.18
741.784	4967.81
742.124	4987.47
742.464	5010.97
742.804	4972.78
743.143	4947.24
743.483	4963.06
743.823	4944.53
744.162	4948.15
744.502	4958.99
744.841	4986.11
745.181	4939.79
745.52	4965.32
745.86	4935.49
746.199	4915.38
746.538	4906.79
746.877	4921.48
747.216	4906.11
747.556	4924.64
747.895	4933.91
748.234	4917.19
748.573	4911.99
748.911	4936.62
749.25	4894.36
749.589	4894.81
749.928	4925.77
750.267	4908.37
750.605	4874.93
750.944	4915.61
751.283	4891.88
751.621	4880.35
751.96	4850.07
752.298	4888.04
752.636	4835.38
752.975	4845.55
753.313	4827.92
753.651	4847.81
753.989	4829.05
754.327	4817.53
754.666	4820.47
755.004	4798.77
755.342	4762.16
755.679	4790.64
756.017	4784.99
756.355	4763.29
756.693	4759
757.031	4757.87
757.368	4719
757.706	4721.71
758.044	4717.19
758.381	4733.24
758.719	4690.75
759.056	4686.46
759.394	4711.32
759.731	4683.97
760.068	4669.51
760.405	4671.54
760.743	4630.87
761.08	4622.96
761.417	4689.4
761.754	4611.43
762.091	4613.01
762.428	4593.35
762.765	4555.61
763.102	4587.03
763.438	4566.91
763.775	4528.5
764.112	4509.29
764.449	4527.37
764.785	4524.66
765.122	4489.18
765.458	4496.63
765.795	4443.08
766.131	4472.45
766.467	4479.91
766.804	4480.59
767.14	4460.02
767.476	4393.81
767.812	4417.09
768.148	4423.64
768.485	4401.27
768.821	4326.02
769.157	4338.45
769.492	4305.45
769.828	4353.13
770.164	4298.9
770.5	4299.8
770.836	4291.67
771.171	4262.06
771.507	4249.41
771.842	4207.6
772.178	4259.58
772.513	4201.27
772.849	4182.07
773.184	4179.13
773.519	4167.15
773.855	4188.84
774.19	4127.83
774.525	4143.87
774.86	4110.88
775.195	4116.3
775.53	4090.09
775.865	4083.31
776.2	4065.23
776.535	4059.36
776.87	4038.34
777.205	4021.17
777.539	3986.14
777.874	4036.76
778.209	3995.86
778.543	4007.83
778.878	3917.44
779.212	3953.37
779.547	3917.89
779.881	3950.43
780.215	3940.94
780.55	3934.39
780.884	3851.45
781.218	3884.22
781.552	3856.88
781.886	3869.53
782.22	3847.84
782.554	3828.85
782.888	3827.27
783.222	3775.3
783.556	3764.45
783.889	3810.55
784.223	3729.87
784.557	3754.28
784.89	3714.28
785.224	3724.45
785.557	3760.38
785.891	3708.86
786.224	3702.98
786.558	3707.5
786.891	3626.15
787.224	3664.11
787.557	3641.29
787.891	3628.63
788.224	3638.35
788.557	3613.27
788.89	3625.47
789.223	3629.76
789.556	3609.2
789.888	3602.19
790.221	3567.17
790.554	3540.5
790.887	3563.1
791.219	3565.58
791.552	3527.85
791.884	3511.57
792.217	3510.9
792.549	3534.85
792.882	3481.74
793.214	3467.06
793.546	3483.1
793.879	3449.43
794.211	3415.08
794.543	3469.32
794.875	3437.45
795.207	3429.77
795.539	3387.06
795.871	3401.52
796.203	3383.89
796.535	3354.52
796.867	3342.77
797.198	3343.9
797.53	3372.82
797.862	3284.46
798.193	3318.59
798.525	3288.76
798.856	3323.33
799.188	3281.3
799.519	3242.43
799.85	3278.81
800.182	3291.24
800.513	3343.67
800.844	3264.8
801.175	3264.8
801.506	3258.25
801.837	3222.32
802.168	3238.59
802.499	3183.45
802.83	3201.3
803.161	3218.25
803.491	3217.8
803.822	3174.63
804.153	3183.67
804.483	3169.44
804.814	3155.43
805.145	3111.36
805.475	3116.78
805.805	3119.95
806.136	3112.26
806.466	3135.54
806.796	3135.99
807.126	3107.07
807.457	3111.36
807.787	3116.33
808.117	3067.97
808.447	3066.84
808.777	3056.67
809.107	3048.08
809.436	3008.31
809.766	3004.02
810.096	3035.2
810.426	3036.78
810.755	3017.35
811.085	2995.2
811.414	2991.81
811.744	2996.11
812.073	2994.98
812.403	2983.45
812.732	2976
813.061	2998.14
813.39	2965.83
813.719	2928.09
814.049	2971.93
814.378	2955.66
814.707	2912.72
815.036	2938.03
815.365	2911.36
815.693	2920.4
816.022	2890.35
816.351	2872.27
816.68	2890.57
817.008	2900.97
817.337	2856.22
817.665	2857.35
817.994	2860.29
818.322	2893.29
818.651	2851.7
818.979	2846.96
819.307	2873.85
819.636	2838.6
819.964	2812.38
820.292	2818.49
820.62	2811.71
820.948	2817.13
821.276	2837.02
821.604	2825.04
821.932	2795.43
822.259	2785.94
822.587	2787.3
822.915	2814.87
823.243	2807.86
823.57	2836.79
823.898	2819.39
824.225	2780.75
824.553	2792.5
824.88	2789.33
825.207	2822.1
825.535	2812.16
825.862	2842.67
826.189	2781.65
826.516	2807.19
826.843	2825.26
827.17	2825.04
827.497	2788.88
827.824	2794.31
828.151	2824.13
828.478	2812.16
828.805	2816.9
829.131	2821.65
829.458	2783.68
829.785	2772.61
830.111	2785.04
830.438	2783.46
830.764	2849.9
831.09	2804.02
831.417	2786.85
831.743	2762.89
832.069	2770.8
832.395	2770.35
832.722	2816.9
833.048	2766.06
833.374	2781.65
833.7	2768.32
834.026	2792.95
834.351	2791.37
834.677	2802.44
835.003	2801.99
835.329	2783.23
835.654	2775.32
835.98	2805.83
836.306	2764.93
836.631	2702.33
836.956	2733.06
837.282	2751.14
837.607	2710.24
837.932	2739.39
838.258	2721.31
838.583	2713.86
838.908	2716.12
839.233	2715.21
839.558	2700.75
839.883	2682.22
840.208	2693.52
840.533	2673.86
840.858	2681.31
841.182	2674.53
841.507	2688.55
841.832	2690.8
842.156	2710.47
842.481	2667.98
842.805	2678.83
843.13	2687.64
843.454	2665.49
843.778	2647.87
844.103	2643.57
844.427	2671.37
844.751	2652.39
845.075	2653.07
845.399	2614.2
845.723	2628.66
846.047	2631.6
846.371	2622.11
846.695	2573.07
847.019	2633.18
847.343	2587.53
847.666	2538.94
847.99	2559.96
848.313	2541.88
848.637	2527.65
848.96	2532.39
849.284	2512.28
849.607	2522.67
849.931	2504.6
850.254	2498.72
850.577	2471.15
850.9	2411.04
851.223	2474.77
851.546	2450.13
851.869	2421.66
852.192	2442.9
852.515	2429.12
852.838	2440.42
853.161	2424.6
853.483	2432.73
853.806	2400.42
854.129	2394.32
854.451	2399.29
854.774	2408.33
855.096	2344.83
855.419	2400.87
855.741	2365.62
856.063	2355.22
856.385	2348.67
856.708	2347.54
857.03	2343.24
857.352	2343.02
857.674	2339.85
857.996	2315.9
858.318	2300.08
858.64	2293.08
858.961	2326.97
859.283	2308.44
859.605	2260.08
859.926	2302.11
860.248	2270.03
860.57	2265.28
860.891	2283.13
861.212	2245.39
861.534	2270.7
861.855	2257.82
862.176	2264.15
862.498	2260.99
862.819	2271.38
863.14	2254.88
863.461	2261.89
863.782	2206.98
864.103	2260.99
864.424	2218.95
864.745	2213.76
865.065	2190.03
865.386	2202.46
865.707	2226.18
866.027	2201.78
866.348	2219.86
866.668	2223.25
866.989	2185.73
867.309	2186.19
867.63	2206.75
867.95	2196.58
868.27	2194.09
868.59	2232.74
868.91	2169.46
869.23	2180.08
869.55	2172.4
869.87	2189.35
870.19	2192.74
870.51	2188.45
870.83	2188.22
871.15	2170.14
871.469	2129.24
871.789	2182.12
872.109	2184.83
872.428	2149.35
872.748	2187.32
873.067	2152.29
873.386	2133.98
873.706	2141.21
874.025	2174.66
874.344	2141.21
874.663	2097.37
874.982	2134.21
875.301	2123.14
875.62	2137.6
875.939	2139.63
876.258	2137.37
876.577	2111.84
876.896	2119.75
877.214	2124.27
877.533	2092.4
877.852	2109.58
878.17	2110.26
878.489	2116.13
878.807	2114.55
879.125	2097.37
879.444	2065.28
879.762	2074.78
880.08	2104.38
880.398	2056.92
880.716	2088.11
881.034	2045.4
881.352	2038.39
881.67	2044.27
881.988	2115
882.306	2056.47
882.624	2033.87
882.941	2057.38
883.259	2033.65
883.577	2015.79
883.894	2023.93
884.212	2027.55
884.529	2052.4
884.846	2020.09
885.164	2005.4
885.481	2017.83
885.798	2028.45
886.115	2020.99
886.432	1991.16
886.75	1987.32
887.067	1973.99
887.383	1984.38
887.7	1971.73
888.017	1991.16
888.334	1980.99
888.651	1989.13
888.967	1985.96
889.284	1956.59
889.6	1981.45
889.917	1945.06
890.233	1959.52
890.55	1935.8
890.866	1934.44
891.182	1948.23
891.498	1942.12
891.815	1922.01
892.131	1949.81
892.447	1887.66
892.763	1919.3
893.079	1903.48
893.395	1900.54
893.71	1905.97
894.026	1877.49
894.342	1889.24
894.657	1914.78
894.973	1868.45
895.289	1885.85
895.604	1875.46
895.92	1845.63
896.235	1826.87
896.55	1840.43
896.865	1834.33
897.181	1846.53
897.496	1828.68
897.811	1845.63
898.126	1838.17
898.441	1806.99
898.756	1821.68
899.071	1812.64
899.386	1834.78
899.7	1800.66
900.015	1820.32
900.33	1809.47
900.644	1790.04
900.959	1790.04
901.273	1754.11
901.588	1728.57
901.902	1756.82
902.216	1768.8
902.531	1755.91
902.845	1757.95
903.159	1743.49
903.473	1722.69
903.787	1737.38
904.101	1735.8
904.415	1724.28
904.729	1722.02
905.042	1706.42
905.356	1722.92
905.67	1696.71
905.984	1712.75
906.297	1697.84
906.611	1680.66
906.924	1681.79
907.237	1693.54
907.551	1682.02
907.864	1657.84
908.177	1686.54
908.491	1659.19
908.804	1653.54
909.117	1636.37
909.43	1661.23
909.743	1611.06
910.056	1637.95
910.368	1599.31
910.681	1616.93
910.994	1631.17
911.307	1602.47
911.619	1577.39
911.932	1616.71
912.244	1567.44
912.557	1580.55
912.869	1584.62
913.181	1592.53
913.494	1569.03
913.806	1566.77
914.118	1563.6
914.43	1562.02
914.742	1546.2
915.054	1539.65
915.366	1545.07
915.678	1517.5
915.99	1526.32
916.302	1499.42
916.613	1515.02
916.925	1496.71
917.236	1512.76
917.548	1515.92
917.859	1491.51
918.171	1496.94
918.482	1472.31
918.794	1494.23
919.105	1452.87
919.416	1469.82
919.727	1485.64
920.038	1447.9
920.349	1449.26
920.66	1417.17
920.971	1422.82
921.282	1415.81
921.593	1438.86
921.903	1427.34
922.214	1452.42
922.525	1413.55
922.835	1432.53
923.146	1409.71
923.456	1409.03
923.767	1399.99
924.077	1398.64
924.387	1398.41
924.697	1389.6
925.008	1378.52
925.318	1401.8
925.628	1377.62
925.938	1366.55
926.248	1358.86
926.558	1384.85
926.867	1354.57
927.177	1347.11
927.487	1383.27
927.796	1352.54
928.106	1379.43
928.416	1345.53
928.725	1304.85
929.034	1329.26
929.344	1297.17
929.653	1352.99
929.962	1295.14
930.271	1297.17
930.581	1291.29
930.89	1296.49
931.199	1279.32
931.508	1306.66
931.817	1270.28
932.125	1254.46
932.434	1261.69
932.743	1279.77
933.051	1265.53
933.36	1271.41
933.669	1246.78
933.977	1269.6
934.286	1263.05
934.594	1256.27
934.902	1235.93
935.21	1260.33
935.519	1229.6
935.827	1253.33
936.135	1207.23
936.443	1190.73
936.751	1213.78
937.059	1247
937.367	1232.76
937.674	1229.37
937.982	1180.79
938.29	1184.63
938.597	1185.53
938.905	1208.13
939.213	1179.43
939.52	1188.25
939.827	1198.41
940.135	1161.35
940.442	1187.34
940.749	1130.39
941.056	1178.08
941.363	1159.32
941.67	1160.9
941.977	1137.17
942.284	1144.4
942.591	1129.72
942.898	1158.64
943.205	1150.73
943.511	1147.79
943.818	1118.19
944.125	1131.3
944.431	1111.19
944.738	1117.96
945.044	1117.06
945.35	1099.66
945.657	1100.79
945.963	1131.52
946.269	1087.01
946.575	1114.35
946.881	1094.69
947.187	1104.18
947.493	1106.67
947.799	1087.91
948.105	1067.57
948.41	1091.75
948.716	1087.23
949.022	1082.03
949.327	1056.27
949.633	1070.96
949.938	1051.75
950.244	1035.03
950.549	1067.8
950.854	1058.98
951.16	1045.88
951.465	1064.18
951.77	1056.5
952.075	1008.14
952.38	1025.09
952.685	1063.05
952.99	1017.4
953.294	1049.04
953.599	1027.57
953.904	1019.66
954.209	1021.92
954.513	1007.01
954.818	1016.05
955.122	1017.85
955.426	1014.46
955.731	1011.98
956.035	983.73
956.339	1002.94
956.643	990.74
956.948	984.41
957.252	990.28
957.556	990.74
957.86	963.62
958.163	986.22
958.467	963.39
958.771	973.79
959.075	967.91
959.378	958.87
959.682	977.4
959.985	955.94
960.289	935.37
960.592	963.17
960.896	928.37
961.199	938.99
961.502	951.42
961.805	936.05
962.108	921.81
962.411	936.05
962.714	913.22
963.017	942.6
963.32	917.07
963.623	910.06
963.926	924.3
964.228	903.51
964.531	920.68
964.833	889.04
965.136	904.19
965.438	912.77
965.741	901.02
966.043	899.89
966.345	894.47
966.648	901.02
966.95	905.32
967.252	883.39
967.554	896.73
967.856	889.5
968.158	886.33
968.46	898.99
968.761	855.6
969.063	870.06
969.365	902.83
969.666	856.05
969.968	864.64
970.269	861.02
970.571	866.67
970.872	835.26
971.174	856.28
971.475	856.95
971.776	845.88
972.077	846.33
972.378	839.1
972.679	840.46
972.98	854.47
973.281	827.58
973.582	822.61
973.883	818.76
974.183	808.82
974.484	830.74
974.785	813.34
975.085	823.06
975.386	840.68
975.686	818.09
975.986	812.44
976.287	801.82
976.587	792.32
976.887	800.23
977.187	783.06
977.487	809.05
977.787	809.72
978.087	816.96
978.387	806.56
978.687	801.36
978.987	783.06
979.286	800.01
979.586	787.35
979.885	772.21
980.185	802.04
980.484	781.93
980.784	769.05
981.083	771.99
981.382	779.67
981.682	769.95
981.981	748.03
982.28	785.77
982.579	769.95
982.878	753
983.177	758.88
983.475	743.06
983.774	776.73
984.073	755.71
984.372	743.51
984.67	752.1
984.969	752.32
985.267	771.76
985.566	729.95
985.864	733.34
986.162	747.13
986.461	746.68
986.759	727.92
987.057	749.39
987.355	748.48
987.653	729.73
987.951	718.65
988.249	696.06
988.547	719.56
988.844	703.96
989.142	727.24
989.44	707.35
989.737	715.26
990.035	702.16
990.332	717.98
990.63	700.57
990.927	712.78
991.224	697.64
991.521	688.15
991.819	688.6
992.116	698.31
992.413	717.3
992.71	710.29
993.006	654.02
993.303	677.52
993.6	681.59
993.897	687.02
994.193	681.14
994.49	706.9
994.787	663.06
995.083	683.17
995.379	661.48
995.676	683.85
995.972	677.98
996.268	675.26
996.565	643.4
996.861	653.8
997.157	639.79
997.453	668.26
997.749	655.83
998.044	662.38
998.34	642.95
998.636	634.81
998.932	646.11
999.227	661.71
999.523	652.21
999.818	654.02
1000.114	649.28
1000.409	632.33
1000.704	654.47
1001	644.53
1001.295	619.67
1001.59	619.45
1001.885	633.91
1002.18	626.9
1002.475	622.61
1002.77	601.37
1003.065	627.58
1003.359	623.06
1003.654	621.71
1003.949	624.64
1004.243	610.86
1004.538	622.84
1004.832	627.36
1005.127	607.7
1005.421	625.55
1005.715	578.77
1006.009	587.81
1006.304	591.88
1006.598	581.93
1006.892	597.98
1007.186	605.21
1007.48	600.92
1007.773	591.65
1008.067	578.77
1008.361	598.66
1008.655	588.04
1008.948	590.75
1009.242	592.56
1009.535	576.06
1009.829	599.79
1010.122	547.81
1010.415	600.01
1010.708	568.6
1011.001	565.66
1011.295	579
1011.588	561.37
1011.881	549.17
1012.173	552.56
1012.466	565.44
1012.759	539.9
1013.052	540.13
1013.344	532.22
1013.637	563.86
1013.93	542.84
1014.222	534.25
1014.514	552.56
1014.807	567.7
1015.099	547.81
1015.391	555.27
1015.683	524.99
1015.976	557.98
1016.268	531.54
1016.56	540.58
1016.851	557.75
1017.143	541.03
1017.435	552.56
1017.727	512.33
1018.018	522.95
1018.31	524.08
1018.602	524.08
1018.893	521.6
1019.185	518.21
1019.476	515.49
1019.767	515.95
1020.058	514.82
1020.35	497.64
1020.641	510.98
1020.932	519.79
1021.223	525.21
1021.514	488.15
1021.804	503.07
1022.095	501.03
1022.386	504.2
1022.677	507.36
1022.967	501.48
1023.258	510.52
1023.548	511.2
1023.839	477.08
1024.129	512.78
1024.419	496.29
1024.709	483.18
1025	478.66
1025.29	457.42
1025.58	482.28
1025.87	457.42
1026.16	484.76
1026.449	463.97
1026.739	496.06
1027.029	498.09
1027.319	471.88
1027.608	481.37
1027.898	467.13
1028.187	481.37
1028.477	493.8
1028.766	458.55
1029.055	469.85
1029.344	482.28
1029.634	471.88
1029.923	472.11
1030.212	470.98
1030.501	454.71
1030.79	457.87
1031.078	467.13
1031.367	473.91
1031.656	461.94
1031.945	442.05
1032.233	448.38
1032.522	428.27
1032.81	454.03
1033.099	428.27
1033.387	437.76
1033.675	441.37
1033.963	433.69
1034.251	448.6
1034.54	460.58
1034.828	440.47
1035.116	454.71
1035.403	426.46
1035.691	436.4
1035.979	416.51
1036.267	437.08
1036.554	438.43
1036.842	431.66
1037.129	447.7
1037.417	427.36
1037.704	437.76
1037.992	410.86
1038.279	432.79
1038.566	421.03
1038.853	421.03
1039.14	421.03
