Data from carpet_green_FLMS001491_00053.txt Node
Date: Wed Feb 08 10:35:33 GMT 2017
User: dcchb
Spectrometer: FLMS00149
Trigger mode: 0
Integration Time (sec): 2.000000E-2
Scans to average: 10
Electric dark correction enabled: true
Nonlinearity correction enabled: false
Boxcar width: 0
XAxis mode: Wavelengths
Number of Pixels in Spectrum: 2048
>>>>>Begin Spectral Data<<<<<
341.393	-3.73
341.776	-3.73
342.16	-3.73
342.543	-49.15
342.927	-60.68
343.31	-96.61
343.693	-68.59
344.077	-67.23
344.46	-47.57
344.843	-51.86
345.226	-37.63
345.61	-37.4
345.993	-21.36
346.376	19.55
346.759	25.2
347.142	28.36
347.525	32.2
347.908	51.64
348.291	71.3
348.674	93.22
349.057	106.78
349.44	134.57
349.823	151.75
350.206	151.52
350.588	174.12
350.971	199.88
351.354	191.75
351.737	219.54
352.119	220.45
352.502	226.1
352.884	254.12
353.267	267.9
353.65	263.61
354.032	292.08
354.414	288.02
354.797	287.11
355.179	293.89
355.562	304.51
355.944	295.47
356.326	309.71
356.709	313.1
357.091	304.51
357.473	331.63
357.855	316.71
358.238	325.98
358.62	305.42
359.002	302.48
359.384	316.49
359.766	318.97
360.148	314.68
360.53	287.56
360.912	311.29
361.294	310.61
361.676	314.46
362.057	304.51
362.439	311.74
362.821	302.48
363.203	308.13
363.584	315.36
363.966	310.16
364.348	302.03
364.729	294.12
365.111	291.4
365.493	295.02
365.874	277.62
366.256	286.89
366.637	303.38
367.019	299.99
367.4	298.86
367.781	286.89
368.163	301.35
368.544	279.2
368.925	281.46
369.306	278.75
369.688	273.78
370.069	281.24
370.45	293.66
370.831	297.51
371.212	290.27
371.593	277.85
371.974	262.93
372.355	300.44
372.736	268.58
373.117	283.72
373.498	274.46
373.879	287.56
374.26	284.85
374.641	293.21
375.021	299.77
375.402	289.82
375.783	294.34
376.163	292.08
376.544	292.76
376.925	281.24
377.305	294.12
377.686	288.69
378.066	306.77
378.447	293.44
378.827	272.42
379.208	292.53
379.588	283.72
379.968	292.31
380.349	277.17
380.729	288.47
381.109	296.15
381.489	300.44
381.87	304.74
382.25	307.68
382.63	273.1
383.01	294.34
383.39	314.91
383.77	308.13
384.15	287.56
384.53	298.64
384.91	284.85
385.29	300.44
385.67	293.44
386.049	320.78
386.429	301.57
386.809	294.34
387.189	300.44
387.568	302.93
387.948	316.04
388.328	289.6
388.707	276.94
389.087	294.79
389.466	291.63
389.846	304.29
390.225	299.99
390.605	311.07
390.984	323.27
391.363	299.54
391.743	315.36
392.122	316.49
392.501	318.52
392.881	306.32
393.26	316.04
393.639	311.52
394.018	317.84
394.397	310.61
394.776	308.35
395.155	312.2
395.534	318.07
395.913	308.58
396.292	325.75
396.671	306.77
397.05	302.48
397.429	308.58
397.808	320.1
398.186	285.76
398.565	316.04
398.944	308.58
399.323	305.87
399.701	304.96
400.08	330.95
400.458	309.94
400.837	315.36
401.215	313.1
401.594	314.91
401.972	333.66
402.351	318.3
402.729	319.88
403.107	341.57
403.486	312.87
403.864	304.29
404.242	322.36
404.62	303.16
404.999	326.66
405.377	344.51
405.755	304.06
406.133	297.51
406.511	332.99
406.889	344.96
407.267	325.08
407.645	324.17
408.023	330.5
408.401	331.4
408.779	325.75
409.156	318.97
409.534	321.91
409.912	293.66
410.29	331.4
410.667	321.46
411.045	332.99
411.422	320.56
411.8	327.56
412.178	321.46
412.555	326.43
412.933	338.64
413.31	332.31
413.687	333.89
414.065	323.04
414.442	322.82
414.819	335.02
415.197	338.64
415.574	327.11
415.951	334.57
416.328	331.18
416.705	335.7
417.082	333.21
417.46	343.15
417.837	341.57
418.214	330.27
418.591	318.3
418.967	331.63
419.344	351.06
419.721	342.48
420.098	326.43
420.475	334.57
420.852	333.44
421.228	339.99
421.605	345.64
421.982	338.64
422.358	340.89
422.735	355.13
423.111	331.4
423.488	337.73
423.864	340.89
424.241	332.99
424.617	334.57
424.994	386.32
425.37	370.05
425.746	328.24
426.123	346.09
426.499	338.18
426.875	337.96
427.251	337.51
427.627	360.56
428.003	325.08
428.379	341.8
428.756	342.25
429.132	358.75
429.507	348.8
429.883	354.91
430.259	374.79
430.635	351.52
431.011	353.78
431.387	372.76
431.763	354.23
432.138	349.93
432.514	344.06
432.89	348.35
433.265	354
433.641	361.91
434.016	352.42
434.392	362.82
434.767	363.04
435.143	356.26
435.518	379.99
435.894	370.27
436.269	339.09
436.644	370.72
437.02	371.63
437.395	372.53
437.77	365.3
438.145	371.85
438.52	364.85
438.895	376.83
439.271	363.04
439.646	386.09
440.021	389.03
440.395	380.67
440.77	365.75
441.145	363.72
441.52	381.35
441.895	367.56
442.27	380.44
442.645	377.5
443.019	380.22
443.394	360.33
443.769	399.42
444.143	389.03
444.518	400.33
444.892	375.24
445.267	380.89
445.641	401.68
446.016	375.47
446.39	393.77
446.764	384.51
447.139	394.68
447.513	380.22
447.887	390.39
448.262	378.63
448.636	383.61
449.01	388.58
449.384	399.42
449.758	417.28
450.132	385.87
450.506	391.74
450.88	379.76
451.254	365.98
451.628	415.02
452.002	384.74
452.376	386.09
452.75	378.41
453.123	386.09
453.497	397.16
453.871	405.3
454.244	425.41
454.618	394.23
454.992	412.98
455.365	415.02
455.739	394.45
456.112	411.18
456.486	414.57
456.859	401.46
457.232	384.51
457.606	398.97
457.979	432.64
458.352	414.79
458.725	417.96
459.099	431.06
459.472	402.14
459.845	426.77
460.218	417.05
460.591	456.15
460.964	450.95
461.337	450.04
461.71	428.58
462.083	448.46
462.456	434.23
462.829	418.63
463.201	425.19
463.574	436.94
463.947	443.04
464.32	460.89
464.692	445.98
465.065	473.77
465.438	440.55
465.81	441.23
466.183	460.89
466.555	446.43
466.928	463.6
467.3	451.63
467.672	444.62
468.045	448.01
468.417	464.96
468.789	476.48
469.161	453.43
469.534	469.93
469.906	481.23
470.278	485.52
470.65	482.59
471.022	467.22
471.394	492.76
471.766	476.26
472.138	485.75
472.51	487.11
472.882	487.11
473.253	499.31
473.625	493.89
473.997	511.29
474.369	499.53
474.74	521.91
475.112	505.41
475.484	509.93
475.855	499.31
476.227	543.38
476.598	549.25
476.97	524.39
477.341	532.3
477.713	538.18
478.084	531.17
478.455	525.97
478.827	531.85
479.198	541.79
479.569	542.7
479.94	549.48
480.311	560.32
480.682	587.22
481.053	569.36
481.424	571.17
481.795	615.46
482.166	585.41
482.537	589.93
482.908	600.1
483.279	608.23
483.65	611.85
484.021	644.39
484.391	609.59
484.762	627.67
485.133	612.98
485.503	623.37
485.874	650.94
486.244	631.28
486.615	655.69
486.985	649.36
487.356	656.37
487.726	663.37
488.097	687.33
488.467	671.96
488.837	668.12
489.207	686.42
489.578	685.52
489.948	701.11
490.318	704.73
490.688	712.41
491.058	704.05
491.428	693.88
491.798	725.97
492.168	718.06
492.538	715.8
492.908	746.53
493.278	735.46
493.648	731.39
494.017	744.5
494.387	750.38
494.757	731.85
495.126	741.79
495.496	761.67
495.866	757.83
496.235	758.74
496.605	765.29
496.974	794.67
497.344	785.4
497.713	788.57
498.082	796.7
498.452	780.66
498.821	772.07
499.19	784.27
499.559	808.91
499.928	817.04
500.298	804.84
500.667	808.68
501.036	841.67
501.405	824.05
501.774	824.95
502.143	813.2
502.512	823.82
502.88	818.85
503.249	820.66
503.618	816.14
503.987	846.19
504.356	825.4
504.724	837.83
505.093	843.03
505.462	845.06
505.83	838.96
506.199	829.92
506.567	862.01
506.936	860.66
507.304	845.74
507.672	858.85
508.041	866.08
508.409	880.99
508.777	871.95
509.145	877.83
509.514	865.17
509.882	866.76
510.25	891.16
510.618	872.41
510.986	874.21
511.354	880.09
511.722	878.06
512.09	897.26
512.458	899.52
512.826	895.23
513.193	920.99
513.561	912.63
513.929	899.07
514.297	925.96
514.664	919.86
515.032	908.34
515.4	924.16
515.767	897.04
516.135	927.77
516.502	920.09
516.869	920.54
517.237	932.29
517.604	934.1
517.972	924.38
518.339	924.38
518.706	927.32
519.073	941.56
519.44	931.16
519.808	940.65
520.175	946.3
520.542	977.04
520.909	942.24
521.276	984.49
521.643	930.94
522.009	978.62
522.376	979.75
522.743	961.67
523.11	960.54
523.477	962.12
523.843	970.48
524.21	997.37
524.577	993.31
524.943	994.66
525.31	993.76
525.676	1006.41
526.043	1007.09
526.409	1021.56
526.776	1029.46
527.142	1015
527.508	999.18
527.874	1026.07
528.241	1005.28
528.607	1056.36
528.973	1039.63
529.339	1036.02
529.705	1017.71
530.071	1055.45
530.437	998.05
530.803	1076.92
531.169	1044.38
531.535	1041.67
531.901	1024.72
532.267	1029.69
532.632	1038.5
532.998	1039.18
533.364	1035.34
533.73	1055.23
534.095	1044.61
534.461	1057.71
534.826	1024.04
535.192	1065.4
535.557	1052.29
535.923	1054.1
536.288	1063.14
536.653	1080.76
537.019	1059.75
537.384	1060.65
537.749	1054.55
538.114	1042.12
538.479	1065.62
538.845	1063.36
539.21	1049.12
539.575	1058.16
539.94	1049.12
540.305	1056.36
540.67	1065.62
541.034	1068.79
541.399	1063.14
541.764	1068.33
542.129	1063.36
542.494	1075.34
542.858	1085.96
543.223	1029.92
543.587	1072.85
543.952	1105.62
544.316	1077.37
544.681	1072.85
545.045	1072.18
545.41	1107.43
545.774	1076.02
546.138	1066.07
546.503	1060.65
546.867	1091.61
547.231	1069.46
547.595	1078.95
547.959	1078.95
548.324	1096.36
548.688	1075.79
549.052	1094.32
549.416	1068.33
549.779	1075.56
550.143	1083.25
550.507	1084.6
550.871	1088.67
551.235	1095.45
551.599	1097.49
551.962	1091.61
552.326	1078.28
552.689	1106.3
553.053	1104.49
553.417	1067.2
553.78	1107.2
554.143	1103.81
554.507	1112.85
554.87	1095.68
555.234	1092.51
555.597	1131.83
555.96	1140.2
556.323	1108.78
556.686	1123.93
557.05	1102.68
557.413	1110.37
557.776	1125.06
558.139	1100.65
558.502	1099.07
558.865	1102.23
559.228	1115.34
559.59	1108.78
559.953	1113.76
560.316	1120.31
560.679	1149.46
561.041	1152.63
561.404	1132.74
561.767	1153.75
562.129	1150.82
562.492	1135.68
562.854	1165.28
563.217	1139.74
563.579	1142
563.941	1165.28
564.304	1175.45
564.666	1158.95
565.028	1177.71
565.39	1160.31
565.753	1182
566.115	1166.18
566.477	1170.93
566.839	1151.72
567.201	1177.94
567.563	1157.14
567.925	1168.9
568.287	1177.26
568.648	1143.81
569.01	1193.08
569.372	1195.56
569.734	1166.64
570.095	1195.34
570.457	1191.95
570.819	1191.49
571.18	1185.17
571.542	1192.62
571.903	1225.62
572.265	1183.13
572.626	1192.85
572.987	1186.52
573.349	1191.95
573.71	1210.25
574.071	1210.02
574.432	1177.94
574.794	1195.34
575.155	1183.58
575.516	1193.3
575.877	1199.86
576.238	1223.58
576.599	1198.27
576.96	1196.47
577.32	1172.06
577.681	1191.04
578.042	1181.78
578.403	1215.22
578.763	1217.48
579.124	1193.75
579.485	1171.16
579.845	1188.78
580.206	1203.25
580.566	1209.57
580.927	1185.17
581.287	1178.84
581.648	1184.71
582.008	1184.04
582.368	1192.62
582.728	1221.55
583.089	1177.94
583.449	1189.01
583.809	1183.58
584.169	1214.09
584.529	1214.32
584.889	1208.67
585.249	1202.12
585.609	1182.23
585.969	1208.67
586.329	1170.25
586.688	1183.36
587.048	1189.23
587.408	1188.78
587.768	1183.81
588.127	1189.01
588.487	1166.86
588.846	1180.87
589.206	1184.04
589.565	1172.29
589.925	1167.09
590.284	1169.35
590.643	1189.23
591.003	1182.91
591.362	1184.04
591.721	1155.11
592.08	1157.37
592.44	1163.25
592.799	1191.49
593.158	1188.78
593.517	1198.95
593.876	1215.22
594.235	1168.44
594.593	1191.49
594.952	1167.77
595.311	1172.74
595.67	1156.92
596.029	1185.17
596.387	1172.51
596.746	1171.16
597.104	1170.93
597.463	1145.17
597.822	1147.65
598.18	1192.4
598.538	1149.91
598.897	1158.73
599.255	1170.7
599.613	1166.64
599.972	1161.21
600.33	1176.35
600.688	1178.39
601.046	1189.69
601.404	1179.97
601.762	1212.28
602.12	1191.72
602.478	1167.99
602.836	1176.35
603.194	1169.35
603.552	1172.96
603.91	1176.58
604.268	1203.25
604.625	1180.65
604.983	1184.26
605.341	1183.36
605.698	1196.24
606.056	1193.3
606.413	1196.01
606.771	1171.16
607.128	1164.6
607.485	1216.13
607.843	1192.85
608.2	1171.61
608.557	1218.39
608.914	1209.8
609.272	1169.12
609.629	1236.92
609.986	1196.01
610.343	1189.23
610.7	1191.95
611.057	1224.04
611.414	1217.93
611.771	1177.94
612.127	1197.14
612.484	1189.01
612.841	1210.7
613.198	1225.62
613.554	1186.97
613.911	1205.28
614.267	1172.74
614.624	1198.27
614.98	1223.58
615.337	1232.62
615.693	1195.79
616.05	1223.58
616.406	1227.43
616.762	1190.14
617.118	1227.65
617.475	1222
617.831	1209.12
618.187	1220.42
618.543	1222.68
618.899	1210.7
619.255	1243.47
619.611	1201.21
619.967	1237.59
620.323	1244.15
620.678	1226.3
621.034	1229.23
621.39	1217.71
621.746	1231.04
622.101	1210.7
622.457	1199.4
622.812	1227.65
623.168	1213.19
623.523	1216.8
623.879	1222.45
624.234	1205.05
624.589	1220.42
624.945	1237.37
625.3	1225.17
625.655	1184.94
626.01	1233.3
626.365	1221.32
626.72	1225.84
627.075	1237.82
627.43	1248.89
627.785	1234.88
628.14	1224.94
628.495	1215.9
628.85	1214.54
629.205	1219.97
629.559	1214.09
629.914	1209.8
630.269	1243.92
630.623	1236.69
630.978	1196.92
631.332	1228.56
631.687	1252.96
632.041	1212.96
632.396	1240.53
632.75	1196.69
633.104	1214.09
633.459	1201.44
633.813	1214.77
634.167	1217.71
634.521	1191.49
634.875	1204.38
635.229	1226.07
635.583	1197.14
635.937	1208.67
636.291	1221.55
636.645	1240.98
636.999	1208.44
637.352	1215.67
637.706	1226.3
638.06	1213.41
638.413	1192.17
638.767	1211.38
639.121	1214.77
639.474	1210.7
639.828	1224.04
640.181	1194.21
640.534	1236.24
640.888	1219.52
641.241	1216.35
641.594	1205.73
641.947	1202.12
642.301	1233.75
642.654	1186.75
643.007	1187.43
643.36	1225.39
643.713	1212.74
644.066	1222.45
644.419	1212.06
644.771	1206.41
645.124	1198.05
645.477	1216.8
645.83	1181.78
646.182	1187.65
646.535	1204.83
646.888	1195.79
647.24	1179.97
647.593	1214.77
647.945	1175.68
648.298	1192.85
648.65	1205.28
649.002	1189.91
649.355	1199.63
649.707	1192.85
650.059	1199.63
650.411	1205.73
650.763	1214.09
651.115	1233.07
651.467	1243.47
651.819	1228.56
652.171	1241.21
652.523	1239.63
652.875	1235.11
653.227	1237.14
653.578	1229.91
653.93	1227.88
654.282	1257.03
654.633	1232.4
654.985	1230.14
655.337	1246.86
655.688	1275.11
656.039	1236.69
656.391	1270.36
656.742	1258.38
657.094	1265.39
657.445	1285.05
657.796	1297.25
658.147	1279.18
658.498	1285.73
658.849	1292.51
659.2	1313.07
659.551	1290.25
659.902	1312.39
660.253	1323.02
660.604	1312.17
660.955	1323.69
661.306	1306.75
661.656	1354.88
662.007	1331.83
662.358	1328.89
662.708	1340.87
663.059	1338.83
663.409	1342
663.76	1332.96
664.11	1367.99
664.461	1352.17
664.811	1381.32
665.161	1402.11
665.511	1400.53
665.862	1389
666.212	1380.42
666.562	1402.11
666.912	1408.21
667.262	1419.96
667.612	1439.4
667.962	1452.96
668.312	1449.57
668.662	1488.66
669.011	1469.68
669.361	1469.9
669.711	1472.84
670.06	1471.94
670.41	1487.76
670.76	1518.72
671.109	1512.16
671.459	1506.51
671.808	1517.36
672.157	1520.07
672.507	1534.31
672.856	1559.85
673.205	1560.98
673.554	1556.91
673.904	1575.89
674.253	1616.34
674.602	1600.97
674.951	1608.21
675.3	1608.66
675.649	1629.67
675.998	1639.39
676.346	1673.06
676.695	1657.24
677.044	1693.4
677.393	1671.26
677.741	1693.85
678.09	1704.47
678.438	1720.29
678.787	1730.01
679.135	1752.38
679.484	1743.57
679.832	1770.91
680.181	1742.44
680.529	1833.51
680.877	1813.4
681.225	1824.02
681.573	1835.09
681.922	1842.78
682.27	1843.23
682.618	1881.19
682.966	1857.47
683.314	1933.17
683.661	1914.41
684.009	1917.35
684.357	1928.88
684.705	1969.33
685.053	1991.7
685.4	1995.31
685.748	2006.84
686.095	2024.47
686.443	2025.14
686.79	2023.34
687.138	2032.6
687.485	2062.88
687.832	2078.02
688.18	2089.78
688.527	2101.53
688.874	2132.94
689.221	2115.76
689.568	2143.11
689.915	2156.89
690.262	2168.42
690.609	2188.08
690.956	2214.52
691.303	2235.99
691.65	2257.68
691.997	2279.38
692.344	2251.35
692.69	2276.66
693.037	2302.65
693.383	2314.4
693.73	2329.54
694.077	2343.33
694.423	2341.29
694.769	2398.02
695.116	2384.68
695.462	2385.36
695.808	2420.39
696.155	2410.9
696.501	2419.94
696.847	2453.38
697.193	2463.1
697.539	2476.66
697.885	2504
698.231	2504.45
698.577	2534.74
698.923	2535.19
699.269	2517.33
699.614	2565.47
699.96	2587.39
700.306	2615.86
700.651	2580.84
700.997	2621.96
701.342	2632.13
701.688	2683.66
702.033	2672.13
702.379	2635.98
702.724	2696.09
703.069	2723.21
703.415	2720.04
703.76	2730.21
704.105	2720.95
704.45	2770.89
704.795	2757.1
705.14	2785.12
705.485	2814.28
705.83	2781.96
706.175	2830.32
706.52	2838.23
706.865	2888.17
707.209	2895.63
707.554	2862.41
707.899	2886.14
708.243	2887.95
708.588	2931.56
708.932	2953.48
709.277	2964.1
709.621	2942.18
709.966	2987.15
710.31	2963.2
710.654	2998.68
710.998	3030.77
711.342	3039.58
711.687	3066.02
712.031	3015.17
712.375	3032.35
712.719	3068.73
713.063	3112.12
713.407	3104.89
713.75	3095.85
714.094	3107.6
714.438	3090.43
714.782	3124.55
715.125	3133.59
715.469	3158
715.812	3150.54
716.156	3146.47
716.499	3170.88
716.843	3189.63
717.186	3205.45
717.53	3238.45
717.873	3268.05
718.216	3243.64
718.559	3196.41
718.902	3246.81
719.246	3243.19
719.589	3280.03
719.932	3291.55
720.275	3262.63
720.617	3296.3
720.96	3304.88
721.303	3315.05
721.646	3292.46
721.989	3321.83
722.331	3329.74
722.674	3324.77
723.016	3360.93
723.359	3369.52
723.701	3375.84
724.044	3337.43
724.386	3354.15
724.729	3371.32
725.071	3379.01
725.413	3403.87
725.755	3411.1
726.097	3393.24
726.439	3375.62
726.782	3350.76
727.124	3418.1
727.465	3390.08
727.807	3439.8
728.149	3406.35
728.491	3450.42
728.833	3434.37
729.175	3422.85
729.516	3446.8
729.858	3390.76
730.199	3443.64
730.541	3464.88
730.882	3466.91
731.224	3448.38
731.565	3434.37
731.906	3446.12
732.248	3428.05
732.589	3446.58
732.93	3413.58
733.271	3447.48
733.612	3456.29
733.953	3450.42
734.294	3489.29
734.635	3449.74
734.976	3458.78
735.317	3441.6
735.658	3448.84
735.999	3494.26
736.339	3478.67
736.68	3501.04
737.021	3467.82
737.361	3462.62
737.702	3499
738.042	3470.08
738.383	3459.46
738.723	3486.12
739.063	3450.87
739.404	3468.27
739.744	3479.57
740.084	3498.55
740.424	3468.27
740.764	3475.5
741.104	3468.5
741.444	3448.61
741.784	3440.93
742.124	3475.28
742.464	3449.06
742.804	3453.13
743.143	3420.36
743.483	3449.97
743.823	3472.34
744.162	3416.07
744.502	3473.47
744.841	3443.64
745.181	3452.68
745.52	3449.74
745.86	3452.9
746.199	3457.2
746.538	3463.52
746.877	3469.4
747.216	3459.01
747.556	3449.51
747.895	3418.55
748.234	3451.55
748.573	3426.46
748.911	3433.7
749.25	3376.3
749.589	3405.9
749.928	3383.75
750.267	3448.84
750.605	3404.77
750.944	3365.22
751.283	3400.25
751.621	3404.77
751.96	3402.74
752.298	3390.76
752.636	3327.71
752.975	3350.99
753.313	3389.85
753.651	3383.75
753.989	3350.08
754.327	3377.2
754.666	3344.88
755.004	3385.11
755.342	3367.26
755.679	3349.63
756.017	3344.43
756.355	3362.74
756.693	3341.95
757.031	3339.69
757.368	3293.13
757.706	3289.52
758.044	3305.34
758.381	3290.2
758.719	3250.2
759.056	3293.36
759.394	3251.33
759.731	3268.5
760.068	3255.17
760.405	3248.84
760.743	3235.06
761.08	3264.89
761.417	3229.63
761.754	3224.21
762.091	3228.28
762.428	3229.86
762.765	3187.15
763.102	3205
763.438	3209.29
763.775	3199.35
764.112	3186.7
764.449	3150.76
764.785	3189.41
765.122	3163.65
765.458	3169.07
765.795	3161.16
766.131	3127.49
766.467	3125.45
766.804	3127.94
767.14	3107.38
767.476	3082.52
767.812	3089.75
768.148	3078.68
768.485	3074.83
768.821	3024.21
769.157	3072.8
769.492	3064.67
769.828	3023.76
770.164	3008.62
770.5	3021.05
770.836	3039.13
771.171	3001.84
771.507	2979.02
771.842	2963.65
772.178	2970.2
772.513	2950.77
772.849	2936.08
773.184	2954.61
773.519	2943.54
773.855	2952.8
774.19	2950.54
774.525	2920.71
774.86	2953.93
775.195	2888.17
775.53	2913.48
775.865	2868.96
776.2	2893.37
776.535	2865.8
776.87	2888.17
777.205	2837.33
777.539	2815.63
777.874	2838.46
778.209	2792.58
778.543	2800.72
778.878	2807.95
779.212	2789.42
779.547	2790.32
779.881	2781.96
780.215	2752.81
780.55	2737.67
780.884	2760.49
781.218	2740.15
781.552	2729.31
781.886	2723.66
782.22	2734.96
782.554	2690.89
782.888	2681.85
783.222	2675.52
783.556	2666.26
783.889	2645.47
784.223	2654.51
784.557	2647.05
784.89	2689.08
785.224	2625.81
785.557	2632.13
785.891	2620.38
786.224	2616.54
786.558	2629.87
786.891	2597.33
787.224	2607.05
787.557	2608.63
787.891	2565.02
788.224	2565.47
788.557	2603.21
788.89	2554.17
789.223	2579.03
789.556	2553.27
789.888	2541.29
790.221	2492.25
790.554	2522.08
790.887	2511.69
791.219	2512.59
791.552	2471.91
791.884	2476.43
792.217	2501.29
792.549	2489.54
792.882	2474.85
793.214	2480.73
793.546	2453.38
793.879	2470.33
794.211	2419.71
794.543	2464.45
794.875	2414.29
795.207	2423.55
795.539	2408.41
795.871	2394.85
796.203	2379.94
796.535	2388.98
796.867	2386.04
797.198	2379.26
797.53	2400.28
797.862	2370.45
798.193	2360.28
798.525	2358.7
798.856	2345.14
799.188	2332.93
799.519	2339.26
799.85	2318.92
800.182	2344.91
800.513	2335.42
800.844	2325.7
801.175	2320.28
801.506	2303.56
801.837	2282.54
802.168	2313.95
802.499	2282.54
802.83	2274.18
803.161	2248.42
803.491	2225.14
803.822	2282.31
804.153	2262.2
804.483	2246.83
804.814	2243.44
805.145	2237.34
805.475	2248.42
805.805	2242.99
806.136	2239.38
806.466	2219.26
806.796	2196.44
807.126	2174.29
807.457	2178.59
807.787	2190.34
808.117	2184.24
808.447	2212.03
808.777	2168.64
809.107	2188.08
809.436	2172.49
809.766	2141.07
810.096	2168.19
810.426	2153.5
810.755	2191.02
811.085	2191.02
811.414	2160.96
811.744	2140.85
812.073	2103.33
812.403	2150.79
812.732	2129.32
813.061	2120.06
813.39	2118.93
813.719	2126.61
814.049	2130.9
814.378	2101.07
814.707	2109.21
815.036	2099.94
815.365	2120.06
815.693	2065.82
816.022	2069.44
816.351	2061.53
816.68	2070.12
817.008	2043.22
817.337	2021.08
817.665	2045.93
817.994	2052.94
818.322	2049.32
818.651	2036.22
818.979	2018.82
819.307	2033.73
819.636	2040.29
819.964	2018.59
820.292	2017.01
820.62	2036.67
820.948	2010.23
821.276	2029.66
821.604	2008.2
821.932	1994.64
822.259	2033.96
822.587	2009.33
822.915	2039.16
823.243	2002.77
823.57	2005.03
823.898	2011.36
824.225	1996.22
824.553	2004.13
824.88	2022.21
825.207	2027.63
825.535	2005.48
825.862	2007.29
826.189	2000.51
826.516	2040.29
826.843	2048.19
827.17	2014.07
827.497	2012.04
827.824	2025.14
828.151	1998.25
828.478	1970.91
828.805	1999.83
829.131	2012.72
829.458	1995.09
829.785	2037.12
830.111	2014.98
830.438	2016.56
830.764	2000.96
831.09	2009.1
831.417	1979.27
831.743	2007.07
832.069	2028.31
832.395	1986.95
832.722	1988.99
833.048	2002.55
833.374	2027.86
833.7	1982.21
834.026	1985.6
834.351	1978.59
834.677	2014.07
835.003	2003.9
835.329	1960.51
835.654	1972.26
835.98	1972.26
836.306	1974.98
836.631	1953.06
836.956	1962.55
837.282	1988.99
837.607	1971.13
837.932	2010.23
838.258	1982.66
838.583	1959.38
838.908	1941.76
839.233	1936.33
839.558	1938.37
839.883	1958.25
840.208	1952.83
840.533	1952.15
840.858	1963.23
841.182	1930.46
841.507	1927.97
841.832	1944.02
842.156	1916.45
842.481	1928.88
842.805	1926.84
843.13	1906.73
843.454	1927.52
843.778	1925.94
844.103	1900.63
844.427	1886.39
844.751	1898.59
845.075	1881.19
845.399	1868.31
845.723	1870.57
846.047	1884.36
846.371	1878.48
846.695	1869.89
847.019	1849.1
847.343	1832.38
847.666	1859.5
847.99	1852.49
848.313	1809.78
848.637	1858.6
848.96	1825.6
849.284	1835.77
849.607	1799.61
849.931	1804.59
850.254	1779.95
850.577	1782.89
850.9	1779.73
851.223	1779.95
851.546	1781.99
851.869	1773.17
852.192	1786.05
852.515	1777.92
852.838	1737.24
853.161	1767.07
853.483	1764.13
853.806	1732.95
854.129	1732.27
854.451	1754.42
854.774	1724.14
855.096	1738.82
855.419	1711.48
855.741	1735.43
856.063	1727.98
856.385	1720.75
856.708	1692.72
857.03	1709.45
857.352	1700.41
857.674	1691.14
857.996	1687.07
858.318	1680.75
858.64	1680.29
858.961	1669.22
859.283	1631.71
859.605	1643.23
859.926	1672.39
860.248	1650.01
860.57	1638.49
860.891	1671.03
861.212	1654.08
861.534	1669.22
861.855	1655.21
862.176	1642.1
862.498	1654.53
862.819	1643.69
863.14	1632.84
863.461	1621.31
863.782	1627.64
864.103	1647.75
864.424	1631.03
864.745	1631.71
865.065	1597.36
865.386	1621.31
865.707	1612.5
866.027	1624.93
866.348	1630.35
866.668	1627.41
866.989	1639.62
867.309	1602.78
867.63	1618.6
867.95	1597.59
868.27	1570.47
868.59	1596.68
868.91	1617.02
869.23	1609.56
869.55	1577.47
869.87	1590.13
870.19	1597.81
870.51	1586.51
870.83	1577.92
871.15	1581.31
871.469	1582.9
871.789	1596.23
872.109	1561.65
872.428	1566.17
872.748	1602.33
873.067	1572.73
873.386	1583.57
873.706	1551.03
874.025	1551.71
874.344	1532.5
874.663	1574.31
874.982	1550.58
875.301	1534.54
875.62	1566.63
875.939	1554.65
876.258	1569.34
876.577	1520.98
876.896	1554.42
877.214	1558.26
877.533	1566.4
877.852	1541.09
878.17	1549.9
878.489	1575.44
878.807	1546.74
879.125	1526.4
879.444	1525.27
879.762	1525.5
880.08	1539.06
880.398	1540.86
880.716	1521.88
881.034	1549
881.352	1506.29
881.67	1523.24
881.988	1505.16
882.306	1513.29
882.624	1517.59
882.941	1494.54
883.259	1499.51
883.577	1494.99
883.894	1483.92
884.212	1487.08
884.529	1499.28
884.846	1475.78
885.164	1502.9
885.481	1469.68
885.798	1490.24
886.115	1493.18
886.432	1469.23
886.75	1482.33
887.067	1477.36
887.383	1467.65
887.7	1476.46
888.017	1448.44
888.334	1469.9
888.651	1460.19
888.967	1472.39
889.284	1448.21
889.6	1420.64
889.917	1487.98
890.233	1438.27
890.55	1410.47
890.866	1454.99
891.182	1414.31
891.498	1436.01
891.815	1398.27
892.131	1422.22
892.447	1449.57
892.763	1412.73
893.079	1395.78
893.395	1422.67
893.71	1425.16
894.026	1379.74
894.342	1413.41
894.657	1356.24
894.973	1400.53
895.289	1389.68
895.604	1424.48
895.92	1384.71
896.235	1367.53
896.55	1371.38
896.865	1398.95
897.181	1380.64
897.496	1389
897.811	1376.57
898.126	1363.02
898.441	1367.31
898.756	1368.21
899.071	1338.38
899.386	1354.88
899.7	1378.38
900.015	1340.64
900.33	1342
900.644	1336.58
900.959	1305.84
901.273	1336.12
901.588	1324.82
901.902	1298.84
902.216	1317.14
902.531	1301.1
902.845	1307.42
903.159	1309.23
903.473	1285.05
903.787	1301.32
904.101	1272.17
904.415	1290.25
904.729	1269.68
905.042	1263.13
905.356	1277.59
905.67	1268.33
905.984	1251.61
906.297	1284.15
906.611	1241.66
906.924	1278.05
907.237	1271.49
907.551	1237.14
907.864	1257.71
908.177	1246.41
908.491	1252.74
908.804	1243.47
909.117	1212.51
909.43	1256.58
909.743	1238.72
910.056	1214.09
910.368	1206.86
910.681	1224.49
910.994	1220.65
911.307	1215.9
911.619	1179.07
911.932	1219.74
912.244	1185.84
912.557	1181.78
912.869	1199.63
913.181	1185.62
913.494	1186.3
913.806	1200.08
914.118	1156.92
914.43	1179.52
914.742	1176.81
915.054	1159.86
915.366	1163.92
915.678	1141.78
915.99	1140.65
916.302	1128.22
916.613	1142.68
916.925	1115.11
917.236	1155.56
917.548	1121.89
917.859	1143.13
918.171	1124.38
918.482	1104.26
918.794	1114.89
919.105	1102
919.416	1135.68
919.727	1122.8
920.038	1120.99
920.349	1087.77
920.66	1109.01
920.971	1112.85
921.282	1110.37
921.593	1073.08
921.903	1078.5
922.214	1087.99
922.525	1093.42
922.835	1074.44
923.146	1062.01
923.456	1068.79
923.767	1073.53
924.077	1047.32
924.387	1082.8
924.697	1043.48
925.008	1080.08
925.318	1041.22
925.628	1048.22
925.938	1045.96
926.248	1046.41
926.558	1044.15
926.867	1045.28
927.177	1013.19
927.487	1038.73
927.796	1042.57
928.106	1032.18
928.416	1040.54
928.725	1018.62
929.034	1009.8
929.344	996.92
929.653	1012.74
929.962	1015.23
930.271	1015.68
930.581	1017.71
930.89	990.82
931.199	1008.22
931.508	980.43
931.817	1006.19
932.125	984.72
932.434	984.95
932.743	956.02
933.051	977.71
933.36	975.23
933.669	980.43
933.977	988.56
934.286	957.6
934.594	959.41
934.902	947.21
935.21	971.16
935.519	944.49
935.827	938.85
936.135	947.88
936.443	939.98
936.751	954.44
937.059	930.26
937.367	955.34
937.674	906.98
937.982	928.9
938.29	915.34
938.597	930.03
938.905	907.89
939.213	933.65
939.52	910.6
939.827	915.8
940.135	899.98
940.442	927.32
940.749	920.54
941.056	905.63
941.363	895
941.67	872.41
941.977	884.84
942.284	918.73
942.591	882.8
942.898	908.56
943.205	886.19
943.511	874.67
943.818	892.07
944.125	896.13
944.431	869.47
944.738	883.48
945.044	871.05
945.35	862.24
945.657	879.19
945.963	856.59
946.269	863.14
946.575	869.24
946.881	858.85
947.187	839.64
947.493	852.97
947.799	837.61
948.105	862.01
948.41	853.42
948.716	848.68
949.022	837.15
949.327	834.22
949.633	834.44
949.938	835.12
950.244	812.97
950.549	848.9
950.854	844.16
951.16	826.76
951.465	834.22
951.77	803.71
952.075	796.25
952.38	805.06
952.685	812.97
952.99	813.42
953.294	818.85
953.599	811.62
953.904	790.37
954.209	803.48
954.513	811.17
954.818	797.38
955.122	813.42
955.426	786.08
955.731	784.5
956.035	783.37
956.339	775.23
956.643	789.24
956.948	780.88
957.252	778.62
957.556	788.57
957.86	778.4
958.163	809.13
958.467	792.41
958.771	768.45
959.075	759.42
959.378	772.97
959.682	765.52
959.985	758.51
960.289	755.12
960.592	746.99
960.896	750.15
961.199	736.59
961.502	755.35
961.805	757.83
962.108	749.92
962.411	752.64
962.714	756.7
963.017	742.92
963.32	753.09
963.623	716.48
963.926	746.76
964.228	712.41
964.531	735.01
964.833	738.17
965.136	714.22
965.438	737.49
965.741	724.39
966.043	732.07
966.345	720.55
966.648	708.12
966.95	729.13
967.252	713.99
967.554	721.45
967.856	690.04
968.158	718.74
968.46	696.37
968.761	707.89
969.063	710.83
969.365	711.51
969.666	699.76
969.968	698.17
970.269	707.67
970.571	695.24
970.872	722.13
971.174	669.7
971.475	668.34
971.776	681.9
972.077	712.41
972.378	693.88
972.679	681.68
972.98	685.29
973.281	666.54
973.582	653.2
973.883	691.17
974.183	670.83
974.484	656.82
974.785	678.06
975.085	665.41
975.386	661.34
975.686	668.12
975.986	659.98
976.287	666.08
976.587	641.23
976.887	651.4
977.187	655.24
977.487	654.33
977.787	640.77
978.087	628.8
978.387	640.32
978.687	647.78
978.987	645.97
979.286	633.77
979.586	649.36
979.885	610.72
980.185	647.1
980.484	632.64
980.784	629.25
981.083	637.61
981.382	631.28
981.682	628.57
981.981	619.53
982.28	617.72
982.579	610.04
982.878	641.9
983.177	618.4
983.475	634.9
983.774	622.24
984.073	617.72
984.372	617.5
984.67	631.51
984.969	585.63
985.267	615.69
985.566	601.91
985.864	615.69
986.162	632.86
986.461	604.16
986.759	600.32
987.057	602.81
987.355	599.19
987.653	600.55
987.951	586.09
988.249	614.79
988.547	606.88
988.844	601.91
989.142	615.01
989.44	602.58
989.737	593.54
990.035	581.57
990.332	571.4
990.63	590.38
990.927	568.23
991.224	576.37
991.521	597.84
991.819	580.66
992.116	606.2
992.413	611.62
992.71	591.06
993.006	572.53
993.303	560.78
993.6	575.01
993.897	578.4
994.193	565.97
994.49	575.24
994.787	554.67
995.083	576.6
995.379	575.69
995.676	587.22
995.972	547.44
996.268	573.66
996.565	554.45
996.861	555.8
997.157	562.58
997.453	543.83
997.749	555.35
998.044	564.17
998.34	565.97
998.636	553.54
998.932	566.88
999.227	547.22
999.523	548.8
999.818	548.8
1000.114	541.12
1000.409	544.51
1000.704	564.62
1001	549.25
1001.295	545.18
1001.59	529.82
1001.885	540.44
1002.18	540.44
1002.475	550.61
1002.77	509.48
1003.065	537.5
1003.359	545.18
1003.654	528.01
1003.949	514.9
1004.243	530.95
1004.538	498.18
1004.832	519.65
1005.127	516.03
1005.421	525.97
1005.715	517.61
1006.009	504.96
1006.304	501.57
1006.598	522.59
1006.892	512.64
1007.186	515.58
1007.48	512.87
1007.773	511.74
1008.067	523.72
1008.361	523.94
1008.655	518.07
1008.948	513.77
1009.242	514.45
1009.535	496.82
1009.829	495.24
1010.122	502.02
1010.415	493.43
1010.708	495.02
1011.001	503.83
1011.295	499.53
1011.588	482.13
1011.881	487.78
1012.173	485.07
1012.466	480.1
1012.759	480.78
1013.052	511.06
1013.344	494.79
1013.637	477.61
1013.93	490.95
1014.222	488.91
1014.514	500.66
1014.807	488.69
1015.099	465.86
1015.391	462.25
1015.683	466.32
1015.976	468.12
1016.268	487.11
1016.56	469.71
1016.851	457.95
1017.143	461.12
1017.435	460.44
1017.727	454.79
1018.018	457.5
1018.31	442.59
1018.602	458.18
1018.893	474.68
1019.185	468.8
1019.476	462.47
1019.767	448.46
1020.058	493.89
1020.35	448.91
1020.641	450.04
1020.932	460.89
1021.223	451.4
1021.514	444.17
1021.804	456.37
1022.095	471.96
1022.386	433.77
1022.677	447.33
1022.967	444.4
1023.258	454.34
1023.548	443.94
1023.839	447.56
1024.129	445.53
1024.419	445.53
1024.709	448.91
1025	438.52
1025.29	443.27
1025.58	434.23
1025.87	421.8
1026.16	440.55
1026.449	433.55
1026.739	423.38
1027.029	439.42
1027.319	425.64
1027.608	419.99
1027.898	441.46
1028.187	431.51
1028.477	402.81
1028.766	419.76
1029.055	434.68
1029.344	433.77
1029.634	434.45
1029.923	443.04
1030.212	436.94
1030.501	419.54
1030.79	424.06
1031.078	401.68
1031.367	413.21
1031.656	406.2
1031.945	406.43
1032.233	411.63
1032.522	412.53
1032.81	414.57
1033.099	414.11
1033.387	410.95
1033.675	403.27
1033.963	407.33
1034.251	398.29
1034.54	418.86
1034.828	411.18
1035.116	401.23
1035.403	406.66
1035.691	410.5
1035.979	423.6
1036.267	398.75
1036.554	401.23
1036.842	387.67
1037.129	416.15
1037.417	402.14
1037.704	399.42
1037.992	391.52
1038.279	398.75
1038.566	383.83
1038.853	383.83
1039.14	383.83
