Data from carpet_green_FLMS001491_00004.txt Node
Date: Wed Feb 08 10:34:47 GMT 2017
User: dcchb
Spectrometer: FLMS00149
Trigger mode: 0
Integration Time (sec): 2.000000E-2
Scans to average: 10
Electric dark correction enabled: true
Nonlinearity correction enabled: false
Boxcar width: 0
XAxis mode: Wavelengths
Number of Pixels in Spectrum: 2048
>>>>>Begin Spectral Data<<<<<
341.393	4.42
341.776	4.42
342.16	4.42
342.543	-56.14
342.927	-61.34
343.31	-57.72
343.693	-72.87
344.077	-55.24
344.46	-60.89
344.843	-47.33
345.226	-41.23
345.61	-29.7
345.993	-16.14
346.376	-9.59
346.759	10.75
347.142	19.34
347.525	39.67
347.908	46.23
348.291	77.19
348.674	87.81
349.057	109.73
349.44	137.07
349.823	128.26
350.206	176.39
350.588	162.16
350.971	194.7
351.354	192.44
351.737	180.46
352.119	208.26
352.502	235.15
352.884	252.1
353.267	249.61
353.65	276.96
354.032	286.45
354.414	273.34
354.797	286
355.179	260.01
355.562	296.62
355.944	301.81
356.326	302.49
356.709	311.31
357.091	322.83
357.473	288.48
357.855	305.66
358.238	321.47
358.62	318.76
359.002	300.23
359.384	314.47
359.766	323.28
360.148	295.71
360.53	313.57
360.912	293.45
361.294	311.53
361.676	322.83
362.057	303.4
362.439	312.66
362.821	313.79
363.203	298.2
363.584	283.51
363.966	271.31
364.348	295.49
364.729	285.09
365.111	276.28
365.493	274.47
365.874	298.65
366.256	291.19
366.637	285.54
367.019	287.35
367.4	276.96
367.781	288.48
368.163	284.64
368.544	279.22
368.925	278.31
369.306	299.55
369.688	277.41
370.069	283.96
370.45	277.41
370.831	271.76
371.212	286
371.593	267.69
371.974	273.57
372.355	267.46
372.736	291.87
373.117	271.31
373.498	285.09
373.879	269.05
374.26	270.18
374.641	266.11
375.021	282.61
375.402	283.28
375.783	263.62
376.163	271.31
376.544	276.05
376.925	285.54
377.305	291.19
377.686	289.16
378.066	295.49
378.447	271.76
378.827	292.77
379.208	298.88
379.588	295.26
379.968	288.03
380.349	302.27
380.729	298.65
381.109	303.85
381.489	299.55
381.87	285.54
382.25	300.23
382.63	289.84
383.01	298.2
383.39	285.54
383.77	291.42
384.15	314.7
384.53	293.68
384.91	270.18
385.29	292.55
385.67	288.26
386.049	295.03
386.429	309.95
386.809	282.83
387.189	290.97
387.568	291.64
387.948	303.17
388.328	292.55
388.707	306.11
389.087	296.62
389.466	295.94
389.846	301.81
390.225	314.92
390.605	297.75
390.984	289.84
391.363	294.58
391.743	316.05
392.122	304.3
392.501	288.48
392.881	318.54
393.26	311.31
393.639	332.55
394.018	327.58
394.397	301.36
394.776	283.51
395.155	319.89
395.534	278.76
395.913	305.2
396.292	296.39
396.671	316.95
397.05	311.76
397.429	316.5
397.808	298.42
398.186	302.49
398.565	298.42
398.944	290.97
399.323	311.98
399.701	311.76
400.08	320.12
400.458	317.63
400.837	302.94
401.215	322.38
401.594	317.86
401.972	322.38
402.351	309.05
402.729	300.46
403.107	303.85
403.486	313.57
403.864	305.43
404.242	311.31
404.62	324.41
404.999	301.14
405.377	310.18
405.755	316.05
406.133	297.29
406.511	313.34
406.889	307.24
407.267	332.32
407.645	324.86
408.023	316.5
408.401	344.52
408.779	318.76
409.156	309.72
409.534	310.85
409.912	322.38
410.29	331.64
410.667	293.45
411.045	301.59
411.422	314.02
411.8	307.24
412.178	327.12
412.555	320.57
412.933	337.97
413.31	345.43
413.687	316.95
414.065	310.18
414.442	313.34
414.819	326.67
415.197	326.9
415.574	336.84
415.951	338.65
416.328	328.25
416.705	330.74
417.082	319.67
417.46	328.03
417.837	340.46
418.214	346.11
418.591	345.88
418.967	342.27
419.344	339.33
419.721	340.68
420.098	321.47
420.475	318.76
420.852	320.57
421.228	324.41
421.605	350.4
421.982	328.03
422.358	335.94
422.735	334.36
423.111	326.9
423.488	356.5
423.864	337.07
424.241	327.8
424.617	338.88
424.994	330.51
425.37	341.59
425.746	330.97
426.123	357.63
426.499	372.09
426.875	351.76
427.251	349.72
427.627	355.6
428.003	338.65
428.379	337.97
428.756	336.39
429.132	362.15
429.507	360.8
429.883	343.85
430.259	357.18
430.635	342.72
431.011	340.01
431.387	342.72
431.763	358.99
432.138	375.03
432.514	354.24
432.89	356.5
433.265	372.09
433.641	363.06
434.016	374.35
434.392	341.59
434.767	377.52
435.143	384.52
435.518	381.13
435.894	376.16
436.269	348.37
436.644	349.27
437.02	361.7
437.395	378.65
437.77	377.07
438.145	372.55
438.52	383.62
438.895	380.46
439.271	370.29
439.646	378.65
440.021	383.17
440.395	387.91
440.77	381.59
441.145	401.92
441.52	380.23
441.895	377.52
442.27	382.94
442.645	400.57
443.019	380.91
443.394	381.59
443.769	374.81
444.143	368.25
444.518	389.04
444.892	382.04
445.267	387.24
445.641	393.11
446.016	382.49
446.39	374.13
446.764	385.43
447.139	397.4
447.513	394.02
447.887	388.59
448.262	408.48
448.636	389.5
449.01	411.87
449.384	414.13
449.758	425.65
450.132	398.08
450.506	399.89
450.88	417.07
451.254	390.63
451.628	424.75
452.002	417.07
452.376	409.38
452.75	404.64
453.123	416.16
453.497	412.09
453.871	400.34
454.244	420.68
454.618	410.74
454.992	411.19
455.365	417.97
455.739	417.07
456.112	436.5
456.486	439.89
456.859	436.05
457.232	423.17
457.606	435.82
457.979	420.23
458.352	440.79
458.725	451.19
459.099	432.43
459.472	448.48
459.845	442.83
460.218	449.61
460.591	443.96
460.964	460.68
461.337	463.17
461.71	473.11
462.083	453.45
462.456	463.17
462.829	480.34
463.201	476.72
463.574	464.07
463.947	452.32
464.32	475.82
464.692	457.06
465.065	492.09
465.438	481.47
465.81	490.74
466.183	483.96
466.555	469.04
466.928	483.05
467.3	493.9
467.672	493.9
468.045	482.83
468.417	497.97
468.789	489.83
469.161	495.03
469.534	499.32
469.906	510.85
470.278	509.27
470.65	521.92
471.022	513.33
471.394	527.12
471.766	521.02
472.138	527.34
472.51	512.88
472.882	523.05
473.253	544.52
473.625	561.92
473.997	533.45
474.369	569.83
474.74	547.46
475.112	583.84
475.484	578.42
475.855	567.57
476.227	556.5
476.598	572.09
476.97	576.61
477.341	597.4
477.713	597.4
478.084	580
478.455	581.35
478.827	608.25
479.198	611.18
479.569	620.22
479.94	644.4
480.311	639.88
480.682	631.52
481.053	643.27
481.424	627.68
481.795	665.87
482.166	642.14
482.537	662.93
482.908	673.78
483.279	673.1
483.65	677.4
484.021	697.06
484.391	705.65
484.762	684.63
485.133	709.94
485.503	728.7
485.874	704.06
486.244	735.93
486.615	707.91
486.985	745.64
487.356	759.66
487.726	756.49
488.097	757.85
488.467	770.73
488.837	747.9
489.207	788.35
489.578	796.72
489.948	782.25
490.318	782.03
490.688	798.98
491.058	806.43
491.428	815.92
491.798	843.27
492.168	836.72
492.538	822.48
492.908	865.87
493.278	850.73
493.648	854.57
494.017	849.14
494.387	846.66
494.757	871.74
495.126	896.6
495.496	890.95
495.866	888.24
496.235	894.34
496.605	874.23
496.974	900.67
497.344	901.35
497.713	894.57
498.082	913.32
498.452	919.2
498.821	906.09
499.19	906.77
499.559	914.23
499.928	944.06
500.298	913.78
500.667	925.3
501.036	926.88
501.405	957.16
501.774	925.98
502.143	932.76
502.512	951.29
502.88	945.86
503.249	956.26
503.618	963.94
503.987	989.93
504.356	944.96
504.724	973.89
505.093	955.13
505.462	967.33
505.83	955.36
506.199	964.4
506.567	980.44
506.936	972.3
507.304	995.36
507.672	987.45
508.041	1020.89
508.409	999.87
508.777	982.25
509.145	1017.28
509.514	1023.6
509.882	1000.33
510.25	1030.38
510.618	1018.63
510.986	1020.44
511.354	1035.81
511.722	1035.81
512.09	1041.46
512.458	1036.71
512.826	1054.79
513.193	1064.28
513.561	1084.39
513.929	1033.09
514.297	1061.34
514.664	1057.5
515.032	1034.68
515.4	1075.35
515.767	1079.42
516.135	1044.62
516.502	1068.8
516.869	1079.42
517.237	1089.14
517.604	1081.23
517.972	1082.81
518.339	1084.17
518.706	1081
519.073	1079.87
519.44	1110.38
519.808	1106.76
520.175	1101.12
520.542	1131.17
520.909	1093.21
521.276	1116.48
521.643	1117.39
522.009	1139.31
522.376	1122.36
522.743	1123.26
523.11	1149.93
523.477	1126.2
523.843	1170.27
524.21	1150.15
524.577	1167.55
524.943	1156.48
525.31	1160.32
525.676	1141.34
526.043	1197.38
526.409	1179.98
526.776	1177.5
527.142	1154
527.508	1188.57
527.874	1190.38
528.241	1170.49
528.607	1203.94
528.973	1198.06
529.339	1175.01
529.705	1182.92
530.071	1178.63
530.437	1190.38
530.803	1175.01
531.169	1203.26
531.535	1201
531.901	1217.95
532.267	1224.95
532.632	1219.08
532.998	1225.41
533.364	1221.34
533.73	1247.33
534.095	1263.82
534.461	1217.72
534.826	1210.26
535.192	1238.74
535.557	1222.47
535.923	1242.13
536.288	1254.33
536.653	1197.61
537.019	1219.3
537.384	1230.6
537.749	1218.17
538.114	1261.34
538.479	1224.73
538.845	1241.68
539.21	1222.24
539.575	1233.54
539.94	1222.47
540.305	1231.96
540.67	1228.8
541.034	1240.77
541.399	1245.97
541.764	1228.12
542.129	1242.81
542.494	1269.02
542.858	1250.49
543.223	1219.08
543.587	1235.35
543.952	1216.82
544.316	1241.22
544.681	1246.87
545.045	1231.73
545.41	1236.7
545.774	1224.05
546.138	1227.89
546.503	1246.87
546.867	1241.9
547.231	1258.85
547.595	1238.96
547.959	1255.69
548.324	1226.76
548.688	1234.44
549.052	1246.2
549.416	1242.81
549.779	1254.78
550.143	1250.26
550.507	1259.98
550.871	1260.21
551.235	1250.26
551.599	1251.62
551.962	1294.1
552.326	1246.87
552.689	1239.87
553.053	1279.87
553.417	1263.14
553.78	1280.55
554.143	1266.53
554.507	1269.7
554.87	1297.72
555.234	1275.57
555.597	1263.37
555.96	1299.53
556.323	1266.31
556.686	1309.7
557.05	1314.67
557.413	1268.34
557.776	1273.99
558.139	1319.19
558.502	1305.18
558.865	1285.29
559.228	1275.8
559.59	1299.98
559.953	1310.6
560.316	1282.81
560.679	1292.97
561.041	1325.74
561.404	1309.25
561.767	1307.44
562.129	1333.88
562.492	1311.28
562.854	1344.95
563.217	1339.07
563.579	1331.39
563.941	1329.13
564.304	1346.08
564.666	1358.28
565.028	1339.75
565.39	1347.89
565.753	1348.11
566.115	1335.46
566.477	1371.84
566.839	1348.57
567.201	1391.5
567.563	1353.31
567.925	1355.35
568.287	1339.75
568.648	1350.15
569.01	1365.97
569.372	1358.74
569.734	1352.18
570.095	1391.05
570.457	1366.87
570.819	1365.74
571.18	1345.18
571.542	1351.05
571.903	1374.33
572.265	1359.64
572.626	1392.63
572.987	1377.27
573.349	1381.11
573.71	1364.61
574.071	1386.31
574.432	1383.37
574.794	1402.8
575.155	1399.19
575.516	1380.2
575.877	1374.78
576.238	1364.16
576.599	1396.47
576.96	1384.5
577.32	1377.94
577.681	1374.55
578.042	1362.8
578.403	1365.29
578.763	1378.4
579.124	1375.46
579.485	1378.4
579.845	1374.33
580.206	1357.61
580.566	1354.44
580.927	1327.55
581.287	1353.31
581.648	1369.36
582.008	1352.18
582.368	1363.48
582.728	1374.55
583.089	1364.61
583.449	1372.97
583.809	1367.55
584.169	1391.28
584.529	1378.4
584.889	1361
585.249	1369.13
585.609	1346.53
585.969	1373.88
586.329	1344.95
586.688	1370.94
587.048	1357.61
587.408	1345.4
587.768	1326.42
588.127	1336.14
588.487	1348.57
588.846	1362.8
589.206	1348.34
589.565	1333.65
589.925	1367.77
590.284	1327.1
590.643	1317.61
591.003	1351.96
591.362	1324.61
591.721	1332.07
592.08	1316.02
592.44	1338.62
592.799	1349.24
593.158	1306.53
593.517	1313.99
593.876	1359.19
594.235	1333.43
594.593	1313.31
594.952	1340.88
595.311	1331.39
595.67	1333.88
596.029	1330.26
596.387	1336.36
596.746	1326.65
597.104	1351.28
597.463	1353.99
597.822	1353.99
598.18	1295.23
598.538	1323.48
598.897	1318.28
599.255	1329.36
599.613	1319.19
599.972	1339.3
600.33	1323.26
600.688	1319.19
601.046	1310.6
601.404	1327.55
601.762	1313.76
602.12	1343.82
602.478	1329.81
602.836	1309.92
603.194	1331.17
603.552	1330.26
603.91	1330.71
604.268	1342.69
604.625	1325.06
604.983	1343.37
605.341	1339.98
605.698	1359.64
606.056	1354.89
606.413	1354.22
606.771	1345.85
607.128	1358.74
607.485	1329.81
607.843	1368.23
608.2	1321.67
608.557	1352.63
608.914	1347.44
609.272	1355.57
609.629	1372.97
609.986	1360.54
610.343	1325.97
610.7	1388.11
611.057	1375.68
611.414	1367.55
611.771	1370.71
612.127	1386.31
612.484	1364.16
612.841	1358.96
613.198	1362.58
613.554	1339.3
613.911	1359.19
614.267	1365.97
614.624	1364.61
614.98	1394.44
615.337	1369.81
615.693	1398.06
616.05	1377.04
616.406	1398.96
616.762	1374.78
617.118	1376.14
617.475	1415.91
617.831	1385.18
618.187	1380.88
618.543	1365.97
618.899	1405.29
619.255	1395.12
619.611	1402.12
619.967	1409.81
620.323	1389.47
620.678	1386.98
621.034	1376.36
621.39	1356.7
621.746	1346.53
622.101	1369.58
622.457	1403.71
622.812	1363.93
623.168	1360.09
623.523	1358.06
623.879	1368.68
624.234	1388.11
624.589	1360.54
624.945	1366.64
625.3	1380.43
625.655	1327.32
626.01	1359.64
626.365	1377.72
626.72	1384.5
627.075	1363.26
627.43	1386.98
627.785	1379.75
628.14	1384.95
628.495	1370.03
628.85	1371.16
629.205	1371.39
629.559	1360.09
629.914	1378.85
630.269	1383.37
630.623	1355.57
630.978	1396.47
631.332	1377.49
631.687	1366.42
632.041	1381.56
632.396	1357.83
632.75	1347.44
633.104	1353.09
633.459	1383.14
633.813	1361.9
634.167	1366.64
634.521	1369.13
634.875	1345.4
635.229	1376.81
635.583	1351.5
635.937	1361.22
636.291	1365.06
636.645	1350.83
636.999	1330.04
637.352	1348.11
637.706	1345.85
638.06	1368.23
638.413	1349.47
638.767	1340.43
639.121	1334.56
639.474	1375.68
639.828	1342.69
640.181	1355.57
640.534	1339.98
640.888	1360.77
641.241	1347.21
641.594	1373.42
641.947	1359.87
642.301	1342.24
642.654	1376.36
643.007	1365.97
643.36	1344.5
643.713	1349.47
644.066	1372.07
644.419	1355.57
644.771	1350.83
645.124	1356.48
645.477	1336.36
645.83	1339.3
646.182	1344.95
646.535	1316.93
646.888	1328.91
647.24	1345.4
647.593	1326.42
647.945	1358.74
648.298	1335.46
648.65	1335.91
649.002	1356.48
649.355	1358.96
649.707	1384.72
650.059	1356.7
650.411	1396.25
650.763	1413.42
651.115	1408.23
651.467	1399.41
651.819	1389.02
652.171	1443.25
652.523	1412.29
652.875	1401.22
653.227	1407.1
653.578	1411.16
653.93	1455.46
654.282	1444.38
654.633	1429.47
654.985	1443.93
655.337	1439.86
655.688	1429.92
656.039	1451.61
656.391	1466.53
656.742	1477.38
657.094	1457.94
657.445	1486.42
657.796	1480.31
658.147	1459.52
658.498	1496.13
658.849	1503.14
659.2	1490.48
659.551	1492.29
659.902	1537.71
660.253	1535.91
660.604	1519.86
660.955	1548.79
661.306	1531.39
661.656	1552.4
662.007	1538.17
662.358	1578.39
662.708	1561.22
663.059	1570.03
663.409	1570.03
663.76	1584.49
664.11	1587.66
664.461	1617.49
664.811	1617.03
665.161	1629.69
665.511	1611.38
665.862	1649.8
666.212	1629.46
666.562	1656.58
666.912	1656.13
667.262	1659.29
667.612	1688.22
667.962	1689.12
668.312	1705.62
668.662	1719.4
669.011	1754.43
669.361	1731.83
669.711	1708.1
670.06	1783.36
670.41	1770.48
670.76	1807.54
671.109	1798.95
671.459	1809.35
671.808	1813.19
672.157	1833.07
672.507	1819.97
672.856	1861.1
673.205	1864.48
673.554	1900.64
673.904	1900.19
674.253	1911.72
674.602	1894.54
674.951	1934.31
675.3	1860.19
675.649	1940.19
675.998	1966.63
676.346	1981.32
676.695	2027.64
677.044	2052.28
677.393	2041.88
677.741	2042.33
678.09	2079.62
678.438	2081.65
678.787	2097.25
679.135	2118.26
679.484	2129.79
679.832	2137.47
680.181	2156.45
680.529	2176.57
680.877	2231.93
681.225	2194.42
681.573	2250.01
681.922	2233.74
682.27	2227.41
682.618	2262.67
682.966	2274.64
683.314	2314.87
683.661	2316
684.009	2319.84
684.357	2334.98
684.705	2354.42
685.053	2402.55
685.4	2400.97
685.748	2411.82
686.095	2429.67
686.443	2448.42
686.79	2486.39
687.138	2498.14
687.485	2515.09
687.832	2538.37
688.18	2544.24
688.527	2550.79
688.874	2603.67
689.221	2603.45
689.568	2611.36
689.915	2661.98
690.262	2638.48
690.609	2655.88
690.956	2711.92
691.303	2703.11
691.65	2694.07
691.997	2745.37
692.344	2763.22
692.69	2784.91
693.037	2793.95
693.383	2802.54
693.73	2852.26
694.077	2854.06
694.423	2857.23
694.769	2919.37
695.116	2926.6
695.462	2929.09
695.808	2927.28
696.155	2983.78
696.501	2993.04
696.847	3026.71
697.193	3008.64
697.539	3086.37
697.885	3021.97
698.231	3099.71
698.577	3103.32
698.923	3128.41
699.269	3142.64
699.614	3153.26
699.96	3159.14
700.306	3166.82
700.651	3176.09
700.997	3185.35
701.342	3214.28
701.688	3233.71
702.033	3271.23
702.379	3275.97
702.724	3294.05
703.069	3358
703.415	3346.48
703.76	3378.12
704.105	3400.72
704.45	3430.77
704.795	3422.64
705.14	3447.72
705.485	3473.93
705.83	3463.54
706.175	3475.74
706.52	3520.03
706.865	3502.18
707.209	3536.76
707.554	3583.08
707.899	3603.65
708.243	3626.7
708.588	3618.34
708.932	3607.04
709.277	3636.19
709.621	3705.11
709.966	3695.4
710.31	3737.88
710.654	3675.28
710.998	3724.55
711.342	3743.98
711.687	3761.38
712.031	3798.45
712.375	3800.71
712.719	3820.37
713.063	3816.98
713.407	3819.69
713.75	3837.54
714.094	3879.57
714.438	3856.3
714.782	3908.95
715.125	3868.5
715.469	3953.92
715.812	3936.52
716.156	3959.12
716.499	3970.64
716.843	3969.06
717.186	3987.59
717.53	4020.81
717.873	4024.2
718.216	4021.49
718.559	4036.18
718.902	4021.72
719.246	4057.42
719.589	4061.94
719.932	4039.79
720.275	4092.22
720.617	4102.84
720.96	4138.55
721.303	4108.72
721.646	4142.84
721.989	4138.55
722.331	4164.76
722.674	4142.39
723.016	4189.62
723.359	4167.93
723.701	4189.4
724.044	4176.51
724.386	4193.69
724.729	4221.71
725.071	4244.76
725.413	4213.58
725.755	4224.87
726.097	4195.5
726.439	4203.41
726.782	4234.14
727.124	4288.15
727.465	4255.61
727.807	4247.02
728.149	4255.83
728.491	4321.82
728.833	4265.33
729.175	4298.77
729.516	4273.24
729.858	4301.26
730.199	4326.12
730.541	4327.02
730.882	4317.98
731.224	4312.56
731.565	4323.4
731.906	4327.02
732.248	4367.02
732.589	4346.45
732.93	4318.43
733.271	4354.14
733.612	4356.85
733.953	4362.05
734.294	4351.65
734.635	4322.95
734.976	4379.22
735.317	4357.07
735.658	4344.42
735.999	4331.76
736.339	4361.14
736.68	4401.59
737.021	4395.49
737.361	4339.9
737.702	4407.69
738.042	4356.85
738.383	4364.08
738.723	4394.81
739.063	4369.5
739.404	4388.49
739.744	4389.16
740.084	4374.48
740.424	4368.6
740.764	4361.14
741.104	4377.19
741.444	4352.1
741.784	4346.23
742.124	4354.59
742.464	4364.98
742.804	4333.8
743.143	4356.62
743.483	4346.91
743.823	4332.44
744.162	4337.64
744.502	4368.6
744.841	4377.19
745.181	4375.15
745.52	4383.29
745.86	4342.61
746.199	4332.22
746.538	4310.3
746.877	4349.62
747.216	4328.15
747.556	4316.17
747.895	4321.14
748.234	4308.49
748.573	4306.23
748.911	4272.56
749.25	4317.53
749.589	4281.82
749.928	4282.05
750.267	4302.84
750.605	4287.02
750.944	4289.51
751.283	4220.81
751.621	4293.57
751.96	4255.16
752.298	4282.73
752.636	4268.26
752.975	4258.55
753.313	4243.63
753.651	4246.57
753.989	4226
754.327	4247.7
754.666	4181.03
755.004	4188.72
755.342	4191.43
755.679	4254.03
756.017	4207.25
756.355	4193.92
756.693	4187.81
757.031	4184.65
757.368	4171.54
757.706	4211.99
758.044	4185.78
758.381	4159.11
758.719	4082.28
759.056	4133.8
759.394	4094.71
759.731	4108.27
760.068	4097.87
760.405	4077.31
760.743	4108.04
761.08	4103.3
761.417	4073.47
761.754	4068.04
762.091	4060.36
762.428	4048.83
762.765	4001.38
763.102	4050.19
763.438	3985.33
763.775	4038.89
764.112	3999.57
764.449	3961.83
764.785	3957.54
765.122	3926.8
765.458	3934.03
765.795	3942.17
766.131	3926.13
766.467	3919.35
766.804	3905.56
767.14	3875.28
767.476	3907.82
767.812	3857.65
768.148	3867.6
768.485	3901.72
768.821	3844.55
769.157	3817.43
769.492	3813.13
769.828	3831.44
770.164	3808.84
770.5	3826.92
770.836	3811.1
771.171	3741.72
771.507	3761.16
771.842	3767.49
772.178	3722.29
772.513	3710.54
772.849	3676.87
773.184	3663.53
773.519	3685.91
773.855	3686.81
774.19	3652.23
774.525	3633.93
774.86	3647.04
775.195	3633.25
775.53	3658.56
775.865	3622.63
776.2	3578.11
776.535	3588.51
776.87	3567.72
777.205	3543.31
777.539	3535.63
777.874	3543.08
778.209	3499.47
778.543	3547.6
778.878	3511.45
779.212	3458.12
779.547	3498.11
779.881	3479.13
780.215	3453.14
780.55	3479.13
780.884	3466.7
781.218	3404.11
781.552	3431.22
781.886	3400.94
782.22	3405.91
782.554	3341.28
782.888	3319.81
783.222	3373.82
783.556	3324.11
783.889	3346.25
784.223	3304.9
784.557	3287.05
784.89	3322.75
785.224	3309.87
785.557	3312.36
785.891	3289.53
786.224	3263.54
786.558	3275.07
786.891	3225.35
787.224	3206.37
787.557	3198.46
787.891	3192.59
788.224	3211.34
788.557	3204.11
788.89	3176.77
789.223	3186.94
789.556	3161.85
789.888	3184.9
790.221	3123.21
790.554	3165.02
790.887	3144.68
791.219	3129.54
791.552	3129.54
791.884	3108.52
792.217	3102.19
792.549	3071.01
792.882	3071.91
793.214	3057.22
793.546	3057.67
793.879	3027.39
794.211	3033.49
794.543	3040.05
794.875	3059.03
795.207	3006.15
795.539	3027.17
795.871	3047.28
796.203	2991.46
796.535	2992.36
796.867	2957.79
797.198	2963.44
797.53	2930.9
797.862	2922.31
798.193	2913.72
798.525	2905.14
798.856	2940.16
799.188	2893.84
799.519	2899.94
799.85	2888.64
800.182	2895.19
800.513	2885.02
800.844	2857.91
801.175	2899.03
801.506	2873.27
801.837	2860.39
802.168	2849.09
802.499	2803.67
802.83	2810.45
803.161	2825.59
803.491	2805.93
803.822	2821.52
804.153	2806.61
804.483	2753.73
804.814	2762.31
805.145	2741.3
805.475	2727.96
805.805	2757.34
806.136	2757.57
806.466	2760.51
806.796	2734.07
807.126	2724.35
807.457	2709.89
807.787	2718.47
808.117	2746.95
808.447	2715.99
808.777	2737.46
809.107	2715.54
809.436	2702.43
809.766	2684.12
810.096	2711.92
810.426	2685.48
810.755	2685.93
811.085	2614.3
811.414	2671.47
811.744	2644.58
812.073	2606.84
812.403	2655.88
812.732	2644.35
813.061	2606.84
813.39	2619.04
813.719	2582.43
814.049	2621.08
814.378	2616.1
814.707	2595.99
815.036	2552.83
815.365	2591.92
815.693	2562.32
816.022	2499.27
816.351	2548.76
816.68	2591.92
817.008	2558.48
817.337	2532.72
817.665	2537.91
817.994	2521.87
818.322	2559.38
818.651	2521.42
818.979	2473.73
819.307	2518.48
819.636	2489.55
819.964	2490.91
820.292	2473.51
820.62	2494.98
820.948	2524.58
821.276	2537.46
821.604	2475.09
821.932	2505.6
822.259	2524.13
822.587	2492.72
822.915	2489.1
823.243	2489.1
823.57	2454.3
823.898	2488.2
824.225	2496.56
824.553	2485.49
824.88	2480.51
825.207	2487.52
825.535	2504.69
825.862	2468.76
826.189	2476.45
826.516	2490.46
826.843	2496.33
827.17	2492.49
827.497	2490.01
827.824	2502.43
828.151	2473.73
828.478	2500.85
828.805	2489.33
829.131	2471.7
829.458	2477.8
829.785	2461.76
830.111	2459.72
830.438	2476.45
830.764	2458.59
831.09	2461.31
831.417	2455.66
831.743	2473.06
832.069	2462.21
832.395	2475.32
832.722	2461.53
833.048	2466.73
833.374	2482.77
833.7	2475.09
834.026	2452.27
834.351	2452.04
834.677	2455.88
835.003	2462.89
835.329	2480.06
835.654	2461.76
835.98	2460.4
836.306	2456.56
836.631	2431.48
836.956	2446.84
837.282	2423.11
837.607	2407.07
837.932	2422.44
838.258	2404.13
838.583	2438.71
838.908	2403.45
839.233	2417.46
839.558	2406.84
839.883	2392.83
840.208	2427.41
840.533	2416.79
840.858	2386.73
841.182	2379.95
841.507	2357.35
841.832	2386.05
842.156	2381.08
842.481	2395.32
842.805	2339.27
843.13	2359.39
843.454	2365.94
843.778	2331.14
844.103	2360.52
844.427	2357.35
844.751	2352.38
845.075	2345.15
845.399	2330.24
845.723	2323
846.047	2341.53
846.371	2273.06
846.695	2295.21
847.019	2306.51
847.343	2261.99
847.666	2290.91
847.99	2245.04
848.313	2262.89
848.637	2267.19
848.96	2237.36
849.284	2226.06
849.607	2221.31
849.931	2208.88
850.254	2204.59
850.577	2216.34
850.9	2176.57
851.223	2186.28
851.546	2176.57
851.869	2178.83
852.192	2188.77
852.515	2140.86
852.838	2171.6
853.161	2152.61
853.483	2166.4
853.806	2150.58
854.129	2108.09
854.451	2141.54
854.774	2110.81
855.096	2105.16
855.419	2114.2
855.741	2105.38
856.063	2073.07
856.385	2085.5
856.708	2113.52
857.03	2065.84
857.352	2062.9
857.674	2059.06
857.996	2061.99
858.318	2056.12
858.64	2073.52
858.961	2040.98
859.283	2053.86
859.605	2027.42
859.926	2056.8
860.248	2026.97
860.57	2049.34
860.891	2026.74
861.212	2005.5
861.534	2028.32
861.855	2031.94
862.176	1994.65
862.498	1990.58
862.819	2021.99
863.14	2022.9
863.461	2027.64
863.782	1989.91
864.103	1984.48
864.424	1974.54
864.745	1964.37
865.065	1991.94
865.386	1953.75
865.707	1971.37
866.027	1965.73
866.348	1993.97
866.668	1950.58
866.989	1969.57
867.309	1923.24
867.63	1981.09
867.95	1967.08
868.27	1976.57
868.59	1950.36
868.91	1941.77
869.23	1961.88
869.55	1941.77
869.87	1959.17
870.19	1917.36
870.51	1909
870.83	1926.18
871.15	1932.96
871.469	1907.87
871.789	1933.18
872.109	1929.57
872.428	1916.69
872.748	1883.47
873.067	1894.99
873.386	1901.32
873.706	1888.67
874.025	1894.77
874.344	1914.2
874.663	1920.98
874.982	1875.78
875.301	1883.69
875.62	1872.85
875.939	1862.9
876.258	1910.13
876.577	1880.53
876.896	1902.45
877.214	1887.54
877.533	1881.66
877.852	1865.61
878.17	1883.47
878.489	1868.55
878.807	1882.56
879.125	1854.54
879.444	1859.51
879.762	1849.8
880.08	1864.48
880.398	1848.89
880.716	1832.85
881.034	1854.54
881.352	1826.07
881.67	1824.71
881.988	1844.82
882.306	1841.89
882.624	1837.37
882.941	1829.23
883.259	1822
883.577	1804.15
883.894	1831.94
884.212	1832.62
884.529	1828.33
884.846	1828.33
885.164	1807.31
885.481	1786.97
885.798	1785.39
886.115	1798.27
886.432	1780.19
886.75	1765.05
887.067	1791.49
887.383	1783.58
887.7	1782.68
888.017	1745.39
888.334	1745.62
888.651	1783.81
888.967	1767.31
889.284	1772.51
889.6	1770.7
889.917	1757.82
890.233	1773.41
890.55	1730.25
890.866	1716.92
891.182	1726.18
891.498	1719.4
891.815	1747.65
892.131	1688.9
892.447	1730.7
892.763	1723.25
893.079	1729.12
893.395	1709.23
893.71	1714.66
894.026	1690.25
894.342	1655.22
894.657	1667.2
894.973	1673.53
895.289	1667.2
895.604	1691.38
895.92	1662.46
896.235	1657.48
896.55	1672.63
896.865	1657.26
897.181	1674.89
897.496	1637.15
897.811	1662
898.126	1636.69
898.441	1654.55
898.756	1643.7
899.071	1628.56
899.386	1634.21
899.7	1620.65
900.015	1617.94
900.33	1584.72
900.644	1599.41
900.959	1585.4
901.273	1593.31
901.588	1578.62
901.902	1570.03
902.216	1572.97
902.531	1575.68
902.845	1558.5
903.159	1565.74
903.473	1558.5
903.787	1552.18
904.101	1537.71
904.415	1562.12
904.729	1534.55
905.042	1538.17
905.356	1539.07
905.67	1530.93
905.984	1531.16
906.297	1496.36
906.611	1486.42
906.924	1499.75
907.237	1478.96
907.551	1483.25
907.864	1487.32
908.177	1483.7
908.491	1505.4
908.804	1491.39
909.117	1478.28
909.43	1470.82
909.743	1479.41
910.056	1463.82
910.368	1465.17
910.681	1469.69
910.994	1444.38
911.307	1411.84
911.619	1437.6
911.932	1406.42
912.244	1409.13
912.557	1419.07
912.869	1417.49
913.181	1398.96
913.494	1421.56
913.806	1420.65
914.118	1400.77
914.43	1377.49
914.742	1374.1
915.054	1377.72
915.366	1361.67
915.678	1380.2
915.99	1344.5
916.302	1339.75
916.613	1370.03
916.925	1354.44
917.236	1373.65
917.548	1355.57
917.859	1335.46
918.171	1308.34
918.482	1325.52
918.794	1308.34
919.105	1328.23
919.416	1308.79
919.727	1276.03
920.038	1309.02
920.349	1309.02
920.66	1343.59
920.971	1304.73
921.282	1274.22
921.593	1274.44
921.903	1280.32
922.214	1285.29
922.525	1278.29
922.835	1302.69
923.146	1259.76
923.456	1276.03
923.767	1279.87
924.077	1258.17
924.387	1259.53
924.697	1232.86
925.008	1261.11
925.318	1223.6
925.628	1251.39
925.938	1227.44
926.248	1224.28
926.558	1230.83
926.867	1217.72
927.177	1238.06
927.487	1198.29
927.796	1200.1
928.106	1185.41
928.416	1199.87
928.725	1167.78
929.034	1163.94
929.344	1198.29
929.653	1205.07
929.962	1182.47
930.271	1202.13
930.581	1159.42
930.89	1185.63
931.199	1173.88
931.508	1167.33
931.817	1161.23
932.125	1139.08
932.434	1145.63
932.743	1156.71
933.051	1159.87
933.36	1152.19
933.669	1141.34
933.977	1122.81
934.286	1123.49
934.594	1109.02
934.902	1158.06
935.21	1130.49
935.519	1132.3
935.827	1129.59
936.135	1146.76
936.443	1102.92
936.751	1088.23
937.059	1109.7
937.367	1071.51
937.674	1091.4
937.982	1112.41
938.29	1082.13
938.597	1114.45
938.905	1068.35
939.213	1088.23
939.52	1094.11
939.827	1067.9
940.135	1067.22
940.442	1065.64
940.749	1076.93
941.056	1059.53
941.363	1077.16
941.67	1048.91
941.977	1063.15
942.284	1014.79
942.591	1040.78
942.898	1037.61
943.205	1029.03
943.511	1038.29
943.818	1032.19
944.125	1015.69
944.431	1011.4
944.738	1036.26
945.044	1008.01
945.35	1008.24
945.657	1008.46
945.963	1000.78
946.269	1019.08
946.575	1020.44
946.881	987.67
947.187	996.94
947.493	971.18
947.799	979.76
948.105	964.17
948.41	954
948.716	996.03
949.022	960.78
949.327	963.04
949.633	979.08
949.938	973.21
950.244	988.58
950.549	974.34
950.854	961.01
951.16	956.03
951.465	954.45
951.77	937.28
952.075	961.23
952.38	935.24
952.685	951.74
952.99	917.84
953.294	925.75
953.599	943.15
953.904	924.17
954.209	924.62
954.513	925.75
954.818	919.88
955.122	918.3
955.426	907
955.731	896.37
956.035	890.73
956.339	933.89
956.643	900.89
956.948	895.02
957.252	919.88
957.556	881.23
957.86	872.19
958.163	890.73
958.467	887.34
958.771	877.84
959.075	892.31
959.378	876.26
959.682	879.88
959.985	862.7
960.289	869.93
960.592	860.9
960.896	878.75
961.199	874.68
961.502	867
961.805	846.43
962.108	865.64
962.411	864.96
962.714	849.6
963.017	852.99
963.32	862.7
963.623	831.29
963.926	835.59
964.228	828.58
964.531	848.92
964.833	848.01
965.136	823.16
965.438	834.91
965.741	839.43
966.043	821.35
966.345	834.46
966.648	829.03
966.95	825.64
967.252	841.91
967.554	817.73
967.856	787.45
968.158	818.64
968.46	802.37
968.761	797.17
969.063	797.39
969.365	796.26
969.666	796.26
969.968	784.97
970.269	804.63
970.571	768.92
970.872	782.03
971.174	791.74
971.475	761.69
971.776	760.56
972.077	778.64
972.378	773.21
972.679	766.89
972.98	758.75
973.281	771.41
973.582	777.51
973.883	768.47
974.183	736.15
974.484	768.92
974.785	764.4
975.085	744.74
975.386	739.09
975.686	756.94
975.986	757.17
976.287	764.63
976.587	723.27
976.887	739.09
977.187	725.53
977.487	744.06
977.787	760.79
978.087	743.84
978.387	726.89
978.687	736.6
978.987	726.89
979.286	720.33
979.586	759.66
979.885	723.5
980.185	724.63
980.484	737.28
980.784	732.09
981.083	683.27
981.382	710.84
981.682	719.43
981.981	703.16
982.28	713.33
982.579	715.14
982.878	716.49
983.177	699.77
983.475	704.06
983.774	689.83
984.073	714.91
984.372	692.76
984.67	683.05
984.969	684.63
985.267	684.4
985.566	692.54
985.864	685.31
986.162	676.04
986.461	669.49
986.759	673.1
987.057	676.27
987.355	661.13
987.653	689.83
987.951	668.13
988.249	661.13
988.547	674.69
988.844	647.79
989.142	648.7
989.44	663.61
989.737	666.1
990.035	668.58
990.332	652.54
990.63	666.78
990.927	654.8
991.224	645.31
991.521	636.27
991.819	640.56
992.116	650.28
992.413	663.61
992.71	656.38
993.006	655.25
993.303	646.66
993.6	635.59
993.897	636.49
994.193	636.27
994.49	637.17
994.787	627.23
995.083	640.56
995.379	606.89
995.676	640.11
995.972	637.85
996.268	608.92
996.565	617.29
996.861	638.3
997.157	628.81
997.453	613.9
997.749	607.34
998.044	610.73
998.34	599.43
998.636	618.64
998.932	599.89
999.227	596.5
999.523	609.6
999.818	593.56
1000.114	615.93
1000.409	588.13
1000.704	609.15
1001	570.96
1001.295	596.27
1001.59	586.33
1001.885	591.52
1002.18	586.78
1002.475	576.61
1002.77	568.7
1003.065	588.13
1003.359	578.42
1003.654	598.76
1003.949	583.61
1004.243	572.32
1004.538	557.63
1004.832	572.99
1005.127	584.74
1005.421	568.02
1005.715	569.6
1006.009	564.86
1006.304	553.11
1006.598	562.15
1006.892	559.66
1007.186	542.03
1007.48	558.3
1007.773	563.05
1008.067	556.5
1008.361	581.81
1008.655	568.93
1008.948	550.17
1009.242	541.58
1009.535	550.4
1009.829	560.79
1010.122	560.56
1010.415	532.77
1010.708	551.07
1011.001	528.25
1011.295	523.5
1011.588	538.42
1011.881	547.23
1012.173	523.05
1012.466	511.53
1012.759	540.9
1013.052	525.31
1013.344	528.47
1013.637	532.09
1013.93	518.98
1014.222	541.58
1014.514	511.98
1014.807	536.84
1015.099	524.18
1015.391	517.4
1015.683	506.1
1015.976	525.99
1016.268	518.08
1016.56	512.88
1016.851	503.84
1017.143	500.45
1017.435	512.66
1017.727	503.62
1018.018	512.88
1018.31	497.97
1018.602	488.93
1018.893	488.7
1019.185	491.19
1019.476	506.1
1019.767	520.34
1020.058	496.39
1020.35	492.54
1020.641	481.7
1020.932	490.51
1021.223	487.35
1021.514	496.39
1021.804	498.87
1022.095	506.55
1022.386	483.5
1022.677	473.34
1022.967	483.96
1023.258	467.69
1023.548	488.93
1023.839	463.84
1024.129	459.32
1024.419	470.62
1024.709	479.21
1025	445.31
1025.29	462.49
1025.58	477.18
1025.87	455.93
1026.16	461.81
1026.449	454.8
1026.739	467.23
1027.029	476.05
1027.319	453.67
1027.608	476.5
1027.898	459.78
1028.187	456.16
1028.477	452.09
1028.766	433.56
1029.055	443.51
1029.344	453.22
1029.634	399.89
1029.923	437.18
1030.212	429.49
1030.501	459.32
1030.79	440.79
1031.078	423.39
1031.367	434.69
1031.656	442.83
1031.945	440.34
1032.233	421.36
1032.522	447.12
1032.81	429.95
1033.099	431.53
1033.387	438.08
1033.675	436.73
1033.963	452.54
1034.251	421.13
1034.54	446.22
1034.828	415.71
1035.116	419.78
1035.403	423.39
1035.691	423.62
1035.979	438.08
1036.267	395.82
1036.554	421.36
1036.842	412.77
1037.129	411.19
1037.417	400.57
1037.704	429.04
1037.992	410.06
1038.279	415.48
1038.566	407.35
1038.853	407.35
1039.14	407.35
