Data from carpet_green_FLMS001491_00045.txt Node
Date: Wed Feb 08 10:35:25 GMT 2017
User: dcchb
Spectrometer: FLMS00149
Trigger mode: 0
Integration Time (sec): 2.000000E-2
Scans to average: 10
Electric dark correction enabled: true
Nonlinearity correction enabled: false
Boxcar width: 0
XAxis mode: Wavelengths
Number of Pixels in Spectrum: 2048
>>>>>Begin Spectral Data<<<<<
341.393	6.58
341.776	6.58
342.16	6.58
342.543	-67.54
342.927	-51.27
343.31	-65.96
343.693	-59.63
344.077	-86.3
344.46	-58.28
344.843	-64.6
345.226	-30.93
345.61	-40.65
345.993	-13.53
346.376	-7.2
346.759	10.2
347.142	23.3
347.525	48.16
347.908	64.66
348.291	68.28
348.674	106.01
349.057	106.47
349.44	126.8
349.823	161.61
350.206	155.05
350.588	169.97
350.971	193.24
351.354	197.09
351.737	211.1
352.119	227.82
352.502	229.63
352.884	247.48
353.267	239.8
353.65	278.44
354.032	275.95
354.414	289.51
354.797	290.64
355.179	319.12
355.562	303.3
355.944	303.75
356.326	304.65
356.709	312.34
357.091	327.48
357.473	313.69
357.855	329.96
358.238	284.99
358.62	315.5
359.002	305.56
359.384	313.01
359.766	303.52
360.148	326.12
360.53	305.56
360.912	302.17
361.294	285.67
361.676	295.61
362.057	294.94
362.439	307.59
362.821	277.76
363.203	284.54
363.584	302.85
363.966	280.7
364.348	313.01
364.729	307.59
365.111	275.05
365.493	297.87
365.874	280.02
366.256	291.77
366.637	292.68
367.019	288.61
367.4	299.91
367.781	280.02
368.163	283.86
368.544	272.11
368.925	286.57
369.306	298.55
369.688	290.64
370.069	274.15
370.45	281.83
370.831	296.52
371.212	271.66
371.593	281.83
371.974	282.05
372.355	274.37
372.736	277.76
373.117	293.81
373.498	297.42
373.879	306.46
374.26	278.21
374.641	270.98
375.021	293.81
375.402	284.99
375.783	280.92
376.163	295.39
376.544	293.35
376.925	292
377.305	297.87
377.686	296.07
378.066	279.57
378.447	278.89
378.827	270.53
379.208	307.59
379.588	285.67
379.968	299
380.349	308.95
380.729	298.55
381.109	287.7
381.489	310.3
381.87	275.95
382.25	284.31
382.63	291.55
383.01	290.64
383.39	290.42
383.77	322.51
384.15	277.76
384.53	285.22
384.91	294.71
385.29	291.09
385.67	273.47
386.049	286.8
386.429	298.78
386.809	299
387.189	308.27
387.568	282.73
387.948	297.2
388.328	303.07
388.707	296.29
389.087	323.18
389.466	293.58
389.846	299.91
390.225	287.25
390.605	320.92
390.984	322.73
391.363	310.08
391.743	309.62
392.122	297.87
392.501	287.48
392.881	311.43
393.26	307.82
393.639	319.12
394.018	306.23
394.397	304.2
394.776	296.29
395.155	306.01
395.534	312.34
395.913	320.47
396.292	304.43
396.671	334.03
397.05	311.21
397.429	309.62
397.808	305.33
398.186	287.25
398.565	315.95
398.944	282.05
399.323	316.4
399.701	334.93
400.08	323.41
400.458	322.05
400.837	300.36
401.215	316.18
401.594	308.95
401.972	316.18
402.351	326.8
402.729	325.67
403.107	300.59
403.486	321.83
403.864	338.78
404.242	313.24
404.62	301.04
404.999	304.88
405.377	307.82
405.755	324.09
406.133	320.92
406.511	321.15
406.889	320.7
407.267	310.98
407.645	312.79
408.023	337.42
408.401	309.62
408.779	331.32
409.156	309.62
409.534	313.01
409.912	321.6
410.29	322.51
410.667	324.09
411.045	320.25
411.422	329.51
411.8	332.45
412.178	324.77
412.555	301.26
412.933	326.57
413.31	332
413.687	343.75
414.065	334.26
414.442	334.03
414.819	312.79
415.197	325.44
415.574	326.12
415.951	324.09
416.328	350.53
416.705	340.13
417.082	329.29
417.46	336.29
417.837	331.32
418.214	320.02
418.591	342.62
418.967	320.02
419.344	328.38
419.721	320.47
420.098	339.45
420.475	332
420.852	331.32
421.228	350.53
421.605	353.69
421.982	359.11
422.358	338.32
422.735	349.4
423.111	369.74
423.488	354.82
423.864	359.34
424.241	346.46
424.617	341.71
424.994	343.75
425.37	352.56
425.746	342.62
426.123	363.86
426.499	333.13
426.875	349.62
427.251	341.04
427.627	348.04
428.003	340.58
428.379	341.94
428.756	341.04
429.132	373.58
429.507	368.83
429.883	364.99
430.259	355.27
430.635	327.93
431.011	357.08
431.387	356.18
431.763	349.4
432.138	340.13
432.514	356.63
432.89	357.31
433.265	364.31
433.641	362.05
434.016	354.6
434.392	373.8
434.767	378.1
435.143	357.08
435.518	368.83
435.894	348.72
436.269	366.35
436.644	376.29
437.02	361.6
437.395	378.1
437.77	391.88
438.145	377.19
438.52	368.83
438.895	353.01
439.271	385.1
439.646	379.91
440.021	365.67
440.395	378.78
440.77	396.63
441.145	391.88
441.52	357.98
441.895	397.98
442.27	386.23
442.645	391.66
443.019	385.1
443.394	395.5
443.769	386.68
444.143	383.97
444.518	391.88
444.892	393.24
445.267	384.2
445.641	393.92
446.016	391.43
446.39	397.31
446.764	378.78
447.139	392.56
447.513	399.11
447.887	397.76
448.262	390.3
448.636	396.63
449.01	416.06
449.384	394.37
449.758	392.11
450.132	393.01
450.506	397.76
450.88	361.6
451.254	419.45
451.628	413.58
452.002	403.41
452.376	408.15
452.75	408.83
453.123	404.09
453.497	435.27
453.871	423.52
454.244	424.65
454.618	411.99
454.992	429.4
455.365	411.32
455.739	430.98
456.112	417.42
456.486	417.42
456.859	422.62
457.232	419.9
457.606	426.01
457.979	417.87
458.352	423.75
458.725	450.19
459.099	448.38
459.472	417.19
459.845	462.16
460.218	456.06
460.591	445.89
460.964	460.13
461.337	449.73
461.71	460.81
462.083	462.84
462.456	453.8
462.829	455.61
463.201	461.26
463.574	460.13
463.947	463.07
464.32	473.69
464.692	481.37
465.065	466
465.438	489.51
465.81	477.08
466.183	480.02
466.555	492.67
466.928	464.2
467.3	482.73
467.672	461.03
468.045	485.89
468.417	511.88
468.789	486.34
469.161	502.16
469.534	493.8
469.906	494.25
470.278	521.37
470.65	522.27
471.022	510.75
471.394	522.95
471.766	508.72
472.138	520.24
472.51	510.3
472.882	516.85
473.253	541.93
473.625	529.05
473.997	552.33
474.369	537.64
474.74	551.65
475.112	561.82
475.484	556.62
475.855	557.98
476.227	578.32
476.598	583.06
476.97	580.13
477.341	592.33
477.713	579.67
478.084	590.75
478.455	599.33
478.827	590.07
479.198	635.04
479.569	613.8
479.94	629.84
480.311	628.49
480.682	630.29
481.053	648.82
481.424	644.31
481.795	639.56
482.166	650.86
482.537	666.23
482.908	675.04
483.279	685.43
483.65	696.73
484.021	697.19
484.391	688.82
484.762	687.02
485.133	719.33
485.503	694.02
485.874	714.59
486.244	691.99
486.615	714.13
486.985	752.32
487.356	757.3
487.726	744.19
488.097	749.61
488.467	750.29
488.837	758.43
489.207	772.21
489.578	790.29
489.948	798.65
490.318	761.14
490.688	800.46
491.058	795.04
491.428	820.8
491.798	827.58
492.168	822.38
492.538	823.96
492.908	842.04
493.278	809.72
493.648	846.56
494.017	880.23
494.387	852.89
494.757	868.71
495.126	867.8
495.496	856.05
495.866	870.51
496.235	868.48
496.605	873.23
496.974	916.16
497.344	894.69
497.713	890.85
498.082	896.5
498.452	882.26
498.821	921.59
499.19	902.83
499.559	936.27
499.928	902.38
500.298	935.14
500.667	917.74
501.036	917.29
501.405	925.88
501.774	923.17
502.143	948.25
502.512	944.18
502.88	956.16
503.249	963.17
503.618	952.09
503.987	958.87
504.356	959.55
504.724	957.52
505.093	986.89
505.462	957.97
505.83	968.36
506.199	969.95
506.567	974.47
506.936	986.89
507.304	987.8
507.672	994.35
508.041	997.97
508.409	976.73
508.777	1013.11
509.145	996.84
509.514	1009.72
509.882	1005.43
510.25	1023.28
510.618	1003.84
510.986	1026.22
511.354	1013.11
511.722	1044.52
512.09	1032.09
512.458	1024.86
512.826	1028.02
513.193	1033.9
513.561	1043.16
513.929	1057.85
514.297	1035.93
514.664	1059.44
515.032	1047.91
515.4	1064.41
515.767	1067.8
516.135	1060.34
516.502	1065.31
516.869	1058.53
517.237	1081.58
517.604	1077.74
517.972	1074.12
518.339	1081.58
518.706	1093.56
519.073	1094.46
519.44	1110.06
519.808	1106.21
520.175	1103.5
520.542	1118.42
520.909	1106.89
521.276	1115.71
521.643	1112.77
522.009	1126.55
522.376	1143.05
522.743	1140.56
523.11	1150.05
523.477	1153.67
523.843	1145.31
524.21	1152.09
524.577	1171.3
524.943	1161.58
525.31	1146.89
525.676	1187.34
526.043	1183.27
526.409	1162.26
526.776	1191.64
527.142	1169.94
527.508	1185.31
527.874	1181.69
528.241	1177.17
528.607	1185.99
528.973	1196.38
529.339	1205.65
529.705	1189.15
530.071	1204.06
530.437	1227.11
530.803	1202.26
531.169	1214.23
531.535	1191.41
531.901	1199.09
532.267	1229.37
532.632	1199.32
532.998	1234.57
533.364	1205.87
533.73	1206.32
534.095	1212.88
534.461	1229.6
534.826	1198.64
535.192	1204.52
535.557	1251.29
535.923	1235.93
536.288	1239.54
536.653	1230.73
537.019	1232.54
537.384	1245.87
537.749	1228.7
538.114	1241.8
538.479	1205.42
538.845	1236.83
539.21	1249.26
539.575	1223.72
539.94	1236.38
540.305	1253.78
540.67	1241.58
541.034	1232.99
541.399	1254.01
541.764	1253.78
542.129	1243.16
542.494	1263.72
542.858	1235.93
543.223	1251.07
543.587	1234.57
543.952	1246.1
544.316	1227.11
544.681	1243.39
545.045	1265.98
545.41	1252.2
545.774	1263.72
546.138	1231.63
546.503	1255.14
546.867	1243.16
547.231	1249.71
547.595	1272.76
547.959	1264.85
548.324	1275.7
548.688	1245.19
549.052	1241.58
549.416	1247.45
549.779	1247.23
550.143	1247
550.507	1253.33
550.871	1257.4
551.235	1246.1
551.599	1243.84
551.962	1244.74
552.326	1293.78
552.689	1262.37
553.053	1260.79
553.417	1251.52
553.78	1277.06
554.143	1277.06
554.507	1247.45
554.87	1289.49
555.234	1276.6
555.597	1255.81
555.96	1277.06
556.323	1267.79
556.686	1270.28
557.05	1277.28
557.413	1261.92
557.776	1272.31
558.139	1281.58
558.502	1300.56
558.865	1265.53
559.228	1276.15
559.59	1286.1
559.953	1306.89
560.316	1298.53
560.679	1326.77
561.041	1326.55
561.404	1343.27
561.767	1314.8
562.129	1316.38
562.492	1345.3
562.854	1322.03
563.217	1343.04
563.579	1325.64
563.941	1305.3
564.304	1316.6
564.666	1329.48
565.028	1336.94
565.39	1341.69
565.753	1337.39
566.115	1351.41
566.477	1329.26
566.839	1343.04
567.201	1324.06
567.563	1315.47
567.925	1357.73
568.287	1330.61
568.648	1370.16
569.01	1330.16
569.372	1358.41
569.734	1325.19
570.095	1321.58
570.457	1366.77
570.819	1337.62
571.18	1345.3
571.542	1337.85
571.903	1352.08
572.265	1364.06
572.626	1343.72
572.987	1338.52
573.349	1346.43
573.71	1356.38
574.071	1361.12
574.432	1341.46
574.794	1377.62
575.155	1380.78
575.516	1356.38
575.877	1361.35
576.238	1348.24
576.599	1373.78
576.96	1371.52
577.32	1366.32
577.681	1356.83
578.042	1365.64
578.403	1367.68
578.763	1332.42
579.124	1344.63
579.485	1355.7
579.845	1347.56
580.206	1323.84
580.566	1313.67
580.927	1346.21
581.287	1345.3
581.648	1355.25
582.008	1348.47
582.368	1328.58
582.728	1351.18
583.089	1367.22
583.449	1324.97
583.809	1306.89
584.169	1330.84
584.529	1331.07
584.889	1315.25
585.249	1318.64
585.609	1318.86
585.969	1343.5
586.329	1346.66
586.688	1327.68
587.048	1327.45
587.408	1327.45
587.768	1308.02
588.127	1320.9
588.487	1302.82
588.846	1298.75
589.206	1319.77
589.565	1318.64
589.925	1329.94
590.284	1322.25
590.643	1295.59
591.003	1325.19
591.362	1329.48
591.721	1308.24
592.08	1297.17
592.44	1317.96
592.799	1295.36
593.158	1321.8
593.517	1300.56
593.876	1284.51
594.235	1304.63
594.593	1290.39
594.952	1296.72
595.311	1303.95
595.67	1323.38
596.029	1333.78
596.387	1296.72
596.746	1298.53
597.104	1305.76
597.463	1285.64
597.822	1322.25
598.18	1283.16
598.538	1301.01
598.897	1308.47
599.255	1314.12
599.613	1293.33
599.972	1309.15
600.33	1310.73
600.688	1341.46
601.046	1298.07
601.404	1301.24
601.762	1299.66
602.12	1315.02
602.478	1293.55
602.836	1330.39
603.194	1285.42
603.552	1303.72
603.91	1310.05
604.268	1328.58
604.625	1327.22
604.983	1310.95
605.341	1327
605.698	1310.28
606.056	1313.67
606.413	1310.05
606.771	1333.33
607.128	1329.71
607.485	1315.02
607.843	1344.17
608.2	1328.35
608.557	1353.21
608.914	1321.58
609.272	1321.35
609.629	1313.89
609.986	1334.68
610.343	1327.68
610.7	1333.55
611.057	1327.9
611.414	1332.42
611.771	1362.48
612.127	1343.72
612.484	1339.43
612.841	1330.39
613.198	1383.95
613.554	1344.17
613.911	1342.14
614.267	1356.38
614.624	1336.26
614.98	1352.76
615.337	1336.72
615.693	1333.55
616.05	1382.36
616.406	1364.51
616.762	1362.03
617.118	1345.98
617.475	1340.78
617.831	1373.78
618.187	1363.38
618.543	1353.21
618.899	1351.63
619.255	1332.87
619.611	1342.14
619.967	1348.92
620.323	1357.73
620.678	1366.09
621.034	1343.95
621.39	1364.51
621.746	1355.7
622.101	1381.91
622.457	1345.53
622.812	1350.5
623.168	1362.7
623.523	1336.26
623.879	1342.82
624.234	1364.51
624.589	1344.85
624.945	1376.72
625.3	1378.52
625.655	1369.71
626.01	1333.33
626.365	1352.76
626.72	1328.13
627.075	1344.17
627.43	1330.61
627.785	1361.12
628.14	1355.25
628.495	1349.82
628.85	1328.58
629.205	1333.55
629.559	1343.95
629.914	1333.1
630.269	1370.61
630.623	1361.35
630.978	1349.6
631.332	1317.06
631.687	1339.43
632.041	1343.95
632.396	1341.24
632.75	1332.2
633.104	1349.82
633.459	1339.43
633.813	1296.04
634.167	1334
634.521	1334.46
634.875	1358.41
635.229	1309.15
635.583	1321.8
635.937	1334.68
636.291	1320.67
636.645	1319.99
636.999	1333.1
637.352	1330.84
637.706	1330.39
638.06	1307.34
638.413	1343.72
638.767	1324.74
639.121	1350.5
639.474	1343.27
639.828	1305.3
640.181	1313.89
640.534	1329.03
640.888	1338.98
641.241	1302.37
641.594	1334.46
641.947	1338.07
642.301	1311.86
642.654	1336.26
643.007	1331.74
643.36	1327.22
643.713	1332.87
644.066	1318.86
644.419	1321.8
644.771	1338.3
645.124	1298.98
645.477	1312.76
645.83	1309.6
646.182	1336.94
646.535	1321.58
646.888	1319.32
647.24	1318.64
647.593	1306.89
647.945	1315.93
648.298	1321.12
648.65	1320.22
649.002	1361.35
649.355	1344.85
649.707	1326.32
650.059	1317.28
650.411	1372.42
650.763	1339.88
651.115	1377.85
651.467	1406.54
651.819	1395.7
652.171	1390.95
652.523	1406.32
652.875	1371.07
653.227	1364.74
653.578	1409.71
653.93	1383.72
654.282	1404.74
654.633	1391.18
654.985	1406.54
655.337	1419.2
655.688	1442.25
656.039	1413.78
656.391	1399.31
656.742	1426.43
657.094	1416.94
657.445	1445.87
657.796	1466.66
658.147	1453.78
658.498	1441.12
658.849	1469.14
659.2	1454
659.551	1469.37
659.902	1474.11
660.253	1463.04
660.604	1482.02
660.955	1521.12
661.306	1510.5
661.656	1508.01
662.007	1543.49
662.358	1515.24
662.708	1517.28
663.059	1544.62
663.409	1520.67
663.76	1550.04
664.11	1536.49
664.461	1564.05
664.811	1582.59
665.161	1574
665.511	1580.78
665.862	1604.51
666.212	1611.74
666.562	1635.24
666.912	1605.86
667.262	1652.87
667.612	1651.28
667.962	1645.86
668.312	1663.94
668.662	1709.14
669.011	1691.51
669.361	1692.19
669.711	1710.72
670.06	1714.33
670.41	1735.12
670.76	1730.15
671.109	1766.99
671.459	1748.68
671.808	1767.89
672.157	1785.52
672.507	1761.56
672.856	1795.46
673.205	1801.79
673.554	1819.19
673.904	1839.08
674.253	1849.02
674.602	1873.2
674.951	1866.87
675.3	1833.65
675.649	1874.33
675.998	1900.09
676.346	1920.2
676.695	1937.38
677.044	1919.07
677.393	1952.52
677.741	1979.19
678.09	1978.51
678.438	1959.07
678.787	2020.31
679.135	2025.51
679.484	2008.56
679.832	2035
680.181	1993.65
680.529	2063.02
680.877	2055.79
681.225	2093.08
681.573	2100.76
681.922	2121.1
682.27	2122.46
682.618	2134.66
682.966	2164.72
683.314	2187.09
683.661	2159.52
684.009	2177.6
684.357	2222.79
684.705	2228.9
685.053	2232.29
685.4	2255.79
685.748	2250.36
686.095	2265.28
686.443	2288.56
686.79	2270.48
687.138	2316.8
687.485	2316.8
687.832	2345.73
688.18	2338.5
688.527	2341.89
688.874	2368.1
689.221	2389.12
689.568	2422.56
689.915	2388.44
690.262	2392.51
690.609	2423.02
690.956	2472.96
691.303	2465.27
691.65	2506.18
691.997	2480.19
692.344	2507.53
692.69	2494.65
693.037	2507.76
693.383	2504.82
693.73	2523.58
694.077	2563.58
694.423	2561.32
694.769	2590.92
695.116	2601.99
695.462	2624.59
695.808	2622.56
696.155	2630.02
696.501	2691.93
696.847	2671.37
697.193	2677.47
697.539	2686.29
697.885	2692.84
698.231	2710.24
698.577	2733.74
698.923	2714.31
699.269	2718.37
699.614	2759.96
699.96	2786.4
700.306	2776.9
700.651	2760.86
700.997	2810.12
701.342	2821.42
701.688	2820.29
702.033	2833.17
702.379	2885.15
702.724	2870.69
703.069	2910.01
703.415	2886.96
703.76	2905.94
704.105	2924.02
704.45	2943.45
704.795	2905.94
705.14	2943.68
705.485	2952.27
705.83	2983
706.175	2999.05
706.52	3003.34
706.865	3003.57
707.209	3015.32
707.554	3038.14
707.899	3010.12
708.243	3040.17
708.588	3069.78
708.932	3052.15
709.277	3057.12
709.621	3066.39
709.966	3113.39
710.31	3125.37
710.654	3104.35
710.998	3112.49
711.342	3143.67
711.687	3167.63
712.031	3140.96
712.375	3170.79
712.719	3136.67
713.063	3152.04
713.407	3189.1
713.75	3197.68
714.094	3201.07
714.438	3211.7
714.782	3188.87
715.125	3198.36
715.469	3204.46
715.812	3223.67
716.156	3226.38
716.499	3267.06
716.843	3256.44
717.186	3261.41
717.53	3303.44
717.873	3314.52
718.216	3287.85
718.559	3323.1
718.902	3294.86
719.246	3319.04
719.589	3305.93
719.932	3303.22
720.275	3362.65
720.617	3329.66
720.96	3316.55
721.303	3339.38
721.646	3331.92
721.989	3336.21
722.331	3326.49
722.674	3354.74
723.016	3362.88
723.359	3352.93
723.701	3368.75
724.044	3371.24
724.386	3371.69
724.729	3358.13
725.071	3382.54
725.413	3391.58
725.755	3407.4
726.097	3392.93
726.439	3363.1
726.782	3382.31
727.124	3412.14
727.465	3403.33
727.807	3384.8
728.149	3409.66
728.491	3410.56
728.833	3414.63
729.175	3432.03
729.516	3420.96
729.858	3420.96
730.199	3435.42
730.541	3404.01
730.882	3408.3
731.224	3430.67
731.565	3430.9
731.906	3417.34
732.248	3444.01
732.589	3440.16
732.93	3403.55
733.271	3454.17
733.612	3443.78
733.953	3469.54
734.294	3446.27
734.635	3456.21
734.976	3425.7
735.317	3449.43
735.658	3425.93
735.999	3387.28
736.339	3433.84
736.68	3462.99
737.021	3442.88
737.361	3419.83
737.702	3422.31
738.042	3450.78
738.383	3428.86
738.723	3446.27
739.063	3465.25
739.404	3458.24
739.744	3438.13
740.084	3436.32
740.424	3420.5
740.764	3450.33
741.104	3408.53
741.444	3411.24
741.784	3444.46
742.124	3414.18
742.464	3417.11
742.804	3397.23
743.143	3394.97
743.483	3471.35
743.823	3396.55
744.162	3444.23
744.502	3381.86
744.841	3413.05
745.181	3415.31
745.52	3405.14
745.86	3454.63
746.199	3404.91
746.538	3369.66
746.877	3444.68
747.216	3436.55
747.556	3358.81
747.895	3396.1
748.234	3397.68
748.573	3354.97
748.911	3372.14
749.25	3341.64
749.589	3415.08
749.928	3373.27
750.267	3388.87
750.605	3363.56
750.944	3354.29
751.283	3361.3
751.621	3327.62
751.96	3339.83
752.298	3329.66
752.636	3335.76
752.975	3341.41
753.313	3277.91
753.651	3333.05
753.989	3343.67
754.327	3289.21
754.666	3284.24
755.004	3310
755.342	3296.66
755.679	3311.35
756.017	3207.63
756.355	3282.88
756.693	3244.91
757.031	3272.03
757.368	3252.37
757.706	3182.77
758.044	3217.8
758.381	3244.46
758.719	3246.27
759.056	3232.94
759.394	3262.09
759.731	3219.6
760.068	3178.48
760.405	3188.64
760.743	3196.33
761.08	3131.47
761.417	3196.55
761.754	3197.91
762.091	3128.31
762.428	3167.4
762.765	3095.09
763.102	3147.74
763.438	3132.15
763.775	3116.78
764.112	3093.96
764.449	3140.74
764.785	3120.4
765.122	3100.51
765.458	3057.8
765.795	3068.87
766.131	3052.15
766.467	3030.01
766.804	3052.83
767.14	3032.49
767.476	3023.23
767.812	3006.95
768.148	3007.41
768.485	3032.49
768.821	2971.25
769.157	2989.78
769.492	3003.57
769.828	2959.5
770.164	2964.47
770.5	2956.11
770.836	2953.4
771.171	2929.89
771.507	2930.8
771.842	2905.94
772.178	2924.92
772.513	2913.4
772.849	2910.23
773.184	2901.42
773.519	2897.35
773.855	2878.6
774.19	2870.46
774.525	2906.62
774.86	2867.52
775.195	2851.93
775.53	2835.66
775.865	2809.9
776.2	2830.46
776.535	2771.71
776.87	2776.68
777.205	2791.59
777.539	2752.27
777.874	2775.77
778.209	2752.95
778.543	2722.22
778.878	2729.67
779.212	2718.83
779.547	2689.45
779.881	2694.19
780.215	2710.47
780.55	2730.58
780.884	2706.4
781.218	2666.4
781.552	2676.12
781.886	2646.74
782.22	2669.34
782.554	2631.6
782.888	2611.71
783.222	2661.2
783.556	2595.67
783.889	2597.02
784.223	2606.51
784.557	2582.33
784.89	2609.45
785.224	2594.99
785.557	2604.71
785.891	2579.4
786.224	2519.06
786.558	2573.07
786.891	2531.49
787.224	2536.91
787.557	2535.1
787.891	2531.71
788.224	2519.51
788.557	2515.67
788.89	2507.53
789.223	2521.32
789.556	2489
789.888	2468.66
790.221	2475.9
790.554	2471.6
790.887	2474.54
791.219	2430.7
791.552	2435.44
791.884	2433.86
792.217	2450.59
792.549	2419.4
792.882	2402.68
793.214	2411.72
793.546	2418.72
793.879	2394.32
794.211	2360.87
794.543	2366.07
794.875	2345.5
795.207	2405.84
795.539	2353.41
795.871	2346.41
796.203	2357.48
796.535	2351.83
796.867	2362.23
797.198	2335.56
797.53	2323.13
797.862	2304.15
798.193	2301.66
798.525	2313.87
798.856	2312.96
799.188	2250.14
799.519	2272.74
799.85	2257.14
800.182	2248.33
800.513	2267.77
800.844	2230.93
801.175	2270.7
801.506	2244.94
801.837	2264.38
802.168	2237.48
802.499	2236.35
802.83	2238.39
803.161	2203.59
803.491	2227.09
803.822	2210.14
804.153	2167.43
804.483	2178.5
804.814	2173.98
805.145	2183.93
805.475	2212.17
805.805	2202.91
806.136	2158.16
806.466	2199.97
806.796	2190.03
807.126	2140.99
807.457	2149.35
807.787	2171.5
808.117	2149.8
808.447	2108.45
808.777	2127.88
809.107	2138.96
809.436	2093.53
809.766	2120.88
810.096	2111.61
810.426	2144.83
810.755	2084.95
811.085	2090.82
811.414	2093.31
811.744	2066.87
812.073	2061.67
812.403	2101.67
812.732	2058.28
813.061	2065.74
813.39	2051.73
813.719	2069.8
814.049	2087.21
814.378	2071.61
814.707	2096.92
815.036	2017.83
815.365	2056.92
815.693	2019.41
816.022	2037.94
816.351	2031.84
816.68	2020.54
817.008	2043.36
817.337	2016.7
817.665	1976.93
817.994	2011.27
818.322	1995.68
818.651	2005.17
818.979	2014.66
819.307	1995.46
819.636	1980.99
819.964	1948.23
820.292	1959.98
820.62	1990.48
820.948	1994.55
821.276	1980.99
821.604	1967.66
821.932	1950.03
822.259	1987.77
822.587	1964.72
822.915	1948
823.243	1998.17
823.57	1949.81
823.898	1966.08
824.225	1968.11
824.553	1959.75
824.88	1929.02
825.207	1967.66
825.535	1988.22
825.862	1994.55
826.189	1962.91
826.516	1976.93
826.843	2003.14
827.17	1972.63
827.497	1957.49
827.824	1968.56
828.151	1971.95
828.478	1950.71
828.805	1962.46
829.131	1967.43
829.458	1965.85
829.785	1965.63
830.111	1971.05
830.438	1977.6
830.764	1950.49
831.09	1973.08
831.417	1960.2
831.743	1953.65
832.069	1981.22
832.395	1954.55
832.722	1917.04
833.048	1964.95
833.374	1939.86
833.7	1955.01
834.026	1955.01
834.351	1953.42
834.677	1949.58
835.003	1929.47
835.329	1957.49
835.654	1950.03
835.98	1953.88
836.306	1943.25
836.631	1936.25
836.956	1931.95
837.282	1942.8
837.607	1936.02
837.932	1898.28
838.258	1925.4
838.583	1933.54
838.908	1921.11
839.233	1915.68
839.558	1918.17
839.883	1893.09
840.208	1911.16
840.533	1900.09
840.858	1902.13
841.182	1891.28
841.507	1896.7
841.832	1897.61
842.156	1894.22
842.481	1877.27
842.805	1868.23
843.13	1888.57
843.454	1876.59
843.778	1868
844.103	1848.57
844.427	1846.99
844.751	1845.86
845.075	1858.51
845.399	1855.35
845.723	1862.13
846.047	1853.99
846.371	1836.82
846.695	1841.56
847.019	1840.21
847.343	1824.39
847.666	1807.66
847.99	1799.53
848.313	1792.75
848.637	1767.67
848.96	1778.74
849.284	1771.28
849.607	1766.54
849.931	1777.38
850.254	1754.11
850.577	1737.84
850.9	1741.9
851.223	1771.28
851.546	1699.87
851.869	1726.31
852.192	1728.57
852.515	1736.48
852.838	1729.02
853.161	1705.07
853.483	1720.89
853.806	1700.77
854.129	1697.61
854.451	1708.91
854.774	1671.17
855.096	1692.87
855.419	1668.01
855.741	1700.77
856.063	1674.79
856.385	1699.42
856.708	1665.52
857.03	1652.19
857.352	1658.06
857.674	1670.49
857.996	1640.66
858.318	1623.26
858.64	1636.37
858.961	1647.44
859.283	1622.13
859.605	1634.56
859.926	1647.22
860.248	1660.78
860.57	1593.21
860.891	1664.62
861.212	1592.3
861.534	1589.59
861.855	1605.86
862.176	1590.04
862.498	1596.82
862.819	1620.32
863.14	1611.06
863.461	1579.2
863.782	1569.48
864.103	1570.38
864.424	1603.15
864.745	1608.8
865.065	1601.34
865.386	1583.94
865.707	1571.51
866.027	1594.34
866.348	1604.51
866.668	1592.53
866.989	1550.27
867.309	1563.38
867.63	1569.25
867.95	1572.42
868.27	1575.13
868.59	1557.28
868.91	1546.88
869.23	1565.41
869.55	1576.26
869.87	1565.86
870.19	1539.42
870.51	1540.55
870.83	1557.5
871.15	1561.34
871.469	1522.93
871.789	1569.48
872.109	1529.93
872.428	1551.17
872.748	1513.66
873.067	1530.84
873.386	1517.73
873.706	1528.58
874.025	1523.6
874.344	1508.92
874.663	1530.38
874.982	1533.77
875.301	1526.54
875.62	1497.84
875.939	1496.94
876.258	1497.84
876.577	1533.77
876.896	1515.24
877.214	1488.8
877.533	1490.38
877.852	1483.83
878.17	1519.08
878.489	1501.23
878.807	1477.05
879.125	1508.69
879.444	1502.81
879.762	1519.08
880.08	1467.79
880.398	1489.48
880.716	1470.95
881.034	1480.89
881.352	1444.06
881.67	1455.13
881.988	1442.7
882.306	1467.33
882.624	1450.61
882.941	1455.36
883.259	1443.61
883.577	1463.49
883.894	1434.57
884.212	1454.68
884.529	1465.53
884.846	1452.19
885.164	1454.23
885.481	1450.61
885.798	1404.51
886.115	1434.79
886.432	1441.8
886.75	1429.82
887.067	1425.98
887.383	1431.4
887.7	1421.46
888.017	1405.42
888.334	1438.63
888.651	1425.75
888.967	1428.69
889.284	1396.6
889.6	1409.03
889.917	1413.55
890.233	1413.32
890.55	1399.31
890.866	1389.6
891.182	1396.15
891.498	1392.53
891.815	1379.65
892.131	1371.97
892.447	1374.68
892.763	1392.99
893.079	1388.24
893.395	1359.54
893.71	1364.29
894.026	1371.29
894.342	1350.73
894.657	1355.92
894.973	1345.08
895.289	1353.89
895.604	1386.66
895.92	1351.86
896.235	1382.82
896.55	1350.28
896.865	1331.07
897.181	1314.57
897.496	1323.84
897.811	1310.5
898.126	1319.54
898.441	1328.13
898.756	1333.1
899.071	1291.75
899.386	1335.59
899.7	1305.76
900.015	1304.63
900.33	1279.09
900.644	1305.3
900.959	1279.09
901.273	1257.85
901.588	1304.4
901.902	1280.67
902.216	1291.52
902.531	1279.77
902.845	1286.55
903.159	1245.87
903.473	1252.88
903.787	1262.59
904.101	1221.92
904.415	1263.72
904.729	1237.06
905.042	1222.37
905.356	1263.27
905.67	1227.34
905.984	1228.92
906.297	1238.87
906.611	1225.31
906.924	1217.62
907.237	1213.33
907.551	1237.74
907.864	1214.91
908.177	1199.32
908.491	1212.43
908.804	1205.87
909.117	1190.05
909.43	1157.06
909.743	1174.01
910.056	1195.7
910.368	1206.78
910.681	1177.17
910.994	1155.03
911.307	1152.77
911.619	1159.32
911.932	1181.69
912.244	1136.04
912.557	1155.25
912.869	1151.64
913.181	1146.44
913.494	1154.8
913.806	1133.78
914.118	1101.47
914.43	1117.74
914.742	1129.26
915.054	1115.25
915.366	1116.61
915.678	1112.99
915.99	1125.42
916.302	1125.87
916.613	1103.73
916.925	1110.06
917.236	1096.72
917.548	1113.45
917.859	1110.28
918.171	1097.85
918.482	1091.98
918.794	1091.3
919.105	1088.59
919.416	1074.58
919.727	1104.18
920.038	1061.92
920.349	1075.93
920.66	1068.47
920.971	1063.5
921.282	1066.44
921.593	1068.7
921.903	1045.42
922.214	1034.13
922.525	1028.93
922.835	1058.53
923.146	1020.11
923.456	1045.42
923.767	1029.83
924.077	1039.55
924.387	1015.59
924.697	1024.63
925.008	1006.56
925.318	1055.37
925.628	1010.4
925.938	1021.02
926.248	1001.58
926.558	1012.43
926.867	1000.91
927.177	992.77
927.487	976.95
927.796	955.03
928.106	988.25
928.416	997.06
928.725	981.92
929.034	995.71
929.344	997.74
929.653	984.18
929.962	977.86
930.271	984.86
930.581	967.23
930.89	993.67
931.199	943.05
931.508	952.77
931.817	960.23
932.125	939.89
932.434	963.17
932.743	931.76
933.051	939.89
933.36	942.83
933.669	952.77
933.977	934.24
934.286	932.89
934.594	924.75
934.902	921.81
935.21	934.24
935.519	941.92
935.827	896.28
936.135	916.61
936.443	886.11
936.751	876.84
937.059	907.12
937.367	894.47
937.674	876.16
937.982	877.75
938.29	862.15
938.597	905.99
938.905	895.6
939.213	892.43
939.52	881.59
939.827	892.89
940.135	875.26
940.442	897.18
940.749	855.15
941.056	887.46
941.363	862.15
941.67	883.62
941.977	862.6
942.284	883.39
942.591	874.13
942.898	888.37
943.205	871.42
943.511	868.93
943.818	861.7
944.125	847.92
944.431	851.53
944.738	854.02
945.044	846.11
945.35	847.24
945.657	870.51
945.963	864.86
946.269	846.79
946.575	848.14
946.881	818.76
947.187	837.97
947.493	810.85
947.799	828.26
948.105	819.89
948.41	820.12
948.716	812.44
949.022	816.96
949.327	818.76
949.633	813.79
949.938	790.52
950.244	831.19
950.549	786.67
950.854	774.92
951.16	796.84
951.465	825.54
951.77	818.31
952.075	794.58
952.38	804.98
952.685	790.52
952.99	769.05
953.294	777.86
953.599	797.52
953.904	777.41
954.209	771.99
954.513	767.69
954.818	769.05
955.122	766.56
955.426	783.06
955.731	747.58
956.035	770.4
956.339	750.07
956.643	759.78
956.948	764.75
957.252	765.43
957.556	736.28
957.86	750.52
958.163	747.35
958.467	749.16
958.771	748.71
959.075	764.3
959.378	755.26
959.682	726.79
959.985	714.81
960.289	734.02
960.592	744.42
960.896	735.15
961.199	723.85
961.502	725.43
961.805	750.97
962.108	748.71
962.411	734.92
962.714	721.37
963.017	722.5
963.32	720.69
963.623	710.97
963.926	723.4
964.228	714.81
964.531	705.09
964.833	707.58
965.136	712.78
965.438	716.62
965.741	712.78
966.043	688.82
966.345	710.97
966.648	701.03
966.95	694.02
967.252	688.6
967.554	712.55
967.856	710.07
968.158	674.13
968.46	690.86
968.761	665.1
969.063	678.2
969.365	687.02
969.666	698.09
969.968	673.91
970.269	687.24
970.571	672.33
970.872	643.4
971.174	660.58
971.475	680.91
971.776	687.02
972.077	686.11
972.378	662.16
972.679	666.45
972.98	630.07
973.281	638.88
973.582	641.37
973.883	671.2
974.183	652.67
974.484	670.75
974.785	662.38
975.085	645.66
975.386	637.75
975.686	664.19
975.986	649.5
976.287	637.98
976.587	633.68
976.887	670.29
977.187	623.97
977.487	652.21
977.787	624.87
978.087	653.8
978.387	635.49
978.687	621.48
978.987	638.66
979.286	621.48
979.586	612.67
979.885	638.66
980.185	631.42
980.484	630.29
980.784	628.26
981.083	620.35
981.382	616.06
981.682	607.92
981.981	614.48
982.28	619.9
982.579	612.89
982.878	621.93
983.177	606.57
983.475	604.53
983.774	609.5
984.073	600.46
984.372	600.24
984.67	599.11
984.969	599.56
985.267	607.02
985.566	597.07
985.864	600.46
986.162	582.61
986.461	595.94
986.759	597.75
987.057	583.74
987.355	589.62
987.653	586.23
987.951	576.28
988.249	586.45
988.547	582.39
988.844	602.05
989.142	584.19
989.44	603.4
989.737	577.19
990.035	587.13
990.332	560.47
990.63	579.45
990.927	588.49
991.224	574.25
991.521	577.41
991.819	574.7
992.116	555.04
992.413	576.51
992.71	547.13
993.006	546.45
993.303	546.23
993.6	569.96
993.897	569.73
994.193	548.71
994.49	545.55
994.787	562.5
995.083	566.79
995.379	548.04
995.676	519.56
995.972	552.78
996.268	529.96
996.565	557.3
996.861	554.36
997.157	567.47
997.453	542.16
997.749	517.53
998.044	531.54
998.34	524.76
998.636	518.43
998.932	541.26
999.227	524.53
999.523	545.32
999.818	516.85
1000.114	509.85
1000.409	529.73
1000.704	528.38
1001	537.19
1001.295	519.56
1001.59	528.15
1001.885	539.22
1002.18	517.75
1002.475	533.57
1002.77	496.96
1003.065	505.33
1003.359	519.79
1003.654	516.4
1003.949	503.97
1004.243	506.68
1004.538	512.56
1004.832	526.12
1005.127	528.15
1005.421	482.28
1005.715	508.49
1006.009	511.65
1006.304	512.78
1006.598	502.61
1006.892	499.45
1007.186	473.69
1007.48	500.81
1007.773	485.44
1008.067	480.92
1008.361	500.35
1008.655	472.56
1008.948	501.94
1009.242	494.03
1009.535	489.96
1009.829	497.64
1010.122	491.54
1010.415	493.35
1010.708	483.86
1011.001	482.73
1011.295	465.78
1011.588	482.28
1011.881	482.5
1012.173	476.17
1012.466	463.29
1012.759	468.72
1013.052	452.22
1013.344	456.29
1013.637	476.85
1013.93	445.44
1014.222	479.79
1014.514	479.79
1014.807	456.74
1015.099	457.87
1015.391	468.72
1015.683	463.07
1015.976	448.83
1016.268	477.76
1016.56	461.94
1016.851	457.42
1017.143	453.35
1017.435	454.71
1017.727	473.46
1018.018	459.23
1018.31	462.39
1018.602	441.37
1018.893	452.67
1019.185	442.05
1019.476	466.23
1019.767	440.24
1020.058	462.16
1020.35	444.99
1020.641	451.32
1020.932	441.6
1021.223	451.32
1021.514	439.79
1021.804	431.2
1022.095	452.22
1022.386	434.14
1022.677	422.39
1022.967	428.49
1023.258	429.62
1023.548	465.33
1023.839	409.73
1024.129	434.37
1024.419	439.56
1024.709	424.65
1025	417.87
1025.29	411.32
1025.58	430.07
1025.87	416.97
1026.16	422.62
1026.449	424.88
1026.739	411.09
1027.029	436.17
1027.319	411.77
1027.608	424.65
1027.898	429.85
1028.187	418.77
1028.477	426.01
1028.766	406.8
1029.055	425.33
1029.344	436.17
1029.634	432.79
1029.923	424.2
1030.212	399.57
1030.501	397.31
1030.79	407.48
1031.078	411.54
1031.367	392.33
1031.656	414.93
1031.945	411.54
1032.233	406.12
1032.522	402.5
1032.81	409.51
1033.099	410.64
1033.387	394.82
1033.675	389.4
1033.963	396.63
1034.251	421.03
1034.54	391.43
1034.828	399.79
1035.116	408.83
1035.403	385.1
1035.691	413.12
1035.979	398.66
1036.267	380.13
1036.554	402.96
1036.842	398.21
1037.129	369.96
1037.417	397.31
1037.704	422.39
1037.992	394.14
1038.279	393.92
1038.566	404.09
1038.853	404.09
1039.14	404.09
