Data from carpet_green_FLMS001491_00097.txt Node
Date: Wed Feb 08 10:36:08 GMT 2017
User: dcchb
Spectrometer: FLMS00149
Trigger mode: 0
Integration Time (sec): 2.000000E-2
Scans to average: 10
Electric dark correction enabled: true
Nonlinearity correction enabled: false
Boxcar width: 0
XAxis mode: Wavelengths
Number of Pixels in Spectrum: 2048
>>>>>Begin Spectral Data<<<<<
341.393	-8.09
341.776	-8.09
342.16	-8.09
342.543	-55.55
342.927	-67.53
343.31	-75.89
343.693	-87.86
344.077	-54.65
344.46	-59.84
344.843	-63.91
345.226	-30.47
345.61	-40.86
345.993	-23.23
346.376	3.88
346.759	20.15
347.142	28.06
347.525	32.81
347.908	60.83
348.291	64
348.674	105.35
349.057	121.62
349.44	123.43
349.823	146.03
350.206	177.66
350.588	172.92
350.971	190.09
351.354	193.94
351.737	227.38
352.119	231.45
352.502	257.66
352.884	252.69
353.267	230.77
353.65	273.48
354.032	280.04
354.414	272.8
354.797	285.46
355.179	286.36
355.562	298.34
355.944	296.76
356.326	316.19
356.709	339.02
357.091	312.8
357.473	319.13
357.855	317.32
358.238	321.16
358.62	312.12
359.002	336.3
359.384	315.06
359.766	309.86
360.148	304.22
360.53	308.28
360.912	302.63
361.294	306.7
361.676	303.31
362.057	315.74
362.439	299.7
362.821	313.03
363.203	312.8
363.584	313.48
363.966	299.24
364.348	288.17
364.729	292.24
365.111	288.62
365.493	299.24
365.874	296.98
366.256	283.65
366.637	294.27
367.019	282.52
367.4	289.07
367.781	277.1
368.163	292.69
368.544	279.13
368.925	279.58
369.306	279.13
369.688	272.13
370.069	298.57
370.45	278.68
370.831	281.62
371.212	270.77
371.593	277.55
371.974	292.46
372.355	277.55
372.736	276.65
373.117	281.39
373.498	282.52
373.879	278.91
374.26	273.03
374.641	302.18
375.021	282.29
375.402	303.54
375.783	263.31
376.163	289.53
376.544	287.04
376.925	280.94
377.305	272.58
377.686	289.07
378.066	286.59
378.447	282.75
378.827	289.07
379.208	295.85
379.588	294.72
379.968	302.86
380.349	297.21
380.729	286.81
381.109	283.2
381.489	315.51
381.87	302.63
382.25	313.03
382.63	303.76
383.01	301.05
383.39	303.31
383.77	293.82
384.15	289.53
384.53	299.02
384.91	312.8
385.29	309.41
385.67	298.79
386.049	314.16
386.429	287.49
386.809	320.49
387.189	291.33
387.568	288.85
387.948	290.2
388.328	320.49
388.707	308.51
389.087	293.82
389.466	301.05
389.846	317.77
390.225	313.03
390.605	303.54
390.984	309.41
391.363	306.47
391.743	299.7
392.122	320.26
392.501	313.25
392.881	311.9
393.26	302.63
393.639	288.62
394.018	336.3
394.397	325.23
394.776	304.67
395.155	324.33
395.534	316.87
395.913	326.59
396.292	343.76
396.671	311.9
397.05	304.67
397.429	329.75
397.808	313.48
398.186	301.5
398.565	318.68
398.944	311.45
399.323	322.29
399.701	354.84
400.08	327.27
400.458	315.29
400.837	295.85
401.215	323.88
401.594	331.11
401.972	320.94
402.351	313.03
402.729	318.9
403.107	310.09
403.486	345.8
403.864	318.68
404.242	334.5
404.62	331.56
404.999	319.81
405.377	319.58
405.755	328.4
406.133	338.11
406.511	327.04
406.889	316.87
407.267	337.21
407.645	321.16
408.023	350.09
408.401	336.08
408.779	321.39
409.156	353.03
409.534	356.64
409.912	342.41
410.29	346.7
410.667	348.28
411.045	349.64
411.422	336.08
411.8	334.04
412.178	345.8
412.555	327.49
412.933	343.08
413.31	344.44
413.687	329.3
414.065	337.89
414.442	350.77
414.819	350.77
415.197	363.87
415.574	362.29
415.951	334.72
416.328	349.41
416.705	335.85
417.082	344.44
417.46	364.33
417.837	338.11
418.214	354.38
418.591	352.35
418.967	354.84
419.344	368.17
419.721	348.51
420.098	365.68
420.475	353.48
420.852	373.14
421.228	353.25
421.605	355.51
421.982	394.83
422.358	361.61
422.735	368.62
423.111	372.46
423.488	351.22
423.864	358.9
424.241	378.34
424.617	369.98
424.994	368.39
425.37	367.04
425.746	386.7
426.123	377.66
426.499	370.88
426.875	371.56
427.251	359.13
427.627	348.96
428.003	382.41
428.379	387.15
428.756	371.56
429.132	386.02
429.507	399.58
429.883	396.42
430.259	391.67
430.635	386.92
431.011	404.33
431.387	401.39
431.763	394.83
432.138	400.48
432.514	401.61
432.89	395.51
433.265	389.86
433.641	398.45
434.016	390.31
434.392	402.74
434.767	433.93
435.143	415.4
435.518	400.71
435.894	415.85
436.269	413.36
436.644	424.66
437.02	422.4
437.395	421.5
437.77	412.23
438.145	413.82
438.52	426.25
438.895	421.05
439.271	417.66
439.646	435.74
440.021	437.09
440.395	414.95
440.77	437.09
441.145	434.83
441.52	427.15
441.895	435.51
442.27	440.26
442.645	444.32
443.019	440.26
443.394	450.65
443.769	429.86
444.143	444.55
444.518	438
444.892	458.56
445.267	466.02
445.641	433.25
446.016	449.75
446.39	455.4
446.764	457.88
447.139	447.04
447.513	438.9
447.887	482.97
448.262	456.08
448.636	476.64
449.01	469.86
449.384	458.56
449.758	458.56
450.132	476.41
450.506	459.47
450.88	475.28
451.254	466.47
451.628	467.15
452.002	486.13
452.376	502.63
452.75	486.13
453.123	476.87
453.497	501.72
453.871	498.11
454.244	508.96
454.618	513.48
454.992	501.27
455.365	512.35
455.739	519.35
456.112	518.9
456.486	515.96
456.859	524.77
457.232	552.12
457.606	528.84
457.979	533.59
458.352	545.56
458.725	545.79
459.099	553.02
459.472	536.75
459.845	544.89
460.218	543.53
460.591	553.47
460.964	571.55
461.337	573.13
461.71	587.82
462.083	569.52
462.456	574.26
462.829	578.33
463.201	562.97
463.574	567.71
463.947	609.97
464.32	570.2
464.692	631.66
465.065	628.05
465.438	609.74
465.81	613.81
466.183	628.27
466.555	623.75
466.928	631.44
467.3	628.05
467.672	640.93
468.045	638.9
468.417	635.28
468.789	624.88
469.161	634.83
469.534	662.62
469.906	679.57
470.278	654.04
470.65	682.06
471.022	678.22
471.394	687.03
471.766	706.92
472.138	694.04
472.51	698.56
472.882	736.29
473.253	717.09
473.625	727.71
473.997	752.11
474.369	754.37
474.74	764.54
475.112	774.03
475.484	777.88
475.855	774.94
476.227	770.19
476.598	786.69
476.97	795.95
477.341	825.56
477.713	812.68
478.084	832.34
478.455	837.08
478.827	863.97
479.198	883.86
479.569	873.47
479.94	881.15
480.311	903.3
480.682	905.33
481.053	933.58
481.424	946.23
481.795	945.55
482.166	952.56
482.537	968.15
482.908	978.55
483.279	991.2
483.65	1014.93
484.021	1015.38
484.391	1030.07
484.762	1051.31
485.133	1042.27
485.503	1044.99
485.874	1085.66
486.244	1100.13
486.615	1096.96
486.985	1125.44
487.356	1123.85
487.726	1143.97
488.097	1127.92
488.467	1158.66
488.837	1162.05
489.207	1190.75
489.578	1230.07
489.948	1207.92
490.318	1235.49
490.688	1253.79
491.058	1267.13
491.428	1266.45
491.798	1261.48
492.168	1296.73
492.538	1300.57
492.908	1312.55
493.278	1334.7
493.648	1321.82
494.017	1302.38
494.387	1342.61
494.757	1351.19
495.126	1359.78
495.496	1333.79
495.866	1379.22
496.235	1382.15
496.605	1416.73
496.974	1412.66
497.344	1408.59
497.713	1416.28
498.082	1434.58
498.452	1445.65
498.821	1444.52
499.19	1454.24
499.559	1452.21
499.928	1480.91
500.298	1484.75
500.667	1533.11
501.036	1504.86
501.405	1470.96
501.774	1504.86
502.143	1495.6
502.512	1529.49
502.88	1541.92
503.249	1530.17
503.618	1553.45
503.987	1569.49
504.356	1551.19
504.724	1583.28
505.093	1571.75
505.462	1587.35
505.83	1630.96
506.199	1623.95
506.567	1621.92
506.936	1624.41
507.304	1646.55
507.672	1645.65
508.041	1642.03
508.409	1635.71
508.777	1650.85
509.145	1695.14
509.514	1691.3
509.882	1670.96
510.25	1690.39
510.618	1718.87
510.986	1690.62
511.354	1722.93
511.722	1729.94
512.09	1776.49
512.458	1732.88
512.826	1739.43
513.193	1762.03
513.561	1776.49
513.929	1785.76
514.297	1769.94
514.664	1791.18
515.032	1806.55
515.4	1782.82
515.767	1789.37
516.135	1800.9
516.502	1814.91
516.869	1820.11
517.237	1851.29
517.604	1855.59
517.972	1837.28
518.339	1864.4
518.706	1882.7
519.073	1858.52
519.44	1903.95
519.808	1906.43
520.175	1902.59
520.542	1882.7
520.909	1917.96
521.276	1934.23
521.643	1960.22
522.009	1957.05
522.376	1967.9
522.743	1976.49
523.11	1958.63
523.477	1997.73
523.843	1981.23
524.21	2043.38
524.577	2014.68
524.943	2021.01
525.31	2032.98
525.676	2021.91
526.043	2032.76
526.409	2075.24
526.776	2049.03
527.142	2082.02
527.508	2098.07
527.874	2093.55
528.241	2107.56
528.607	2115.02
528.973	2110.72
529.339	2142.58
529.705	2155.92
530.071	2134.22
530.437	2145.97
530.803	2139.87
531.169	2158.63
531.535	2171.51
531.901	2124.28
532.267	2152.3
532.632	2180.32
532.998	2165.64
533.364	2204.5
533.73	2202.24
534.095	2208.12
534.461	2216.03
534.826	2208.57
535.192	2226.65
535.557	2216.48
535.923	2210.61
536.288	2235.46
536.653	2255.8
537.019	2228.46
537.384	2201.11
537.749	2272.07
538.114	2227.55
538.479	2246.76
538.845	2235.92
539.21	2213.54
539.575	2208.35
539.94	2205.18
540.305	2225.75
540.67	2231.85
541.034	2248.57
541.399	2241.79
541.764	2268.91
542.129	2258.29
542.494	2263.94
542.858	2293.09
543.223	2246.54
543.587	2292.19
543.952	2288.8
544.316	2268.46
544.681	2288.12
545.045	2308.68
545.41	2261.9
545.774	2266.88
546.138	2293.99
546.503	2279.53
546.867	2317.04
547.231	2315.69
547.595	2308.91
547.959	2278.63
548.324	2282.24
548.688	2289.93
549.052	2276.82
549.416	2293.32
549.779	2346.42
550.143	2290.6
550.507	2296.71
550.871	2345.74
551.235	2334.22
551.599	2331.73
551.962	2319.53
552.326	2303.26
552.689	2354.56
553.053	2326.53
553.417	2338.06
553.78	2336.93
554.143	2328.12
554.507	2375.8
554.87	2377.61
555.234	2363.6
555.597	2373.54
555.96	2347.78
556.323	2406.08
556.686	2383.03
557.05	2380.32
557.413	2368.34
557.776	2388.91
558.139	2384.61
558.502	2371.96
558.865	2399.08
559.228	2410.37
559.59	2404.05
559.953	2389.81
560.316	2424.84
560.679	2409.02
561.041	2449.24
561.404	2440.88
561.767	2426.87
562.129	2457.83
562.492	2496.25
562.854	2457.6
563.217	2484.04
563.579	2461.67
563.941	2500.09
564.304	2499.64
564.666	2533.08
565.028	2512.74
565.39	2470.49
565.753	2481.11
566.115	2518.39
566.477	2495.57
566.839	2476.81
567.201	2536.7
567.563	2548.9
567.925	2569.01
568.287	2580.54
568.648	2557.04
569.01	2540.99
569.372	2528.79
569.734	2547.32
570.095	2538.05
570.457	2554.55
570.819	2571.5
571.18	2571.95
571.542	2582.12
571.903	2561.56
572.265	2575.79
572.626	2599.52
572.987	2584.16
573.349	2582.12
573.71	2566.08
574.071	2559.07
574.432	2603.36
574.794	2609.24
575.155	2605.62
575.516	2576.02
575.877	2589.13
576.238	2585.06
576.599	2580.99
576.96	2595.45
577.32	2578.96
577.681	2624.61
578.042	2598.84
578.403	2598.17
578.763	2566.75
579.124	2574.66
579.485	2580.99
579.845	2590.93
580.206	2578.96
580.566	2592.52
580.927	2583.7
581.287	2573.31
581.648	2583.7
582.008	2555.91
582.368	2552.52
582.728	2568.11
583.089	2524.04
583.449	2534.21
583.809	2552.29
584.169	2555.91
584.529	2550.26
584.889	2540.31
585.249	2536.47
585.609	2540.09
585.969	2547.77
586.329	2527.43
586.688	2554.33
587.048	2558.17
587.408	2536.7
587.768	2532.41
588.127	2540.09
588.487	2510.71
588.846	2519.98
589.206	2493.99
589.565	2511.16
589.925	2554.55
590.284	2519.52
590.643	2497.6
591.003	2498.51
591.362	2506.19
591.721	2508.68
592.08	2512.52
592.44	2540.54
592.799	2510.26
593.158	2506.42
593.517	2525.17
593.876	2496.25
594.235	2497.83
594.593	2498.51
594.952	2518.17
595.311	2522.46
595.67	2502.12
596.029	2491.5
596.387	2523.82
596.746	2531.5
597.104	2510.94
597.463	2477.04
597.822	2527.89
598.18	2497.6
598.538	2517.72
598.897	2508.23
599.255	2522.01
599.613	2523.37
599.972	2505.51
600.33	2503.25
600.688	2518.85
601.046	2522.46
601.404	2521.78
601.762	2534.89
602.12	2526.76
602.478	2534.44
602.836	2507.55
603.194	2507.1
603.552	2533.99
603.91	2516.36
604.268	2521.78
604.625	2512.74
604.983	2535.34
605.341	2545.96
605.698	2538.51
606.056	2537.38
606.413	2506.42
606.771	2551.39
607.128	2544.38
607.485	2537.83
607.843	2534.44
608.2	2542.8
608.557	2588.22
608.914	2575.34
609.272	2607.66
609.629	2597.49
609.986	2593.42
610.343	2551.16
610.7	2618.28
611.057	2605.62
611.414	2611.73
611.771	2593.87
612.127	2633.65
612.484	2569.24
612.841	2612.63
613.198	2620.54
613.554	2623.02
613.911	2636.81
614.267	2615.11
614.624	2631.84
614.98	2626.87
615.337	2626.41
615.693	2634.1
616.05	2628.22
616.406	2668.45
616.762	2640.42
617.118	2639.07
617.475	2604.72
617.831	2648.33
618.187	2635.68
618.543	2667.32
618.899	2654.66
619.255	2641.55
619.611	2660.09
619.967	2662.35
620.323	2661.44
620.678	2622.8
621.034	2657.83
621.39	2638.39
621.746	2633.19
622.101	2651.5
622.457	2635
622.812	2632.52
623.168	2662.8
623.523	2655.11
623.879	2666.86
624.234	2612.63
624.589	2654.66
624.945	2620.76
625.3	2678.62
625.655	2646.75
626.01	2667.54
626.365	2669.35
626.72	2609.47
627.075	2667.32
627.43	2612.63
627.785	2635.68
628.14	2634.32
628.495	2636.81
628.85	2599.07
629.205	2610.37
629.559	2618.96
629.914	2611.73
630.269	2611.95
630.623	2627.77
630.978	2604.49
631.332	2601.1
631.687	2624.38
632.041	2629.35
632.396	2637.04
632.75	2592.29
633.104	2609.47
633.459	2634.1
633.813	2619.18
634.167	2602.46
634.521	2577.15
634.875	2594.78
635.229	2611.95
635.583	2612.63
635.937	2611.73
636.291	2605.17
636.645	2585.06
636.999	2668.22
637.352	2583.48
637.706	2566.08
638.06	2613.76
638.413	2611.05
638.767	2594.55
639.121	2598.62
639.474	2613.76
639.828	2563.36
640.181	2598.39
640.534	2592.74
640.888	2571.05
641.241	2573.08
641.594	2590.71
641.947	2633.65
642.301	2628
642.654	2601.33
643.007	2617.15
643.36	2598.39
643.713	2621.89
644.066	2640.2
644.419	2550.26
644.771	2598.62
645.124	2595.91
645.477	2606.75
645.83	2576.7
646.182	2586.42
646.535	2576.47
646.888	2556.36
647.24	2557.04
647.593	2561.1
647.945	2569.01
648.298	2571.73
648.65	2556.59
649.002	2543.93
649.355	2627.32
649.707	2577.6
650.059	2635
650.411	2646.3
650.763	2651.27
651.115	2692.85
651.467	2689.69
651.819	2663.7
652.171	2681.55
652.523	2703.7
652.875	2701.67
653.227	2701.21
653.578	2742.57
653.93	2721.55
654.282	2736.92
654.633	2727.43
654.985	2717.94
655.337	2753.64
655.688	2756.81
656.039	2777.82
656.391	2762.23
656.742	2794.09
657.094	2803.81
657.445	2790.03
657.796	2842
658.147	2840.42
658.498	2825.96
658.849	2849.91
659.2	2838.61
659.551	2869.12
659.902	2905.95
660.253	2915.9
660.604	2937.14
660.955	2902.56
661.306	2908.21
661.656	2941.66
662.007	2969.23
662.358	2961.32
662.708	2935.33
663.059	2966.52
663.409	2953.86
663.76	3032.28
664.11	3036.12
664.461	3068.44
664.811	3077.48
665.161	3074.76
665.511	3097.14
665.862	3110.7
666.212	3110.92
666.562	3136.23
666.912	3186.17
667.262	3169.68
667.612	3177.13
667.962	3202.9
668.312	3168.32
668.662	3202.67
669.011	3249.45
669.361	3275.21
669.711	3291.71
670.06	3288.54
670.41	3311.37
670.76	3364.25
671.109	3379.39
671.459	3382.55
671.808	3383.68
672.157	3422.78
672.507	3429.78
672.856	3416.9
673.205	3480.63
673.554	3488.76
673.904	3545.94
674.253	3517.24
674.602	3577.12
674.951	3561.3
675.3	3552.94
675.649	3601.53
675.998	3592.49
676.346	3707.06
676.695	3689.21
677.044	3690.79
677.393	3754.29
677.741	3759.94
678.09	3796.33
678.438	3818.25
678.787	3794.97
679.135	3855.76
679.484	3799.94
679.832	3855.99
680.181	3882.43
680.529	3899.6
680.877	3928.75
681.225	3956.1
681.573	3967.4
681.922	3982.08
682.27	4046.04
682.618	4034.06
682.966	4060.73
683.314	4097.34
683.661	4107.73
684.009	4115.87
684.357	4123.55
684.705	4146.37
685.053	4207.39
685.4	4199.71
685.748	4265.69
686.095	4246.26
686.443	4275.18
686.79	4267.05
687.138	4320.38
687.485	4317.44
687.832	4327.84
688.18	4403.54
688.527	4431.34
688.874	4401.06
689.221	4399.7
689.568	4427.72
689.915	4519.02
690.262	4469.53
690.609	4487.38
690.956	4530.54
691.303	4570.54
691.65	4571.9
691.997	4566.02
692.344	4661.16
692.69	4653.03
693.037	4634.5
693.383	4642.86
693.73	4658.68
694.077	4749.07
694.423	4705.23
694.769	4754.49
695.116	4772.35
695.462	4786.36
695.808	4796.53
696.155	4831.78
696.501	4842.17
696.847	4838.33
697.193	4848.95
697.539	4892.8
697.885	4862.74
698.231	4896.41
698.577	4945.9
698.923	4927.37
699.269	4916.75
699.614	4902.51
699.96	4987.93
700.306	4963.08
700.651	5042.17
700.997	4978.44
701.342	4990.65
701.688	5034.49
702.033	5081.72
702.379	5087.59
702.724	5111.32
703.069	5096.41
703.415	5097.54
703.76	5112.22
704.105	5106.8
704.45	5177.31
704.795	5187.02
705.14	5171.21
705.485	5172.11
705.83	5178.44
706.175	5260.47
706.52	5256.18
706.865	5243.97
707.209	5185.67
707.554	5253.01
707.899	5241.03
708.243	5270.19
708.588	5295.95
708.932	5279.23
709.277	5300.92
709.621	5323.29
709.966	5266.34
710.31	5339.34
710.654	5267.25
710.998	5329.85
711.342	5380.01
711.687	5384.53
712.031	5332.78
712.375	5356.74
712.719	5353.12
713.063	5375.27
713.407	5399.9
713.75	5397.41
714.094	5410.3
714.438	5441.93
714.782	5477.86
715.125	5410.3
715.469	5425.44
715.812	5452.78
716.156	5405.32
716.499	5449.84
716.843	5497.52
717.186	5471.99
717.53	5493.68
717.873	5507.02
718.216	5513.8
718.559	5444.87
718.902	5474.47
719.246	5470.18
719.589	5544.3
719.932	5517.64
720.275	5536.17
720.617	5481.71
720.96	5542.04
721.303	5493.01
721.646	5580.91
721.989	5568.94
722.331	5558.99
722.674	5543.17
723.016	5572.78
723.359	5543.85
723.701	5526.45
724.044	5563.51
724.386	5551.31
724.729	5583.62
725.071	5558.99
725.413	5544.98
725.755	5571.42
726.097	5514.7
726.439	5558.09
726.782	5570.97
727.124	5612.32
727.465	5549.27
727.807	5614.13
728.149	5563.29
728.491	5544.53
728.833	5576.84
729.175	5617.97
729.516	5587.69
729.858	5588.82
730.199	5551.53
730.541	5537.98
730.882	5573.68
731.224	5613.68
731.565	5573.23
731.906	5641.48
732.248	5622.04
732.589	5580.23
732.93	5621.82
733.271	5558.09
733.612	5585.21
733.953	5599.67
734.294	5560.35
734.635	5555.83
734.976	5560.57
735.317	5576.84
735.658	5515.38
735.999	5599.44
736.339	5541.14
736.68	5558.99
737.021	5526.22
737.361	5523.96
737.702	5536.39
738.042	5538.65
738.383	5524.42
738.723	5565.09
739.063	5537.3
739.404	5506.56
739.744	5500.01
740.084	5533.91
740.424	5522.16
740.764	5525.77
741.104	5488.03
741.444	5498.43
741.784	5434.25
742.124	5482.61
742.464	5489.16
742.804	5482.38
743.143	5478.77
743.483	5524.19
743.823	5457.75
744.162	5470.63
744.502	5470.41
744.841	5445.55
745.181	5488.49
745.52	5440.35
745.86	5469.05
746.199	5434.48
746.538	5433.8
746.877	5463.85
747.216	5478.99
747.556	5420.46
747.895	5414.59
748.234	5404.87
748.573	5397.87
748.911	5405.1
749.25	5368.04
749.589	5369.62
749.928	5366.23
750.267	5373.01
750.605	5344.99
750.944	5362.61
751.283	5374.36
751.621	5333.91
751.96	5255.72
752.298	5286.01
752.636	5307.93
752.975	5279
753.313	5254.82
753.651	5281.71
753.989	5275.38
754.327	5269.51
754.666	5188.61
755.004	5237.42
755.342	5217.76
755.679	5226.8
756.017	5218.66
756.355	5209.17
756.693	5176.86
757.031	5206.69
757.368	5137.31
757.706	5143.64
758.044	5145.22
758.381	5183.86
758.719	5113.35
759.056	5093.24
759.394	5115.84
759.731	5075.16
760.068	5086.01
760.405	5050.31
760.743	5082.62
761.08	5052.34
761.417	5015.28
761.754	5039.46
762.091	4981.83
762.428	4977.76
762.765	4939.12
763.102	5014.15
763.438	4947.26
763.775	4909.52
764.112	4902.51
764.449	4912
764.785	4876.98
765.122	4889.86
765.458	4857.09
765.795	4836.75
766.131	4867.94
766.467	4819.58
766.804	4805.34
767.14	4764.66
767.476	4797.43
767.812	4777.54
768.148	4805.34
768.485	4738.45
768.821	4753.36
769.157	4732.57
769.492	4728.28
769.828	4651.45
770.164	4664.55
770.5	4649.86
770.836	4651.22
771.171	4646.25
771.507	4631.11
771.842	4540.71
772.178	4617.1
772.513	4581.84
772.849	4559.02
773.184	4563.31
773.519	4524.22
773.855	4551.11
774.19	4516.99
774.525	4468.17
774.86	4468.85
775.195	4474.95
775.53	4488.74
775.865	4444.67
776.2	4389.53
776.535	4354.5
776.87	4403.54
777.205	4394.5
777.539	4347.95
777.874	4345.24
778.209	4354.28
778.543	4307.73
778.878	4322.64
779.212	4275.64
779.547	4280.61
779.881	4268.63
780.215	4235.86
780.55	4253.72
780.884	4214.62
781.218	4266.6
781.552	4214.17
781.886	4171.46
782.22	4171.46
782.554	4185.47
782.888	4150.44
783.222	4117
783.556	4086.94
783.889	4107.73
784.223	4046.26
784.557	4102.76
784.89	4102.53
785.224	4076.55
785.557	4022.31
785.891	3997
786.224	3972.59
786.558	4036.32
786.891	4006.94
787.224	3983.21
787.557	3954.97
787.891	3985.47
788.224	3928.98
788.557	3924.68
788.89	3936.21
789.223	3907.74
789.556	3863.44
789.888	3854.4
790.221	3828.19
790.554	3830.45
790.887	3854.63
791.219	3839.94
791.552	3841.3
791.884	3810.79
792.217	3758.14
792.549	3746.16
792.882	3732.15
793.214	3763.11
793.546	3752.03
793.879	3727.18
794.211	3714.97
794.543	3734.63
794.875	3716.78
795.207	3709.78
795.539	3696.44
795.871	3665.26
796.203	3630.46
796.535	3667.97
796.867	3647.86
797.198	3645.82
797.53	3594.75
797.862	3581.64
798.193	3630.68
798.525	3570.34
798.856	3585.71
799.188	3523.79
799.519	3519.27
799.85	3540.74
800.182	3557.24
800.513	3534.19
800.844	3499.39
801.175	3524.24
801.506	3487.41
801.837	3477.01
802.168	3505.26
802.499	3504.13
802.83	3469.78
803.161	3464.13
803.491	3467.52
803.822	3423.46
804.153	3459.39
804.483	3409.9
804.814	3413.51
805.145	3415.55
805.475	3408.77
805.805	3371.03
806.136	3348.43
806.466	3393.85
806.796	3411.7
807.126	3326.51
807.457	3316.34
807.787	3354.76
808.117	3308.88
808.447	3298.26
808.777	3305.27
809.107	3325.6
809.436	3301.88
809.766	3236.79
810.096	3260.3
810.426	3259.84
810.755	3282.89
811.085	3276.79
811.414	3258.26
811.744	3205.83
812.073	3211.94
812.403	3219.62
812.732	3234.31
813.061	3229.11
813.39	3180.07
813.719	3172.61
814.049	3173.97
814.378	3170.13
814.707	3184.59
815.036	3145.04
815.365	3139.17
815.693	3129.68
816.022	3148.43
816.351	3093.52
816.68	3087.19
817.008	3109.57
817.337	3112.73
817.665	3071.83
817.994	3085.38
818.322	3077.48
818.651	3055.78
818.979	3050.36
819.307	3065.72
819.636	3056.23
819.964	3066.85
820.292	3054.2
820.62	3062.56
820.948	3032.28
821.276	3041.54
821.604	3034.76
821.932	3056.69
822.259	3064.59
822.587	3039.51
822.915	3040.41
823.243	3030.92
823.57	3021.66
823.898	3029.79
824.225	3051.94
824.553	3067.08
824.88	3023.92
825.207	3044.48
825.535	3059.62
825.862	3037.25
826.189	3018.27
826.516	3034.76
826.843	3052.84
827.17	3052.62
827.497	3032.28
827.824	3030.25
828.151	3027.31
828.478	3029.79
828.805	3069.34
829.131	3008.55
829.458	3019.4
829.785	3020.98
830.111	3048.32
830.438	3032.73
830.764	2991.15
831.09	3024.14
831.417	3047.65
831.743	3050.36
832.069	3007.65
832.395	3005.61
832.722	3018.72
833.048	2977.59
833.374	2974.65
833.7	2978.72
834.026	3023.69
834.351	3040.64
834.677	2978.04
835.003	2992.73
835.329	2971.94
835.654	2978.04
835.98	2966.29
836.306	2977.59
836.631	3004.48
836.956	2997.25
837.282	3009.45
837.607	2964.48
837.932	2941.66
838.258	2941.89
838.583	2955.22
838.908	2911.83
839.233	2944.6
839.558	2996.8
839.883	2919.06
840.208	2921.55
840.533	2922.45
840.858	2950.93
841.182	2938.5
841.507	2874.32
841.832	2906.18
842.156	2917.03
842.481	2939.4
842.805	2896.46
843.13	2928.33
843.454	2879.97
843.778	2898.95
844.103	2852.4
844.427	2866.86
844.751	2863.24
845.075	2870.25
845.399	2834.32
845.723	2845.62
846.047	2842.23
846.371	2827.31
846.695	2822.34
847.019	2799.74
847.343	2765.39
847.666	2760.2
847.99	2738.95
848.313	2766.98
848.637	2741.67
848.96	2737.37
849.284	2724.94
849.607	2726.52
849.931	2769.69
850.254	2694.89
850.577	2682.91
850.9	2647.2
851.223	2627.54
851.546	2660.99
851.869	2649.69
852.192	2644.94
852.515	2589.58
852.838	2599.52
853.161	2639.75
853.483	2616.02
853.806	2611.95
854.129	2611.73
854.451	2613.53
854.774	2588.45
855.096	2583.48
855.419	2540.09
855.741	2549.81
856.063	2540.99
856.385	2563.36
856.708	2513.87
857.03	2523.82
857.352	2521.56
857.674	2513.42
857.996	2501.45
858.318	2483.37
858.64	2485.85
858.961	2489.02
859.283	2487.66
859.605	2496.47
859.926	2497.38
860.248	2495.34
860.57	2447.89
860.891	2443.37
861.212	2471.16
861.534	2460.09
861.855	2462.12
862.176	2428.91
862.498	2433.42
862.819	2457.38
863.14	2438.17
863.461	2416.25
863.782	2429.36
864.103	2429.13
864.424	2423.48
864.745	2433.2
865.065	2379.64
865.386	2386.42
865.707	2421.9
866.027	2350.72
866.348	2377.38
866.668	2379.64
866.989	2403.59
867.309	2380.77
867.63	2362.92
867.95	2384.61
868.27	2343.48
868.59	2375.8
868.91	2326.76
869.23	2362.47
869.55	2323.37
869.87	2367.89
870.19	2386.87
870.51	2369.47
870.83	2369.92
871.15	2316.59
871.469	2337.38
871.789	2348.91
872.109	2331.73
872.428	2364.05
872.748	2304.39
873.067	2345.07
873.386	2292.64
873.706	2319.53
874.025	2331.96
874.344	2284.73
874.663	2336.93
874.982	2312.98
875.301	2326.31
875.62	2298.74
875.939	2284.95
876.258	2290.83
876.577	2296.71
876.896	2293.54
877.214	2278.17
877.533	2284.5
877.852	2278.85
878.17	2275.24
878.489	2253.32
878.807	2262.13
879.125	2250.83
879.444	2286.76
879.762	2259.42
880.08	2243.15
880.398	2219.42
880.716	2228.23
881.034	2246.99
881.352	2238.18
881.67	2228.23
881.988	2219.87
882.306	2234.33
882.624	2202.02
882.941	2202.7
883.259	2210.15
883.577	2167.22
883.894	2179.65
884.212	2195.01
884.529	2200.44
884.846	2177.16
885.164	2178.97
885.481	2182.81
885.798	2170.61
886.115	2160.21
886.432	2147.1
886.75	2150.72
887.067	2159.76
887.383	2163.38
887.7	2166.09
888.017	2163.15
888.334	2158.18
888.651	2149.82
888.967	2149.36
889.284	2125.18
889.6	2150.27
889.917	2098.29
890.233	2125.64
890.55	2099.2
890.866	2123.6
891.182	2109.37
891.498	2070.5
891.815	2067.33
892.131	2083.15
892.447	2078.86
892.763	2056.03
893.079	2078.63
893.395	2065.3
893.71	2061.68
894.026	2062.14
894.342	2076.15
894.657	2052.64
894.973	2034.34
895.289	2029.82
895.604	2042.7
895.92	2001.8
896.235	1978.07
896.55	2036.37
896.865	2027.33
897.181	1999.76
897.496	1989.82
897.811	1997.05
898.126	1984.85
898.441	1983.27
898.756	1973.32
899.071	1979.88
899.386	1995.92
899.7	1939.65
900.015	1918.41
900.33	1952.76
900.644	1930.39
900.959	1907.79
901.273	1902.14
901.588	1912.08
901.902	1915.92
902.216	1929.48
902.531	1905.3
902.845	1896.26
903.159	1869.82
903.473	1855.59
903.787	1898.3
904.101	1884.06
904.415	1861.01
904.729	1872.76
905.042	1847.45
905.356	1849.03
905.67	1816.49
905.984	1850.16
906.297	1820.33
906.611	1814.68
906.924	1828.02
907.237	1797.06
907.551	1776.72
907.864	1799.77
908.177	1783.27
908.491	1800.22
908.804	1772.43
909.117	1745.53
909.43	1764.29
909.743	1740.56
910.056	1760.67
910.368	1768.81
910.681	1762.71
910.994	1719.77
911.307	1734.01
911.619	1740.11
911.932	1715.93
912.244	1693.56
912.557	1736.49
912.869	1687.91
913.181	1704.4
913.494	1699.66
913.806	1692.88
914.118	1684.07
914.43	1659.89
914.742	1705.31
915.054	1682.71
915.366	1654.46
915.678	1686.78
915.99	1659.21
916.302	1632.99
916.613	1634.8
916.925	1582.83
917.236	1612.88
917.548	1614.69
917.859	1622.6
918.171	1596.61
918.482	1612.43
918.794	1592.32
919.105	1605.42
919.416	1589.83
919.727	1597.51
920.038	1564.52
920.349	1551.19
920.66	1555.48
920.971	1550.51
921.282	1569.04
921.593	1545.76
921.903	1560.45
922.214	1540.11
922.525	1530.17
922.835	1541.47
923.146	1523.17
923.456	1530.17
923.767	1527.01
924.077	1538.08
924.387	1501.02
924.697	1508.48
925.008	1527.91
925.318	1480.46
925.628	1468.7
925.938	1527.69
926.248	1471.42
926.558	1472.55
926.867	1483.39
927.177	1473
927.487	1480
927.796	1438.87
928.106	1449.95
928.416	1424.64
928.725	1421.25
929.034	1429.38
929.344	1429.61
929.653	1449.27
929.962	1398.42
930.271	1423.96
930.581	1384.64
930.89	1404.53
931.199	1416.95
931.508	1388.25
931.817	1391.64
932.125	1404.3
932.434	1388.71
932.743	1397.52
933.051	1389.61
933.36	1364.98
933.669	1365.2
933.977	1331.98
934.286	1349.16
934.594	1350.06
934.902	1343.96
935.21	1325.21
935.519	1333.57
935.827	1315.26
936.135	1338.99
936.443	1315.04
936.751	1311.65
937.059	1329.72
937.367	1318.2
937.674	1303.51
937.982	1305.32
938.29	1301.03
938.597	1279.1
938.905	1309.61
939.213	1277.52
939.52	1267.13
939.827	1293.57
940.135	1265.09
940.442	1273.23
940.749	1267.35
941.056	1248.6
941.363	1260.57
941.67	1254.7
941.977	1243.17
942.284	1243.85
942.591	1251.99
942.898	1236.17
943.205	1230.97
943.511	1227.81
943.818	1212.67
944.125	1200.69
944.431	1200.24
944.738	1196.17
945.044	1194.36
945.35	1219.22
945.657	1201.37
945.963	1203.4
946.269	1194.14
946.575	1156.62
946.881	1181.93
947.187	1204.53
947.493	1215.15
947.799	1194.14
948.105	1182.61
948.41	1155.49
948.716	1159.56
949.022	1136.51
949.327	1151.42
949.633	1150.29
949.938	1111.43
950.244	1169.28
950.549	1111.65
950.854	1146.9
951.16	1117.53
951.465	1124.53
951.77	1128.83
952.075	1115.27
952.38	1119.11
952.685	1097.64
952.99	1115.49
953.294	1113.46
953.599	1107.36
953.904	1103.52
954.209	1103.74
954.513	1080.01
954.818	1083.4
955.122	1096.74
955.426	1097.87
955.731	1078.21
956.035	1081.82
956.339	1051.31
956.643	1065.78
956.948	1063.52
957.252	1057.19
957.556	1048.6
957.86	1064.87
958.163	1049.51
958.467	1053.35
958.771	1038.89
959.075	1044.31
959.378	1027.13
959.682	1039.56
959.985	1029.62
960.289	1019.22
960.592	1033.69
960.896	1008.83
961.199	993.91
961.502	1024.65
961.805	1013.8
962.108	1002.95
962.411	1022.84
962.714	992.33
963.017	1009.96
963.32	1002.95
963.623	989.85
963.926	996.4
964.228	1002.73
964.531	966.57
964.833	976.97
965.136	988.04
965.438	956.4
965.741	960.92
966.043	969.28
966.345	973.12
966.648	955.95
966.95	955.5
967.252	943.52
967.554	960.7
967.856	961.15
968.158	958.44
968.46	938.55
968.761	924.54
969.063	933.58
969.365	915.27
969.666	921.6
969.968	936.74
970.269	920.7
970.571	928.61
970.872	895.84
971.174	907.14
971.475	901.49
971.776	884.09
972.077	902.17
972.378	919.79
972.679	886.8
972.98	876.63
973.281	899.23
973.582	889.96
973.883	910.3
974.183	876.4
974.484	873.24
974.785	872.11
975.085	865.33
975.386	881.6
975.686	881.6
975.986	894.03
976.287	881.83
976.587	872.56
976.887	872.11
977.187	851.09
977.487	876.4
977.787	859.45
978.087	823.75
978.387	849.51
978.687	860.36
978.987	851.09
979.286	848.61
979.586	841.15
979.885	853.81
980.185	821.94
980.484	832.56
980.784	812.68
981.083	826.91
981.382	809.96
981.682	835.27
981.981	834.82
982.28	810.64
982.579	800.93
982.878	827.59
983.177	821.49
983.475	834.82
983.774	801.15
984.073	806.8
984.372	787.14
984.67	784.65
984.969	802.73
985.267	782.17
985.566	778.78
985.864	772.68
986.162	781.04
986.461	775.84
986.759	792.56
987.057	779
987.355	785.78
987.653	772.23
987.951	793.47
988.249	752.79
988.547	787.37
988.844	762.96
989.142	746.92
989.44	764.09
989.737	772.68
990.035	752.34
990.332	737.65
990.63	734.94
990.927	754.82
991.224	766.12
991.521	749.18
991.819	764.99
992.116	732
992.413	747.59
992.71	748.05
993.006	729.97
993.303	746.01
993.6	707.82
993.897	714.83
994.193	708.95
994.49	716.18
994.787	714.83
995.083	726.35
995.379	718.22
995.676	701.27
995.972	714.6
996.268	698.78
996.565	720.7
996.861	677.99
997.157	689.29
997.453	718.22
997.749	703.53
998.044	694.71
998.34	692.45
998.636	699.23
998.932	683.87
999.227	696.97
999.523	678.89
999.818	686.13
1000.114	662.4
1000.409	694.26
1000.704	656.07
1001	681.15
1001.295	668.27
1001.59	671.66
1001.885	662.62
1002.18	666.92
1002.475	656.97
1002.77	656.52
1003.065	663.3
1003.359	629.86
1003.654	632.12
1003.949	643.64
1004.243	667.14
1004.538	628.05
1004.832	646.13
1005.127	606.58
1005.421	644.32
1005.715	631.21
1006.009	641.16
1006.304	646.13
1006.598	653.58
1006.892	640.7
1007.186	611.1
1007.48	648.16
1007.773	638.22
1008.067	614.72
1008.361	616.3
1008.655	632.12
1008.948	619.24
1009.242	619.69
1009.535	620.37
1009.829	616.75
1010.122	602.74
1010.415	574.49
1010.708	602.06
1011.001	595.96
1011.295	608.84
1011.588	619.46
1011.881	619.91
1012.173	596.86
1012.466	607.48
1012.759	575.62
1013.052	577.65
1013.344	582.85
1013.637	548.28
1013.93	600.93
1014.222	603.87
1014.514	580.59
1014.807	560.03
1015.099	570.87
1015.391	596.41
1015.683	564.1
1015.976	571.1
1016.268	560.03
1016.56	559.12
1016.851	561.84
1017.143	564.55
1017.435	537.66
1017.727	574.72
1018.018	553.25
1018.31	554.38
1018.602	543.3
1018.893	541.5
1019.185	550.76
1019.476	554.6
1019.767	551.89
1020.058	559.12
1020.35	551.44
1020.641	526.58
1020.932	542.85
1021.223	541.95
1021.514	526.36
1021.804	519.12
1022.095	529.97
1022.386	557.77
1022.677	507.15
1022.967	513.25
1023.258	545.11
1023.548	526.36
1023.839	522.51
1024.129	517.99
1024.419	517.77
1024.709	528.62
1025	522.06
1025.29	507.37
1025.58	514.15
1025.87	521.38
1026.16	507.37
1026.449	501.27
1026.739	506.47
1027.029	505.57
1027.319	495.62
1027.608	510.54
1027.898	513.48
1028.187	501.27
1028.477	499.92
1028.766	480.93
1029.055	470.09
1029.344	464.89
1029.634	473.02
1029.923	489.97
1030.212	473.7
1030.501	488.39
1030.79	500.59
1031.078	479.13
1031.367	469.86
1031.656	473.02
1031.945	479.8
1032.233	461.05
1032.522	478.45
1032.81	476.41
1033.099	482.06
1033.387	468.96
1033.675	456.98
1033.963	450.88
1034.251	459.69
1034.54	464.66
1034.828	464.66
1035.116	469.86
1035.403	457.21
1035.691	473.7
1035.979	444.78
1036.267	448.62
1036.554	443.87
1036.842	453.14
1037.129	463.76
1037.417	437.32
1037.704	443.65
1037.992	424.21
1038.279	445.23
1038.566	439.8
1038.853	439.8
1039.14	439.8
