Data from carpet_green_FLMS001491_00059.txt Node
Date: Wed Feb 08 10:35:34 GMT 2017
User: dcchb
Spectrometer: FLMS00149
Trigger mode: 0
Integration Time (sec): 2.000000E-2
Scans to average: 10
Electric dark correction enabled: true
Nonlinearity correction enabled: false
Boxcar width: 0
XAxis mode: Wavelengths
Number of Pixels in Spectrum: 2048
>>>>>Begin Spectral Data<<<<<
341.393	-47.56
341.776	-47.56
342.16	-47.56
342.543	-60.44
342.927	-70.83
343.31	-68.35
343.693	-79.19
344.077	-67.44
344.46	-56.37
344.843	-53.2
345.226	-40.78
345.61	-20.66
345.993	-37.61
346.376	7.58
346.759	28.6
347.142	36.51
347.525	25.44
347.908	48.71
348.291	76.06
348.674	89.62
349.057	111.08
349.44	109.28
349.823	130.52
350.206	147.47
350.588	166.68
350.971	192.21
351.354	186.79
351.737	200.8
352.119	225.66
352.502	248.71
352.884	248.71
353.267	258.65
353.65	268.82
354.032	258.88
354.414	273.57
354.797	258.43
355.179	300.01
355.562	304.53
355.944	294.81
356.326	309.27
356.709	309.72
357.091	312.21
357.473	300.91
357.855	320.12
358.238	328.71
358.62	290.29
359.002	318.54
359.384	306.56
359.766	290.97
360.148	314.7
360.53	324.41
360.912	285.54
361.294	298.2
361.676	299.1
362.057	311.53
362.439	307.01
362.821	291.87
363.203	290.06
363.584	306.33
363.966	285.77
364.348	295.26
364.729	297.97
365.111	279.89
365.493	276.73
365.874	278.99
366.256	302.72
366.637	291.64
367.019	263.62
367.4	279.44
367.781	276.96
368.163	282.15
368.544	290.29
368.925	270.4
369.306	285.09
369.688	291.19
370.069	294.58
370.45	279.44
370.831	272.66
371.212	270.18
371.593	289.84
371.974	263.17
372.355	286.67
372.736	287.13
373.117	274.47
373.498	273.79
373.879	255.26
374.26	256.17
374.641	261.36
375.021	280.57
375.402	275.6
375.783	284.87
376.163	287.13
376.544	257.07
376.925	309.95
377.305	271.76
377.686	272.21
378.066	269.72
378.447	286.22
378.827	297.07
379.208	288.71
379.588	295.03
379.968	288.26
380.349	295.94
380.729	296.16
381.109	274.24
381.489	283.74
381.87	281.25
382.25	295.26
382.63	286.67
383.01	288.48
383.39	270.18
383.77	293.23
384.15	286.45
384.53	292.55
384.91	295.94
385.29	283.06
385.67	279.67
386.049	288.93
386.429	296.84
386.809	297.75
387.189	295.94
387.568	292.32
387.948	291.64
388.328	299.78
388.707	274.24
389.087	297.97
389.466	292.77
389.846	293.23
390.225	301.36
390.605	286.22
390.984	282.61
391.363	303.17
391.743	314.24
392.122	317.41
392.501	304.3
392.881	312.89
393.26	289.16
393.639	303.85
394.018	307.92
394.397	290.29
394.776	307.46
395.155	287.35
395.534	299.33
395.913	300.91
396.292	328.25
396.671	294.36
397.05	298.2
397.429	311.31
397.808	291.19
398.186	299.1
398.565	290.29
398.944	329.16
399.323	323.28
399.701	316.28
400.08	300.01
400.458	304.07
400.837	306.56
401.215	324.86
401.594	323.73
401.972	309.05
402.351	281.48
402.729	331.42
403.107	307.69
403.486	295.26
403.864	319.89
404.242	305.66
404.62	304.3
404.999	310.4
405.377	310.85
405.755	311.53
406.133	312.66
406.511	308.14
406.889	333.23
407.267	313.11
407.645	311.98
408.023	328.25
408.401	315.15
408.779	324.19
409.156	322.38
409.534	329.84
409.912	319.67
410.29	302.04
410.667	330.74
411.045	316.73
411.422	323.51
411.8	316.5
412.178	313.34
412.555	331.42
412.933	317.63
413.31	318.54
413.687	323.28
414.065	329.84
414.442	318.99
414.819	321.7
415.197	304.98
415.574	338.42
415.951	319.67
416.328	309.05
416.705	321.02
417.082	318.99
417.46	322.15
417.837	316.05
418.214	327.12
418.591	326.22
418.967	318.99
419.344	305.66
419.721	341.81
420.098	324.64
420.475	332.77
420.852	318.76
421.228	304.3
421.605	337.75
421.982	324.41
422.358	339.33
422.735	334.81
423.111	342.27
423.488	347.91
423.864	343.39
424.241	333.23
424.617	337.07
424.994	317.41
425.37	327.35
425.746	335.26
426.123	357.41
426.499	355.6
426.875	329.84
427.251	314.24
427.627	345.43
428.003	349.04
428.379	349.04
428.756	362.83
429.132	351.08
429.507	335.26
429.883	330.29
430.259	362.15
430.635	370.74
431.011	334.58
431.387	345.88
431.763	340.68
432.138	343.85
432.514	363.73
432.89	343.85
433.265	356.28
433.641	340.68
434.016	354.24
434.392	349.04
434.767	351.76
435.143	345.2
435.518	365.77
435.894	351.76
436.269	350.4
436.644	346.56
437.02	357.18
437.395	359.44
437.77	377.52
438.145	349.27
438.52	375.26
438.895	355.82
439.271	364.41
439.646	354.24
440.021	380.23
440.395	373.9
440.77	354.02
441.145	371.42
441.52	364.86
441.895	369.61
442.27	355.6
442.645	351.98
443.019	360.8
443.394	368.7
443.769	360.57
444.143	362.38
444.518	354.92
444.892	377.97
445.267	365.54
445.641	393.56
446.016	378.87
446.39	379.33
446.764	372.77
447.139	386.78
447.513	368.03
447.887	381.13
448.262	380.91
448.636	375.03
449.01	389.72
449.384	406.9
449.758	392.66
450.132	385.2
450.506	389.5
450.88	357.18
451.254	400.57
451.628	397.18
452.002	389.04
452.376	385.2
452.75	376.61
453.123	405.54
453.497	389.04
453.871	385.2
454.244	414.81
454.618	410.06
454.992	392.21
455.365	387.46
455.739	396.27
456.112	404.64
456.486	392.21
456.859	412.32
457.232	411.64
457.606	397.86
457.979	406.22
458.352	408.93
458.725	384.75
459.099	406.9
459.472	415.71
459.845	423.39
460.218	420.46
460.591	421.58
460.964	431.3
461.337	411.87
461.71	433.56
462.083	431.98
462.456	429.04
462.829	431.3
463.201	415.03
463.574	431.3
463.947	420.91
464.32	424.52
464.692	443.96
465.065	435.82
465.438	434.47
465.81	446.22
466.183	463.39
466.555	458.19
466.928	454.13
467.3	446.67
467.672	452.32
468.045	466.56
468.417	461.36
468.789	466.78
469.161	462.94
469.534	453.67
469.906	448.93
470.278	481.92
470.65	474.92
471.022	474.92
471.394	467.01
471.766	492.09
472.138	463.17
472.51	500.23
472.882	504.75
473.253	495.26
473.625	505.2
473.997	510.17
474.369	489.83
474.74	489.61
475.112	509.94
475.484	501.13
475.855	495.26
476.227	503.62
476.598	521.7
476.97	520.11
477.341	506.1
477.713	521.47
478.084	531.64
478.455	522.37
478.827	559.89
479.198	564.18
479.569	538.19
479.94	563.05
480.311	539.1
480.682	542.49
481.053	585.2
481.424	582.94
481.795	593.33
482.166	586.1
482.537	585.2
482.908	583.16
483.279	603.95
483.65	603.28
484.021	603.95
484.391	615.48
484.762	617.96
485.133	627.68
485.503	609.38
485.874	626.55
486.244	644.63
486.615	637.62
486.985	637.62
487.356	658.87
487.726	657.06
488.097	657.51
488.467	665.42
488.837	662.26
489.207	674.23
489.578	680.56
489.948	672.65
490.318	697.74
490.688	716.27
491.058	684.85
491.428	716.04
491.798	718.98
492.168	716.27
492.538	705.19
492.908	720.11
493.278	739.99
493.648	720.56
494.017	745.64
494.387	746.77
494.757	743.61
495.126	755.36
495.496	740.45
495.866	753.33
496.235	784.06
496.605	762.14
496.974	759.88
497.344	788.13
497.713	789.71
498.082	763.27
498.452	783.61
498.821	784.97
499.19	768.24
499.559	782.03
499.928	774.12
500.298	812.76
500.667	815.25
501.036	803.72
501.405	815.92
501.774	817.96
502.143	813.21
502.512	831.52
502.88	827.45
503.249	817.28
503.618	810.28
503.987	835.81
504.356	818.18
504.724	842.36
505.093	841.23
505.462	822.48
505.83	854.12
506.199	841.69
506.567	863.16
506.936	826.77
507.304	839.65
507.672	869.26
508.041	873.1
508.409	843.04
508.777	860.22
509.145	867.9
509.514	866.32
509.882	864.51
510.25	858.64
510.618	894.11
510.986	857.73
511.354	850.05
511.722	882.59
512.09	876.94
512.458	897.96
512.826	863.16
513.193	891.18
513.561	891.4
513.929	897.05
514.297	900.22
514.664	903.38
515.032	896.37
515.4	892.31
515.767	918.97
516.135	921.23
516.502	918.97
516.869	929.59
517.237	929.82
517.604	930.72
517.972	892.76
518.339	915.81
518.706	938.86
519.073	929.14
519.44	943.15
519.808	951.97
520.175	950.16
520.542	946.32
520.909	946.32
521.276	952.42
521.643	965.98
522.009	935.47
522.376	942.25
522.743	967.33
523.11	951.97
523.477	957.39
523.843	989.03
524.21	966.2
524.577	974.34
524.943	986.32
525.31	988.8
525.676	1006.88
526.043	1020.67
526.409	982.02
526.776	986.54
527.142	995.36
527.508	1008.01
527.874	1021.8
528.241	1036.48
528.607	1047.11
528.973	1015.24
529.339	1006.43
529.705	1030.16
530.071	1053.43
530.437	1000.33
530.803	1035.35
531.169	1031.96
531.535	989.93
531.901	1036.26
532.267	1073.55
532.632	1018.41
532.998	1041.23
533.364	1018.63
533.73	1038.97
534.095	1043.49
534.461	1052.98
534.826	1037.16
535.192	1040.33
535.557	1072.64
535.923	1056.14
536.288	1059.76
536.653	1059.99
537.019	1038.74
537.384	1066.31
537.749	1062.7
538.114	1049.14
538.479	1047.33
538.845	1058.63
539.21	1025.18
539.575	1060.66
539.94	1061.12
540.305	1064.28
540.67	1037.61
541.034	1058.4
541.399	1041
541.764	1042.36
542.129	1081
542.494	1056.14
542.858	1060.21
543.223	1044.85
543.587	1045.52
543.952	1037.61
544.316	1076.03
544.681	1057.5
545.045	1085.3
545.41	1096.14
545.774	1052.53
546.138	1059.31
546.503	1077.84
546.867	1083.71
547.231	1071.96
547.595	1105.18
547.959	1077.16
548.324	1061.34
548.688	1066.54
549.052	1081
549.416	1089.36
549.779	1059.08
550.143	1062.47
550.507	1063.15
550.871	1060.89
551.235	1077.39
551.599	1078.97
551.962	1071.51
552.326	1089.59
552.689	1083.04
553.053	1092.08
553.417	1069.03
553.78	1097.27
554.143	1085.75
554.507	1097.05
554.87	1116.26
555.234	1112.19
555.597	1088.01
555.96	1097.05
556.323	1104.73
556.686	1103.37
557.05	1092.08
557.413	1115.8
557.776	1116.93
558.139	1107.67
558.502	1121.68
558.865	1130.72
559.228	1133.43
559.59	1114
559.953	1127.33
560.316	1118.06
560.679	1124.84
561.041	1102.02
561.404	1141.79
561.767	1127.33
562.129	1123.04
562.492	1131.17
562.854	1155.58
563.217	1143.15
563.579	1163.26
563.941	1136.37
564.304	1173.43
564.666	1170.94
565.028	1147.44
565.39	1139.53
565.753	1140.66
566.115	1137.72
566.477	1160.55
566.839	1182.02
567.201	1174.11
567.563	1158.29
567.925	1133.2
568.287	1168.68
568.648	1154.22
569.01	1147.44
569.372	1161.23
569.734	1170.27
570.095	1162.58
570.457	1157.61
570.819	1158.06
571.18	1153.54
571.542	1162.36
571.903	1148.12
572.265	1170.49
572.626	1168.68
572.987	1176.59
573.349	1171.85
573.71	1198.06
574.071	1191.06
574.432	1196.48
574.794	1205.07
575.155	1194.22
575.516	1176.37
575.877	1181.79
576.238	1186.31
576.599	1194.9
576.96	1182.02
577.32	1192.41
577.681	1205.07
578.042	1192.41
578.403	1197.16
578.763	1181.79
579.124	1195.8
579.485	1195.58
579.845	1187.21
580.206	1202.36
580.566	1203.03
580.927	1179.53
581.287	1215.24
581.648	1176.37
582.008	1219.76
582.368	1203.71
582.728	1195.12
583.089	1183.6
583.449	1186.99
583.809	1193.77
584.169	1188.8
584.529	1176.37
584.889	1172.07
585.249	1154.45
585.609	1177.05
585.969	1167.33
586.329	1172.98
586.688	1180.66
587.048	1190.15
587.408	1192.86
587.768	1160.55
588.127	1194.67
588.487	1188.34
588.846	1172.75
589.206	1177.95
589.565	1159.19
589.925	1177.72
590.284	1157.16
590.643	1155.8
591.003	1193.54
591.362	1183.6
591.721	1159.64
592.08	1171.62
592.44	1173.43
592.799	1192.19
593.158	1169.14
593.517	1192.86
593.876	1146.31
594.235	1161.45
594.593	1146.09
594.952	1177.05
595.311	1168.23
595.67	1163.03
596.029	1184.95
596.387	1158.74
596.746	1169.14
597.104	1165.07
597.463	1164.84
597.822	1172.3
598.18	1152.87
598.538	1146.76
598.897	1162.36
599.255	1169.81
599.613	1163.49
599.972	1174.79
600.33	1160.32
600.688	1170.49
601.046	1157.61
601.404	1168.23
601.762	1166.2
602.12	1177.72
602.478	1189.25
602.836	1182.24
603.194	1171.85
603.552	1166.2
603.91	1149.02
604.268	1174.11
604.625	1188.34
604.983	1159.64
605.341	1186.08
605.698	1184.5
606.056	1180.89
606.413	1188.57
606.771	1171.85
607.128	1182.02
607.485	1183.6
607.843	1182.02
608.2	1155.58
608.557	1193.77
608.914	1196.25
609.272	1210.49
609.629	1201.45
609.986	1203.26
610.343	1196.93
610.7	1191.06
611.057	1207.1
611.414	1172.3
611.771	1172.98
612.127	1215.69
612.484	1176.37
612.841	1197.84
613.198	1179.76
613.554	1154.9
613.911	1204.84
614.267	1175.69
614.624	1216.59
614.98	1203.71
615.337	1197.61
615.693	1215.46
616.05	1203.71
616.406	1200.1
616.762	1203.71
617.118	1214.11
617.475	1179.98
617.831	1205.07
618.187	1192.19
618.543	1195.8
618.899	1214.11
619.255	1227.67
619.611	1201.68
619.967	1209.81
620.323	1195.8
620.678	1251.39
621.034	1235.8
621.39	1227.21
621.746	1206.42
622.101	1197.16
622.457	1223.15
622.812	1218.63
623.168	1233.54
623.523	1205.07
623.879	1214.33
624.234	1214.11
624.589	1193.99
624.945	1217.5
625.3	1214.11
625.655	1187.21
626.01	1193.32
626.365	1223.37
626.72	1226.08
627.075	1194.67
627.43	1203.94
627.785	1230.38
628.14	1210.49
628.495	1218.4
628.85	1219.98
629.205	1193.32
629.559	1234.44
629.914	1200.55
630.269	1205.29
630.623	1203.03
630.978	1203.71
631.332	1209.36
631.687	1201.9
632.041	1220.66
632.396	1205.07
632.75	1212.98
633.104	1201.68
633.459	1188.12
633.813	1196.03
634.167	1224.05
634.521	1215.69
634.875	1219.3
635.229	1184.5
635.583	1212.3
635.937	1206.2
636.291	1206.2
636.645	1190.83
636.999	1186.31
637.352	1193.32
637.706	1199.87
638.06	1196.48
638.413	1201.45
638.767	1201.23
639.121	1180.44
639.474	1188.8
639.828	1224.05
640.181	1187.44
640.534	1183.37
640.888	1211.17
641.241	1192.86
641.594	1212.75
641.947	1186.54
642.301	1199.42
642.654	1169.81
643.007	1204.62
643.36	1212.75
643.713	1172.3
644.066	1185.41
644.419	1197.84
644.771	1181.34
645.124	1180.21
645.477	1197.16
645.83	1188.34
646.182	1177.27
646.535	1156.93
646.888	1182.47
647.24	1183.6
647.593	1193.32
647.945	1193.77
648.298	1193.54
648.65	1185.63
649.002	1179.08
649.355	1212.07
649.707	1205.07
650.059	1221.34
650.411	1225.18
650.763	1210.72
651.115	1215.46
651.467	1207.33
651.819	1195.12
652.171	1238.74
652.523	1222.02
652.875	1224.05
653.227	1229.93
653.578	1226.31
653.93	1239.87
654.282	1248.23
654.633	1231.96
654.985	1240.55
655.337	1223.6
655.688	1276.25
656.039	1245.97
656.391	1248.23
656.742	1273.31
657.094	1255.01
657.445	1242.35
657.796	1287.32
658.147	1276.7
658.498	1285.97
658.849	1285.29
659.2	1266.53
659.551	1278.74
659.902	1285.07
660.253	1273.31
660.604	1293.88
660.955	1327.55
661.306	1317.15
661.656	1297.95
662.007	1340.2
662.358	1327.55
662.708	1318.06
663.059	1317.15
663.409	1346.31
663.76	1334.1
664.11	1351.96
664.461	1356.02
664.811	1350.37
665.161	1377.94
665.511	1383.82
665.862	1391.05
666.212	1391.28
666.562	1403.48
666.912	1397.6
667.262	1389.24
667.612	1427.89
667.962	1435.34
668.312	1440.09
668.662	1466.53
669.011	1454.78
669.361	1476.47
669.711	1459.75
670.06	1475.12
670.41	1446.42
670.76	1486.87
671.109	1502.91
671.459	1506.98
671.808	1504.49
672.157	1534.1
672.507	1524.38
672.856	1536.81
673.205	1549.46
673.554	1556.47
673.904	1585.62
674.253	1563.48
674.602	1612.29
674.951	1602.8
675.3	1590.37
675.649	1643.02
675.998	1642.57
676.346	1633.08
676.695	1681.21
677.044	1655.68
677.393	1711.95
677.741	1703.81
678.09	1667.88
678.438	1739.06
678.787	1743.81
679.135	1759.85
679.484	1742.23
679.832	1765.28
680.181	1791.27
680.529	1800.76
680.877	1796.01
681.225	1824.94
681.573	1854.77
681.922	1846.63
682.27	1852.73
682.618	1849.8
682.966	1911.04
683.314	1860.19
683.661	1915.33
684.009	1899.29
684.357	1930.02
684.705	1915.78
685.053	1974.76
685.4	1967.31
685.748	2013.86
686.095	1979.06
686.443	2032.62
686.79	2025.84
687.138	2048.21
687.485	2056.12
687.832	2072.84
688.18	2090.47
688.527	2127.75
688.874	2107.19
689.221	2144.7
689.568	2145.38
689.915	2141.54
690.262	2130.01
690.609	2211.59
690.956	2205.27
691.303	2200.07
691.65	2245.72
691.997	2216.57
692.344	2253.4
692.69	2268.32
693.037	2287.52
693.383	2289.56
693.73	2311.48
694.077	2344.47
694.423	2377.47
694.769	2370.91
695.116	2374.53
695.462	2363.23
695.808	2405.49
696.155	2418.59
696.501	2419.72
696.847	2454.98
697.193	2425.6
697.539	2483
697.885	2502.66
698.231	2485.03
698.577	2530.46
698.923	2554.41
699.269	2554.18
699.614	2603.22
699.96	2555.31
700.306	2576.1
700.651	2598.7
700.997	2605.93
701.342	2617.01
701.688	2653.39
702.033	2662.2
702.379	2653.16
702.724	2697.46
703.069	2731.35
703.415	2695.65
703.76	2739.94
704.105	2769.55
704.45	2758.47
704.795	2768.42
705.14	2779.49
705.485	2824.01
705.83	2821.3
706.175	2807.06
706.52	2838.92
706.865	2835.08
707.209	2866.72
707.554	2873.05
707.899	2907.17
708.243	2928.64
708.588	2934.51
708.932	2933.38
709.277	2963.89
709.621	2953.72
709.966	2952.59
710.31	2969.54
710.654	2992.82
710.998	2981.97
711.342	3016.77
711.687	3002.08
712.031	3034.85
712.375	3042.53
712.719	3052.48
713.063	3083.21
713.407	3117.11
713.75	3117.56
714.094	3095.86
714.438	3137.67
714.782	3118.01
715.125	3127.73
715.469	3171.57
715.812	3163.66
716.156	3170.44
716.499	3172.7
716.843	3209.31
717.186	3180.16
717.53	3227.16
717.873	3201.85
718.216	3224.45
718.559	3236.88
718.902	3228.52
719.246	3268.74
719.589	3292.02
719.932	3275.3
720.275	3254.73
720.617	3300.15
720.96	3295.18
721.303	3327.72
721.646	3301.96
721.989	3316.2
722.331	3333.6
722.674	3362.3
723.016	3356.65
723.359	3361.17
723.701	3359.13
724.044	3377.21
724.386	3347.16
724.729	3391.22
725.071	3380.38
725.413	3388.51
725.755	3383.31
726.097	3384.9
726.439	3376.54
726.782	3388.74
727.124	3391.9
727.465	3389.87
727.807	3408.63
728.149	3403.2
728.491	3431.68
728.833	3430.55
729.175	3433.94
729.516	3414.27
729.858	3401.39
730.199	3412.92
730.541	3453.14
730.882	3471.9
731.224	3423.09
731.565	3474.39
731.906	3464.22
732.248	3450.66
732.589	3449.75
732.93	3406.14
733.271	3432.35
733.612	3453.82
733.953	3521.84
734.294	3481.39
734.635	3471.22
734.976	3492.92
735.317	3488.62
735.658	3454.73
735.999	3471.22
736.339	3453.6
736.68	3485.46
737.021	3477.55
737.361	3472.13
737.702	3488.85
738.042	3434.39
738.383	3456.99
738.723	3489.75
739.063	3453.37
739.404	3477.32
739.744	3445.23
740.084	3485.23
740.424	3443.65
740.764	3459.47
741.104	3447.04
741.444	3472.8
741.784	3424.22
742.124	3482.52
742.464	3499.47
742.804	3465.57
743.143	3460.38
743.483	3420.83
743.823	3436.87
744.162	3431.68
744.502	3491.33
744.841	3403.65
745.181	3478.91
745.52	3452.24
745.86	3468.51
746.199	3493.59
746.538	3464.67
746.877	3439.81
747.216	3445.91
747.556	3427.38
747.895	3430.55
748.234	3411.56
748.573	3463.09
748.911	3449.98
749.25	3445.23
749.589	3422.86
749.928	3430.77
750.267	3400.72
750.605	3418.57
750.944	3415.86
751.283	3369.53
751.621	3410.21
751.96	3401.39
752.298	3389.87
752.636	3397.1
752.975	3416.99
753.313	3352.81
753.651	3394.39
753.989	3391.68
754.327	3333.37
754.666	3343.32
755.004	3325.24
755.342	3360.49
755.679	3342.64
756.017	3335.41
756.355	3339.93
756.693	3299.48
757.031	3324.11
757.368	3326.59
757.706	3343.77
758.044	3272.81
758.381	3302.87
758.719	3296.99
759.056	3267.39
759.394	3304.22
759.731	3247.73
760.068	3264.45
760.405	3247.95
760.743	3248.18
761.08	3261.74
761.417	3239.59
761.754	3240.95
762.091	3229.19
762.428	3188.97
762.765	3189.87
763.102	3212.25
763.438	3195.52
763.775	3206.82
764.112	3172.47
764.449	3171.34
764.785	3152.13
765.122	3170.89
765.458	3148.52
765.795	3128.63
766.131	3141.29
766.467	3088.18
766.804	3122.98
767.14	3063.78
767.476	3102.42
767.812	3089.31
768.148	3062.87
768.485	3034.85
768.821	3062.65
769.157	3028.97
769.492	3065.58
769.828	3031.69
770.164	3011.35
770.5	3017
770.836	3040.95
771.171	2986.72
771.507	2989.2
771.842	2957.34
772.178	2985.13
772.513	2943.33
772.849	2946.04
773.184	2957.56
773.519	2965.47
773.855	2929.77
774.19	2885.02
774.525	2892.25
774.86	2918.47
775.195	2892.25
775.53	2899.71
775.865	2900.39
776.2	2875.31
776.535	2824.69
776.87	2847.74
777.205	2828.98
777.539	2848.19
777.874	2845.25
778.209	2805.93
778.543	2824.01
778.878	2799.15
779.212	2774.97
779.547	2774.29
779.881	2786.95
780.215	2752.37
780.55	2763.22
780.884	2733.84
781.218	2741.52
781.552	2733.61
781.886	2738.81
782.22	2717.12
782.554	2696.33
782.888	2680.28
783.222	2665.14
783.556	2664.01
783.889	2652.49
784.223	2676.21
784.557	2675.76
784.89	2666.5
785.224	2672.15
785.557	2605.03
785.891	2623.33
786.224	2609.55
786.558	2609.78
786.891	2585.14
787.224	2558.48
787.557	2568.87
787.891	2587.18
788.224	2602.09
788.557	2575.65
788.89	2570.46
789.223	2541.3
789.556	2559.38
789.888	2536.11
790.221	2512.6
790.554	2470.8
790.887	2504.92
791.219	2535.2
791.552	2513.96
791.884	2493.39
792.217	2473.96
792.549	2433.28
792.882	2462.89
793.214	2459.72
793.546	2452.94
793.879	2445.71
794.211	2438.03
794.543	2415.2
794.875	2448.42
795.207	2429.44
795.539	2410.01
795.871	2406.62
796.203	2381.76
796.535	2392.38
796.867	2382.66
797.198	2408.43
797.53	2396.9
797.862	2322.1
798.193	2369.1
798.525	2376.34
798.856	2361.19
799.188	2329.11
799.519	2330.01
799.85	2328.2
800.182	2311.03
800.513	2291.59
800.844	2316.9
801.175	2300.41
801.506	2296.79
801.837	2310.12
802.168	2268.77
802.499	2295.89
802.83	2272.61
803.161	2284.81
803.491	2279.39
803.822	2262.44
804.153	2244.81
804.483	2255.21
804.814	2232.61
805.145	2266.96
805.475	2232.16
805.805	2237.81
806.136	2222.44
806.466	2225.61
806.796	2193.52
807.126	2200.52
807.457	2203.23
807.787	2207.3
808.117	2222.67
808.447	2171.37
808.777	2204.36
809.107	2180.18
809.436	2165.72
809.766	2158.04
810.096	2167.53
810.426	2184.02
810.755	2211.14
811.085	2146.96
811.414	2158.26
811.744	2130.24
812.073	2116.46
812.403	2121.88
812.732	2136.34
813.061	2122.11
813.39	2084.14
813.719	2102.22
814.049	2086.17
814.378	2078.72
814.707	2094.99
815.036	2074.2
815.365	2091.6
815.693	2048.89
816.022	2058.83
816.351	2083.91
816.68	2068.32
817.008	2046.63
817.337	2048.66
817.665	2046.63
817.994	2046.63
818.322	2029.45
818.651	2044.14
818.979	2067.19
819.307	2022.67
819.636	2024.48
819.964	1978.38
820.292	1999.62
820.62	1998.27
820.948	2017.7
821.276	1996.91
821.604	2011.15
821.932	2014.76
822.259	2029.9
822.587	2042.11
822.915	2008.89
823.243	2039.17
823.57	1984.03
823.898	2009.34
824.225	2007.08
824.553	1967.76
824.88	2021.99
825.207	2018.83
825.535	1992.39
825.862	1993.75
826.189	1999.62
826.516	2022.45
826.843	2001.88
827.17	2018.61
827.497	2035.1
827.824	2003.01
828.151	2006.63
828.478	2014.76
828.805	2027.19
829.131	2005.95
829.458	2013.41
829.785	1962.56
830.111	2005.27
830.438	2004.59
830.764	2006.85
831.09	2010.24
831.417	2010.7
831.743	2020.19
832.069	1995.78
832.395	1997.14
832.722	2013.63
833.048	1986.97
833.374	1990.58
833.7	1996.91
834.026	1996.23
834.351	1983.58
834.677	1987.65
835.003	2018.61
835.329	1978.38
835.654	1999.4
835.98	1987.42
836.306	1983.8
836.631	1924.37
836.956	1976.8
837.282	1948.1
837.607	1954.43
837.932	1951.04
838.258	1950.58
838.583	1958.95
838.908	1944.03
839.233	1945.16
839.558	1956.91
839.883	1951.71
840.208	1939.06
840.533	1933.64
840.858	1928.89
841.182	1917.82
841.507	1942.22
841.832	1930.02
842.156	1926.4
842.481	1884.82
842.805	1905.39
843.13	1910.81
843.454	1916.69
843.778	1928.44
844.103	1897.48
844.427	1892.28
844.751	1880.3
845.075	1897.25
845.399	1890.25
845.723	1895.9
846.047	1882.11
846.371	1909.91
846.695	1888.89
847.019	1860.19
847.343	1865.84
847.666	1841.89
847.99	1845.05
848.313	1820.42
848.637	1812.28
848.96	1815.67
849.284	1792.85
849.607	1839.4
849.931	1810.7
850.254	1790.81
850.577	1777.26
850.9	1779.29
851.223	1786.29
851.546	1805.5
851.869	1782.68
852.192	1770.93
852.515	1768.22
852.838	1780.87
853.161	1734.77
853.483	1735.67
853.806	1729.8
854.129	1732.06
854.451	1758.27
854.774	1711.95
855.096	1736.13
855.419	1707.65
855.741	1691.38
856.063	1735
856.385	1703.81
856.708	1710.14
857.03	1715.56
857.352	1695.45
857.674	1697.71
857.996	1719.4
858.318	1672.17
858.64	1668.33
858.961	1677.82
859.283	1672.17
859.605	1661.1
859.926	1652.29
860.248	1651.84
860.57	1678.05
860.891	1642.8
861.212	1636.02
861.534	1641.89
861.855	1617.71
862.176	1670.82
862.498	1638.28
862.819	1674.66
863.14	1635.79
863.461	1631.27
863.782	1603.25
864.103	1620.2
864.424	1628.11
864.745	1635.34
865.065	1614.55
865.386	1602.34
865.707	1618.39
866.027	1617.03
866.348	1647.77
866.668	1607.09
866.989	1610.48
867.309	1607.99
867.63	1620.42
867.95	1578.16
868.27	1581.78
868.59	1599.41
868.91	1562.57
869.23	1578.16
869.55	1564.61
869.87	1610.71
870.19	1596.92
870.51	1590.14
870.83	1591.72
871.15	1590.59
871.469	1564.61
871.789	1593.98
872.109	1596.02
872.428	1556.02
872.748	1574.77
873.067	1579.29
873.386	1579.75
873.706	1570.48
874.025	1554.44
874.344	1580.88
874.663	1552.18
874.982	1567.09
875.301	1572.29
875.62	1546.3
875.939	1564.38
876.258	1546.08
876.577	1509.01
876.896	1544.04
877.214	1552.63
877.533	1554.44
877.852	1556.92
878.17	1560.54
878.489	1557.15
878.807	1542.01
879.125	1533.87
879.444	1523.93
879.762	1541.33
880.08	1542.01
880.398	1505.62
880.716	1540.43
881.034	1520.77
881.352	1523.7
881.67	1507.88
881.988	1496.81
882.306	1556.92
882.624	1504.49
882.941	1506.75
883.259	1529.35
883.577	1506.08
883.894	1530.71
884.212	1482.57
884.529	1494.33
884.846	1472.18
885.164	1469.02
885.481	1495.91
885.798	1501.33
886.115	1456.13
886.432	1457.72
886.75	1449.13
887.067	1472.4
887.383	1461.78
887.7	1462.01
888.017	1447.55
888.334	1466.08
888.651	1447.09
888.967	1448
889.284	1449.13
889.6	1445.96
889.917	1443.93
890.233	1428.56
890.55	1445.96
890.866	1426.3
891.182	1440.54
891.498	1425.4
891.815	1423.37
892.131	1400.99
892.447	1411.62
892.763	1403.48
893.079	1398.51
893.395	1423.82
893.71	1393.08
894.026	1408.68
894.342	1380.66
894.657	1360.54
894.973	1373.88
895.289	1369.58
895.604	1388.34
895.92	1372.07
896.235	1370.49
896.55	1377.27
896.865	1372.52
897.181	1352.86
897.496	1368.9
897.811	1336.36
898.126	1355.57
898.441	1334.78
898.756	1372.29
899.071	1349.7
899.386	1384.05
899.7	1319.19
900.015	1346.08
900.33	1351.73
900.644	1320.54
900.959	1315.35
901.273	1324.84
901.588	1325.52
901.902	1288
902.216	1324.39
902.531	1313.54
902.845	1309.7
903.159	1301.56
903.473	1289.13
903.787	1300.21
904.101	1306.99
904.415	1287.78
904.729	1280.77
905.042	1273.99
905.356	1280.55
905.67	1274.22
905.984	1256.82
906.297	1265.4
906.611	1234.44
906.924	1263.6
907.237	1249.81
907.551	1262.24
907.864	1255.91
908.177	1244.84
908.491	1263.14
908.804	1210.94
909.117	1234.22
909.43	1210.94
909.743	1209.81
910.056	1176.14
910.368	1208
910.681	1217.95
910.994	1206.2
911.307	1214.78
911.619	1187.67
911.932	1175.01
912.244	1165.52
912.557	1226.76
912.869	1206.2
913.181	1171.62
913.494	1172.3
913.806	1149.25
914.118	1159.42
914.43	1157.16
914.742	1132.53
915.054	1155.12
915.366	1171.4
915.678	1147.67
915.99	1139.98
916.302	1165.75
916.613	1117.39
916.925	1148.12
917.236	1123.71
917.548	1123.04
917.859	1126.43
918.171	1130.27
918.482	1094.11
918.794	1103.15
919.105	1116.71
919.416	1126.88
919.727	1102.7
920.038	1101.57
920.349	1088.91
920.66	1101.34
920.971	1108.57
921.282	1084.39
921.593	1122.58
921.903	1078.52
922.214	1083.94
922.525	1082.13
922.835	1070.83
923.146	1054.56
923.456	1084.62
923.767	1060.66
924.077	1090.04
924.387	1037.84
924.697	1069.7
925.008	1027.9
925.318	1019.54
925.628	1033.77
925.938	1041.68
926.248	1036.94
926.558	1026.31
926.867	1046.43
927.177	1029.48
927.487	1029.93
927.796	1033.77
928.106	1026.77
928.416	1035.35
928.725	1022.02
929.034	1012.76
929.344	1004.85
929.653	996.94
929.962	1015.47
930.271	992.19
930.581	1018.41
930.89	997.16
931.199	977.28
931.508	995.13
931.817	1005.3
932.125	975.92
932.434	979.99
932.743	973.21
933.051	986.77
933.36	985.86
933.669	975.92
933.977	965.07
934.286	946.77
934.594	960.78
934.902	936.83
935.21	953.1
935.519	968.46
935.827	962.59
936.135	933.89
936.443	904.96
936.751	928.69
937.059	949.48
937.367	925.75
937.674	920.78
937.982	949.48
938.29	909.48
938.597	942.25
938.905	898.41
939.213	940.67
939.52	916.49
939.827	921.91
940.135	915.58
940.442	927.33
940.749	916.04
941.056	885.08
941.363	894.57
941.67	882.36
941.977	870.39
942.284	882.14
942.591	884.4
942.898	898.63
943.205	858.86
943.511	868.58
943.818	844.85
944.125	865.42
944.431	867.45
944.738	896.15
945.044	845.08
945.35	880.1
945.657	891.63
945.963	855.02
946.269	855.47
946.575	865.42
946.881	836.72
947.187	852.76
947.493	852.76
947.799	841.69
948.105	836.26
948.41	819.99
948.716	847.11
949.022	838.98
949.327	829.03
949.633	838.07
949.938	842.14
950.244	835.13
950.549	833.78
950.854	827.22
951.16	848.92
951.465	843.95
951.77	823.38
952.075	798.07
952.38	832.42
952.685	824.29
952.99	810.95
953.294	776.38
953.599	796.04
953.904	793.55
954.209	800.33
954.513	804.85
954.818	806.43
955.122	778.41
955.426	789.94
955.731	792.2
956.035	792.2
956.339	770.05
956.643	773.21
956.948	789.26
957.252	772.08
957.556	746.55
957.86	787.45
958.163	752.2
958.467	746.77
958.771	769.37
959.075	766.21
959.378	767.79
959.682	766.21
959.985	771.86
960.289	729.6
960.592	764.4
960.896	740.67
961.199	730.05
961.502	737.28
961.805	737.73
962.108	747.9
962.411	733.22
962.714	729.6
963.017	720.33
963.32	722.59
963.623	716.94
963.926	739.09
964.228	751.07
964.531	714.46
964.833	716.27
965.136	736.38
965.438	703.16
965.741	709.49
966.043	721.01
966.345	739.77
966.648	705.19
966.95	697.96
967.252	711.75
967.554	715.81
967.856	724.4
968.158	711.29
968.46	709.71
968.761	694.8
969.063	713.55
969.365	682.82
969.666	691.41
969.968	695.25
970.269	684.18
970.571	690.73
970.872	679.66
971.174	672.65
971.475	672.2
971.776	689.37
972.077	660.22
972.378	680.56
972.679	673.78
972.98	688.7
973.281	712.42
973.582	694.12
973.883	676.49
974.183	674.01
974.484	684.4
974.785	677.85
975.085	664.52
975.386	662.71
975.686	662.03
975.986	660.45
976.287	664.52
976.587	644.63
976.887	656.16
977.187	655.03
977.487	645.53
977.787	650.51
978.087	661.58
978.387	646.89
978.687	644.18
978.987	652.77
979.286	662.71
979.586	634.91
979.885	641.47
980.185	628.59
980.484	633.56
980.784	640.34
981.083	638.75
981.382	600.56
981.682	620.9
981.981	662.48
982.28	614.57
982.579	640.34
982.878	634.46
983.177	626.1
983.475	622.94
983.774	604.63
984.073	619.09
984.372	613.9
984.67	632.43
984.969	605.53
985.267	577.51
985.566	600.79
985.864	598.76
986.162	629.26
986.461	580.68
986.759	598.53
987.057	603.28
987.355	599.43
987.653	603.05
987.951	591.07
988.249	619.09
988.547	595.82
988.844	590.17
989.142	570.73
989.44	581.13
989.737	584.52
990.035	583.16
990.332	581.13
990.63	572.32
990.927	568.93
991.224	574.58
991.521	584.29
991.819	561.92
992.116	587
992.413	570.73
992.71	576.38
993.006	549.27
993.303	564.63
993.6	561.47
993.897	563.73
994.193	570.73
994.49	571.19
994.787	541.58
995.083	537.74
995.379	565.31
995.676	543.62
995.972	580.9
996.268	566.44
996.565	563.73
996.861	556.72
997.157	566.21
997.453	541.58
997.749	543.39
998.044	555.14
998.34	563.28
998.636	539.32
998.932	522.37
999.227	535.03
999.523	528.47
999.818	541.58
1000.114	548.59
1000.409	533.67
1000.704	528.47
1001	536.16
1001.295	544.07
1001.59	530.06
1001.885	537.29
1002.18	532.54
1002.475	543.39
1002.77	520.79
1003.065	522.15
1003.359	529.38
1003.654	508.14
1003.949	499.77
1004.243	504.07
1004.538	507.23
1004.832	514.24
1005.127	510.62
1005.421	512.2
1005.715	493.22
1006.009	504.29
1006.304	518.08
1006.598	517.4
1006.892	507.23
1007.186	507.46
1007.48	518.98
1007.773	515.14
1008.067	505.88
1008.361	495.48
1008.655	498.65
1008.948	491.87
1009.242	493.22
1009.535	517.85
1009.829	493
1010.122	497.06
1010.415	487.35
1010.708	472.66
1011.001	491.64
1011.295	487.57
1011.588	491.41
1011.881	482.15
1012.173	487.35
1012.466	483.5
1012.759	483.5
1013.052	492.77
1013.344	484.18
1013.637	478.76
1013.93	483.73
1014.222	492.32
1014.514	468.36
1014.807	470.85
1015.099	474.69
1015.391	482.15
1015.683	465.43
1015.976	474.24
1016.268	460.68
1016.56	466.56
1016.851	467.46
1017.143	467.23
1017.435	462.71
1017.727	464.3
1018.018	462.94
1018.31	461.81
1018.602	469.27
1018.893	451.19
1019.185	471.75
1019.476	436.95
1019.767	478.31
1020.058	470.62
1020.35	445.54
1020.641	431.53
1020.932	446.44
1021.223	452.09
1021.514	447.8
1021.804	439.89
1022.095	441.92
1022.386	436.05
1022.677	449.83
1022.967	429.95
1023.258	432.88
1023.548	467.46
1023.839	433.56
1024.129	419.78
1024.419	443.05
1024.709	442.38
1025	443.73
1025.29	433.34
1025.58	441.47
1025.87	415.03
1026.16	430.17
1026.449	440.34
1026.739	440.12
1027.029	447.12
1027.319	410.06
1027.608	415.03
1027.898	412.55
1028.187	423.17
1028.477	424.52
1028.766	438.76
1029.055	423.39
1029.344	431.3
1029.634	413
1029.923	417.07
1030.212	410.74
1030.501	406.22
1030.79	411.64
1031.078	410.06
1031.367	400.79
1031.656	425.88
1031.945	425.2
1032.233	410.51
1032.522	418.87
1032.81	415.94
1033.099	413.68
1033.387	403.28
1033.675	389.04
1033.963	391.98
1034.251	386.56
1034.54	398.08
1034.828	405.31
1035.116	414.35
1035.403	387.01
1035.691	407.57
1035.979	396.27
1036.267	388.59
1036.554	391.98
1036.842	409.38
1037.129	383.62
1037.417	406.44
1037.704	389.95
1037.992	374.81
1038.279	396.95
1038.566	387.46
1038.853	387.46
1039.14	387.46
