Data from carpet_green_FLMS001491_00078.txt Node
Date: Wed Feb 08 10:35:50 GMT 2017
User: dcchb
Spectrometer: FLMS00149
Trigger mode: 0
Integration Time (sec): 2.000000E-2
Scans to average: 10
Electric dark correction enabled: true
Nonlinearity correction enabled: false
Boxcar width: 0
XAxis mode: Wavelengths
Number of Pixels in Spectrum: 2048
>>>>>Begin Spectral Data<<<<<
341.393	-35.31
341.776	-35.31
342.16	-35.31
342.543	-55.42
342.927	-71.24
343.31	-56.1
343.693	-69.21
344.077	-78.47
344.46	-61.52
344.843	-56.55
345.226	-24.24
345.61	-31.69
345.993	-23.33
346.376	2.2
346.759	8.76
347.142	11.69
347.525	51.02
347.908	54.63
348.291	70.22
348.674	91.92
349.057	110.68
349.44	133.95
349.823	138.92
350.206	161.3
350.588	163.78
350.971	173.27
351.354	208.3
351.737	199.94
352.119	222.08
352.502	225.47
352.884	265.7
353.267	246.26
353.65	262.08
354.032	267.51
354.414	293.95
354.797	288.98
355.179	297.56
355.562	304.79
355.944	293.27
356.326	284.46
356.709	311.57
357.091	309.31
357.473	305.47
357.855	295.98
358.238	290.56
358.62	307.28
359.002	314.96
359.384	318.13
359.766	331.23
360.148	299.14
360.53	314.06
360.912	330.78
361.294	307.51
361.676	282.65
362.057	312.25
362.439	302.76
362.821	298.92
363.203	300.73
363.584	289.43
363.966	293.72
364.348	276.32
364.729	287.85
365.111	296.43
365.493	306.6
365.874	286.72
366.256	264.57
366.637	283.1
367.019	258.92
367.4	283.78
367.781	263.89
368.163	317.68
368.544	283.33
368.925	280.61
369.306	281.52
369.688	273.61
370.069	285.81
370.45	267.51
370.831	269.09
371.212	286.49
371.593	304.34
371.974	296.21
372.355	278.13
372.736	266.15
373.117	288.98
373.498	283.33
373.879	274.74
374.26	277.22
374.641	292.59
375.021	283.33
375.402	275.87
375.783	277.22
376.163	273.16
376.544	282.42
376.925	282.87
377.305	277
377.686	262.54
378.066	262.31
378.447	274.96
378.827	294.17
379.208	298.24
379.588	289.43
379.968	291.69
380.349	281.52
380.729	267.28
381.109	292.14
381.489	298.24
381.87	297.11
382.25	308.64
382.63	285.13
383.01	300.27
383.39	298.69
383.77	297.34
384.15	293.27
384.53	308.41
384.91	308.41
385.29	304.34
385.67	306.6
386.049	323.1
386.429	304.34
386.809	306.15
387.189	295.98
387.568	307.05
387.948	298.69
388.328	331.46
388.707	317.68
389.087	281.07
389.466	295.98
389.846	297.79
390.225	282.42
390.605	295.3
390.984	309.54
391.363	293.72
391.743	300.95
392.122	300.5
392.501	314.29
392.881	302.08
393.26	295.3
393.639	298.92
394.018	305.92
394.397	314.29
394.776	330.33
395.155	320.84
395.534	288.3
395.913	289.65
396.292	299.82
396.671	326.94
397.05	315.64
397.429	336.66
397.808	299.82
398.186	302.76
398.565	303.66
398.944	320.16
399.323	286.94
399.701	295.08
400.08	317.45
400.458	314.96
400.837	318.81
401.215	313.38
401.594	301.18
401.972	305.92
402.351	311.57
402.729	342.08
403.107	322.87
403.486	328.97
403.864	309.31
404.242	313.16
404.62	310.67
404.999	333.27
405.377	311.12
405.755	328.75
406.133	318.13
406.511	326.94
406.889	342.53
407.267	337.56
407.645	341.18
408.023	343.44
408.401	321.29
408.779	335.3
409.156	345.92
409.534	343.89
409.912	330.56
410.29	325.58
410.667	331.23
411.045	322.87
411.422	340.5
411.8	343.21
412.178	343.66
412.555	331.91
412.933	333.27
413.31	344.34
413.687	331.91
414.065	330.78
414.442	334.62
414.819	343.89
415.197	351.35
415.574	359.71
415.951	347.28
416.328	370.1
416.705	344.34
417.082	344.79
417.46	380.27
417.837	353.38
418.214	344.57
418.591	362.87
418.967	347.05
419.344	348.41
419.721	352.93
420.098	349.99
420.475	362.42
420.852	378.69
421.228	361.97
421.605	367.17
421.982	363.78
422.358	358.13
422.735	355.41
423.111	392.93
423.488	354.96
423.864	375.3
424.241	371.23
424.617	357.22
424.994	380.5
425.37	360.39
425.746	366.71
426.123	375.07
426.499	368.07
426.875	375.3
427.251	363.78
427.627	390.22
428.003	385.92
428.379	392.93
428.756	394.96
429.132	375.53
429.507	407.84
429.883	392.93
430.259	380.95
430.635	381.18
431.011	404
431.387	398.35
431.763	394.06
432.138	385.47
432.514	400.84
432.89	423.44
433.265	420.05
433.641	416.2
434.016	395.41
434.392	405.81
434.767	424.79
435.143	406.26
435.518	415.3
435.894	405.81
436.269	408.29
436.644	414.62
437.02	403.77
437.395	420.27
437.77	443.77
438.145	413.72
438.52	428.86
438.895	426.15
439.271	428.18
439.646	417.79
440.021	437.67
440.395	433.83
440.77	450.78
441.145	438.8
441.52	420.95
441.895	443.32
442.27	449.2
442.645	453.04
443.019	463.66
443.394	460.95
443.769	433.83
444.143	451.01
444.518	426.37
444.892	464.34
445.267	461.63
445.641	444.45
446.016	458.01
446.39	474.51
446.764	458.24
447.139	456.43
447.513	456.88
447.887	477.45
448.262	490.55
448.636	476.54
449.01	462.76
449.384	494.62
449.758	477.45
450.132	498.24
450.506	489.87
450.88	490.78
451.254	482.19
451.628	497.11
452.002	505.01
452.376	504.34
452.75	492.81
453.123	520.38
453.497	494.17
453.871	498.46
454.244	512.02
454.618	522.64
454.992	490.55
455.365	520.38
455.739	520.61
456.112	524.9
456.486	530.33
456.859	529.87
457.232	546.14
457.606	544.11
457.979	539.14
458.352	550.66
458.725	533.04
459.099	565.58
459.472	583.66
459.845	558.12
460.218	558.35
460.591	559.48
460.964	558.8
461.337	572.13
461.71	585.92
462.083	578.23
462.456	582.3
462.829	585.69
463.201	610.32
463.574	607.16
463.947	588.18
464.32	609.19
464.692	610.55
465.065	599.02
465.438	596.54
465.81	618.46
466.183	636.54
466.555	635.41
466.928	657.33
467.3	636.08
467.672	654.84
468.045	644.67
468.417	653.94
468.789	655.07
469.161	664.56
469.534	664.11
469.906	698.46
470.278	686.93
470.65	710.21
471.022	702.07
471.394	709.53
471.766	708.17
472.138	719.25
472.51	734.61
472.882	747.72
473.253	744.78
473.625	745.23
473.997	740.94
474.369	766.03
474.74	768.28
475.112	778.68
475.484	785.91
475.855	818.91
476.227	792.24
476.598	843.99
476.97	822.29
477.341	846.93
477.713	847.6
478.084	836.08
478.455	881.5
478.827	855.97
479.198	878.11
479.569	890.32
479.94	927.15
480.311	930.99
480.682	952.46
481.053	969.64
481.424	969.18
481.795	980.48
482.166	977.09
482.537	973.93
482.908	1010.54
483.279	1027.94
483.65	1035.85
484.021	1018.22
484.391	1025.91
484.762	1081.72
485.133	1089.41
485.503	1076.07
485.874	1094.6
486.244	1104.77
486.615	1143.19
486.985	1147.26
487.356	1141.16
487.726	1163.98
488.097	1189.74
488.467	1203.53
488.837	1210.99
489.207	1227.48
489.578	1236.75
489.948	1238.78
490.318	1265.67
490.688	1238.1
491.058	1282.85
491.428	1307.71
491.798	1288.5
492.168	1324.65
492.538	1327.14
492.908	1345.22
493.278	1349.29
493.648	1333.69
494.017	1367.82
494.387	1395.16
494.757	1390.87
495.126	1390.87
495.496	1409.85
495.866	1434.93
496.235	1419.12
496.605	1410.53
496.974	1422.28
497.344	1476.29
497.713	1457.76
498.082	1477.19
498.452	1499.79
498.821	1505.44
499.19	1499.34
499.559	1498.66
499.928	1511.09
500.298	1517.42
500.667	1548.83
501.036	1537.76
501.405	1551.77
501.774	1575.72
502.143	1543.86
502.512	1578.89
502.88	1579.79
503.249	1578.66
503.618	1599.68
503.987	1614.59
504.356	1596.06
504.724	1605.55
505.093	1636.96
505.462	1651.65
505.83	1639
506.199	1645.78
506.567	1688.49
506.936	1658.88
507.304	1680.8
507.672	1682.39
508.041	1706.79
508.409	1705.21
508.777	1699.33
509.145	1727.36
509.514	1762.61
509.882	1739.78
510.25	1720.8
510.618	1716.51
510.986	1717.41
511.354	1749.5
511.722	1781.59
512.09	1788.37
512.458	1766
512.826	1828.14
513.193	1800.35
513.561	1799.22
513.929	1834.92
514.297	1825.66
514.664	1808.48
515.032	1823.62
515.4	1869.95
515.767	1836.05
516.135	1870.18
516.502	1862.49
516.869	1885.32
517.237	1879.44
517.604	1882.38
517.972	1907.01
518.339	1944.98
518.706	1954.69
519.073	1954.47
519.44	1943.62
519.808	1960.12
520.175	1963.28
520.542	1965.32
520.909	1992.21
521.276	1977.07
521.643	1979.78
522.009	1994.47
522.376	2008.03
522.743	2018.65
523.11	2027.46
523.477	2043.73
523.843	2031.98
524.21	2068.14
524.577	2121.24
524.943	2089.83
525.31	2103.62
525.676	2113.79
526.043	2145.88
526.409	2144.52
526.776	2151.3
527.142	2152.2
527.508	2159.43
527.874	2159.43
528.241	2161.92
528.607	2163.5
528.973	2196.95
529.339	2170.96
529.705	2207.8
530.071	2168.47
530.437	2212.54
530.803	2215.93
531.169	2203.73
531.535	2219.09
531.901	2236.49
532.267	2212.31
532.632	2233.33
532.998	2263.39
533.364	2252.77
533.73	2213.44
534.095	2261.13
534.461	2286.21
534.826	2279.66
535.192	2248.02
535.557	2292.76
535.923	2286.44
536.288	2284.4
536.653	2266.1
537.019	2264.74
537.384	2271.07
537.749	2265.19
538.114	2345.64
538.479	2309.94
538.845	2339.32
539.21	2313.55
539.575	2309.71
539.94	2328.7
540.305	2336.15
540.67	2341.8
541.034	2319.2
541.399	2330.05
541.764	2354.23
542.129	2322.14
542.494	2336.15
542.858	2367.11
543.223	2301.35
543.587	2359.43
543.952	2370.95
544.316	2357.17
544.681	2335.25
545.045	2357.4
545.41	2384.74
545.774	2365.08
546.138	2350.62
546.503	2350.16
546.867	2351.52
547.231	2365.53
547.595	2396.94
547.959	2391.97
548.324	2365.98
548.688	2365.53
549.052	2404.4
549.416	2374.34
549.779	2391.07
550.143	2399.2
550.507	2413.21
550.871	2420.9
551.235	2398.98
551.599	2408.24
551.962	2390.16
552.326	2432.65
552.689	2414.12
553.053	2412.54
553.417	2422.03
553.78	2441.01
554.143	2434.68
554.507	2474.23
554.87	2413.89
555.234	2459.09
555.597	2448.01
555.96	2470.61
556.323	2474.91
556.686	2437.17
557.05	2474.23
557.413	2469.26
557.776	2492.76
558.139	2484.62
558.502	2477.62
558.865	2489.37
559.228	2521.69
559.59	2519.2
559.953	2521.46
560.316	2510.84
560.679	2508.8
561.041	2540.67
561.404	2525.75
561.767	2506.32
562.129	2548.58
562.492	2567.33
562.854	2564.4
563.217	2552.19
563.579	2573.44
563.941	2541.12
564.304	2606.88
564.666	2599.65
565.028	2624.06
565.39	2637.39
565.753	2646.65
566.115	2600.55
566.477	2650.04
566.839	2618.41
567.201	2635.35
567.563	2630.38
567.925	2647.56
568.287	2634.9
568.648	2645.3
569.01	2628.35
569.372	2652.53
569.734	2665.41
570.095	2661.34
570.457	2678.29
570.819	2717.39
571.18	2713.54
571.542	2707.44
571.903	2671.29
572.265	2665.64
572.626	2694.11
572.987	2724.62
573.349	2726.43
573.71	2687.33
574.071	2745.63
574.432	2685.07
574.794	2733.2
575.155	2700.89
575.516	2670.38
575.877	2685.3
576.238	2710.83
576.599	2739.31
576.96	2712.41
577.32	2706.31
577.681	2691.62
578.042	2717.61
578.403	2683.26
578.763	2694.11
579.124	2686.65
579.485	2692.98
579.845	2710.38
580.206	2689.59
580.566	2701.57
580.927	2679.2
581.287	2672.64
581.648	2671.96
582.008	2711.96
582.368	2652.3
582.728	2687.56
583.089	2686.88
583.449	2641.91
583.809	2697.73
584.169	2655.69
584.529	2637.84
584.889	2688.69
585.249	2657.05
585.609	2661.34
585.969	2641
586.329	2653.43
586.688	2623.38
587.048	2645.52
587.408	2669.03
587.768	2668.35
588.127	2640.1
588.487	2621.34
588.846	2657.05
589.206	2621.57
589.565	2628.35
589.925	2645.52
590.284	2614.56
590.643	2614.34
591.003	2619.31
591.362	2627.67
591.721	2597.16
592.08	2610.95
592.44	2613.66
592.799	2617.28
593.158	2618.18
593.517	2580.67
593.876	2612.08
594.235	2640.78
594.593	2617.28
594.952	2614.56
595.311	2616.6
595.67	2660.89
596.029	2606.43
596.387	2654.56
596.746	2622.25
597.104	2643.49
597.463	2623.38
597.822	2620.21
598.18	2595.36
598.538	2570.27
598.897	2626.77
599.255	2613.66
599.613	2629.03
599.972	2611.63
600.33	2620.44
600.688	2641.91
601.046	2649.37
601.404	2646.65
601.762	2642.81
602.12	2659.76
602.478	2635.81
602.836	2639.65
603.194	2661.34
603.552	2647.78
603.91	2649.37
604.268	2652.53
604.625	2642.81
604.983	2608.69
605.341	2640.33
605.698	2610.27
606.056	2658.18
606.413	2634.68
606.771	2655.47
607.128	2633.32
607.485	2680.55
607.843	2609.82
608.2	2700.89
608.557	2710.15
608.914	2691.17
609.272	2693.21
609.629	2694.56
609.986	2710.83
610.343	2683.26
610.7	2681.91
611.057	2696.6
611.414	2662.25
611.771	2669.03
612.127	2688.46
612.484	2681
612.841	2695.01
613.198	2713.54
613.554	2711.74
613.911	2744.96
614.267	2730.04
614.624	2709.93
614.98	2764.62
615.337	2741.34
615.693	2758.74
616.05	2749.93
616.406	2743.15
616.762	2751.96
617.118	2780.44
617.475	2775.69
617.831	2738.18
618.187	2734.79
618.543	2811.62
618.899	2791.96
619.255	2739.08
619.611	2719.65
619.967	2765.07
620.323	2759.42
620.678	2748.12
621.034	2747.22
621.39	2746.09
621.746	2732.3
622.101	2803.26
622.457	2775.01
622.812	2798.74
623.168	2772.3
623.523	2791.73
623.879	2775.24
624.234	2762.81
624.589	2774.11
624.945	2754.9
625.3	2770.04
625.655	2755.8
626.01	2772.75
626.365	2777.95
626.72	2731.62
627.075	2769.36
627.43	2723.26
627.785	2767.1
628.14	2766.88
628.495	2745.63
628.85	2730.49
629.205	2735.46
629.559	2766.88
629.914	2723.04
630.269	2748.35
630.623	2742.47
630.978	2711.51
631.332	2734.33
631.687	2728.91
632.041	2709.02
632.396	2689.59
632.75	2723.04
633.104	2745.18
633.459	2704.73
633.813	2691.62
634.167	2715.58
634.521	2733.66
634.875	2707.89
635.229	2697.73
635.583	2715.13
635.937	2714.67
636.291	2730.49
636.645	2693.66
636.999	2700.21
637.352	2705.41
637.706	2673.09
638.06	2702.47
638.413	2697.27
638.767	2716.93
639.121	2734.79
639.474	2686.88
639.828	2716.03
640.181	2712.19
640.534	2682.36
640.888	2692.3
641.241	2697.95
641.594	2675.35
641.947	2655.92
642.301	2677.39
642.654	2673.32
643.007	2701.12
643.36	2690.04
643.713	2711.74
644.066	2716.48
644.419	2721.45
644.771	2703.15
645.124	2687.1
645.477	2712.41
645.83	2659.31
646.182	2680.55
646.535	2672.87
646.888	2644.17
647.24	2677.39
647.593	2705.41
647.945	2678.29
648.298	2715.8
648.65	2723.26
649.002	2704.73
649.355	2683.49
649.707	2682.13
650.059	2709.7
650.411	2753.09
650.763	2772.75
651.115	2791.28
651.467	2785.41
651.819	2785.41
652.171	2816.37
652.523	2793.99
652.875	2800.77
653.227	2808.46
653.578	2840.55
653.93	2850.72
654.282	2842.58
654.633	2866.53
654.985	2855.46
655.337	2866.76
655.688	2845.74
656.039	2897.95
656.391	2876.93
656.742	2934.33
657.094	2936.59
657.445	2923.26
657.796	2967.55
658.147	2935.46
658.498	2949.7
658.849	3007.55
659.2	2996.25
659.551	2994.67
659.902	2998.96
660.253	2985.18
660.604	3011.39
660.955	2977.72
661.306	3039.86
661.656	3049.13
662.007	3107.43
662.358	3110.14
662.708	3064.04
663.059	3092.52
663.409	3107.66
663.76	3162.35
664.11	3157.6
664.461	3147.88
664.811	3183.81
665.161	3221.78
665.511	3197.37
665.862	3199.18
666.212	3222.68
666.562	3259.29
666.912	3306.3
667.262	3257.94
667.612	3282.57
667.962	3322.57
668.312	3405.5
668.662	3335
669.011	3363.47
669.361	3400.31
669.711	3413.19
670.06	3430.59
670.41	3415.9
670.76	3414.54
671.109	3503.35
671.459	3470.36
671.808	3488.67
672.157	3524.82
672.507	3488.89
672.856	3543.35
673.205	3514.65
673.554	3573.18
673.904	3602.56
674.253	3650.47
674.602	3654.08
674.951	3658.6
675.3	3642.11
675.649	3725.95
675.998	3704.48
676.346	3746.29
676.695	3777.7
677.044	3792.61
677.393	3819.5
677.741	3852.27
678.09	3884.81
678.438	3868.32
678.787	3874.19
679.135	3914.19
679.484	3926.62
679.832	3966.17
680.181	3982.66
680.529	4006.17
680.877	4044.81
681.225	4043.45
681.573	4062.21
681.922	4089.1
682.27	4111.02
682.618	4131.36
682.966	4147.86
683.314	4169.78
683.661	4191.7
684.009	4231.92
684.357	4267.18
684.705	4192.38
685.053	4271.92
685.4	4306.27
685.748	4304.46
686.095	4351.47
686.443	4366.16
686.79	4378.13
687.138	4407.96
687.485	4442.99
687.832	4427.17
688.18	4505.14
688.527	4453.16
688.874	4444.8
689.221	4534.51
689.568	4525.02
689.915	4594.4
690.262	4536.32
690.609	4559.37
690.956	4574.74
691.303	4633.72
691.65	4628.97
691.997	4652.25
692.344	4655.87
692.69	4687.05
693.037	4724.11
693.383	4714.4
693.73	4773.15
694.077	4741.74
694.423	4827.39
694.769	4775.41
695.116	4821.96
695.462	4852.02
695.808	4850.44
696.155	4955.97
696.501	4868.97
696.847	4926.82
697.193	4960.27
697.539	4936.31
697.885	4948.97
698.231	4993.26
698.577	4987.16
698.923	5004.33
699.269	5017.21
699.614	5025.57
699.96	5114.84
700.306	5102.41
700.651	5109.87
700.997	5083.88
701.342	5056.31
701.688	5131.11
702.033	5129.75
702.379	5170.43
702.724	5215.85
703.069	5210.88
703.415	5164.1
703.76	5157.55
704.105	5321.16
704.45	5309.63
704.795	5270.99
705.14	5282.97
705.485	5262.63
705.83	5292.91
706.175	5335.17
706.52	5352.8
706.865	5336.75
707.209	5390.08
707.554	5404.77
707.899	5441.38
708.243	5397.09
708.588	5440.03
708.932	5406.36
709.277	5492.23
709.621	5459.91
709.966	5476.64
710.31	5495.17
710.654	5477.54
710.998	5517.54
711.342	5530.19
711.687	5531.55
712.031	5537.88
712.375	5547.82
712.719	5588.72
713.063	5610.64
713.407	5619
713.75	5604.99
714.094	5620.81
714.438	5601.6
714.782	5677.31
715.125	5639.57
715.469	5657.42
715.812	5667.82
716.156	5699.68
716.499	5661.94
716.843	5684.09
717.186	5695.16
717.53	5723.41
717.873	5774.93
718.216	5749.85
718.559	5692.68
718.902	5751.43
719.246	5751.43
719.589	5730.87
719.932	5729.06
720.275	5772.67
720.617	5765.67
720.96	5764.54
721.303	5801.82
721.646	5819.23
721.989	5764.54
722.331	5797.31
722.674	5795.72
723.016	5803.41
723.359	5844.31
723.701	5851.54
724.044	5873.69
724.386	5844.31
724.729	5832.56
725.071	5865.55
725.413	5864.2
725.755	5882.27
726.097	5852.9
726.439	5866.91
726.782	5828.72
727.124	5934.48
727.465	5846.34
727.807	5871.43
728.149	5880.01
728.491	5824.65
728.833	5912.33
729.175	5920.47
729.516	5921.6
729.858	5858.32
730.199	5895.38
730.541	5873.24
730.882	5902.16
731.224	5893.35
731.565	5859
731.906	5875.95
732.248	5817.64
732.589	5880.92
732.93	5847.02
733.271	5898.55
733.612	5910.75
733.953	5903.97
734.294	5841.82
734.635	5885.21
734.976	5899.68
735.317	5835.04
735.658	5896.96
735.999	5876.4
736.339	5854.48
736.68	5878.43
737.021	5894.7
737.361	5872.56
737.702	5882.95
738.042	5850.64
738.383	5869.17
738.723	5919.11
739.063	5837.76
739.404	5901.26
739.744	5889.73
740.084	5835.5
740.424	5921.6
740.764	5893.57
741.104	5892.67
741.444	5798.66
741.784	5827.36
742.124	5800.24
742.464	5834.14
742.804	5817.64
743.143	5825.33
743.483	5829.17
743.823	5719.57
744.162	5788.27
744.502	5798.89
744.841	5762.05
745.181	5823.97
745.52	5742.84
745.86	5813.8
746.199	5749.4
746.538	5743.3
746.877	5774.25
747.216	5781.03
747.556	5788.72
747.895	5762.5
748.234	5736.97
748.573	5763.18
748.911	5767.48
749.25	5709.4
749.589	5728.83
749.928	5710.75
750.267	5728.38
750.605	5684.09
750.944	5771.54
751.283	5677.08
751.621	5645.44
751.96	5660.81
752.298	5692.45
752.636	5663.07
752.975	5602.51
753.313	5605.9
753.651	5631.43
753.989	5583.53
754.327	5624.88
754.666	5559.57
755.004	5580.59
755.342	5546.92
755.679	5557.09
756.017	5583.75
756.355	5555.96
756.693	5510.31
757.031	5540.59
757.368	5476.18
757.706	5471.89
758.044	5532
758.381	5488.84
758.719	5428.28
759.056	5443.19
759.394	5454.72
759.731	5424.43
760.068	5433.02
760.405	5385.11
760.743	5350.54
761.08	5398.22
761.417	5349.86
761.754	5347.15
762.091	5289.3
762.428	5341.95
762.765	5277.77
763.102	5347.37
763.438	5307.83
763.775	5247.26
764.112	5224.44
764.449	5237.55
764.785	5227.15
765.122	5146.02
765.458	5176.3
765.795	5193.03
766.131	5172.01
766.467	5136.31
766.804	5139.92
767.14	5101.05
767.476	5128.62
767.812	5072.35
768.148	5102.86
768.485	5083.2
768.821	5010.89
769.157	5024.22
769.492	4996.42
769.828	4996.65
770.164	4967.72
770.5	4951.9
770.836	4969.53
771.171	4958.23
771.507	4926.82
771.842	4890.44
772.178	4915.75
772.513	4835.3
772.849	4846.6
773.184	4837.56
773.519	4801.4
773.855	4871
774.19	4784.68
774.525	4802.53
774.86	4776.77
775.195	4792.36
775.53	4705.81
775.865	4754.39
776.2	4685.02
776.535	4654.28
776.87	4675.07
777.205	4652.25
777.539	4661.06
777.874	4623.78
778.209	4617.22
778.543	4620.39
778.878	4560.95
779.212	4593.72
779.547	4510.56
779.881	4593.5
780.215	4484.8
780.55	4521.41
780.884	4531.8
781.218	4472.14
781.552	4498.81
781.886	4492.25
782.22	4437.11
782.554	4457.23
782.888	4398.47
783.222	4381.07
783.556	4430.34
783.889	4326.61
784.223	4308.3
784.557	4333.16
784.89	4335.65
785.224	4290.23
785.557	4302.43
785.891	4307.63
786.224	4267.85
786.558	4246.16
786.891	4238.93
787.224	4216.78
787.557	4195.54
787.891	4185.6
788.224	4240.06
788.557	4213.62
788.89	4161.19
789.223	4137.46
789.556	4162.32
789.888	4143.56
790.221	4102.66
790.554	4120.06
790.887	4107.63
791.219	4062.21
791.552	4091.14
791.884	4073.96
792.217	4030.12
792.549	4030.12
792.882	3991.25
793.214	3993.06
793.546	3997.35
793.879	3978.37
794.211	3938.82
794.543	3977.69
794.875	3931.14
795.207	3974.53
795.539	3903.8
795.871	3924.36
796.203	3895.43
796.535	3878.71
796.867	3902.89
797.198	3886.85
797.53	3856.11
797.862	3853.63
798.193	3852.27
798.525	3816.11
798.856	3838.94
799.188	3805.27
799.519	3769.34
799.85	3763.91
800.182	3752.16
800.513	3752.16
800.844	3780.86
801.175	3792.16
801.506	3763.01
801.837	3737.92
802.168	3682.78
802.499	3685.27
802.83	3713.97
803.161	3673.52
803.491	3667.64
803.822	3668.77
804.153	3681.88
804.483	3638.72
804.814	3648.21
805.145	3598.49
805.475	3604.59
805.805	3590.58
806.136	3578.83
806.466	3610.24
806.796	3584.26
807.126	3547.87
807.457	3562.11
807.787	3551.04
808.117	3562.56
808.447	3516.01
808.777	3551.94
809.107	3469.68
809.436	3548.32
809.766	3570.47
810.096	3480.98
810.426	3454.99
810.755	3458.84
811.085	3468.33
811.414	3465.39
811.744	3408.67
812.073	3462.68
812.403	3473.52
812.732	3395.33
813.061	3407.99
813.39	3397.59
813.719	3372.74
814.049	3397.82
814.378	3381.32
814.707	3392.17
815.036	3356.92
815.365	3337.93
815.693	3336.8
816.022	3371.15
816.351	3308.56
816.68	3330.7
817.008	3339.52
817.337	3300.2
817.665	3301.33
817.994	3312.4
818.322	3249.58
818.651	3299.74
818.979	3278.05
819.307	3240.31
819.636	3280.76
819.964	3250.71
820.292	3257.26
820.62	3272.63
820.948	3250.93
821.276	3239.86
821.604	3267.65
821.932	3277.6
822.259	3271.5
822.587	3229.24
822.915	3235.34
823.243	3244.38
823.57	3251.84
823.898	3234.43
824.225	3193.53
824.553	3233.98
824.88	3212.97
825.207	3253.19
825.535	3264.94
825.862	3244.83
826.189	3218.84
826.516	3236.69
826.843	3246.41
827.17	3212.74
827.497	3223.14
827.824	3208.45
828.151	3212.74
828.478	3222.68
828.805	3228.79
829.131	3197.15
829.458	3197.15
829.785	3191.27
830.111	3224.49
830.438	3230.14
830.764	3222.01
831.09	3246.86
831.417	3210.03
831.743	3228.56
832.069	3284.6
832.395	3202.12
832.722	3193.31
833.048	3191.5
833.374	3217.49
833.7	3211.84
834.026	3206.41
834.351	3190.59
834.677	3198.5
835.003	3219.29
835.329	3224.72
835.654	3183.59
835.98	3202.12
836.306	3203.25
836.631	3168.45
836.956	3179.52
837.282	3188.33
837.607	3154.21
837.932	3168.67
838.258	3142.69
838.583	3144.04
838.908	3157.6
839.233	3142.69
839.558	3137.26
839.883	3105.85
840.208	3116.25
840.533	3072.41
840.858	3101.33
841.182	3135.23
841.507	3124.16
841.832	3106.53
842.156	3111.95
842.481	3104.27
842.805	3085.51
843.13	3103.59
843.454	3088.9
843.778	3070.37
844.103	3074.21
844.427	3016.36
844.751	2998.96
845.075	3047.55
845.399	3000.09
845.723	3055
846.047	3034.21
846.371	3002.8
846.695	2988.79
847.019	2971.84
847.343	2951.05
847.666	2982.24
847.99	2959.41
848.313	2977.49
848.637	2908.57
848.96	2938.4
849.284	2912.64
849.607	2877.16
849.931	2884.61
850.254	2879.64
850.577	2877.61
850.9	2837.16
851.223	2829.25
851.546	2818.63
851.869	2808.01
852.192	2823.82
852.515	2803.03
852.838	2788.12
853.161	2813.2
853.483	2831.06
853.806	2780.21
854.129	2725.75
854.451	2734.11
854.774	2746.76
855.096	2677.16
855.419	2719.19
855.741	2724.39
856.063	2755.8
856.385	2725.07
856.708	2705.64
857.03	2685.52
857.352	2667.44
857.674	2667.9
857.996	2661.12
858.318	2674.45
858.64	2664.05
858.961	2670.38
859.283	2627.22
859.605	2655.92
859.926	2612.76
860.248	2623.38
860.57	2660.66
860.891	2644.17
861.212	2596.71
861.534	2602.13
861.855	2617.28
862.176	2609.82
862.498	2587.9
862.819	2574.57
863.14	2613.66
863.461	2600.55
863.782	2551.51
864.103	2562.36
864.424	2576.37
864.745	2608.46
865.065	2544.51
865.386	2527.11
865.707	2552.42
866.027	2565.07
866.348	2557.84
866.668	2600.1
866.989	2497.73
867.309	2536.6
867.63	2534.34
867.95	2560.55
868.27	2526.43
868.59	2517.17
868.91	2512.65
869.23	2522.36
869.55	2488.69
869.87	2499.54
870.19	2523.49
870.51	2525.07
870.83	2530.5
871.15	2483.27
871.469	2488.69
871.789	2480.33
872.109	2458.86
872.428	2472.65
872.748	2458.64
873.067	2478.75
873.386	2467.22
873.706	2462.48
874.025	2466.32
874.344	2430.16
874.663	2429.48
874.982	2437.85
875.301	2469.71
875.62	2432.42
875.939	2449.6
876.258	2427.45
876.577	2391.75
876.896	2379.09
877.214	2407.79
877.533	2403.27
877.852	2379.32
878.17	2430.61
878.489	2420.9
878.807	2413.44
879.125	2441.91
879.444	2423.61
879.762	2410.73
880.08	2403.95
880.398	2380.9
880.716	2394.68
881.034	2369.82
881.352	2391.29
881.67	2351.07
881.988	2338.41
882.306	2342.25
882.624	2371.63
882.941	2357.4
883.259	2322.82
883.577	2306.32
883.894	2375.47
884.212	2360.33
884.529	2339.99
884.846	2331.86
885.164	2325.53
885.481	2303.61
885.798	2327.34
886.115	2303.16
886.432	2318.53
886.75	2337.06
887.067	2309.04
887.383	2282.6
887.7	2270.84
888.017	2303.39
888.334	2265.65
888.651	2295.25
888.967	2291.18
889.284	2265.42
889.6	2241.01
889.917	2229.94
890.233	2223.16
890.55	2212.54
890.866	2225.87
891.182	2224.52
891.498	2241.92
891.815	2228.36
892.131	2228.59
892.447	2181.81
892.763	2200.56
893.079	2171.41
893.395	2188.36
893.71	2158.76
894.026	2166.67
894.342	2180
894.657	2149.72
894.973	2166.89
895.289	2147.01
895.604	2144.97
895.92	2097.52
896.235	2135.25
896.55	2144.07
896.865	2142.49
897.181	2134.35
897.496	2130.51
897.811	2110.17
898.126	2106.55
898.441	2078.08
898.756	2092.32
899.071	2082.15
899.386	2045.54
899.7	2096.39
900.015	2063.39
900.33	2039.89
900.644	2025.88
900.959	2049.38
901.273	2057.52
901.588	2050.51
901.902	2034.47
902.216	2022.94
902.531	2022.72
902.845	1999.21
903.159	2015.71
903.473	1991.3
903.787	1988.82
904.101	1988.14
904.415	1976.84
904.729	1944.53
905.042	1983.39
905.356	1975.48
905.67	1952.66
905.984	1952.43
906.297	1934.36
906.611	1937.97
906.924	1935.49
907.237	1910.18
907.551	1933.45
907.864	1937.07
908.177	1915.83
908.491	1915.15
908.804	1869.72
909.117	1880.35
909.43	1866.79
909.743	1853.45
910.056	1841.7
910.368	1886.67
910.681	1836.28
910.994	1836.73
911.307	1796.51
911.619	1848.48
911.932	1848.26
912.244	1777.52
912.557	1819.56
912.869	1831.08
913.181	1806.45
913.494	1822.04
913.806	1796.28
914.118	1766.9
914.43	1786.11
914.742	1750.63
915.054	1769.61
915.366	1742.5
915.678	1748.6
915.99	1754.7
916.302	1700.24
916.613	1726.45
916.925	1745.21
917.236	1727.81
917.548	1718.32
917.859	1716.96
918.171	1702.27
918.482	1690.75
918.794	1683.29
919.105	1676.74
919.416	1689.39
919.727	1675.38
920.038	1650.52
920.349	1676.96
920.66	1655.49
920.971	1643.06
921.282	1656.62
921.593	1652.78
921.903	1655.49
922.214	1591.09
922.525	1613.23
922.835	1596.74
923.146	1597.42
923.456	1606.68
923.767	1586.79
924.077	1606.23
924.387	1576.4
924.697	1582.05
925.008	1600.58
925.318	1561.94
925.628	1536.85
925.938	1577.98
926.248	1547.02
926.558	1540.92
926.867	1506.34
927.177	1540.02
927.487	1523.07
927.796	1511.54
928.106	1533.46
928.416	1523.07
928.725	1527.81
929.034	1520.81
929.344	1510.64
929.653	1509.96
929.962	1499.57
930.271	1506.57
930.581	1484.2
930.89	1480.81
931.199	1453.92
931.508	1464.99
931.817	1472.22
932.125	1477.87
932.434	1450.75
932.743	1448.94
933.051	1427.25
933.36	1450.75
933.669	1452.79
933.977	1418.89
934.286	1397.19
934.594	1417.53
934.902	1418.44
935.21	1426.8
935.519	1406.01
935.827	1387.03
936.135	1383.18
936.443	1384.99
936.751	1372.11
937.059	1393.35
937.367	1374.37
937.674	1384.09
937.982	1392.68
938.29	1357.87
938.597	1369.85
938.905	1363.98
939.213	1349.29
939.52	1354.26
939.827	1345.44
940.135	1327.82
940.442	1315.39
940.749	1325.78
941.056	1333.47
941.363	1328.27
941.67	1315.62
941.977	1313.13
942.284	1288.27
942.591	1355.16
942.898	1285.11
943.205	1273.81
943.511	1279.91
943.818	1271.55
944.125	1269.29
944.431	1255.73
944.738	1304.54
945.044	1259.35
945.35	1257.99
945.657	1257.54
945.963	1244.2
946.269	1262.96
946.575	1245.11
946.881	1235.39
947.187	1221.61
947.493	1227.71
947.799	1216.86
948.105	1250.76
948.41	1206.92
948.716	1224.32
949.022	1199.69
949.327	1215.05
949.633	1177.77
949.938	1192.68
950.244	1182.51
950.549	1198.1
950.854	1207.14
951.16	1166.24
951.465	1191.78
951.77	1202.62
952.075	1164.21
952.38	1165.11
952.685	1157.65
952.99	1131.67
953.294	1166.24
953.599	1150.42
953.904	1130.08
954.209	1135.96
954.513	1154.26
954.818	1145.45
955.122	1144.32
955.426	1140.03
955.731	1133.92
956.035	1139.8
956.339	1128.5
956.643	1086.69
956.948	1109.07
957.252	1097.32
957.556	1119.91
957.86	1116.75
958.163	1085.56
958.467	1105
958.771	1078.11
959.075	1070.65
959.378	1057.32
959.682	1065.68
959.985	1093.02
960.289	1086.02
960.592	1056.41
960.896	1059.35
961.199	1087.15
961.502	1030.88
961.805	1051.89
962.108	1032.91
962.411	1031.1
962.714	1050.31
963.017	1031.1
963.32	1045.57
963.623	1046.24
963.926	1031.78
964.228	1034.72
964.531	1039.92
964.833	1028.17
965.136	1017.77
965.438	1026.13
965.741	1013.7
966.043	1033.81
966.345	1008.5
966.648	989.97
966.95	1023.87
967.252	991.33
967.554	1005.79
967.856	1008.96
968.158	1001.27
968.46	971.9
968.761	965.79
969.063	994.04
969.365	949.3
969.666	953.59
969.968	986.58
970.269	956.75
970.571	947.94
970.872	938.22
971.174	960.82
971.475	947.26
971.776	957.43
972.077	952.91
972.378	930.09
972.679	963.76
972.98	937.77
973.281	947.04
973.582	924.21
973.883	923.76
974.183	934.16
974.484	907.49
974.785	908.39
975.085	898.9
975.386	869.3
975.686	921.05
975.986	905.23
976.287	906.59
976.587	887.83
976.887	891.45
977.187	910.43
977.487	899.35
977.787	875.85
978.087	899.13
978.387	876.53
978.687	876.08
978.987	863.65
979.286	879.47
979.586	870.2
979.885	888.28
980.185	859.36
980.484	851.45
980.784	866.59
981.083	884.89
981.382	847.83
981.682	858.68
981.981	853.03
982.28	846.02
982.579	842.41
982.878	865.23
983.177	843.99
983.475	840.37
983.774	829.98
984.073	837.21
984.372	799.24
984.67	831.11
984.969	824.55
985.267	824.55
985.566	820.49
985.864	829.53
986.162	816.19
986.461	835.85
986.759	804.22
987.057	775.29
987.355	820.26
987.653	803.31
987.951	814.84
988.249	791.56
988.547	805.12
988.844	792.69
989.142	780.04
989.44	804.44
989.737	785.69
990.035	789.75
990.332	794.05
990.63	801.73
990.927	781.39
991.224	763.99
991.521	775.97
991.819	773.71
992.116	740.49
992.413	766.93
992.71	754.95
993.006	741.17
993.303	743.88
993.6	759.47
993.897	742.75
994.193	749.3
994.49	738.68
994.787	742.3
995.083	734.84
995.379	748.85
995.676	734.61
995.972	735.52
996.268	763.09
996.565	739.59
996.861	729.42
997.157	720.6
997.453	706.59
997.749	734.61
998.044	721.73
998.34	705.01
998.636	728.06
998.932	699.13
999.227	702.98
999.523	700.26
999.818	695.52
1000.114	721.73
1000.409	700.72
1000.704	686.93
1001	705.46
1001.295	696.42
1001.59	686.93
1001.885	708.4
1002.18	719.02
1002.475	679.02
1002.77	688.96
1003.065	700.94
1003.359	677.21
1003.654	675.18
1003.949	658.91
1004.243	669.53
1004.538	674.05
1004.832	659.14
1005.127	673.6
1005.421	662.07
1005.715	681.73
1006.009	645.58
1006.304	637.21
1006.598	642.41
1006.892	644.9
1007.186	642.19
1007.48	660.27
1007.773	626.14
1008.067	643.99
1008.361	644.22
1008.655	634.5
1008.948	624.79
1009.242	620.94
1009.535	638.57
1009.829	632.24
1010.122	639.7
1010.415	618.68
1010.708	620.04
1011.001	608.06
1011.295	602.64
1011.588	604.22
1011.881	618.01
1012.173	611
1012.466	589.76
1012.759	617.78
1013.052	607.84
1013.344	580.04
1013.637	588.85
1013.93	608.06
1014.222	595.41
1014.514	581.62
1014.807	587.72
1015.099	572.36
1015.391	592.7
1015.683	567.39
1015.976	582.98
1016.268	582.3
1016.56	580.95
1016.851	581.17
1017.143	579.82
1017.435	580.72
1017.727	564.22
1018.018	555.41
1018.31	572.58
1018.602	573.26
1018.893	542.3
1019.185	549.31
1019.476	554.51
1019.767	546.14
1020.058	558.12
1020.35	535.3
1020.641	538.23
1020.932	544.11
1021.223	556.31
1021.514	560.83
1021.804	535.3
1022.095	526.48
1022.386	524.9
1022.677	532.81
1022.967	520.61
1023.258	541.85
1023.548	539.36
1023.839	526.71
1024.129	540.72
1024.419	510.66
1024.709	541.85
1025	523.32
1025.29	530.55
1025.58	513.6
1025.87	536.65
1026.16	496.88
1026.449	511.79
1026.739	519.03
1027.029	508.18
1027.319	499.37
1027.608	507.27
1027.898	496.65
1028.187	473.38
1028.477	510.21
1028.766	503.66
1029.055	498.69
1029.344	482.64
1029.634	501.85
1029.923	481.06
1030.212	475.19
1030.501	500.95
1030.79	486.48
1031.078	497.78
1031.367	499.59
1031.656	490.78
1031.945	471.12
1032.233	476.54
1032.522	468.86
1032.81	456.43
1033.099	483.55
1033.387	469.54
1033.675	475.19
1033.963	465.02
1034.251	483.77
1034.54	456.65
1034.828	475.64
1035.116	461.17
1035.403	433.83
1035.691	450.55
1035.979	458.24
1036.267	476.32
1036.554	455.75
1036.842	436.54
1037.129	449.2
1037.417	449.65
1037.704	451.91
1037.992	446.71
1038.279	436.99
1038.566	463.21
1038.853	463.21
1039.14	463.21
