Data from carpet_green_FLMS001491_00025.txt Node
Date: Wed Feb 08 10:35:08 GMT 2017
User: dcchb
Spectrometer: FLMS00149
Trigger mode: 0
Integration Time (sec): 2.000000E-2
Scans to average: 10
Electric dark correction enabled: true
Nonlinearity correction enabled: false
Boxcar width: 0
XAxis mode: Wavelengths
Number of Pixels in Spectrum: 2048
>>>>>Begin Spectral Data<<<<<
341.393	-24.83
341.776	-24.83
342.16	-24.83
342.543	-67.54
342.927	-89.23
343.31	-80.65
343.693	-81.1
344.077	-71.38
344.46	-37.48
344.843	-56.92
345.226	-9.69
345.61	-41.55
345.993	-13.3
346.376	-3.81
346.759	12.46
347.142	12.01
347.525	51.33
347.908	53.36
348.291	70.31
348.674	94.72
349.057	101.72
349.44	102.4
349.823	146.01
350.206	136.07
350.588	162.96
350.971	182.17
351.354	199.8
351.737	211.77
352.119	222.62
352.502	234.15
352.884	237.76
353.267	236.41
353.65	263.98
354.032	260.13
354.414	265.78
354.797	270.53
355.179	292
355.562	298.1
355.944	290.42
356.326	303.75
356.709	306.69
357.091	296.29
357.473	314.37
357.855	302.17
358.238	317.76
358.62	322.96
359.002	292.22
359.384	312.56
359.766	324.31
360.148	303.52
360.53	297.87
360.912	297.65
361.294	307.36
361.676	303.75
362.057	309.85
362.439	287.93
362.821	317.08
363.203	307.82
363.584	298.33
363.966	296.52
364.348	301.72
364.729	298.1
365.111	304.88
365.493	287.25
365.874	279.79
366.256	272.79
366.637	279.79
367.019	287.25
367.4	292.22
367.781	286.12
368.163	277.76
368.544	277.76
368.925	265.33
369.306	287.25
369.688	265.33
370.069	308.04
370.45	259.68
370.831	296.74
371.212	280.7
371.593	297.87
371.974	284.54
372.355	267.14
372.736	261.26
373.117	259.46
373.498	282.05
373.879	293.13
374.26	273.02
374.641	299.91
375.021	285.67
375.402	272.56
375.783	286.8
376.163	296.29
376.544	286.35
376.925	301.26
377.305	292.68
377.686	299.91
378.066	277.54
378.447	277.99
378.827	302.17
379.208	307.36
379.588	296.52
379.968	282.96
380.349	281.38
380.729	282.28
381.109	298.1
381.489	286.12
381.87	299.46
382.25	289.29
382.63	305.33
383.01	309.62
383.39	305.56
383.77	303.52
384.15	289.51
384.53	296.97
384.91	279.79
385.29	301.72
385.67	289.96
386.049	288.61
386.429	291.55
386.809	301.04
387.189	285.44
387.568	301.26
387.948	283.18
388.328	304.2
388.707	311.43
389.087	285.67
389.466	292
389.846	310.98
390.225	325.22
390.605	299.68
390.984	305.1
391.363	282.05
391.743	298.1
392.122	294.94
392.501	307.82
392.881	322.51
393.26	307.82
393.639	311.66
394.018	296.52
394.397	309.17
394.776	317.76
395.155	321.83
395.534	310.3
395.913	330.87
396.292	306.46
396.671	300.59
397.05	292
397.429	304.2
397.808	312.11
398.186	305.33
398.565	336.74
398.944	329.74
399.323	310.3
399.701	314.6
400.08	315.5
400.458	324.09
400.837	327.03
401.215	329.29
401.594	322.73
401.972	346.69
402.351	305.56
402.729	312.56
403.107	334.03
403.486	341.49
403.864	354.37
404.242	317.53
404.62	316.18
404.999	307.82
405.377	335.61
405.755	343.75
406.133	304.65
406.511	337.19
406.889	291.77
407.267	322.05
407.645	333.35
408.023	316.18
408.401	327.7
408.779	334.48
409.156	330.87
409.534	335.39
409.912	308.95
410.29	323.18
410.667	342.62
411.045	327.25
411.422	331.09
411.8	334.93
412.178	330.42
412.555	342.17
412.933	359.57
413.31	337.42
413.687	344.65
414.065	333.35
414.442	350.08
414.819	361.15
415.197	342.84
415.574	341.71
415.951	349.4
416.328	331.54
416.705	356.63
417.082	348.95
417.46	336.74
417.837	349.62
418.214	364.76
418.591	353.69
418.967	346.91
419.344	330.42
419.721	353.92
420.098	345.56
420.475	351.88
420.852	365.22
421.228	375.61
421.605	340.36
421.982	359.34
422.358	327.48
422.735	346.91
423.111	350.3
423.488	350.08
423.864	356.63
424.241	373.13
424.617	362.73
424.994	389.85
425.37	385.78
425.746	353.47
426.123	366.12
426.499	395.72
426.875	362.96
427.251	362.28
427.627	380.36
428.003	353.47
428.379	390.3
428.756	404.09
429.132	356.86
429.507	396.85
429.883	386.46
430.259	373.58
430.635	365.67
431.011	388.27
431.387	396.18
431.763	381.26
432.138	398.21
432.514	402.73
432.89	390.75
433.265	379.68
433.641	402.96
434.016	382.84
434.392	401.83
434.767	395.27
435.143	412.45
435.518	427.59
435.894	424.2
436.269	394.37
436.644	417.42
437.02	394.14
437.395	403.63
437.77	377.42
438.145	405.67
438.52	420.58
438.895	426.46
439.271	427.36
439.646	411.54
440.021	425.78
440.395	411.54
440.77	409.06
441.145	412.9
441.52	426.91
441.895	413.58
442.27	430.75
442.645	406.12
443.019	431.43
443.394	411.77
443.769	436.85
444.143	444.54
444.518	444.54
444.892	411.77
445.267	441.15
445.641	438.89
446.016	458.32
446.39	444.31
446.764	426.68
447.139	434.82
447.513	433.24
447.887	437.3
448.262	432.11
448.636	455.84
449.01	450.19
449.384	449.28
449.758	459.45
450.132	453.58
450.506	461.94
450.88	457.19
451.254	460.13
451.628	463.97
452.002	454.48
452.376	449.51
452.75	458.32
453.123	472.78
453.497	489.51
453.871	464.2
454.244	486.57
454.618	468.04
454.992	460.81
455.365	476.63
455.739	468.26
456.112	489.96
456.486	505.1
456.859	469.39
457.232	507.59
457.606	508.72
457.979	501.94
458.352	512.11
458.725	534.48
459.099	504.2
459.472	488.6
459.845	518.88
460.218	502.84
460.591	548.71
460.964	549.17
461.337	516.62
461.71	537.42
462.083	558.88
462.456	558.66
462.829	553.23
463.201	533.35
463.574	541.26
463.947	543.74
464.32	576.28
464.692	541.71
465.065	575.83
465.438	542.61
465.81	565.66
466.183	581.48
466.555	576.06
466.928	572.44
467.3	600.92
467.672	602.27
468.045	595.27
468.417	610.41
468.789	595.49
469.161	595.94
469.534	619.22
469.906	611.76
470.278	640.92
470.65	640.24
471.022	646.11
471.394	676.17
471.766	664.87
472.138	645.66
472.51	680.01
472.882	679.56
473.253	675.49
473.625	674.36
473.997	673.23
474.369	715.94
474.74	689.5
475.112	718.88
475.484	713
475.855	719.33
476.227	740.35
476.598	747.81
476.97	753.68
477.341	767.47
477.713	771.99
478.084	768.14
478.455	776.96
478.827	804.07
479.198	814.7
479.569	842.27
479.94	858.31
480.311	843.17
480.682	869.16
481.053	876.84
481.424	887.46
481.795	864.19
482.166	923.62
482.537	901.7
482.908	893.56
483.279	958.87
483.65	940.12
484.021	940.79
484.391	960
484.762	952.55
485.133	973.79
485.503	988.25
485.874	1000.23
486.244	1003.17
486.615	1019.89
486.985	1044.75
487.356	1062.37
487.726	1068.93
488.097	1042.94
488.467	1056.95
488.837	1105.99
489.207	1107.57
489.578	1101.69
489.948	1133.33
490.318	1130.39
490.688	1133.11
491.058	1149.6
491.428	1179.43
491.798	1164.97
492.168	1203.61
492.538	1200
492.908	1218.53
493.278	1225.98
493.648	1214.91
494.017	1242.48
494.387	1258.53
494.757	1285.64
495.126	1275.02
495.496	1263.5
495.866	1273.67
496.235	1288.81
496.605	1312.76
496.974	1309.15
497.344	1320.45
497.713	1328.13
498.082	1331.97
498.452	1318.86
498.821	1367.68
499.19	1349.82
499.559	1360.9
499.928	1351.86
500.298	1379.43
500.667	1382.14
501.036	1363.16
501.405	1402.93
501.774	1392.76
502.143	1414.45
502.512	1417.17
502.88	1430.5
503.249	1468.69
503.618	1438.41
503.987	1428.69
504.356	1437.28
504.724	1458.75
505.093	1427.79
505.462	1489.93
505.83	1485.41
506.199	1492.87
506.567	1482.48
506.936	1522.7
507.304	1515.92
507.672	1484.51
508.041	1504.85
508.409	1517.73
508.777	1525.64
509.145	1505.3
509.514	1524.73
509.882	1565.18
510.25	1548.01
510.618	1548.01
510.986	1543.04
511.354	1572.19
511.722	1553.66
512.09	1583.49
512.458	1578.29
512.826	1588.46
513.193	1590.27
513.561	1590.49
513.929	1602.92
514.297	1617.39
514.664	1612.64
515.032	1618.06
515.4	1630.95
515.767	1646.09
516.135	1654.67
516.502	1645.41
516.869	1674.33
517.237	1686.09
517.604	1668.23
517.972	1697.16
518.339	1681.79
518.706	1692.64
519.073	1684.28
519.44	1691.28
519.808	1684.05
520.175	1679.53
520.542	1719.31
520.909	1736.25
521.276	1735.35
521.643	1730.83
522.009	1691.96
522.376	1710.04
522.743	1727.21
523.11	1756.82
523.477	1778.74
523.843	1774.22
524.21	1784.61
524.577	1789.59
524.943	1824.61
525.31	1792.52
525.676	1811.05
526.043	1826.87
526.409	1824.61
526.776	1838.4
527.142	1855.35
527.508	1837.95
527.874	1851.05
528.241	1856.7
528.607	1855.57
528.973	1859.87
529.339	1865.74
529.705	1879.3
530.071	1917.94
530.437	1915.23
530.803	1878.17
531.169	1898.74
531.535	1882.24
531.901	1916.14
532.267	1882.46
532.632	1921.11
532.998	1901.45
533.364	1935.34
533.73	1943.03
534.095	1924.72
534.461	1920.66
534.826	1945.74
535.192	1910.26
535.557	1925.4
535.923	1942.8
536.288	1905.74
536.653	1941.9
537.019	1924.95
537.384	1921.11
537.749	1922.24
538.114	1923.14
538.479	1894.22
538.845	1906.87
539.21	1912.75
539.575	1913.88
539.94	1956.81
540.305	1957.26
540.67	1922.92
541.034	1910.49
541.399	1932.41
541.764	1942.58
542.129	1928.11
542.494	1935.34
542.858	1926.98
543.223	1920.2
543.587	1980.99
543.952	1953.88
544.316	1964.5
544.681	1948
545.045	1942.58
545.41	1984.83
545.774	1933.99
546.138	1934.21
546.503	1942.12
546.867	1950.49
547.231	1967.21
547.595	1939.41
547.959	1956.14
548.324	1936.25
548.688	1978.51
549.052	2007.66
549.416	1976.25
549.779	1987.32
550.143	1965.4
550.507	1963.37
550.871	1975.57
551.235	1976.02
551.599	1984.38
551.962	2017.6
552.326	2000.2
552.689	1983.48
553.053	1993.87
553.417	1982.57
553.78	2013.31
554.143	1985.96
554.507	2003.59
554.87	1999.98
555.234	2019.18
555.597	2011.95
555.96	2028
556.323	2000.88
556.686	1982.35
557.05	1994.33
557.413	2009.01
557.776	2018.05
558.139	2039.3
558.502	2003.14
558.865	2019.18
559.228	2020.31
559.59	2058.28
559.953	2065.28
560.316	2043.82
560.679	2053.53
561.041	2020.31
561.404	2050.37
561.767	2072.06
562.129	2081.33
562.492	2064.15
562.854	2086.75
563.217	2065.06
563.579	2074.1
563.941	2084.27
564.304	2070.93
564.666	2108
565.028	2130.59
565.39	2100.09
565.753	2101.44
566.115	2130.14
566.477	2101.89
566.839	2095.79
567.201	2101.44
567.563	2111.84
567.925	2181.89
568.287	2081.1
568.648	2131.05
569.01	2136.92
569.372	2157.71
569.734	2109.13
570.095	2121.33
570.457	2142.8
570.819	2137.37
571.18	2158.84
571.542	2156.13
571.903	2120.65
572.265	2172.85
572.626	2143.02
572.987	2163.14
573.349	2155
573.71	2159.52
574.071	2175.56
574.432	2143.93
574.794	2206.07
575.155	2140.54
575.516	2136.7
575.877	2181.67
576.238	2141.67
576.599	2134.66
576.96	2181.21
577.32	2161.78
577.681	2157.71
578.042	2170.82
578.403	2121.33
578.763	2148.67
579.124	2155.68
579.485	2164.04
579.845	2129.92
580.206	2124.04
580.566	2166.07
580.927	2142.12
581.287	2134.66
581.648	2141.44
582.008	2096.7
582.368	2150.48
582.728	2160.2
583.089	2127.43
583.449	2120.42
583.809	2100.99
584.169	2092.18
584.529	2079.52
584.889	2112.29
585.249	2099.41
585.609	2079.75
585.969	2095.57
586.329	2078.17
586.688	2084.72
587.048	2061.44
587.408	2050.6
587.768	2096.7
588.127	2030.48
588.487	2077.71
588.846	2072.52
589.206	2049.24
589.565	2042.46
589.925	2075.45
590.284	2066.19
590.643	2032.97
591.003	2032.29
591.362	2050.14
591.721	2025.51
592.08	2026.87
592.44	2065.96
592.799	2034.55
593.158	2066.19
593.517	2010.82
593.876	2035.45
594.235	2018.28
594.593	2020.54
594.952	2003.14
595.311	1999.3
595.67	2028.9
596.029	2035.68
596.387	2016.02
596.746	2010.82
597.104	2000.88
597.463	2004.72
597.822	1979.64
598.18	2027.09
598.538	2014.66
598.897	2036.58
599.255	1979.64
599.613	2012.18
599.972	2027.77
600.33	2025.51
600.688	2015.57
601.046	2012.4
601.404	2012.4
601.762	2031.84
602.12	2077.94
602.478	2052.86
602.836	2019.41
603.194	2034.55
603.552	2016.7
603.91	2035
604.268	2027.32
604.625	2024.16
604.983	2025.51
605.341	2010.6
605.698	2022.8
606.056	2021.44
606.413	2035.91
606.771	2065.74
607.128	2003.37
607.485	2038.39
607.843	2056.92
608.2	2041.1
608.557	2053.31
608.914	2075.68
609.272	2058.96
609.629	2066.64
609.986	2087.43
610.343	2052.4
610.7	2087.21
611.057	2075.23
611.414	2072.97
611.771	2110.71
612.127	2096.92
612.484	2134.21
612.841	2089.69
613.198	2072.52
613.554	2099.18
613.911	2086.08
614.267	2111.84
614.624	2101.89
614.98	2089.69
615.337	2096.7
615.693	2089.92
616.05	2117.94
616.406	2120.42
616.762	2112.06
617.118	2103.48
617.475	2110.26
617.831	2113.64
618.187	2124.72
618.543	2104.83
618.899	2107.77
619.255	2106.19
619.611	2107.77
619.967	2156.58
620.323	2113.87
620.678	2124.72
621.034	2121.78
621.39	2098.96
621.746	2129.01
622.101	2147.99
622.457	2091.05
622.812	2153.87
623.168	2133.31
623.523	2118.39
623.879	2106.64
624.234	2113.42
624.589	2122.68
624.945	2114.55
625.3	2107.54
625.655	2146.41
626.01	2115
626.365	2115.9
626.72	2118.62
627.075	2101.44
627.43	2102.12
627.785	2106.41
628.14	2118.16
628.495	2106.64
628.85	2117.26
629.205	2085.17
629.559	2127.88
629.914	2112.74
630.269	2132.85
630.623	2127.2
630.978	2095.79
631.332	2099.86
631.687	2108.9
632.041	2075.23
632.396	2131.05
632.75	2085.85
633.104	2130.82
633.459	2101.67
633.813	2088.33
634.167	2078.17
634.521	2062.35
634.875	2104.15
635.229	2074.55
635.583	2053.99
635.937	2071.61
636.291	2077.94
636.645	2059.41
636.999	2064.38
637.352	2076.13
637.706	2079.75
638.06	2079.07
638.413	2068.22
638.767	2079.97
639.121	2106.41
639.474	2069.13
639.828	2091.27
640.181	2061.22
640.534	2089.69
640.888	2088.79
641.241	2074.78
641.594	2089.46
641.947	2108.9
642.301	2107.77
642.654	2074.78
643.007	2098.73
643.36	2075
643.713	2096.47
644.066	2046.98
644.419	2083.82
644.771	2067.09
645.124	2060.31
645.477	2085.17
645.83	2042.91
646.182	2071.84
646.535	2053.31
646.888	2081.33
647.24	2044.04
647.593	2041.33
647.945	2082.46
648.298	2069.58
648.65	2070.93
649.002	2066.64
649.355	2093.53
649.707	2039.3
650.059	2086.98
650.411	2108.45
650.763	2117.94
651.115	2158.16
651.467	2147.09
651.819	2103.93
652.171	2162.23
652.523	2152.51
652.875	2165.85
653.227	2164.72
653.578	2164.94
653.93	2202.46
654.282	2182.57
654.633	2166.07
654.985	2181.21
655.337	2200.65
655.688	2213.3
656.039	2265.73
656.391	2231.83
656.742	2236.58
657.094	2252.85
657.445	2270.03
657.796	2255.56
658.147	2265.96
658.498	2281.78
658.849	2291.95
659.2	2322.68
659.551	2290.82
659.902	2312.06
660.253	2306.18
660.604	2350.47
660.955	2323.13
661.306	2320.42
661.656	2391.15
662.007	2366.97
662.358	2389.12
662.708	2402.45
663.059	2450.36
663.409	2416.69
663.76	2444.03
664.11	2467.08
664.461	2433.86
664.811	2510.7
665.161	2470.47
665.511	2481.54
665.862	2487.42
666.212	2550.7
666.562	2576.68
666.912	2544.14
667.262	2581.88
667.612	2590.69
667.962	2643.57
668.312	2642.9
668.662	2634.99
669.011	2688.32
669.361	2672.27
669.711	2729.22
670.06	2693.06
670.41	2714.31
670.76	2745.27
671.109	2811.03
671.459	2775.77
671.808	2795.66
672.157	2844.93
672.507	2878.6
672.856	2844.25
673.205	2863.68
673.554	2888.99
673.904	2943.23
674.253	2973.06
674.602	2945.04
674.951	2979.61
675.3	2962.89
675.649	3025.26
675.998	3032.49
676.346	3047.86
676.695	3076.33
677.044	3130.57
677.393	3155.65
677.741	3168.76
678.09	3199.27
678.438	3164.24
678.787	3241.3
679.135	3266.16
679.484	3262.77
679.832	3344.8
680.181	3267.74
680.529	3356.32
680.877	3372.14
681.225	3368.3
681.573	3424.34
681.922	3377.79
682.27	3400.84
682.618	3460.28
682.966	3486.49
683.314	3507.73
683.661	3539.14
684.009	3563.1
684.357	3575.75
684.705	3617.33
685.053	3599.48
685.4	3669.99
685.748	3634.51
686.095	3676.99
686.443	3705.24
686.79	3703.21
687.138	3775.97
687.485	3791.34
687.832	3810.1
688.18	3821.17
688.527	3847.16
688.874	3835.41
689.221	3911.79
689.568	3947.95
689.915	3931
690.262	3965.57
690.609	3990.88
690.956	4007.15
691.303	4047.83
691.65	4062.29
691.997	4096.19
692.344	4081.95
692.69	4113.82
693.037	4160.37
693.383	4162.4
693.73	4188.84
694.077	4188.62
694.423	4230.65
694.769	4202.63
695.116	4229.52
695.462	4269.29
695.808	4316.52
696.155	4349.29
696.501	4349.52
696.847	4388.61
697.193	4353.13
697.539	4399.01
697.885	4399.69
698.231	4479.68
698.577	4526.91
698.923	4448.95
699.269	4478.33
699.614	4515.39
699.96	4503.41
700.306	4594.94
700.651	4606.69
700.997	4594.94
701.342	4583.64
701.688	4656.18
702.033	4666.8
702.379	4653.01
702.724	4697.31
703.069	4718.55
703.415	4673.13
703.76	4791.54
704.105	4826.57
704.45	4793.57
704.795	4838.32
705.14	4813.01
705.485	4849.17
705.83	4907.24
706.175	4922.16
706.52	4965.1
706.865	4888.26
707.209	4899.33
707.554	4915.61
707.899	4964.19
708.243	4988.15
708.588	5031.76
708.932	4984.53
709.277	5016.39
709.621	5034.7
709.966	4998.77
710.31	5063.62
710.654	5027.24
710.998	5077.86
711.342	5138.88
711.687	5139.55
712.031	5105.88
712.375	5140.68
712.719	5148.14
713.063	5155.82
713.407	5240.12
713.75	5198.54
714.094	5204.41
714.438	5237.18
714.782	5208.48
715.125	5256.39
715.469	5230.4
715.812	5253.22
716.156	5260.68
716.499	5337.97
716.843	5307.46
717.186	5307.46
717.53	5368.02
717.873	5310.17
718.216	5345.42
718.559	5316.72
718.902	5330.06
719.246	5424.07
719.589	5392.2
719.932	5353.33
720.275	5456.83
720.617	5371.64
720.96	5413.9
721.303	5415.93
721.646	5430.85
721.989	5460.22
722.331	5456.38
722.674	5476.72
723.016	5439.21
723.359	5474.01
723.701	5509.04
724.044	5507
724.386	5425.65
724.729	5463.84
725.071	5447.12
725.413	5543.16
725.755	5509.26
726.097	5534.8
726.439	5445.53
726.782	5482.14
727.124	5524.18
727.465	5488.25
727.807	5506.32
728.149	5492.31
728.491	5483.5
728.833	5510.84
729.175	5488.92
729.516	5538.41
729.858	5522.14
730.199	5528.02
730.541	5569.6
730.882	5523.27
731.224	5612.99
731.565	5552.2
731.906	5521.46
732.248	5577.06
732.589	5511.3
732.93	5561.24
733.271	5535.25
733.612	5531.41
733.953	5569.83
734.294	5547.23
734.635	5540.67
734.976	5579.54
735.317	5522.14
735.658	5543.84
735.999	5575.93
736.339	5499.77
736.68	5532.09
737.021	5522.14
737.361	5507.45
737.702	5626.1
738.042	5520.56
738.383	5514.46
738.723	5584.74
739.063	5584.51
739.404	5582.93
739.744	5504.97
740.084	5528.92
740.424	5568.02
740.764	5465.2
741.104	5525.31
741.444	5515.59
741.784	5485.99
742.124	5534.35
742.464	5490.51
742.804	5511.3
743.143	5508.36
743.483	5483.5
743.823	5514.46
744.162	5487.57
744.502	5543.61
744.841	5499.32
745.181	5539.09
745.52	5471.97
745.86	5477.85
746.199	5443.05
746.538	5481.92
746.877	5476.95
747.216	5481.92
747.556	5478.08
747.895	5460.9
748.234	5469.04
748.573	5394.01
748.911	5428.81
749.25	5398.53
749.589	5409.38
749.928	5421.35
750.267	5423.39
750.605	5389.27
750.944	5402.82
751.283	5412.09
751.621	5421.58
751.96	5387.23
752.298	5339.1
752.636	5437.85
752.975	5374.35
753.313	5316.05
753.651	5347.23
753.989	5327.57
754.327	5328.48
754.666	5306.78
755.004	5309.27
755.342	5294.8
755.679	5283.96
756.017	5267.01
756.355	5281.92
756.693	5282.83
757.031	5273.79
757.368	5204.41
757.706	5200.57
758.044	5172.77
758.381	5174.36
758.719	5168.48
759.056	5195.82
759.394	5142.94
759.731	5170.06
760.068	5142.72
760.405	5130.74
760.743	5105.66
761.08	5101.36
761.417	5098.2
761.754	5113.11
762.091	5036.28
762.428	5033.12
762.765	5029.05
763.102	5033.12
763.438	5003.29
763.775	5004.64
764.112	4995.6
764.449	4959.67
764.785	4923.29
765.122	4933.01
765.458	4922.84
765.795	4923.29
766.131	4885.1
766.467	4892.78
766.804	4860.47
767.14	4821.14
767.476	4849.17
767.812	4836.74
768.148	4812.56
768.485	4812.56
768.821	4802.39
769.157	4778.21
769.492	4775.27
769.828	4727.81
770.164	4753.12
770.5	4709.73
770.836	4717.42
771.171	4646.46
771.507	4691.66
771.842	4639.91
772.178	4670.41
772.513	4618.21
772.849	4590.19
773.184	4586.35
773.519	4612.56
773.855	4568.5
774.19	4546.58
774.525	4507.03
774.86	4558.55
775.195	4553.13
775.53	4513.13
775.865	4479.23
776.2	4462.96
776.535	4453.02
776.87	4467.71
777.205	4411.89
777.539	4403.98
777.874	4427.26
778.209	4382.96
778.543	4368.95
778.878	4382.06
779.212	4317.65
779.547	4309.29
779.881	4348.84
780.215	4326.92
780.55	4345.45
780.884	4276.98
781.218	4266.36
781.552	4276.75
781.886	4254.83
782.22	4231.56
782.554	4207.83
782.888	4180.26
783.222	4207.83
783.556	4183.42
783.889	4168.28
784.223	4129.64
784.557	4109.98
784.89	4144.1
785.224	4128.73
785.557	4061.62
785.891	4089.86
786.224	4082.41
786.558	4069.07
786.891	4073.82
787.224	4021.62
787.557	4007.15
787.891	4011.9
788.224	3992.47
788.557	3992.47
788.89	3936.87
789.223	3989.75
789.556	3966.25
789.888	3936.2
790.221	3938.68
790.554	3882.41
790.887	3876.31
791.219	3866.59
791.552	3908.4
791.884	3855.75
792.217	3884.67
792.549	3821.17
792.882	3822.98
793.214	3780.95
793.546	3830.89
793.879	3763.09
794.211	3794.73
794.543	3768.06
794.875	3770.1
795.207	3758.8
795.539	3755.86
795.871	3764
796.203	3715.41
796.535	3676.09
796.867	3678.35
797.198	3698.46
797.53	3720.38
797.862	3667.73
798.193	3641.51
798.525	3632.93
798.856	3620.72
799.188	3596.77
799.519	3588.86
799.85	3595.19
800.182	3615.3
800.513	3589.09
800.844	3544.34
801.175	3590.44
801.506	3581.4
801.837	3540.5
802.168	3569.2
802.499	3528.98
802.83	3531.01
803.161	3464.8
803.491	3515.19
803.822	3485.13
804.153	3499.15
804.483	3488.75
804.814	3473.61
805.145	3467.96
805.475	3419.37
805.805	3398.81
806.136	3426.6
806.466	3427.96
806.796	3439.03
807.126	3392.48
807.457	3429.77
807.787	3369.88
808.117	3353.16
808.447	3380.5
808.777	3399.49
809.107	3375.76
809.436	3289.21
809.766	3318.59
810.096	3340.73
810.426	3324.46
810.755	3320.17
811.085	3298.47
811.414	3327.62
811.744	3284.46
812.073	3288.53
812.403	3308.19
812.732	3246.95
813.061	3269.09
813.39	3234.75
813.719	3209.66
814.049	3270.68
814.378	3233.84
814.707	3226.38
815.036	3193.39
815.365	3207.85
815.693	3159.95
816.022	3185.03
816.351	3188.42
816.68	3173.05
817.008	3151.81
817.337	3145.71
817.665	3124.24
817.994	3109.1
818.322	3169.21
818.651	3144.58
818.979	3117.46
819.307	3136.44
819.636	3101.64
819.964	3102.55
820.292	3096.22
820.62	3093.28
820.948	3119.95
821.276	3072.49
821.604	3098.48
821.932	3116.56
822.259	3080.4
822.587	3079.72
822.915	3114.3
823.243	3081.98
823.57	3035.2
823.898	3082.66
824.225	3094.18
824.553	3081.08
824.88	3084.01
825.207	3110
825.535	3097.57
825.862	3076.78
826.189	3055.77
826.516	3134.41
826.843	3108.42
827.17	3113.39
827.497	3093.05
827.824	3063.9
828.151	3109.55
828.478	3082.89
828.805	3102.77
829.131	3066.61
829.458	3082.43
829.785	3062.09
830.111	3092.6
830.438	3056.67
830.764	3062.55
831.09	3095.77
831.417	3079.95
831.743	3058.03
832.069	3057.8
832.395	3059.61
832.722	3109.55
833.048	3012.6
833.374	3032.94
833.7	3055.32
834.026	3038.82
834.351	3066.16
834.677	3078.82
835.003	3063.45
835.329	3047.63
835.654	3048.08
835.98	3049.21
836.306	3033.39
836.631	3017.12
836.956	3020.29
837.282	3048.54
837.607	3017.12
837.932	3007.63
838.258	3017.12
838.583	3039.5
838.908	2996.79
839.233	3001.76
839.558	3032.49
839.883	3003.57
840.208	2976.9
840.533	2977.35
840.858	2972.83
841.182	2975.54
841.507	2938.26
841.832	2944.36
842.156	2956.79
842.481	2949.33
842.805	2952.49
843.13	2942.78
843.454	2965.37
843.778	2903.91
844.103	2937.13
844.427	2929.67
844.751	2913.62
845.075	2907.3
845.399	2906.17
845.723	2962.21
846.047	2866.62
846.371	2850.35
846.695	2845.6
847.019	2834.53
847.343	2841.76
847.666	2829.56
847.99	2793.85
848.313	2829.11
848.637	2796.79
848.96	2779.39
849.284	2779.16
849.607	2769.67
849.931	2795.21
850.254	2726.96
850.577	2709.56
850.9	2705.49
851.223	2692.39
851.546	2695.78
851.869	2669.79
852.192	2711.6
852.515	2670.92
852.838	2680.64
853.161	2679.51
853.483	2641.31
853.806	2668.66
854.129	2655.55
854.451	2609.9
854.774	2630.47
855.096	2579.17
855.419	2602.67
855.741	2618.72
856.063	2558.38
856.385	2605.61
856.708	2605.84
857.03	2593.18
857.352	2567.19
857.674	2604.93
857.996	2602.45
858.318	2523.35
858.64	2523.35
858.961	2531.71
859.283	2537.81
859.605	2509.11
859.926	2545.27
860.248	2515.89
860.57	2526.97
860.891	2501.21
861.212	2501.43
861.534	2509.34
861.855	2501.21
862.176	2476.12
862.498	2522.22
862.819	2454.43
863.14	2453.52
863.461	2483.58
863.782	2452.85
864.103	2412.39
864.424	2447.65
864.745	2430.02
865.065	2455.1
865.386	2436.35
865.707	2442.9
866.027	2456.91
866.348	2413.3
866.668	2427.99
866.989	2407.42
867.309	2400.87
867.63	2406.74
867.95	2408.1
868.27	2420.98
868.59	2420.08
868.91	2430.47
869.23	2418.27
869.55	2404.94
869.87	2397.25
870.19	2372.17
870.51	2385.95
870.83	2403.58
871.15	2361.32
871.469	2370.14
871.789	2361.1
872.109	2337.59
872.428	2373.53
872.748	2360.64
873.067	2347.76
873.386	2325.62
873.706	2372.17
874.025	2334.88
874.344	2368.33
874.663	2329.23
874.982	2342.57
875.301	2324.03
875.62	2334.43
875.939	2320.87
876.258	2322.91
876.577	2313.19
876.896	2319.97
877.214	2292.17
877.533	2336.92
877.852	2312.06
878.17	2326.07
878.489	2303.02
878.807	2265.51
879.125	2313.19
879.444	2311.83
879.762	2276.8
880.08	2257.14
880.398	2272.28
880.716	2273.87
881.034	2291.95
881.352	2279.29
881.67	2264.15
881.988	2286.3
882.306	2271.38
882.624	2274.77
882.941	2265.96
883.259	2241.33
883.577	2245.17
883.894	2228.9
884.212	2227.09
884.529	2222.79
884.846	2192.51
885.164	2210.37
885.481	2209.91
885.798	2219.4
886.115	2216.47
886.432	2200.2
886.75	2182.34
887.067	2180.08
887.383	2208.78
887.7	2145.96
888.017	2156.13
888.334	2179.86
888.651	2167.65
888.967	2183.93
889.284	2169.46
889.6	2187.54
889.917	2123.14
890.233	2150.48
890.55	2127.43
890.866	2144.83
891.182	2129.24
891.498	2097.6
891.815	2103.48
892.131	2059.41
892.447	2102.57
892.763	2082.69
893.079	2100.76
893.395	2057.83
893.71	2110.48
894.026	2074.1
894.342	2064.38
894.657	2060.09
894.973	2060.31
895.289	2063.48
895.604	2035
895.92	2059.18
896.235	2035.45
896.55	2026.87
896.865	2058.73
897.181	2048.56
897.496	2021.9
897.811	2030.03
898.126	2002.01
898.441	2010.6
898.756	2012.18
899.071	1959.75
899.386	2017.38
899.7	1981.22
900.015	1939.86
900.33	1968.56
900.644	1971.05
900.959	1944.16
901.273	1958.39
901.588	1935.34
901.902	1943.03
902.216	1930.15
902.531	1914.1
902.845	1927.66
903.159	1906.64
903.473	1928.79
903.787	1934.21
904.101	1889.47
904.415	1923.37
904.729	1887.89
905.042	1891.73
905.356	1853.31
905.67	1844.05
905.984	1860.32
906.297	1854.67
906.611	1844.95
906.924	1843.37
907.237	1839.3
907.551	1843.14
907.864	1822.81
908.177	1837.72
908.491	1834.78
908.804	1773.09
909.117	1798.85
909.43	1791.85
909.743	1766.99
910.056	1770.6
910.368	1786.65
910.681	1778.51
910.994	1767.44
911.307	1777.38
911.619	1765.86
911.932	1766.54
912.244	1740.77
912.557	1727.67
912.869	1730.6
913.181	1708.68
913.494	1714.56
913.806	1731.96
914.118	1705.52
914.43	1689.7
914.742	1686.31
915.054	1689.48
915.366	1675.92
915.678	1680.21
915.99	1676.59
916.302	1663.04
916.613	1665.52
916.925	1630.27
917.236	1650.15
917.548	1633.43
917.859	1638.63
918.171	1617.16
918.482	1597.95
918.794	1626.43
919.105	1637.27
919.416	1608.12
919.727	1619.42
920.038	1629.14
920.349	1597.95
920.66	1575.81
920.971	1571.74
921.282	1576.71
921.593	1578.07
921.903	1562.93
922.214	1541.23
922.525	1552.53
922.835	1555.69
923.146	1540.78
923.456	1542.59
923.767	1508.24
924.077	1538.52
924.387	1536.94
924.697	1532.19
925.008	1528.8
925.318	1496.94
925.628	1524.73
925.938	1506.88
926.248	1505.53
926.558	1480.22
926.867	1476.37
927.177	1485.19
927.487	1458.52
927.796	1448.8
928.106	1453.32
928.416	1464.17
928.725	1461.23
929.034	1429.6
929.344	1415.58
929.653	1420.78
929.962	1447
930.271	1405.87
930.581	1407.22
930.89	1422.14
931.199	1428.69
931.508	1413.55
931.817	1377.17
932.125	1425.08
932.434	1378.52
932.743	1425.08
933.051	1355.25
933.36	1397.96
933.669	1383.04
933.977	1347.11
934.286	1369.71
934.594	1336.26
934.902	1347.34
935.21	1337.39
935.519	1366.77
935.827	1336.49
936.135	1335.59
936.443	1308.92
936.751	1331.52
937.059	1333.33
937.367	1319.99
937.674	1283.84
937.982	1292.2
938.29	1310.05
938.597	1305.3
938.905	1327.22
939.213	1281.8
939.52	1305.98
939.827	1281.35
940.135	1267.57
940.442	1274.35
940.749	1257.62
941.056	1254.23
941.363	1238.41
941.67	1266.44
941.977	1246.55
942.284	1245.65
942.591	1246.78
942.898	1255.36
943.205	1255.36
943.511	1228.24
943.818	1221.92
944.125	1208.58
944.431	1244.74
944.738	1203.39
945.044	1199.77
945.35	1182.37
945.657	1187.79
945.963	1193.22
946.269	1187.34
946.575	1185.53
946.881	1181.92
947.187	1196.61
947.493	1179.21
947.799	1175.59
948.105	1189.6
948.41	1151.64
948.716	1153.22
949.022	1125.65
949.327	1161.13
949.633	1124.97
949.938	1172.43
950.244	1145.53
950.549	1160.9
950.854	1156.61
951.16	1116.84
951.465	1119.32
951.77	1130.39
952.075	1131.07
952.38	1105.54
952.685	1122.26
952.99	1117.96
953.294	1105.76
953.599	1093.56
953.904	1077.51
954.209	1077.29
954.513	1090.4
954.818	1084.29
955.122	1092.65
955.426	1070.73
955.731	1087.01
956.035	1064.18
956.339	1074.8
956.643	1064.86
956.948	1037.29
957.252	1035.48
957.556	1049.72
957.86	1065.31
958.163	1028.48
958.467	1025.76
958.771	1040.9
959.075	1050.85
959.378	1037.97
959.682	1012.21
959.985	1035.48
960.289	1035.03
960.592	1030.06
960.896	1016.27
961.199	1037.52
961.502	1018.98
961.805	1016.27
962.108	1011.53
962.411	1009.49
962.714	1014.46
963.017	1003.62
963.32	1000
963.623	1007.46
963.926	990.06
964.228	992.54
964.531	983.28
964.833	998.42
965.136	981.02
965.438	982.83
965.741	941.02
966.043	961.58
966.345	950.51
966.648	957.07
966.95	964.52
967.252	959.55
967.554	946.44
967.856	975.82
968.158	951.42
968.46	952.55
968.761	918.87
969.063	922.72
969.365	928.14
969.666	936.05
969.968	936.27
970.269	926.56
970.571	909.16
970.872	901.25
971.174	919.78
971.475	936.5
971.776	923.39
972.077	887.46
972.378	900.12
972.679	910.96
972.98	904.86
973.281	913.9
973.582	877.29
973.883	862.6
974.183	892.66
974.484	869.84
974.785	887.01
975.085	891.76
975.386	878.42
975.686	887.24
975.986	884.75
976.287	857.63
976.587	864.41
976.887	872.32
977.187	866.45
977.487	877.75
977.787	848.59
978.087	847.01
978.387	861.7
978.687	850.18
978.987	856.05
979.286	846.11
979.586	833
979.885	846.56
980.185	843.85
980.484	814.47
980.784	829.16
981.083	827.13
981.382	807.92
981.682	822.38
981.981	829.16
982.28	818.99
982.579	814.02
982.878	811.53
983.177	809.5
983.475	819.44
983.774	800.01
984.073	790.97
984.372	767.47
984.67	781.25
984.969	797.75
985.267	793.23
985.566	789.39
985.864	793.68
986.162	789.84
986.461	785.32
986.759	774.92
987.057	770.86
987.355	778.31
987.653	780.35
987.951	787.8
988.249	778.99
988.547	779.67
988.844	757.97
989.142	757.07
989.44	766.34
989.737	763.17
990.035	754.58
990.332	745.77
990.63	745.55
990.927	750.52
991.224	753
991.521	722.5
991.819	731.99
992.116	747.81
992.413	765.43
992.71	719.11
993.006	727.92
993.303	709.16
993.6	747.81
993.897	713.23
994.193	739.67
994.49	692.89
994.787	724.53
995.083	722.27
995.379	715.72
995.676	720.46
995.972	689.28
996.268	703.29
996.565	701.03
996.861	683.4
997.157	690.86
997.453	696.28
997.749	698.99
998.044	698.09
998.34	703.51
998.636	671.65
998.932	671.42
999.227	674.81
999.523	684.98
999.818	675.26
1000.114	688.37
1000.409	697.86
1000.704	657.19
1001	679.78
1001.295	667.81
1001.59	668.94
1001.885	667.13
1002.18	675.49
1002.475	668.26
1002.77	673.91
1003.065	634.81
1003.359	651.54
1003.654	660.8
1003.949	657.64
1004.243	647.69
1004.538	639.79
1004.832	651.08
1005.127	648.6
1005.421	637.07
1005.715	631.42
1006.009	643.18
1006.304	617.41
1006.598	636.62
1006.892	630.07
1007.186	611.31
1007.48	620.35
1007.773	622.38
1008.067	619
1008.361	614.93
1008.655	591.88
1008.948	593.46
1009.242	613.12
1009.535	604.98
1009.829	589.17
1010.122	595.94
1010.415	592.1
1010.708	591.65
1011.001	580.8
1011.295	596.17
1011.588	605.89
1011.881	584.65
1012.173	570.41
1012.466	590.52
1012.759	585.32
1013.052	579.9
1013.344	583.74
1013.637	603.4
1013.93	590.07
1014.222	579.22
1014.514	577.41
1014.807	574.25
1015.099	539.68
1015.391	560.01
1015.683	578.77
1015.976	588.71
1016.268	578.54
1016.56	557.98
1016.851	567.7
1017.143	565.89
1017.435	564.99
1017.727	568.83
1018.018	564.08
1018.31	534.7
1018.602	516.85
1018.893	545.32
1019.185	548.26
1019.476	538.09
1019.767	521.37
1020.058	544.42
1020.35	517.08
1020.641	535.38
1020.932	523.86
1021.223	543.52
1021.514	531.99
1021.804	532.9
1022.095	530.86
1022.386	555.49
1022.677	530.41
1022.967	515.95
1023.258	514.82
1023.548	501.48
1023.839	485.44
1024.129	530.64
1024.419	525.44
1024.709	500.58
1025	509.62
1025.29	495.83
1025.58	501.94
1025.87	505.55
1026.16	506.91
1026.449	494.48
1026.739	486.8
1027.029	509.17
1027.319	509.85
1027.608	505.33
1027.898	501.26
1028.187	508.72
1028.477	495.16
1028.766	497.87
1029.055	499
1029.344	477.98
1029.634	495.16
1029.923	487.93
1030.212	483.63
1030.501	488.83
1030.79	475.27
1031.078	469.17
1031.367	460.58
1031.656	466.46
1031.945	475.72
1032.233	449.96
1032.522	464.2
1032.81	478.66
1033.099	456.51
1033.387	458.1
1033.675	466.68
1033.963	453.12
1034.251	429.4
1034.54	454.25
1034.828	451.99
1035.116	449.28
1035.403	460.13
1035.691	438.66
1035.979	449.51
1036.267	436.17
1036.554	430.75
1036.842	447.7
1037.129	441.37
1037.417	450.41
1037.704	441.6
1037.992	421.26
1038.279	451.54
1038.566	461.94
1038.853	461.94
1039.14	461.94
