Data from carpet_green_FLMS001491_00060.txt Node
Date: Wed Feb 08 10:35:34 GMT 2017
User: dcchb
Spectrometer: FLMS00149
Trigger mode: 0
Integration Time (sec): 2.000000E-2
Scans to average: 10
Electric dark correction enabled: true
Nonlinearity correction enabled: false
Boxcar width: 0
XAxis mode: Wavelengths
Number of Pixels in Spectrum: 2048
>>>>>Begin Spectral Data<<<<<
341.393	5.83
341.776	5.83
342.16	5.83
342.543	-58.35
342.927	-56.09
343.31	-69.42
343.693	-54.5
344.077	-62.87
344.46	-58.8
344.843	-66.03
345.226	-45.69
345.61	-49.31
345.993	-36.65
346.376	1.09
346.759	34.08
347.142	25.49
347.525	51.03
347.908	54.42
348.291	71.14
348.674	97.81
349.057	108.2
349.44	120.63
349.823	143
350.206	188.43
350.588	180.52
350.971	198.14
351.354	187.52
351.737	215.77
352.119	230.01
352.502	261.87
352.884	250.35
353.267	264.36
353.65	246.96
354.032	267.75
354.414	292.61
354.797	287.41
355.179	303.23
355.562	311.36
355.944	296
356.326	303.9
356.709	319.27
357.091	311.81
357.473	327.41
357.855	300.97
358.238	330.12
358.62	314.53
359.002	310.46
359.384	310.23
359.766	320.63
360.148	306.16
360.53	310.46
360.912	323.56
361.294	322.21
361.676	321.53
362.057	293.51
362.439	313.62
362.821	299.61
363.203	309.55
363.584	302.77
363.966	309.55
364.348	300.29
364.729	298.25
365.111	299.61
365.493	307.07
365.874	291.7
366.256	306.84
366.637	279.72
367.019	291.93
367.4	296.22
367.781	293.06
368.163	284.7
368.544	295.54
368.925	274.75
369.306	306.84
369.688	280.18
370.069	304.58
370.45	287.86
370.831	291.25
371.212	287.86
371.593	263
371.974	266.84
372.355	280.85
372.736	254.87
373.117	272.27
373.498	284.02
373.879	293.96
374.26	286.5
374.641	280.85
375.021	282.89
375.402	274.3
375.783	283.34
376.163	285.15
376.544	283.11
376.925	291.02
377.305	293.74
377.686	298.48
378.066	285.83
378.447	283.57
378.827	278.14
379.208	270.23
379.588	292.15
379.968	316.11
380.349	292.61
380.729	302.32
381.109	329.67
381.489	291.25
381.87	296.22
382.25	296.45
382.63	290.57
383.01	287.18
383.39	287.86
383.77	300.74
384.15	301.42
384.53	311.59
384.91	310.46
385.29	284.92
385.67	295.32
386.049	298.93
386.429	308.65
386.809	306.84
387.189	283.57
387.568	291.93
387.948	298.03
388.328	312.04
388.707	302.32
389.087	311.36
389.466	302.1
389.846	307.52
390.225	311.36
390.605	307.29
390.984	293.74
391.363	301.64
391.743	321.53
392.122	330.8
392.501	301.42
392.881	324.47
393.26	317.24
393.639	322.66
394.018	272.72
394.397	317.69
394.776	310.46
395.155	323.11
395.534	306.16
395.913	312.49
396.292	308.65
396.671	315.66
397.05	303.9
397.429	318.14
397.808	301.64
398.186	309.1
398.565	304.36
398.944	295.54
399.323	314.07
399.701	307.29
400.08	319.5
400.458	316.11
400.837	319.5
401.215	309.1
401.594	316.11
401.972	307.97
402.351	303.68
402.729	331.47
403.107	338.71
403.486	322.66
403.864	320.4
404.242	338.93
404.62	325.15
404.999	314.3
405.377	310.23
405.755	317.01
406.133	316.11
406.511	303.23
406.889	314.07
407.267	307.75
407.645	321.98
408.023	304.13
408.401	320.63
408.779	335.32
409.156	329.21
409.534	335.99
409.912	319.72
410.29	316.79
410.667	307.52
411.045	312.04
411.422	326.05
411.8	312.49
412.178	325.82
412.555	352.94
412.933	339.38
413.31	319.95
413.687	319.5
414.065	324.24
414.442	340.06
414.819	334.41
415.197	319.5
415.574	325.37
415.951	333.06
416.328	319.27
416.705	309.1
417.082	328.08
417.46	329.89
417.837	335.54
418.214	306.84
418.591	329.89
418.967	325.6
419.344	327.86
419.721	328.08
420.098	329.21
420.475	360.17
420.852	337.12
421.228	316.79
421.605	324.69
421.982	338.25
422.358	328.54
422.735	324.47
423.111	338.71
423.488	338.03
423.864	352.94
424.241	352.26
424.617	321.76
424.994	333.28
425.37	323.34
425.746	342.55
426.123	351.13
426.499	337.8
426.875	337.35
427.251	340.51
427.627	326.28
428.003	344.58
428.379	320.63
428.756	364.24
429.132	347.75
429.507	351.13
429.883	356.11
430.259	359.72
430.635	360.85
431.011	355.65
431.387	354.07
431.763	339.61
432.138	356.33
432.514	365.37
432.89	337.35
433.265	338.93
433.641	360.85
434.016	349.55
434.392	365.15
434.767	380.29
435.143	360.17
435.518	370.57
435.894	368.76
436.269	333.28
436.644	376.22
437.02	360.4
437.395	379.38
437.77	372.83
438.145	372.15
438.52	363.79
438.895	357.91
439.271	382.55
439.646	371.93
440.021	371.25
440.395	361.53
440.77	359.95
441.145	364.02
441.52	363.34
441.895	365.37
442.27	378.48
442.645	403.34
443.019	369.89
443.394	392.26
443.769	370.34
444.143	373.73
444.518	391.81
444.892	377.8
445.267	391.36
445.641	390.23
446.016	390.91
446.39	378.03
446.764	399.95
447.139	382.09
447.513	382.55
447.887	384.81
448.262	382.77
448.636	385.94
449.01	396.33
449.384	397.01
449.758	377.57
450.132	379.83
450.506	387.07
450.88	380.06
451.254	379.38
451.628	380.06
452.002	395.2
452.376	399.5
452.75	390.68
453.123	394.98
453.497	402.43
453.871	403.56
454.244	420.06
454.618	396.33
454.992	419.38
455.365	391.36
455.739	418.7
456.112	414.86
456.486	389.1
456.859	413.05
457.232	390.91
457.606	423.45
457.979	416.67
458.352	399.95
458.725	406.5
459.099	429.78
459.472	400.17
459.845	411.7
460.218	411.7
460.591	421.19
460.964	432.94
461.337	425.26
461.71	431.58
462.083	439.27
462.456	449.66
462.829	406.27
463.201	446.27
463.574	439.72
463.947	422.09
464.32	450.79
464.692	454.41
465.065	453.73
465.438	449.44
465.81	442.21
466.183	445.37
466.555	474.75
466.928	474.52
467.3	443.56
467.672	446.5
468.045	492.6
468.417	462.54
468.789	451.92
469.161	481.07
469.534	473.84
469.906	487.85
470.278	463
470.65	480.62
471.022	471.13
471.394	501.19
471.766	480.17
472.138	486.5
472.51	491.02
472.882	513.84
473.253	483.79
473.625	499.61
473.997	495.09
474.369	512.03
474.74	523.11
475.112	534.63
475.484	514.97
475.855	498.48
476.227	532.6
476.598	520.85
476.97	527.63
477.341	532.37
477.713	526.72
478.084	516.55
478.455	542.54
478.827	551.58
479.198	554.75
479.569	553.16
479.94	556.1
480.311	580.06
480.682	572.15
481.053	569.43
481.424	598.13
481.795	556.55
482.166	590.68
482.537	601.07
482.908	618.92
483.279	612.37
483.65	608.76
484.021	635.42
484.391	620.05
484.762	619.83
485.133	626.83
485.503	648.08
485.874	631.58
486.244	650.79
486.615	648.98
486.985	664.12
487.356	674.29
487.726	650.34
488.097	656.89
488.467	645.14
488.837	665.93
489.207	688.75
489.578	698.02
489.948	707.74
490.318	691.24
490.688	696.89
491.058	711.13
491.428	705.7
491.798	714.29
492.168	707.28
492.538	741.86
492.908	705.93
493.278	749.54
493.648	744.57
494.017	724.23
494.387	756.77
494.757	770.33
495.126	759.94
495.496	776.66
495.866	756.32
496.235	754.06
496.605	771.46
496.974	780.95
497.344	799.48
497.713	779.37
498.082	782.31
498.452	793.16
498.821	816.66
499.19	777.79
499.559	794.74
499.928	806.72
500.298	813.04
500.667	823.21
501.036	837.45
501.405	834.29
501.774	826.38
502.143	831.12
502.512	832.7
502.88	833.61
503.249	837.22
503.618	841.29
503.987	824.12
504.356	817.34
504.724	828.41
505.093	847.39
505.462	836.09
505.83	855.53
506.199	864.34
506.567	863.89
506.936	851.01
507.304	857.56
507.672	847.84
508.041	850.78
508.409	876.54
508.777	871.57
509.145	867.96
509.514	862.53
509.882	882.42
510.25	846.72
510.618	883.1
510.986	881.52
511.354	895.3
511.722	885.58
512.09	869.31
512.458	904.57
512.826	902.08
513.193	907.05
513.561	893.95
513.929	888.3
514.297	908.86
514.664	901.63
515.032	916.32
515.4	924.91
515.767	947.28
516.135	924.68
516.502	923.55
516.869	940.5
517.237	919.03
517.604	901.4
517.972	920.84
518.339	944.79
518.706	929.2
519.073	936.66
519.44	943.66
519.808	947.73
520.175	939.82
520.542	969.88
520.909	964.45
521.276	945.92
521.643	959.48
522.009	966.71
522.376	972.81
522.743	962.87
523.11	982.76
523.477	983.43
523.843	986.37
524.21	968.97
524.577	984.11
524.943	985.02
525.31	1012.36
525.676	992.7
526.043	983.89
526.409	975.98
526.776	1012.36
527.142	1008.07
527.508	1000.61
527.874	1016.2
528.241	1004.45
528.607	1030.21
528.973	1021.63
529.339	1027.73
529.705	1001.29
530.071	1018.91
530.437	1029.99
530.803	1027.73
531.169	1036.31
531.535	999.71
531.901	1039.7
532.267	1034.96
532.632	1036.77
532.998	1036.09
533.364	1032.92
533.73	1053.72
534.095	1047.61
534.461	1051.23
534.826	1041.74
535.192	1040.83
535.557	1042.64
535.923	1065.24
536.288	1046.94
536.653	1067.95
537.019	1057.33
537.384	1052.59
537.749	1051.46
538.114	1051.91
538.479	1060.95
538.845	1071.57
539.21	1032.7
539.575	1067.73
539.94	1037.22
540.305	1053.72
540.67	1067.27
541.034	1044.68
541.399	1053.94
541.764	1054.85
542.129	1030.44
542.494	1058.46
542.858	1062.08
543.223	1034.28
543.587	1079.03
543.952	1066.82
544.316	1054.85
544.681	1071.79
545.045	1050.78
545.41	1058.01
545.774	1068.86
546.138	1051.91
546.503	1081.51
546.867	1053.04
547.231	1066.14
547.595	1081.74
547.959	1080.83
548.324	1068.86
548.688	1060.49
549.052	1058.91
549.416	1069.31
549.779	1106.82
550.143	1102.3
550.507	1076.77
550.871	1081.29
551.235	1088.29
551.599	1081.51
551.962	1081.06
552.326	1100.49
552.689	1089.87
553.053	1079.7
553.417	1078.57
553.78	1111.34
554.143	1090.55
554.507	1090.78
554.87	1087.61
555.234	1111.79
555.597	1095.07
555.96	1121.28
556.323	1097.1
556.686	1115.63
557.05	1099.59
557.413	1119.25
557.776	1103.21
558.139	1117.89
558.502	1073.83
558.865	1109.53
559.228	1095.3
559.59	1128.06
559.953	1107.27
560.316	1123.32
560.679	1107.27
561.041	1118.8
561.404	1130.32
561.767	1139.81
562.129	1149.08
562.492	1153.15
562.854	1132.13
563.217	1145.01
563.579	1147.5
563.941	1130.32
564.304	1166.03
564.666	1161.06
565.028	1168.06
565.39	1148.18
565.753	1179.59
566.115	1164.67
566.477	1158.35
566.839	1142.3
567.201	1175.75
567.563	1154.96
567.925	1162.64
568.287	1182.07
568.648	1172.58
569.01	1157.44
569.372	1174.16
569.734	1179.36
570.095	1163.99
570.457	1183.2
570.819	1167.61
571.18	1176.2
571.542	1196.31
571.903	1196.54
572.265	1178.23
572.626	1182.98
572.987	1185.01
573.349	1194.95
573.71	1174.84
574.071	1186.37
574.432	1202.64
574.794	1208.97
575.155	1189.98
575.516	1192.24
575.877	1197.89
576.238	1192.92
576.599	1171.68
576.96	1199.47
577.32	1183.66
577.681	1206.48
578.042	1188.17
578.403	1192.02
578.763	1188.85
579.124	1174.84
579.485	1190.66
579.845	1209.19
580.206	1193.6
580.566	1185.92
580.927	1215.74
581.287	1168.97
581.648	1178.91
582.008	1188.4
582.368	1191.56
582.728	1208.06
583.089	1185.24
583.449	1187.5
583.809	1208.97
584.169	1176.42
584.529	1194.95
584.889	1191.34
585.249	1186.37
585.609	1189.76
585.969	1180.27
586.329	1176.88
586.688	1201.96
587.048	1195.86
587.408	1187.05
587.768	1184.79
588.127	1166.93
588.487	1157.89
588.846	1188.17
589.206	1172.36
589.565	1163.77
589.925	1164.22
590.284	1162.64
590.643	1171.9
591.003	1174.84
591.362	1172.58
591.721	1171.68
592.08	1193.6
592.44	1171
592.799	1171.68
593.158	1169.87
593.517	1165.58
593.876	1155.63
594.235	1165.8
594.593	1139.59
594.952	1173.71
595.311	1155.18
595.67	1171.68
596.029	1181.62
596.387	1172.36
596.746	1166.48
597.104	1156.31
597.463	1149.98
597.822	1156.31
598.18	1181.85
598.538	1162.19
598.897	1157.89
599.255	1162.19
599.613	1174.16
599.972	1175.97
600.33	1168.29
600.688	1180.72
601.046	1188.17
601.404	1177.1
601.762	1169.19
602.12	1162.19
602.478	1171
602.836	1185.24
603.194	1180.04
603.552	1179.36
603.91	1171.45
604.268	1178.01
604.625	1170.1
604.983	1172.58
605.341	1168.74
605.698	1180.49
606.056	1179.59
606.413	1196.08
606.771	1191.34
607.128	1175.97
607.485	1184.11
607.843	1196.54
608.2	1192.69
608.557	1203.54
608.914	1195.63
609.272	1201.73
609.629	1191.79
609.986	1207.61
610.343	1194.05
610.7	1192.69
611.057	1199.47
611.414	1201.28
611.771	1189.53
612.127	1203.54
612.484	1191.79
612.841	1189.08
613.198	1201.28
613.554	1198.8
613.911	1198.57
614.267	1205.35
614.624	1188.4
614.98	1217.33
615.337	1206.25
615.693	1196.31
616.05	1208.74
616.406	1229.98
616.762	1197.89
617.118	1225.46
617.475	1218.23
617.831	1230.66
618.187	1223.65
618.543	1232.69
618.899	1171.23
619.255	1207.38
619.611	1211
619.967	1207.84
620.323	1211.9
620.678	1215.97
621.034	1208.74
621.39	1206.25
621.746	1210.1
622.101	1225.46
622.457	1199.7
622.812	1211.68
623.168	1211
623.523	1229.3
623.879	1200.15
624.234	1218.91
624.589	1240.15
624.945	1206.93
625.3	1223.65
625.655	1216.2
626.01	1200.6
626.365	1216.42
626.72	1239.25
627.075	1221.39
627.43	1210.55
627.785	1195.63
628.14	1244.9
628.495	1226.82
628.85	1211
629.205	1223.43
629.559	1210.55
629.914	1218.68
630.269	1231.11
630.623	1223.43
630.978	1208.74
631.332	1231.56
631.687	1251.45
632.041	1190.89
632.396	1192.92
632.75	1226.37
633.104	1223.43
633.459	1192.92
633.813	1229.08
634.167	1194.28
634.521	1199.7
634.875	1194.28
635.229	1180.72
635.583	1188.17
635.937	1193.37
636.291	1202.41
636.645	1216.87
636.999	1225.24
637.352	1203.77
637.706	1228.63
638.06	1224.56
638.413	1209.42
638.767	1235.41
639.121	1193.37
639.474	1188.4
639.828	1182.3
640.181	1215.74
640.534	1192.24
640.888	1179.81
641.241	1225.91
641.594	1198.8
641.947	1220.72
642.301	1205.58
642.654	1202.41
643.007	1219.13
643.36	1218.91
643.713	1209.19
644.066	1201.06
644.419	1185.46
644.771	1201.28
645.124	1161.28
645.477	1196.54
645.83	1186.37
646.182	1177.33
646.535	1184.79
646.888	1198.34
647.24	1186.37
647.593	1196.31
647.945	1210.32
648.298	1214.39
648.65	1166.93
649.002	1213.94
649.355	1174.16
649.707	1196.31
650.059	1222.3
650.411	1222.75
650.763	1220.26
651.115	1221.62
651.467	1218.23
651.819	1211.45
652.171	1258.91
652.523	1224.78
652.875	1220.04
653.227	1213.94
653.578	1215.07
653.93	1249.64
654.282	1249.87
654.633	1251.9
654.985	1267.95
655.337	1238.34
655.688	1239.7
656.039	1245.8
656.391	1266.14
656.742	1235.86
657.094	1249.42
657.445	1295.52
657.796	1279.92
658.147	1293.93
658.498	1262.98
658.849	1285.8
659.2	1282.86
659.551	1280.38
659.902	1287.61
660.253	1288.06
660.604	1312.69
660.955	1286.25
661.306	1303.43
661.656	1292.13
662.007	1303.88
662.358	1316.53
662.708	1344.56
663.059	1345.01
663.409	1342.52
663.76	1348.85
664.11	1354.5
664.461	1361.28
664.811	1340.71
665.161	1347.49
665.511	1362.63
665.862	1389.3
666.212	1395.4
666.562	1406.7
666.912	1429.98
667.262	1401.5
667.612	1407.6
667.962	1443.99
668.312	1427.26
668.662	1436.98
669.011	1413.48
669.361	1476.53
669.711	1476.3
670.06	1474.5
670.41	1501.61
670.76	1496.19
671.109	1504.55
671.459	1506.36
671.808	1521.05
672.157	1514.49
672.507	1532.8
672.856	1548.84
673.205	1541.39
673.554	1574.61
673.904	1585.68
674.253	1629.29
674.602	1622.74
674.951	1608.5
675.3	1631.33
675.649	1617.77
675.998	1631.78
676.346	1652.12
676.695	1666.35
677.044	1689.18
677.393	1672.46
677.741	1684.66
678.09	1703.42
678.438	1743.87
678.787	1733.25
679.135	1740.02
679.484	1748.84
679.832	1780.02
680.181	1793.81
680.529	1799.68
680.877	1782.96
681.225	1790.65
681.573	1811.44
681.922	1836.75
682.27	1860.7
682.618	1886.01
682.966	1861.6
683.314	1884.88
683.661	1883.3
684.009	1917.42
684.357	1947.48
684.705	1970.3
685.053	1953.13
685.4	1979.57
685.748	2000.36
686.095	1998.32
686.443	2019.34
686.79	2028.6
687.138	2029.06
687.485	2077.64
687.832	2075.16
688.18	2119.22
688.527	2096.63
688.874	2136.62
689.221	2130.75
689.568	2159.22
689.915	2173.69
690.262	2175.95
690.609	2181.37
690.956	2214.14
691.303	2231.99
691.65	2229.5
691.997	2252.55
692.344	2293.23
692.69	2278.99
693.037	2299.33
693.383	2325.77
693.73	2315.6
694.077	2357.64
694.423	2328.94
694.769	2373.45
695.116	2410.97
695.462	2376.17
695.808	2412.55
696.155	2432.66
696.501	2435.83
696.847	2474.47
697.193	2476.28
697.539	2481.02
697.885	2493.68
698.231	2485.09
698.577	2529.61
698.923	2546.56
699.269	2542.72
699.614	2579.55
699.96	2555.37
700.306	2572.55
700.651	2574.35
700.997	2622.04
701.342	2642.83
701.688	2628.36
702.033	2661.81
702.379	2688.47
702.724	2702.49
703.069	2707.23
703.415	2731.64
703.76	2717.85
704.105	2791.97
704.45	2773.44
704.795	2789.49
705.14	2801.92
705.485	2757.4
705.83	2821.13
706.175	2857.74
706.52	2831.75
706.865	2881.69
707.209	2872.65
707.554	2878.07
707.899	2892.76
708.243	2922.82
708.588	2910.62
708.932	2945.42
709.277	2958.07
709.621	3005.75
709.966	2966.43
710.31	2991.29
710.654	3001.91
710.998	3029.48
711.342	2997.17
711.687	3047.11
712.031	3035.81
712.375	3069.26
712.719	3059.99
713.063	3103.15
713.407	3092.53
713.75	3102.25
714.094	3082.36
714.438	3127.78
714.782	3144.51
715.125	3153.32
715.469	3177.28
715.812	3178.86
716.156	3173.43
716.499	3160.55
716.843	3181.12
717.186	3183.6
717.53	3222.02
717.873	3251.4
718.216	3244.62
718.559	3242.81
718.902	3246.2
719.246	3262.02
719.589	3256.14
719.932	3268.12
720.275	3285.29
720.617	3317.61
720.96	3324.16
721.303	3331.4
721.646	3336.14
721.989	3315.8
722.331	3334.56
722.674	3341.11
723.016	3336.82
723.359	3337.05
723.701	3348.57
724.044	3347.89
724.386	3361
724.729	3357.16
725.071	3379.98
725.413	3376.14
725.755	3405.29
726.097	3417.04
726.439	3341.34
726.782	3385.18
727.124	3363.94
727.465	3458.4
727.807	3432.64
728.149	3432.41
728.491	3403.03
728.833	3432.41
729.175	3389.92
729.516	3453.43
729.858	3440.09
730.199	3407.55
730.541	3432.64
730.882	3473.31
731.224	3447.1
731.565	3449.81
731.906	3441
732.248	3472.18
732.589	3431.05
732.93	3466.53
733.271	3431.73
733.612	3481.22
733.953	3496.14
734.294	3469.7
734.635	3499.98
734.976	3465.86
735.317	3453.2
735.658	3446.65
735.999	3481.9
736.339	3454.33
736.68	3459.98
737.021	3451.17
737.361	3493.43
737.702	3464.5
738.042	3453.2
738.383	3471.5
738.723	3508.57
739.063	3494.33
739.404	3458.85
739.744	3472.41
740.084	3439.87
740.424	3498.62
740.764	3507.66
741.104	3478.51
741.444	3500.43
741.784	3462.24
742.124	3468.79
742.464	3463.6
742.804	3509.02
743.143	3447.32
743.483	3462.47
743.823	3451.62
744.162	3400.09
744.502	3483.93
744.841	3452.07
745.181	3476.7
745.52	3488.23
745.86	3443.48
746.199	3436.25
746.538	3450.94
746.877	3450.04
747.216	3456.82
747.556	3450.71
747.895	3444.16
748.234	3412.98
748.573	3419.53
748.911	3393.09
749.25	3450.26
749.589	3392.41
749.928	3400.09
750.267	3424.95
750.605	3405.97
750.944	3430.83
751.283	3419.75
751.621	3396.48
751.96	3385.18
752.298	3417.49
752.636	3362.13
752.975	3375.69
753.313	3355.12
753.651	3351.28
753.989	3361.68
754.327	3373.43
754.666	3375.24
755.004	3386.08
755.342	3367.33
755.679	3341.11
756.017	3314.9
756.355	3316.25
756.693	3307.89
757.031	3330.27
757.368	3344.5
757.706	3327.55
758.044	3294.56
758.381	3303.15
758.719	3324.62
759.056	3304.5
759.394	3303.6
759.731	3308.57
760.068	3277.39
760.405	3245.3
760.743	3295.92
761.08	3222.7
761.417	3237.16
761.754	3226.99
762.091	3235.8
762.428	3210.49
762.765	3203.49
763.102	3194
763.438	3215.69
763.775	3210.49
764.112	3169.59
764.449	3163.04
764.785	3165.98
765.122	3163.72
765.458	3143.6
765.795	3160.55
766.131	3092.31
766.467	3127.33
766.804	3103.83
767.14	3095.02
767.476	3120.1
767.812	3103.38
768.148	3088.46
768.485	3040.1
768.821	3059.99
769.157	3048.01
769.492	3055.92
769.828	3053.66
770.164	3039.65
770.5	2998.3
770.836	3010.05
771.171	3004.17
771.507	3021.57
771.842	2993.78
772.178	3015.92
772.513	2964.17
772.849	2962.37
773.184	2967.79
773.519	2966.43
773.855	2946.55
774.19	2933.67
774.525	2917.17
774.86	2892.76
775.195	2894.57
775.53	2916.94
775.865	2902.25
776.2	2859.77
776.535	2886.21
776.87	2882.37
777.205	2830.84
777.539	2811.64
777.874	2821.13
778.209	2804.86
778.543	2832.88
778.878	2817.51
779.212	2762.14
779.547	2779.32
779.881	2768.02
780.215	2741.13
780.55	2752.88
780.884	2753.11
781.218	2768.02
781.552	2751.52
781.886	2757.63
782.22	2689.38
782.554	2679.66
782.888	2675.14
783.222	2676.27
783.556	2679.44
783.889	2669.49
784.223	2681.24
784.557	2666.78
784.89	2637.85
785.224	2622.71
785.557	2605.09
785.891	2597.63
786.224	2633.33
786.558	2661.58
786.891	2585.2
787.224	2597.4
787.557	2579.78
787.891	2577.52
788.224	2561.92
788.557	2587.46
788.89	2533
789.223	2557.86
789.556	2553.34
789.888	2558.31
790.221	2549.5
790.554	2495.03
790.887	2514.24
791.219	2517.41
791.552	2520.34
791.884	2480.12
792.217	2479.67
792.549	2446.45
792.882	2423.85
793.214	2465.66
793.546	2454.58
793.879	2432.66
794.211	2404.41
794.543	2409.39
794.875	2415.04
795.207	2440.35
795.539	2424.75
795.871	2423.62
796.203	2389.95
796.535	2376.17
796.867	2371.87
797.198	2349.95
797.53	2375.04
797.862	2349.05
798.193	2340.69
798.525	2369.39
798.856	2367.13
799.188	2352.44
799.519	2363.74
799.85	2323.96
800.182	2323.06
800.513	2284.42
800.844	2314.7
801.175	2295.49
801.506	2309.5
801.837	2332.33
802.168	2285.77
802.499	2278.32
802.83	2276.73
803.161	2280.8
803.491	2249.84
803.822	2282.38
804.153	2279.22
804.483	2255.27
804.814	2276.96
805.145	2268.37
805.475	2242.16
805.805	2246.68
806.136	2234.25
806.466	2248.71
806.796	2222.72
807.126	2205.55
807.457	2200.35
807.787	2196.06
808.117	2206
808.447	2208.49
808.777	2184.76
809.107	2174.59
809.436	2197.87
809.766	2170.07
810.096	2188.15
810.426	2161.03
810.755	2176.85
811.085	2160.35
811.414	2136.4
811.744	2131.65
812.073	2137.98
812.403	2134.82
812.732	2094.59
813.061	2143.4
813.39	2099.79
813.719	2128.26
814.049	2094.59
814.378	2099.34
814.707	2104.54
815.036	2129.85
815.365	2081.03
815.693	2079.22
816.022	2083.74
816.351	2088.04
816.68	2078.1
817.008	2061.82
817.337	2069.28
817.665	2041.49
817.994	2034.93
818.322	2107.47
818.651	2024.31
818.979	2029.06
819.307	2055.5
819.636	2051.43
819.964	2040.81
820.292	2020.92
820.62	2015.27
820.948	2020.7
821.276	2030.41
821.604	2021.83
821.932	2052.33
822.259	2051.66
822.587	2008.94
822.915	2021.37
823.243	2019.57
823.57	2064.99
823.898	2042.84
824.225	2008.04
824.553	1994.03
824.88	2006.46
825.207	2042.39
825.535	2015.72
825.862	2037.19
826.189	2001.49
826.516	2033.58
826.843	2029.06
827.17	2033.12
827.497	2022.96
827.824	2020.47
828.151	1993.13
828.478	1989.28
828.805	2024.76
829.131	2034.93
829.458	1966.23
829.785	1994.93
830.111	1997.65
830.438	2024.09
830.764	2019.11
831.09	2011.2
831.417	1975.95
831.743	2031.77
832.069	1970.53
832.395	2019.57
832.722	2012.33
833.048	1991.09
833.374	1974.59
833.7	1982.28
834.026	1986.12
834.351	2027.7
834.677	1976.4
835.003	1971.66
835.329	1949.74
835.654	2003.52
835.98	1991.77
836.306	1952.9
836.631	1965.33
836.956	1991.09
837.282	1952.9
837.607	1985.22
837.932	1945.67
838.258	1954.48
838.583	1946.12
838.908	1940.47
839.233	1947.25
839.558	1942.51
839.883	1920.59
840.208	1952
840.533	1958.78
840.858	1943.41
841.182	1950.41
841.507	1951.09
841.832	1948.15
842.156	1923.3
842.481	1952.45
842.805	1930.08
843.13	1916.29
843.454	1942.28
843.778	1938.89
844.103	1891.89
844.427	1874.94
844.751	1898.89
845.075	1919.91
845.399	1921.26
845.723	1891.89
846.047	1891.89
846.371	1855.95
846.695	1897.99
847.019	1834.26
847.343	1832.23
847.666	1832
847.99	1815.96
848.313	1847.59
848.637	1831.1
848.96	1855.28
849.284	1828.84
849.607	1814.37
849.931	1806.24
850.254	1780.7
850.577	1796.97
850.9	1820.02
851.223	1769.18
851.546	1779.57
851.869	1796.52
852.192	1788.61
852.515	1768.05
852.838	1786.58
853.161	1784.09
853.483	1755.84
853.806	1746.8
854.129	1749.52
854.451	1756.3
854.774	1733.47
855.096	1730.99
855.419	1721.72
855.741	1739.8
856.063	1716.3
856.385	1702.96
856.708	1712.23
857.03	1718.78
857.352	1708.84
857.674	1661.38
857.996	1672.23
858.318	1692.12
858.64	1651.44
858.961	1672.91
859.283	1681.95
859.605	1687.6
859.926	1679.24
860.248	1663.42
860.57	1657.54
860.891	1669.74
861.212	1662.29
861.534	1643.08
861.855	1634.26
862.176	1670.2
862.498	1656.41
862.819	1674.72
863.14	1666.81
863.461	1615.28
863.782	1643.08
864.103	1638.33
864.424	1621.84
864.745	1626.13
865.065	1625.45
865.386	1622.29
865.707	1613.7
866.027	1612.12
866.348	1626.58
866.668	1599.24
866.989	1614.6
867.309	1606.92
867.63	1584.55
867.95	1587.94
868.27	1599.01
868.59	1590.65
868.91	1611.67
869.23	1623.42
869.55	1582.74
869.87	1586.81
870.19	1589.97
870.51	1603.31
870.83	1601.95
871.15	1579.35
871.469	1573.7
871.789	1568.73
872.109	1572.8
872.428	1596.53
872.748	1584.55
873.067	1569.18
873.386	1610.31
873.706	1589.75
874.025	1557.43
874.344	1566.92
874.663	1544.32
874.982	1574.38
875.301	1575.51
875.62	1567.37
875.939	1554.72
876.258	1565.79
876.577	1549.3
876.896	1541.39
877.214	1556.75
877.533	1545.23
877.852	1538.45
878.17	1567.37
878.489	1534.38
878.807	1557.88
879.125	1539.35
879.444	1545.23
879.762	1514.72
880.08	1535.51
880.398	1531.67
880.716	1528.51
881.034	1525.57
881.352	1545.91
881.67	1528.96
881.988	1498.22
882.306	1540.93
882.624	1535.51
882.941	1508.62
883.259	1521.27
883.577	1505.23
883.894	1500.94
884.212	1520.14
884.529	1494.83
884.846	1506.81
885.164	1482.4
885.481	1501.16
885.798	1495.29
886.115	1483.99
886.432	1496.19
886.75	1470.65
887.067	1486.92
887.383	1459.58
887.7	1482.86
888.017	1447.38
888.334	1485.57
888.651	1476.75
888.967	1457.55
889.284	1434.27
889.6	1445.8
889.917	1447.38
890.233	1443.08
890.55	1457.32
890.866	1447.83
891.182	1427.26
891.498	1422.52
891.815	1434.27
892.131	1439.02
892.447	1413.03
892.763	1410.99
893.079	1380.71
893.395	1411.67
893.71	1413.25
894.026	1383.88
894.342	1397.21
894.657	1377.77
894.973	1370.77
895.289	1396.98
895.604	1388.85
895.92	1387.04
896.235	1358.57
896.55	1375.74
896.865	1341.39
897.181	1310.66
897.496	1378.45
897.811	1371
898.126	1381.39
898.441	1378.23
898.756	1356.08
899.071	1338.91
899.386	1328.06
899.7	1359.02
900.015	1328.06
900.33	1314.05
900.644	1333.03
900.959	1352.46
901.273	1296.87
901.588	1332.35
901.902	1312.24
902.216	1304.78
902.531	1278.12
902.845	1320.83
903.159	1319.92
903.473	1293.71
903.787	1291
904.101	1302.75
904.415	1319.47
904.729	1298.91
905.042	1293.93
905.356	1266.37
905.67	1270.21
905.984	1283.77
906.297	1254.39
906.611	1262.75
906.924	1279.25
907.237	1233.6
907.551	1259.13
907.864	1248.51
908.177	1238.57
908.491	1256.87
908.804	1255.29
909.117	1252.35
909.43	1234.95
909.743	1215.07
910.056	1224.33
910.368	1227.95
910.681	1221.39
910.994	1198.34
911.307	1216.42
911.619	1182.75
911.932	1196.76
912.244	1177.33
912.557	1192.69
912.869	1208.51
913.181	1208.97
913.494	1180.04
913.806	1168.06
914.118	1176.2
914.43	1160.38
914.742	1154.96
915.054	1154.96
915.366	1150.44
915.678	1164.9
915.99	1132.58
916.302	1133.04
916.613	1152.7
916.925	1148.18
917.236	1157.44
917.548	1127.84
917.859	1142.53
918.171	1126.71
918.482	1106.82
918.794	1121.28
919.105	1115.86
919.416	1124.67
919.727	1131
920.038	1102.08
920.349	1116.54
920.66	1059.36
920.971	1122.64
921.282	1106.82
921.593	1066.37
921.903	1071.79
922.214	1098.01
922.525	1085.8
922.835	1084.67
923.146	1036.77
923.456	1069.53
923.767	1073.38
924.077	1059.14
924.387	1081.74
924.697	1043.55
925.008	1037.9
925.318	1060.27
925.628	1065.01
925.938	1060.04
926.248	1037.67
926.558	1036.77
926.867	1049.42
927.177	1021.17
927.487	1038.12
927.796	1029.54
928.106	1039.03
928.416	1021.85
928.725	1003.77
929.034	1016.88
929.344	1021.63
929.653	1017.78
929.962	1016.88
930.271	996.32
930.581	1004.45
930.89	982.98
931.199	994.06
931.508	971.01
931.817	989.54
932.125	1009.2
932.434	1008.74
932.743	988.18
933.051	983.66
933.36	954.96
933.669	975.75
933.977	984.79
934.286	970.55
934.594	960.16
934.902	957.22
935.21	952.02
935.519	966.03
935.827	952.93
936.135	957.67
936.443	921.74
936.751	930.78
937.059	949.31
937.367	932.36
937.674	946.15
937.982	971.01
938.29	928.97
938.597	925.58
938.905	906.15
939.213	930.55
939.52	928.52
939.827	924.68
940.135	902.31
940.442	934.17
940.749	919.26
941.056	936.43
941.363	921.06
941.67	896.43
941.977	903.21
942.284	894.17
942.591	914.74
942.898	897.56
943.205	901.85
943.511	895.53
943.818	872.7
944.125	882.19
944.431	870.22
944.738	865.25
945.044	875.87
945.35	873.16
945.657	870.9
945.963	877.67
946.269	859.14
946.575	861.63
946.881	865.02
947.187	858.69
947.493	839.48
947.799	853.27
948.105	829.54
948.41	860.05
948.716	840.16
949.022	842.42
949.327	827.05
949.633	823.44
949.938	828.18
950.244	820.73
950.549	824.57
950.854	828.41
951.16	818.24
951.465	808.98
951.77	822.76
952.075	805.36
952.38	802.65
952.685	823.21
952.99	803.78
953.294	828.41
953.599	808.75
953.904	820.95
954.209	819.6
954.513	824.57
954.818	823.44
955.122	785.93
955.426	810.11
955.731	788.64
956.035	797.45
956.339	798.81
956.643	780.05
956.948	788.41
957.252	785.02
957.556	776.89
957.86	787.28
958.163	793.61
958.467	751.58
958.771	776.89
959.075	770.78
959.378	770.78
959.682	753.38
959.985	753.61
960.289	760.84
960.592	769.43
960.896	743.44
961.199	756.32
961.502	770.56
961.805	742.09
962.108	743.21
962.411	752.25
962.714	747.96
963.017	734.63
963.32	740.96
963.623	712.03
963.926	745.7
964.228	747.28
964.531	714.06
964.833	739.15
965.136	756.32
965.438	716.1
965.741	737.11
966.043	728.98
966.345	730.11
966.648	725.14
966.95	717.9
967.252	701.86
967.554	699.6
967.856	726.49
968.158	733.05
968.46	721.07
968.761	719.71
969.063	703.22
969.365	721.52
969.666	686.72
969.968	699.83
970.269	679.71
970.571	691.92
970.872	673.16
971.174	675.19
971.475	659.38
971.776	684.91
972.077	657.57
972.378	705.48
972.679	686.49
972.98	690.33
973.281	687.4
973.582	677.45
973.883	652.14
974.183	677
974.484	680.39
974.785	691.24
975.085	667.51
975.386	670.9
975.686	655.53
975.986	663.22
976.287	648.75
976.587	662.09
976.887	654.4
977.187	644.46
977.487	677.68
977.787	665.93
978.087	647.85
978.387	650.56
978.687	631.58
978.987	651.92
979.286	653.95
979.586	630.45
979.885	633.84
980.185	643.78
980.484	618.7
980.784	635.2
981.083	643.56
981.382	634.97
981.682	636.1
981.981	624.35
982.28	631.58
982.579	614.18
982.878	638.36
983.177	620.05
983.475	614.63
983.774	606.04
984.073	620.05
984.372	630.45
984.67	633.61
984.969	626.61
985.267	620.73
985.566	622.54
985.864	596.1
986.162	620.96
986.461	589.55
986.759	611.92
987.057	582.77
987.355	592.71
987.653	624.12
987.951	611.24
988.249	585.48
988.547	599.26
988.844	585.25
989.142	592.48
989.44	590.9
989.737	616.44
990.035	597.23
990.332	575.31
990.63	593.16
990.927	590.45
991.224	565.14
991.521	591.58
991.819	582.99
992.116	577.57
992.413	575.76
992.71	592.48
993.006	600.85
993.303	558.81
993.6	574.86
993.897	599.94
994.193	597.23
994.49	544.35
994.787	559.72
995.083	570.56
995.379	592.03
995.676	582.99
995.972	545.93
996.268	569.21
996.565	561.3
996.861	561.75
997.157	568.08
997.453	536.67
997.749	563.11
998.044	553.62
998.34	561.3
998.636	543.67
998.932	529.44
999.227	544.35
999.523	541.41
999.818	545.03
1000.114	527.63
1000.409	547.97
1000.704	522.66
1001	529.21
1001.295	516.78
1001.59	526.72
1001.885	529.66
1002.18	558.14
1002.475	521.53
1002.77	519.72
1003.065	535.76
1003.359	519.94
1003.654	505.71
1003.949	519.27
1004.243	528.98
1004.538	535.31
1004.832	547.74
1005.127	547.51
1005.421	530.57
1005.715	526.5
1006.009	529.44
1006.304	511.58
1006.598	531.24
1006.892	502.54
1007.186	507.06
1007.48	518.81
1007.773	507.74
1008.067	522.66
1008.361	521.3
1008.655	520.17
1008.948	498.93
1009.242	493.28
1009.535	512.49
1009.829	503
1010.122	481.07
1010.415	498.48
1010.708	472.04
1011.001	503
1011.295	492.37
1011.588	467.52
1011.881	490.79
1012.173	481.53
1012.466	493.73
1012.759	491.47
1013.052	484.01
1013.344	480.85
1013.637	496.89
1013.93	487.18
1014.222	490.79
1014.514	460.96
1014.807	488.53
1015.099	468.19
1015.391	472.26
1015.683	462.54
1015.976	484.69
1016.268	474.3
1016.56	455.31
1016.851	467.52
1017.143	462.77
1017.435	452.83
1017.727	469.1
1018.018	457.57
1018.31	472.04
1018.602	464.35
1018.893	460.28
1019.185	477.69
1019.476	453.73
1019.767	457.35
1020.058	456.67
1020.35	447.63
1020.641	449.89
1020.932	440.62
1021.223	447.18
1021.514	452.15
1021.804	461.64
1022.095	430.23
1022.386	446.5
1022.677	465.03
1022.967	482.43
1023.258	434.07
1023.548	464.58
1023.839	456.89
1024.129	450.57
1024.419	445.14
1024.709	439.72
1025	446.5
1025.29	425.48
1025.58	451.47
1025.87	432.04
1026.16	434.75
1026.449	436.56
1026.739	439.27
1027.029	435.65
1027.319	434.3
1027.608	433.17
1027.898	415.09
1028.187	441.08
1028.477	441.08
1028.766	435.65
1029.055	437.91
1029.344	429.32
1029.634	424.35
1029.923	418.7
1030.212	452.83
1030.501	427.07
1030.79	410.57
1031.078	407.4
1031.367	401.08
1031.656	407.63
1031.945	416.9
1032.233	420.06
1032.522	400.85
1032.81	416.9
1033.099	402.88
1033.387	383.45
1033.675	422.77
1033.963	404.01
1034.251	395.88
1034.54	406.5
1034.828	414.86
1035.116	399.5
1035.403	408.76
1035.691	434.97
1035.979	392.49
1036.267	412.15
1036.554	391.59
1036.842	401.08
1037.129	390.23
1037.417	423.9
1037.704	399.5
1037.992	393.62
1038.279	408.76
1038.566	385.26
1038.853	385.26
1039.14	385.26
