Data from carpet_green_FLMS001491_00096.txt Node
Date: Wed Feb 08 10:36:08 GMT 2017
User: dcchb
Spectrometer: FLMS00149
Trigger mode: 0
Integration Time (sec): 2.000000E-2
Scans to average: 10
Electric dark correction enabled: true
Nonlinearity correction enabled: false
Boxcar width: 0
XAxis mode: Wavelengths
Number of Pixels in Spectrum: 2048
>>>>>Begin Spectral Data<<<<<
341.393	-15.24
341.776	-15.24
342.16	-15.24
342.543	-69.48
342.927	-52.07
343.31	-70.38
343.693	-66.09
344.077	-60.21
344.46	-43.26
344.843	-48.46
345.226	-23.38
345.61	-37.61
345.993	-27.22
346.376	-19.76
346.759	2.39
347.142	30.18
347.525	34.93
347.908	63.63
348.291	87.81
348.674	73.35
349.057	104.08
349.44	146.79
349.823	127.58
350.206	159.22
350.588	177.75
350.971	189.95
351.354	200.8
351.737	208.94
352.119	242.15
352.502	248.26
352.884	250.52
353.267	255.04
353.65	273.34
354.032	271.53
354.414	285.77
354.797	281.7
355.179	280.57
355.562	311.98
355.944	312.44
356.326	319.89
356.709	291.87
357.091	302.49
357.473	300.46
357.855	321.7
358.238	306.56
358.62	321.93
359.002	317.18
359.384	312.89
359.766	302.04
360.148	308.37
360.53	323.96
360.912	302.94
361.294	302.94
361.676	296.84
362.057	315.83
362.439	300.91
362.821	308.82
363.203	293.23
363.584	299.78
363.966	310.18
364.348	294.36
364.729	304.3
365.111	291.42
365.493	293.9
365.874	301.59
366.256	270.85
366.637	287.58
367.019	284.64
367.4	276.73
367.781	297.07
368.163	273.57
368.544	276.05
368.925	288.71
369.306	263.62
369.688	288.48
370.069	299.33
370.45	267.01
370.831	301.36
371.212	302.27
371.593	290.29
371.974	275.6
372.355	253.23
372.736	271.53
373.117	275.37
373.498	276.5
373.879	277.18
374.26	272.21
374.641	284.19
375.021	296.62
375.402	285.09
375.783	293.9
376.163	266.79
376.544	270.18
376.925	289.61
377.305	276.05
377.686	297.07
378.066	295.49
378.447	300.01
378.827	292.77
379.208	288.26
379.588	277.41
379.968	282.83
380.349	301.14
380.729	276.96
381.109	296.84
381.489	303.17
381.87	301.81
382.25	303.17
382.63	282.15
383.01	304.3
383.39	300.68
383.77	298.65
384.15	317.18
384.53	286.67
384.91	303.4
385.29	320.8
385.67	290.06
386.049	285.09
386.429	316.05
386.809	313.34
387.189	316.28
387.568	293.9
387.948	306.56
388.328	311.08
388.707	308.14
389.087	297.52
389.466	321.02
389.846	291.87
390.225	318.31
390.605	307.92
390.984	281.02
391.363	304.07
391.743	328.03
392.122	299.55
392.501	269.72
392.881	303.4
393.26	309.05
393.639	324.19
394.018	314.47
394.397	305.43
394.776	305.88
395.155	301.81
395.534	314.24
395.913	287.13
396.292	312.44
396.671	304.98
397.05	307.69
397.429	307.01
397.808	324.19
398.186	309.72
398.565	330.97
398.944	322.38
399.323	301.59
399.701	317.18
400.08	337.97
400.458	323.28
400.837	330.06
401.215	313.57
401.594	298.42
401.972	317.18
402.351	333
402.729	306.11
403.107	339.33
403.486	320.57
403.864	307.24
404.242	315.37
404.62	316.73
404.999	321.25
405.377	330.29
405.755	313.34
406.133	321.7
406.511	318.54
406.889	307.92
407.267	330.51
407.645	333.68
408.023	343.39
408.401	335.71
408.779	320.57
409.156	305.43
409.534	328.25
409.912	314.7
410.29	329.84
410.667	332.77
411.045	324.19
411.422	336.84
411.8	339.78
412.178	328.03
412.555	344.07
412.933	333.45
413.31	320.57
413.687	364.41
414.065	350.17
414.442	328.25
414.819	343.62
415.197	343.62
415.574	366.9
415.951	343.39
416.328	345.2
416.705	364.64
417.082	353.11
417.46	365.77
417.837	335.71
418.214	335.94
418.591	368.48
418.967	355.37
419.344	345.43
419.721	338.88
420.098	344.75
420.475	347.91
420.852	354.92
421.228	343.17
421.605	369.16
421.982	367.12
422.358	372.09
422.735	356.28
423.111	363.06
423.488	361.47
423.864	349.27
424.241	378.65
424.617	384.07
424.994	347.69
425.37	344.3
425.746	381.36
426.123	384.3
426.499	361.25
426.875	365.32
427.251	376.84
427.627	378.87
428.003	380.91
428.379	376.39
428.756	365.54
429.132	400.79
429.507	388.14
429.883	407.35
430.259	391.53
430.635	405.09
431.011	380.46
431.387	385.2
431.763	404.41
432.138	412.55
432.514	411.19
432.89	395.6
433.265	396.27
433.641	380.23
434.016	405.54
434.392	434.01
434.767	395.37
435.143	413.9
435.518	412.55
435.894	404.18
436.269	423.39
436.644	387.91
437.02	412.09
437.395	436.27
437.77	436.27
438.145	429.72
438.52	419.33
438.895	433.34
439.271	431.53
439.646	427.69
440.021	445.54
440.395	449.83
440.77	422.04
441.145	426.56
441.52	448.02
441.895	437.4
442.27	435.82
442.645	442.83
443.019	446.9
443.394	445.54
443.769	471.75
444.143	422.49
444.518	449.38
444.892	455.93
445.267	445.09
445.641	454.58
446.016	460.68
446.39	430.85
446.764	431.98
447.139	450.06
447.513	446.67
447.887	458.19
448.262	450.28
448.636	470.85
449.01	439.21
449.384	460.23
449.758	485.09
450.132	471.53
450.506	471.75
450.88	454.58
451.254	491.87
451.628	463.17
452.002	473.34
452.376	462.94
452.75	459.55
453.123	506.78
453.497	504.52
453.871	499.32
454.244	485.31
454.618	510.17
454.992	521.24
455.365	507.91
455.739	505.42
456.112	506.78
456.486	507.91
456.859	530.51
457.232	534.35
457.606	537.06
457.979	510.62
458.352	543.62
458.725	542.71
459.099	546.33
459.472	545.2
459.845	560.11
460.218	556.72
460.591	532.54
460.964	556.04
461.337	563.73
461.71	602.6
462.083	568.25
462.456	571.64
462.829	574.8
463.201	576.16
463.574	561.92
463.947	591.52
464.32	575.48
464.692	612.99
465.065	595.59
465.438	606.66
465.81	597.85
466.183	612.99
466.555	629.04
466.928	616.83
467.3	640.11
467.672	627.23
468.045	635.36
468.417	651.41
468.789	653.67
469.161	676.72
469.534	662.93
469.906	656.38
470.278	678.98
470.65	677.4
471.022	692.76
471.394	685.98
471.766	729.37
472.138	691.18
472.51	709.04
472.882	726.44
473.253	711.07
473.625	724.63
473.997	741.58
474.369	755.14
474.74	760.56
475.112	724.63
475.484	768.47
475.855	774.34
476.227	780.22
476.598	799.65
476.97	812.54
477.341	840.11
477.713	838.3
478.084	818.64
478.455	860.67
478.827	861.12
479.198	871.29
479.569	874.91
479.94	877.84
480.311	876.71
480.682	910.39
481.053	949.93
481.424	930.72
481.795	934.11
482.166	944.96
482.537	966.2
482.908	946.77
483.279	970.72
483.65	1012.3
484.021	1025.86
484.391	1038.74
484.762	1055.47
485.133	1068.8
485.503	1087.78
485.874	1099.99
486.244	1099.53
486.615	1097.27
486.985	1109.02
487.356	1123.94
487.726	1132.07
488.097	1139.98
488.467	1158.06
488.837	1158.29
489.207	1201.68
489.578	1191.73
489.948	1199.87
490.318	1222.69
490.688	1208.91
491.058	1230.83
491.428	1267.89
491.798	1279.64
492.168	1277.83
492.538	1258.17
492.908	1333.65
493.278	1294.1
493.648	1311.96
494.017	1325.97
494.387	1342.46
494.757	1343.82
495.126	1345.18
495.496	1371.39
495.866	1388.57
496.235	1394.21
496.605	1422.24
496.974	1407.55
497.344	1429.47
497.713	1428.56
498.082	1457.26
498.452	1455.23
498.821	1439.19
499.19	1438.06
499.559	1479.86
499.928	1490.03
500.298	1489.35
500.667	1465.63
501.036	1458.85
501.405	1498.39
501.774	1512.86
502.143	1522.8
502.512	1530.03
502.88	1504.95
503.249	1546.98
503.618	1564.83
503.987	1523.7
504.356	1570.93
504.724	1579.52
505.093	1570.71
505.462	1577.49
505.83	1586.98
506.199	1606.41
506.567	1636.24
506.936	1618.39
507.304	1652.29
507.672	1686.64
508.041	1645.96
508.409	1640.54
508.777	1664.49
509.145	1678.28
509.514	1698.16
509.882	1691.16
510.25	1671.72
510.618	1698.16
510.986	1718.73
511.354	1699.29
511.722	1727.09
512.09	1737.26
512.458	1732.51
512.826	1744.94
513.193	1781.32
513.561	1779.74
513.929	1786.07
514.297	1789.46
514.664	1800.31
515.032	1785.16
515.4	1804.6
515.767	1821.32
516.135	1831.94
516.502	1797.14
516.869	1824.71
517.237	1850.25
517.604	1847.54
517.972	1840.08
518.339	1852.96
518.706	1892.05
519.073	1852.73
519.44	1883.02
519.808	1884.37
520.175	1865.84
520.542	1909
520.909	1909.91
521.276	1929.79
521.643	1927.08
522.009	1939.51
522.376	1973.41
522.743	1963.69
523.11	1986.52
523.477	2000.75
523.843	1978.15
524.21	2030.58
524.577	1983.13
524.943	2023.35
525.31	2036.91
525.676	2013.41
526.043	2047.98
526.409	2073.29
526.776	2066.74
527.142	2095.89
527.508	2068.55
527.874	2132.5
528.241	2093.63
528.607	2139.05
528.973	2157.13
529.339	2108.77
529.705	2099.96
530.071	2123.69
530.437	2121.43
530.803	2132.05
531.169	2158.71
531.535	2165.27
531.901	2200.75
532.267	2163.91
532.632	2176.34
532.998	2189.45
533.364	2189.9
533.73	2178.6
534.095	2164.36
534.461	2181.54
534.826	2213.4
535.192	2195.32
535.557	2203.68
535.923	2200.07
536.288	2196.68
536.653	2200.3
537.019	2202.33
537.384	2211.82
537.749	2251.59
538.114	2234.64
538.479	2209.33
538.845	2211.59
539.21	2228.54
539.575	2243.23
539.94	2205.27
540.305	2213.18
540.67	2236.68
541.034	2259.95
541.399	2262.89
541.764	2249.11
542.129	2268.77
542.494	2211.37
542.858	2275.32
543.223	2263.34
543.587	2275.32
543.952	2267.41
544.316	2250.46
544.681	2243.46
545.045	2271.71
545.41	2242.55
545.774	2298.15
546.138	2248.88
546.503	2298.6
546.867	2284.13
547.231	2280.07
547.595	2288.43
547.959	2303.8
548.324	2267.64
548.688	2300.86
549.052	2312.38
549.416	2265.38
549.779	2319.84
550.143	2316.68
550.507	2283.46
550.871	2316
551.235	2324.59
551.599	2328.43
551.962	2306.28
552.326	2311.7
552.689	2354.19
553.053	2322.1
553.417	2304.47
553.78	2370.69
554.143	2356.45
554.507	2374.75
554.87	2359.84
555.234	2388.31
555.597	2366.84
555.96	2337.01
556.323	2356.9
556.686	2360.52
557.05	2384.25
557.413	2377.92
557.776	2367.97
558.139	2372.27
558.502	2380.63
558.865	2409.33
559.228	2417.46
559.59	2430.12
559.953	2410.69
560.316	2417.46
560.679	2413.17
561.041	2417.24
561.404	2453.4
561.767	2450.01
562.129	2438.93
562.492	2429.67
562.854	2473.28
563.217	2452.27
563.579	2471.25
563.941	2470.34
564.304	2478.93
564.666	2470.12
565.028	2465.37
565.39	2462.21
565.753	2493.39
566.115	2498.82
566.477	2519.38
566.839	2490.23
567.201	2496.33
567.563	2534.07
567.925	2499.04
568.287	2528.87
568.648	2540.4
569.01	2552.6
569.372	2535.43
569.734	2569.33
570.095	2573.62
570.457	2529.55
570.819	2562.09
571.18	2548.53
571.542	2566.39
571.903	2559.38
572.265	2563.22
572.626	2572.04
572.987	2557.35
573.349	2559.16
573.71	2579.27
574.071	2554.64
574.432	2576.56
574.794	2597.12
575.155	2600.51
575.516	2584.69
575.877	2596.89
576.238	2579.04
576.599	2595.77
576.96	2560.29
577.32	2533.62
577.681	2582.66
578.042	2583.79
578.403	2613.39
578.763	2594.86
579.124	2562.09
579.485	2578.82
579.845	2556.9
580.206	2558.03
580.566	2548.99
580.927	2547.18
581.287	2547.4
581.648	2553.73
582.008	2562.32
582.368	2572.04
582.728	2563.9
583.089	2531.81
583.449	2499.04
583.809	2549.89
584.169	2531.36
584.529	2526.39
584.889	2528.42
585.249	2524.58
585.609	2552.38
585.969	2548.76
586.329	2521.42
586.688	2543.34
587.048	2511.7
587.408	2510.12
587.768	2496.33
588.127	2498.14
588.487	2544.69
588.846	2547.18
589.206	2499.27
589.565	2507.86
589.925	2552.15
590.284	2513.73
590.643	2537.69
591.003	2508.31
591.362	2502.43
591.721	2501.3
592.08	2530.23
592.44	2538.14
592.799	2493.85
593.158	2484.58
593.517	2471.25
593.876	2492.72
594.235	2470.12
594.593	2496.78
594.952	2493.17
595.311	2507.18
595.67	2475.54
596.029	2498.14
596.387	2460.4
596.746	2488.88
597.104	2479.84
597.463	2500.63
597.822	2511.25
598.18	2508.99
598.538	2497.24
598.897	2491.36
599.255	2472.38
599.613	2533.62
599.972	2515.99
600.33	2518.03
600.688	2490.68
601.046	2541.98
601.404	2540.63
601.762	2510.57
602.12	2511.25
602.478	2531.81
602.836	2534.3
603.194	2535.65
603.552	2532.94
603.91	2537.46
604.268	2509.67
604.625	2489.33
604.983	2548.08
605.341	2537.91
605.698	2517.35
606.056	2541.76
606.413	2533.62
606.771	2534.3
607.128	2564.13
607.485	2521.87
607.843	2571.13
608.2	2572.71
608.557	2574.97
608.914	2531.36
609.272	2547.86
609.629	2584.47
609.986	2577.23
610.343	2583.34
610.7	2558.93
611.057	2563.68
611.414	2620.85
611.771	2613.39
612.127	2592.38
612.484	2578.36
612.841	2576.56
613.198	2602.77
613.554	2616.1
613.911	2610.23
614.267	2588.31
614.624	2638.48
614.98	2601.41
615.337	2636.44
615.693	2657.46
616.05	2621.08
616.406	2624.01
616.762	2612.94
617.118	2635.09
617.475	2608.42
617.831	2612.71
618.187	2667.4
618.543	2657.01
618.899	2681.19
619.255	2673.05
619.611	2670.11
619.967	2637.57
620.323	2650.9
620.678	2671.92
621.034	2652.26
621.39	2653.39
621.746	2656.55
622.101	2627.85
622.457	2653.39
622.812	2642.09
623.168	2654.29
623.523	2629.66
623.879	2644.35
624.234	2609.55
624.589	2643.45
624.945	2657.68
625.3	2643.9
625.655	2648.42
626.01	2625.82
626.365	2652.49
626.72	2626.27
627.075	2634.41
627.43	2638.7
627.785	2601.41
628.14	2632.37
628.495	2652.71
628.85	2606.39
629.205	2603.22
629.559	2621.98
629.914	2621.98
630.269	2622.88
630.623	2597.12
630.978	2655.2
631.332	2648.87
631.687	2635.09
632.041	2589.44
632.396	2582.88
632.75	2595.09
633.104	2640.06
633.459	2579.04
633.813	2594.18
634.167	2612.04
634.521	2610.23
634.875	2620.62
635.229	2644.35
635.583	2617.46
635.937	2593.73
636.291	2569.1
636.645	2612.94
636.999	2584.24
637.352	2582.66
637.706	2587.86
638.06	2612.26
638.413	2579.95
638.767	2565.26
639.121	2553.96
639.474	2539.27
639.828	2582.88
640.181	2574.97
640.534	2591.92
640.888	2581.3
641.241	2530
641.594	2579.04
641.947	2635.09
642.301	2585.82
642.654	2593.73
643.007	2599.15
643.36	2607.97
643.713	2581.53
644.066	2634.41
644.419	2593.96
644.771	2597.12
645.124	2579.95
645.477	2585.6
645.83	2557.8
646.182	2598.93
646.535	2537.01
646.888	2532.04
647.24	2542.89
647.593	2561.87
647.945	2562.55
648.298	2558.48
648.65	2562.55
649.002	2563.45
649.355	2579.27
649.707	2592.6
650.059	2652.94
650.411	2666.95
650.763	2661.07
651.115	2637.35
651.467	2695.2
651.819	2642.32
652.171	2682.09
652.523	2668.31
652.875	2685.93
653.227	2718.02
653.578	2721.41
653.93	2694.29
654.282	2715.31
654.633	2697.46
654.985	2754.4
655.337	2733.61
655.688	2752.37
656.039	2759.15
656.391	2751.02
656.742	2764.8
657.094	2781.97
657.445	2798.02
657.796	2825.82
658.147	2802.77
658.498	2838.24
658.849	2839.15
659.2	2864.46
659.551	2867.17
659.902	2885.02
660.253	2863.1
660.604	2902.88
660.955	2914.17
661.306	2919.6
661.656	2956.66
662.007	2936.1
662.358	2956.43
662.708	2977.68
663.059	2978.35
663.409	3005.02
663.76	3001.4
664.11	3040.73
664.461	3054.28
664.811	3081.85
665.161	3051.35
665.511	3054.06
665.862	3075.3
666.212	3144
666.562	3126.15
666.912	3137.9
667.262	3145.81
667.612	3163.21
667.962	3218.57
668.312	3191
668.662	3238.23
669.011	3233.49
669.361	3226.71
669.711	3306.03
670.06	3309.19
670.41	3312.36
670.76	3327.72
671.109	3343.99
671.459	3368.4
671.808	3389.42
672.157	3419.25
672.507	3394.84
672.856	3453.37
673.205	3409.98
673.554	3489.98
673.904	3475.29
674.253	3537.89
674.602	3535.18
674.951	3492.92
675.3	3492.92
675.649	3573.59
675.998	3602.29
676.346	3656.08
676.695	3689.97
677.044	3630.31
677.393	3729.29
677.741	3735.4
678.09	3745.34
678.438	3753.7
678.787	3816.52
679.135	3810.65
679.484	3823.98
679.832	3827.15
680.181	3835.73
680.529	3868.27
680.877	3928.84
681.225	3947.82
681.573	3975.39
681.922	3980.59
682.27	3999.12
682.618	4049.74
682.966	4037.76
683.314	4082.28
683.661	4124.31
684.009	4085.44
684.357	4082.05
684.705	4136.06
685.053	4199.34
685.4	4223.97
685.748	4195.95
686.095	4244.99
686.443	4242.05
686.79	4260.13
687.138	4268.72
687.485	4363.63
687.832	4352.33
688.18	4354.81
688.527	4364.76
688.874	4410.86
689.221	4422.16
689.568	4442.27
689.915	4487.92
690.262	4538.09
690.609	4497.41
690.956	4496.28
691.303	4554.13
691.65	4550.29
691.997	4578.76
692.344	4587.13
692.69	4553.68
693.037	4630.97
693.383	4645.65
693.73	4672.09
694.077	4725.88
694.423	4748.02
694.769	4736.05
695.116	4700.57
695.462	4768.36
695.808	4806.55
696.155	4816.05
696.501	4803.39
696.847	4808.14
697.193	4872.99
697.539	4920.9
697.885	4907.34
698.231	4921.58
698.577	4896.04
698.923	4915.48
699.269	4925.65
699.614	4924.52
699.96	4934.69
700.306	4990.5
700.651	4992.31
700.997	5016.27
701.342	4992.54
701.688	5063.5
702.033	5078.19
702.379	5068.69
702.724	5089.71
703.069	5129.94
703.415	5085.64
703.76	5108.47
704.105	5132.42
704.45	5141.91
704.795	5122.25
705.14	5143.04
705.485	5172.65
705.83	5201.57
706.175	5181.01
706.52	5278.63
706.865	5223.04
707.209	5198.18
707.554	5285.64
707.899	5268.46
708.243	5270.5
708.588	5276.6
708.932	5263.04
709.277	5259.88
709.621	5259.65
709.966	5306.88
710.31	5342.81
710.654	5291.51
710.998	5357.05
711.342	5381.45
711.687	5345.3
712.031	5362.02
712.375	5354.79
712.719	5377.84
713.063	5398.4
713.407	5388.23
713.75	5421.45
714.094	5437.05
714.438	5398.63
714.782	5458.97
715.125	5412.19
715.469	5443.37
715.812	5460.32
716.156	5447.67
716.499	5459.87
716.843	5454.22
717.186	5467.78
717.53	5463.94
717.873	5534.67
718.216	5463.71
718.559	5459.42
718.902	5443.37
719.246	5489.25
719.589	5544.84
719.932	5496.03
720.275	5505.97
720.617	5480.89
720.96	5497.38
721.303	5515.69
721.646	5481.34
721.989	5531.73
722.331	5549.81
722.674	5555.24
723.016	5535.35
723.359	5546.65
723.701	5538.74
724.044	5546.87
724.386	5499.42
724.729	5569.92
725.071	5577.83
725.413	5544.39
725.755	5570.6
726.097	5555.24
726.439	5528.57
726.782	5586.19
727.124	5572.86
727.465	5533.31
727.807	5601.79
728.149	5571.28
728.491	5607.66
728.833	5596.59
729.175	5588.68
729.516	5592.75
729.858	5594.33
730.199	5522.92
730.541	5572.86
730.882	5631.62
731.224	5519.3
731.565	5563.14
731.906	5605.18
732.248	5557.04
732.589	5582.13
732.93	5547.78
733.271	5520.66
733.612	5552.52
733.953	5529.02
734.294	5541
734.635	5600.88
734.976	5588.45
735.317	5554.11
735.658	5547.78
735.999	5558.17
736.339	5550.04
736.68	5543.71
737.021	5546.2
737.361	5493.77
737.702	5503.49
738.042	5519.98
738.383	5582.13
738.723	5516.37
739.063	5519.3
739.404	5551.85
739.744	5486.31
740.084	5494.22
740.424	5499.64
740.764	5506.65
741.104	5533.77
741.444	5491.73
741.784	5475.69
742.124	5470.72
742.464	5491.73
742.804	5508.23
743.143	5451.51
743.483	5445.86
743.823	5448.12
744.162	5414.67
744.502	5479.08
744.841	5455.58
745.181	5506.87
745.52	5450.83
745.86	5442.47
746.199	5415.8
746.538	5396.82
746.877	5391.62
747.216	5467.78
747.556	5417.16
747.895	5418.97
748.234	5355.47
748.573	5403.6
748.911	5378.29
749.25	5380.55
749.589	5355.69
749.928	5382.13
750.267	5392.53
750.605	5324.05
750.944	5360.66
751.283	5259.65
751.621	5344.85
751.96	5276.15
752.298	5287.9
752.636	5270.5
752.975	5280.21
753.313	5247.45
753.651	5312.76
753.989	5250.38
754.327	5249.48
754.666	5197.28
755.004	5222.14
755.342	5257.16
755.679	5230.5
756.017	5144.85
756.355	5223.94
756.693	5193.89
757.031	5168.8
757.368	5192.98
757.706	5178.07
758.044	5162.48
758.381	5161.8
758.719	5077.06
759.056	5083.84
759.394	5117.73
759.731	5119.31
760.068	5079.99
760.405	5028.7
760.743	5034.8
761.08	5052.88
761.417	5023.72
761.754	4942.14
762.091	5002.71
762.428	4976.95
762.765	4980.34
763.102	4949.83
763.438	4930.17
763.775	4978.3
764.112	4944.63
764.449	4909.38
764.785	4929.49
765.122	4871.86
765.458	4841.58
765.795	4829.83
766.131	4868.93
766.467	4829.38
766.804	4825.99
767.14	4810.17
767.476	4816.5
767.812	4738.99
768.148	4747.12
768.485	4744.86
768.821	4701.47
769.157	4716.39
769.492	4701.02
769.828	4724.3
770.164	4691.76
770.5	4659.44
770.836	4665.54
771.171	4623.96
771.507	4607.24
771.842	4584.87
772.178	4599.33
772.513	4564.07
772.849	4564.53
773.184	4558.88
773.519	4541.25
773.855	4559.1
774.19	4486.11
774.525	4483.63
774.86	4495.6
775.195	4506
775.53	4467.58
775.865	4447.24
776.2	4404.98
776.535	4428.94
776.87	4409.95
777.205	4389.39
777.539	4350.97
777.874	4351.2
778.209	4310.97
778.543	4324.53
778.878	4294.48
779.212	4303.52
779.547	4315.27
779.881	4279.56
780.215	4269.85
780.55	4254.25
780.884	4203.63
781.218	4211.99
781.552	4219.23
781.886	4217.64
782.22	4183.29
782.554	4189.4
782.888	4136.74
783.222	4168.15
783.556	4096.97
783.889	4108.27
784.223	4101.04
784.557	4091.09
784.89	4044.54
785.224	4063.3
785.557	4079.79
785.891	4040.47
786.224	3970.42
786.558	3999.34
786.891	3963.19
787.224	3943.98
787.557	3936.97
787.891	3919.12
788.224	3921.38
788.557	3929.06
788.89	3932.91
789.223	3915.96
789.556	3895.84
789.888	3866.69
790.221	3869.86
790.554	3833.02
790.887	3874.15
791.219	3835.51
791.552	3821.27
791.884	3799.8
792.217	3809.29
792.549	3765.23
792.882	3748.28
793.214	3730.65
793.546	3733.59
793.879	3719.35
794.211	3677.32
794.543	3711.44
794.875	3660.6
795.207	3703.76
795.539	3705.79
795.871	3705.57
796.203	3630.54
796.535	3635.74
796.867	3635.96
797.198	3615.63
797.53	3628.05
797.862	3616.3
798.193	3606.13
798.525	3552.12
798.856	3610.43
799.188	3550.99
799.519	3552.12
799.85	3522.75
800.182	3512.35
800.513	3524.1
800.844	3492.92
801.175	3512.35
801.506	3509.19
801.837	3477.55
802.168	3473.48
802.499	3447.04
802.83	3442.52
803.161	3484.56
803.491	3452.24
803.822	3467.15
804.153	3444.56
804.483	3395.74
804.814	3426.93
805.145	3427.16
805.475	3394.84
805.805	3380.83
806.136	3379.93
806.466	3394.39
806.796	3341.96
807.126	3341.06
807.457	3326.37
807.787	3310.77
808.117	3311.23
808.447	3290.44
808.777	3284.11
809.107	3319.36
809.436	3272.36
809.766	3306.48
810.096	3309.64
810.426	3258.12
810.755	3253.15
811.085	3266.26
811.414	3271.68
811.744	3202.3
812.073	3222.64
812.403	3203.88
812.732	3178.35
813.061	3219.93
813.39	3206.6
813.719	3198.69
814.049	3169.76
814.378	3176.54
814.707	3165.47
815.036	3157.56
815.365	3156.65
815.693	3099.93
816.022	3138.12
816.351	3128.18
816.68	3103.32
817.008	3104.45
817.337	3088.18
817.665	3038.92
817.994	3091.57
818.322	3051.8
818.651	3130.44
818.979	3031.69
819.307	3052.02
819.636	3060.84
819.964	3059.03
820.292	3052.7
820.62	3054.51
820.948	3065.36
821.276	3049.09
821.604	3029.43
821.932	3071.01
822.259	3045.02
822.587	3024.68
822.915	3041.86
823.243	3069.42
823.57	3022.42
823.898	3020.84
824.225	3026.71
824.553	3054.74
824.88	3037.56
825.207	3061.52
825.535	3016.77
825.862	3032.59
826.189	3020.84
826.516	3033.95
826.843	3054.06
827.17	3019.48
827.497	3042.08
827.824	3016.09
828.151	3060.84
828.478	3032.36
828.805	3052.48
829.131	3001.86
829.458	3032.36
829.785	3000.95
830.111	3005.02
830.438	3035.53
830.764	3045.92
831.09	3035.3
831.417	3017.22
831.743	3027.17
832.069	3017.45
832.395	3021.97
832.722	3021.52
833.048	3006.6
833.374	3014.29
833.7	2979.03
834.026	3014.96
834.351	2993.04
834.677	2967.73
835.003	2978.58
835.329	2991.46
835.654	2963.44
835.98	3000.05
836.306	3004.57
836.631	2972.25
836.956	2980.39
837.282	2952.82
837.607	2994.4
837.932	2962.08
838.258	2947.85
838.583	2919.15
838.908	2954.4
839.233	2935.42
839.558	2977.45
839.883	2898.36
840.208	2909.43
840.533	2922.99
840.858	2929.77
841.182	2930.9
841.507	2908.07
841.832	2887.73
842.156	2903.78
842.481	2898.81
842.805	2874.85
843.13	2847.74
843.454	2862.88
843.778	2892.48
844.103	2850
844.427	2841.86
844.751	2866.49
845.075	2846.83
845.399	2845.25
845.723	2862.65
846.047	2830.34
846.371	2831.92
846.695	2827.17
847.019	2762.99
847.343	2762.77
847.666	2802.09
847.99	2776.78
848.313	2796.66
848.637	2748.53
848.96	2734.07
849.284	2739.94
849.607	2720.73
849.931	2680.96
850.254	2688.87
850.577	2678.7
850.9	2677.12
851.223	2639.61
851.546	2643.9
851.869	2660.62
852.192	2664.46
852.515	2645.26
852.838	2595.99
853.161	2650.68
853.483	2594.64
853.806	2604.13
854.129	2581.75
854.451	2566.84
854.774	2588.76
855.096	2515.54
855.419	2567.74
855.741	2569.33
856.063	2528.2
856.385	2535.88
856.708	2508.31
857.03	2497.46
857.352	2490.91
857.674	2504.47
857.996	2492.04
858.318	2481.42
858.64	2468.31
858.961	2488.42
859.283	2455.2
859.605	2480.06
859.926	2471.47
860.248	2493.39
860.57	2422.21
860.891	2455.66
861.212	2469.89
861.534	2446.39
861.855	2418.14
862.176	2441.42
862.498	2417.24
862.819	2437.58
863.14	2437.58
863.461	2401.19
863.782	2413.62
864.103	2412.72
864.424	2426.96
864.745	2435.09
865.065	2388.76
865.386	2385.15
865.707	2363.45
866.027	2390.12
866.348	2420.4
866.668	2363.45
866.989	2392.15
867.309	2366.39
867.63	2317.81
867.95	2353.51
868.27	2384.25
868.59	2342.44
868.91	2370.69
869.23	2359.84
869.55	2360.97
869.87	2334.53
870.19	2369.1
870.51	2336.56
870.83	2360.74
871.15	2324.13
871.469	2344.47
871.789	2311.25
872.109	2327.3
872.428	2329.33
872.748	2326.62
873.067	2300.18
873.386	2292.04
873.706	2318.71
874.025	2320.74
874.344	2299.5
874.663	2311.48
874.982	2263.8
875.301	2278.71
875.62	2313.96
875.939	2275.32
876.258	2281.65
876.577	2269.45
876.896	2276.68
877.214	2266.51
877.533	2236
877.852	2297.47
878.17	2282.33
878.489	2254.31
878.807	2257.02
879.125	2267.19
879.444	2262.89
879.762	2244.14
880.08	2236.45
880.398	2234.42
880.716	2250.69
881.034	2214.08
881.352	2214.98
881.67	2221.99
881.988	2211.59
882.306	2255.44
882.624	2229.9
882.941	2210.01
883.259	2212.27
883.577	2172.05
883.894	2164.59
884.212	2185.61
884.529	2206.62
884.846	2180.86
885.164	2192.16
885.481	2193.74
885.798	2196.45
886.115	2154.87
886.432	2163.69
886.75	2157.13
887.067	2160.97
887.383	2129.34
887.7	2165.72
888.017	2162.1
888.334	2148.32
888.651	2131.82
888.967	2147.19
889.284	2101.99
889.6	2153.06
889.917	2115.1
890.233	2138.15
890.55	2096.8
890.866	2093.86
891.182	2094.99
891.498	2067.64
891.815	2096.8
892.131	2082.11
892.447	2088.89
892.763	2077.13
893.079	2058.6
893.395	2075.33
893.71	2065.16
894.026	2040.07
894.342	2033.07
894.657	2040.75
894.973	2035.55
895.289	2047.53
895.604	2035.78
895.92	2010.92
896.235	1998.04
896.55	2019.06
896.865	1974.76
897.181	1991.49
897.496	1976.35
897.811	2015.89
898.126	1951.49
898.441	1981.32
898.756	1986.29
899.071	1972.28
899.386	1953.52
899.7	1965.5
900.015	1945.39
900.33	1920.98
900.644	1949.23
900.959	1929.57
901.273	1919.85
901.588	1918.27
901.902	1915.11
902.216	1887.99
902.531	1883.47
902.845	1849.34
903.159	1856.58
903.473	1886.18
903.787	1875.78
904.101	1852.96
904.415	1847.99
904.729	1839.63
905.042	1873.75
905.356	1856.8
905.67	1822.23
905.984	1823.81
906.297	1840.76
906.611	1801.21
906.924	1806.41
907.237	1800.31
907.551	1812.06
907.864	1801.66
908.177	1807.31
908.491	1815.45
908.804	1765.05
909.117	1786.52
909.43	1750.14
909.743	1782
910.056	1739.06
910.368	1750.14
910.681	1769.35
910.994	1740.19
911.307	1720.99
911.619	1730.25
911.932	1750.59
912.244	1695.22
912.557	1708.33
912.869	1724.15
913.181	1691.61
913.494	1683.02
913.806	1675.79
914.118	1685.28
914.43	1676.47
914.742	1665.85
915.054	1683.92
915.366	1663.59
915.678	1657.48
915.99	1678.28
916.302	1644.15
916.613	1624.72
916.925	1645.73
917.236	1631.72
917.548	1618.62
917.859	1635.11
918.171	1626.07
918.482	1600.76
918.794	1589.24
919.105	1611.84
919.416	1559.63
919.727	1585.4
920.038	1571.16
920.349	1582.91
920.66	1609.12
920.971	1562.12
921.282	1575.45
921.593	1542.23
921.903	1541.78
922.214	1531.16
922.525	1540.2
922.835	1555.57
923.146	1520.99
923.456	1504.04
923.767	1515.12
924.077	1529.35
924.387	1519.86
924.697	1497.71
925.008	1484.61
925.318	1518.05
925.628	1477.38
925.938	1474.21
926.248	1468.11
926.558	1504.95
926.867	1499.3
927.177	1457.04
927.487	1457.49
927.796	1422.46
928.106	1458.85
928.416	1439.19
928.725	1437.38
929.034	1415.23
929.344	1438.51
929.653	1430.37
929.962	1407.32
930.271	1420.65
930.581	1398.28
930.89	1361.67
931.199	1390.83
931.508	1392.86
931.817	1399.86
932.125	1401.22
932.434	1385.85
932.743	1364.16
933.051	1407.77
933.36	1376.81
933.669	1372.07
933.977	1360.32
934.286	1361.9
934.594	1356.48
934.902	1336.59
935.21	1337.27
935.519	1349.24
935.827	1294.78
936.135	1331.39
936.443	1300.66
936.751	1295.69
937.059	1310.6
937.367	1290.04
937.674	1304.5
937.982	1318.06
938.29	1299.53
938.597	1319.19
938.905	1290.49
939.213	1302.01
939.52	1294.56
939.827	1276.7
940.135	1272.86
940.442	1279.87
940.749	1246.65
941.056	1261.56
941.363	1226.08
941.67	1252.75
941.977	1248.68
942.284	1219.53
942.591	1258.17
942.898	1210.94
943.205	1228.34
943.511	1216.37
943.818	1239.42
944.125	1242.81
944.431	1219.3
944.738	1218.85
945.044	1204.16
945.35	1186.31
945.657	1182.47
945.963	1201.23
946.269	1177.27
946.575	1191.73
946.881	1197.61
947.187	1158.74
947.493	1201.23
947.799	1156.71
948.105	1156.25
948.41	1142.02
948.716	1164.62
949.022	1170.04
949.327	1165.75
949.633	1161.9
949.938	1137.05
950.244	1158.74
950.549	1143.15
950.854	1114.22
951.16	1114
951.465	1119.87
951.77	1123.04
952.075	1106.99
952.38	1123.04
952.685	1106.76
952.99	1117.84
953.294	1119.42
953.599	1110.61
953.904	1089.36
954.209	1076.26
954.513	1085.07
954.818	1086.88
955.122	1072.64
955.426	1071.96
955.731	1067.9
956.035	1076.48
956.339	1073.09
956.643	1036.03
956.948	1052.08
957.252	1043.94
957.556	1048.01
957.86	1045.98
958.163	1081.91
958.467	1067.9
958.771	1019.99
959.075	1026.09
959.378	1014.79
959.682	1040.55
959.985	1029.25
960.289	1003.72
960.592	1047.33
960.896	999.2
961.199	996.94
961.502	1003.72
961.805	1012.98
962.108	998.07
962.411	1001.68
962.714	972.53
963.017	1004.17
963.32	991.51
963.623	974.11
963.926	984.73
964.228	975.69
964.531	971.18
964.833	978.63
965.136	986.32
965.438	962.59
965.741	967.56
966.043	960.78
966.345	972.08
966.648	977.73
966.95	968.92
967.252	955.58
967.554	943.15
967.856	969.59
968.158	954.9
968.46	931.4
968.761	950.84
969.063	937.73
969.365	947.67
969.666	962.14
969.968	927.79
970.269	909.71
970.571	919.88
970.872	920.33
971.174	910.16
971.475	914.68
971.776	893.89
972.077	887.34
972.378	893.44
972.679	916.49
972.98	878.3
973.281	885.3
973.582	889.6
973.883	886.66
974.183	874
974.484	872.19
974.785	876.71
975.085	877.39
975.386	866.77
975.686	868.35
975.986	853.89
976.287	870.61
976.587	848.47
976.887	860.67
977.187	874.45
977.487	867.22
977.787	837.62
978.087	849.6
978.387	856.83
978.687	859.09
978.987	825.42
979.286	836.72
979.586	840.78
979.885	827.68
980.185	832.42
980.484	828.35
980.784	834.91
981.083	825.19
981.382	822.25
981.682	822.48
981.981	815.02
982.28	836.94
982.579	796.94
982.878	816.6
983.177	818.64
983.475	835.36
983.774	792.2
984.073	799.88
984.372	783.38
984.67	785.19
984.969	793.33
985.267	788.58
985.566	777.73
985.864	787.68
986.162	812.08
986.461	777.51
986.759	789.48
987.057	775.47
987.355	773.89
987.653	753.1
987.951	758.3
988.249	784.06
988.547	774.57
988.844	738.86
989.142	767.79
989.44	755.14
989.737	774.57
990.035	755.81
990.332	744.06
990.63	738.41
990.927	749.49
991.224	738.41
991.521	748.36
991.819	763.72
992.116	728.02
992.413	731.18
992.71	742.71
993.006	709.49
993.303	727.34
993.6	748.13
993.897	733.22
994.193	739.77
994.49	712.88
994.787	730.73
995.083	725.76
995.379	725.53
995.676	697.51
995.972	714.68
996.268	720.11
996.565	689.6
996.861	688.7
997.157	695.25
997.453	740.45
997.749	703.61
998.044	692.99
998.34	669.26
998.636	697.96
998.932	678.08
999.227	695.48
999.523	680.34
999.818	685.08
1000.114	683.5
1000.409	668.81
1000.704	682.37
1001	664.06
1001.295	677.85
1001.59	671.3
1001.885	660.45
1002.18	686.44
1002.475	677.85
1002.77	664.06
1003.065	653.9
1003.359	647.57
1003.654	660.45
1003.949	657.96
1004.243	653.22
1004.538	627.46
1004.832	658.41
1005.127	635.36
1005.421	671.3
1005.715	627.46
1006.009	634.69
1006.304	629.49
1006.598	627.68
1006.892	635.36
1007.186	627.91
1007.48	586.78
1007.773	617.96
1008.067	596.04
1008.361	613.9
1008.655	617.96
1008.948	627.23
1009.242	597.63
1009.535	614.8
1009.829	606.66
1010.122	611.64
1010.415	583.16
1010.708	601.92
1011.001	584.52
1011.295	603.5
1011.588	606.44
1011.881	617.96
1012.173	605.53
1012.466	594.69
1012.759	598.3
1013.052	591.98
1013.344	565.31
1013.637	599.21
1013.93	589.72
1014.222	565.31
1014.514	556.72
1014.807	570.96
1015.099	562.82
1015.391	566.89
1015.683	552.43
1015.976	570.06
1016.268	546.33
1016.56	570.51
1016.851	549.72
1017.143	559.43
1017.435	572.32
1017.727	546.1
1018.018	572.32
1018.31	559.66
1018.602	552.65
1018.893	534.35
1019.185	552.65
1019.476	553.78
1019.767	528.02
1020.058	548.81
1020.35	539.77
1020.641	527.12
1020.932	528.47
1021.223	544.07
1021.514	534.58
1021.804	534.12
1022.095	562.82
1022.386	527.57
1022.677	525.09
1022.967	536.16
1023.258	523.5
1023.548	514.92
1023.839	537.97
1024.129	512.66
1024.419	517.85
1024.709	518.53
1025	522.83
1025.29	486.44
1025.58	502.03
1025.87	496.16
1026.16	471.53
1026.449	511.98
1026.739	481.47
1027.029	508.59
1027.319	503.62
1027.608	491.64
1027.898	494.8
1028.187	496.61
1028.477	497.06
1028.766	486.22
1029.055	486.89
1029.344	476.05
1029.634	508.14
1029.923	474.92
1030.212	481.02
1030.501	484.63
1030.79	474.92
1031.078	465.2
1031.367	474.01
1031.656	458.19
1031.945	469.04
1032.233	489.61
1032.522	483.28
1032.81	455.26
1033.099	478.08
1033.387	464.75
1033.675	460
1033.963	468.14
1034.251	454.58
1034.54	459.55
1034.828	484.18
1035.116	469.27
1035.403	455.48
1035.691	436.5
1035.979	463.62
1036.267	457.74
1036.554	443.96
1036.842	470.62
1037.129	462.94
1037.417	439.44
1037.704	469.95
1037.992	447.57
1038.279	455.93
1038.566	427.01
1038.853	427.01
1039.14	427.01
