Data from carpet_green_FLMS001491_00088.txt Node
Date: Wed Feb 08 10:35:59 GMT 2017
User: dcchb
Spectrometer: FLMS00149
Trigger mode: 0
Integration Time (sec): 2.000000E-2
Scans to average: 10
Electric dark correction enabled: true
Nonlinearity correction enabled: false
Boxcar width: 0
XAxis mode: Wavelengths
Number of Pixels in Spectrum: 2048
>>>>>Begin Spectral Data<<<<<
341.393	-29.93
341.776	-29.93
342.16	-29.93
342.543	-51.17
342.927	-72.87
343.31	-72.19
343.693	-63.83
344.077	-69.93
344.46	-45.52
344.843	-48.46
345.226	-43.04
345.61	-36.93
345.993	-31.51
346.376	14.14
346.759	0.13
347.142	35.61
347.525	33.35
347.908	59.79
348.291	77.87
348.674	90.52
349.057	100.01
349.44	121.48
349.823	135.72
350.206	144.98
350.588	153.8
350.971	190.86
351.354	198.09
351.737	208.48
352.119	229.27
352.502	225.43
352.884	257.3
353.267	238.31
353.65	259.78
354.032	267.24
354.414	257.07
354.797	256.17
355.179	287.58
355.562	290.97
355.944	281.48
356.326	302.49
356.709	325.77
357.091	314.92
357.473	325.09
357.855	316.73
358.238	315.15
358.62	291.42
359.002	315.83
359.384	307.01
359.766	323.96
360.148	312.44
360.53	289.39
360.912	300.46
361.294	320.57
361.676	325.09
362.057	307.01
362.439	302.94
362.821	286
363.203	294.81
363.584	283.96
363.966	307.92
364.348	297.52
364.729	293.45
365.111	278.99
365.493	271.76
365.874	273.57
366.256	296.62
366.637	260.69
367.019	262.04
367.4	280.8
367.781	285.77
368.163	284.87
368.544	282.38
368.925	283.96
369.306	289.39
369.688	274.92
370.069	260.91
370.45	268.82
370.831	279.44
371.212	287.35
371.593	293
371.974	276.73
372.355	250.74
372.736	272.21
373.117	285.32
373.498	271.31
373.879	274.02
374.26	294.36
374.641	288.03
375.021	276.05
375.402	295.94
375.783	292.1
376.163	284.19
376.544	290.06
376.925	283.74
377.305	265.88
377.686	282.15
378.066	295.03
378.447	292.55
378.827	284.64
379.208	283.06
379.588	295.03
379.968	288.71
380.349	291.19
380.729	278.54
381.109	296.62
381.489	288.93
381.87	278.31
382.25	291.64
382.63	320.57
383.01	275.83
383.39	302.27
383.77	291.42
384.15	300.68
384.53	306.11
384.91	299.78
385.29	304.07
385.67	300.46
386.049	299.1
386.429	296.16
386.809	302.94
387.189	311.76
387.568	302.27
387.948	282.38
388.328	282.61
388.707	298.88
389.087	293.68
389.466	303.62
389.846	328.71
390.225	277.41
390.605	292.1
390.984	303.85
391.363	293.23
391.743	298.2
392.122	299.55
392.501	307.92
392.881	317.63
393.26	287.8
393.639	299.55
394.018	306.79
394.397	301.81
394.776	295.94
395.155	299.1
395.534	312.44
395.913	283.74
396.292	313.57
396.671	295.03
397.05	297.75
397.429	296.62
397.808	314.02
398.186	322.38
398.565	302.04
398.944	308.59
399.323	294.36
399.701	312.44
400.08	314.02
400.458	288.26
400.837	331.19
401.215	310.63
401.594	317.86
401.972	302.72
402.351	307.01
402.729	306.56
403.107	318.31
403.486	309.27
403.864	311.31
404.242	322.38
404.62	315.15
404.999	318.08
405.377	307.92
405.755	324.41
406.133	300.23
406.511	316.73
406.889	328.71
407.267	349.95
407.645	328.25
408.023	323.73
408.401	305.66
408.779	332.55
409.156	307.24
409.534	335.26
409.912	301.36
410.29	331.42
410.667	330.97
411.045	329.16
411.422	311.31
411.8	313.34
412.178	296.39
412.555	334.13
412.933	335.49
413.31	323.73
413.687	293.9
414.065	326.22
414.442	324.41
414.819	329.38
415.197	303.17
415.574	316.5
415.951	336.16
416.328	321.02
416.705	327.35
417.082	338.42
417.46	318.08
417.837	343.85
418.214	322.83
418.591	335.71
418.967	349.27
419.344	343.85
419.721	339.78
420.098	331.42
420.475	338.42
420.852	335.71
421.228	337.75
421.605	339.33
421.982	305.66
422.358	344.3
422.735	343.85
423.111	344.75
423.488	334.58
423.864	335.71
424.241	344.52
424.617	338.42
424.994	342.27
425.37	350.85
425.746	344.75
426.123	340.23
426.499	320.34
426.875	327.8
427.251	344.98
427.627	347.46
428.003	339.55
428.379	356.5
428.756	355.82
429.132	355.82
429.507	354.47
429.883	344.98
430.259	342.49
430.635	356.05
431.011	348.14
431.387	364.19
431.763	356.05
432.138	364.41
432.514	356.95
432.89	363.73
433.265	366.9
433.641	367.58
434.016	351.3
434.392	359.67
434.767	360.12
435.143	346.56
435.518	358.31
435.894	370.29
436.269	368.03
436.644	378.2
437.02	358.76
437.395	348.59
437.77	361.02
438.145	343.17
438.52	380
438.895	366.9
439.271	381.59
439.646	368.03
440.021	382.04
440.395	384.75
440.77	380.23
441.145	392.89
441.52	383.17
441.895	367.8
442.27	396.27
442.645	373.9
443.019	368.25
443.394	382.72
443.769	391.53
444.143	401.25
444.518	397.18
444.892	410.96
445.267	385.88
445.641	403.28
446.016	390.17
446.39	408.93
446.764	375.03
447.139	371.19
447.513	382.49
447.887	386.33
448.262	401.25
448.636	402.38
449.01	388.37
449.384	418.2
449.758	408.48
450.132	418.42
450.506	411.64
450.88	411.19
451.254	404.18
451.628	402.83
452.002	404.64
452.376	416.39
452.75	402.83
453.123	373
453.497	426.33
453.871	423.84
454.244	423.17
454.618	409.61
454.992	403.05
455.365	425.88
455.739	443.73
456.112	418.2
456.486	425.2
456.859	416.39
457.232	430.62
457.606	436.05
457.979	431.08
458.352	436.95
458.725	450.06
459.099	433.11
459.472	434.69
459.845	430.17
460.218	450.96
460.591	431.75
460.964	447.12
461.337	440.34
461.71	467.01
462.083	450.06
462.456	467.91
462.829	482.37
463.201	449.83
463.574	468.36
463.947	457.29
464.32	465.88
464.692	467.23
465.065	478.08
465.438	485.76
465.81	495.93
466.183	478.08
466.555	503.62
466.928	476.95
467.3	492.54
467.672	490.06
468.045	494.58
468.417	477.63
468.789	494.35
469.161	496.61
469.534	521.47
469.906	493.67
470.278	521.47
470.65	495.48
471.022	512.2
471.394	516.5
471.766	517.63
472.138	522.83
472.51	521.92
472.882	537.29
473.253	542.03
473.625	549.72
473.997	557.63
474.369	578.64
474.74	540.45
475.112	551.53
475.484	583.16
475.855	589.04
476.227	585.87
476.598	574.12
476.97	602.82
477.341	582.94
477.713	606.66
478.084	601.47
478.455	606.66
478.827	619.09
479.198	619.32
479.569	606.66
479.94	620.68
480.311	646.66
480.682	650.96
481.053	647.57
481.424	662.03
481.795	648.47
482.166	665.42
482.537	661.8
482.908	681.92
483.279	679.21
483.65	679.88
484.021	696.38
484.391	683.95
484.762	690.28
485.133	684.63
485.503	704.97
485.874	727.34
486.244	749.03
486.615	758.3
486.985	765.98
487.356	766.43
487.726	754.91
488.097	789.48
488.467	763.72
488.837	796.04
489.207	801.69
489.578	797.39
489.948	811.63
490.318	814.34
490.688	818.86
491.058	811.86
491.428	816.15
491.798	831.74
492.168	851.18
492.538	865.42
492.908	833.1
493.278	853.89
493.648	875.81
494.017	855.7
494.387	881.69
494.757	915.36
495.126	909.26
495.496	894.34
495.866	890.27
496.235	905.87
496.605	889.14
496.974	893.21
497.344	910.39
497.713	924.62
498.082	949.48
498.452	936.6
498.821	955.36
499.19	944.51
499.559	973.21
499.928	960.33
500.298	950.16
500.667	963.27
501.036	974.56
501.405	984.06
501.774	979.99
502.143	989.48
502.512	980.67
502.88	990.16
503.249	983.38
503.618	1004.39
503.987	992.42
504.356	986.54
504.724	1005.07
505.093	1015.92
505.462	1014.79
505.83	1029.93
506.199	1028.57
506.567	1014.34
506.936	1014.79
507.304	1030.16
507.672	1007.56
508.041	1028.35
508.409	1044.39
508.777	1069.48
509.145	1087.78
509.514	1048.69
509.882	1064.96
510.25	1060.44
510.618	1057.5
510.986	1074.22
511.354	1061.12
511.722	1074.68
512.09	1116.48
512.458	1092.08
512.826	1103.15
513.193	1111.06
513.561	1106.31
513.929	1090.27
514.297	1128.69
514.664	1105.18
515.032	1099.53
515.4	1131.62
515.767	1154
516.135	1118.74
516.502	1104.96
516.869	1131.85
517.237	1130.27
517.604	1176.37
517.972	1132.75
518.339	1184.95
518.706	1159.19
519.073	1159.19
519.44	1166.42
519.808	1155.35
520.175	1164.62
520.542	1196.71
520.909	1175.24
521.276	1158.06
521.643	1185.41
522.009	1207.1
522.376	1190.15
522.743	1179.98
523.11	1188.57
523.477	1189.93
523.843	1206.88
524.21	1231.51
524.577	1219.08
524.943	1254.78
525.31	1221.11
525.676	1241.68
526.043	1233.54
526.409	1250.26
526.776	1238.96
527.142	1250.94
527.508	1262.92
527.874	1259.08
528.241	1268.79
528.607	1248.46
528.973	1244.84
529.339	1257.27
529.705	1298.17
530.071	1294.78
530.437	1307.66
530.803	1273.31
531.169	1295.91
531.535	1293.88
531.901	1287.55
532.267	1271.51
532.632	1300.66
532.998	1324.39
533.364	1307.66
533.73	1302.24
534.095	1299.98
534.461	1289.81
534.826	1304.95
535.192	1289.36
535.557	1308.12
535.923	1339.07
536.288	1301.56
536.653	1350.15
537.019	1309.7
537.384	1313.31
537.749	1302.69
538.114	1311.51
538.479	1309.25
538.845	1282.35
539.21	1340.88
539.575	1335.46
539.94	1341.33
540.305	1321.22
540.67	1299.53
541.034	1321.45
541.399	1337.04
541.764	1343.14
542.129	1326.65
542.494	1316.02
542.858	1317.15
543.223	1303.37
543.587	1346.76
543.952	1336.36
544.316	1322.13
544.681	1339.3
545.045	1329.36
545.41	1318.51
545.774	1326.65
546.138	1324.39
546.503	1354.22
546.867	1344.72
547.231	1337.95
547.595	1329.36
547.959	1348.11
548.324	1378.4
548.688	1314.22
549.052	1346.98
549.416	1346.98
549.779	1358.06
550.143	1341.33
550.507	1343.59
550.871	1331.84
551.235	1346.76
551.599	1350.15
551.962	1374.78
552.326	1350.37
552.689	1353.54
553.053	1328.23
553.417	1340.2
553.78	1368.68
554.143	1360.54
554.507	1374.1
554.87	1366.87
555.234	1380.43
555.597	1352.86
555.96	1390.6
556.323	1370.26
556.686	1393.76
557.05	1358.96
557.413	1366.64
557.776	1364.16
558.139	1401.45
558.502	1396.93
558.865	1386.76
559.228	1382.69
559.59	1434.44
559.953	1387.66
560.316	1423.37
560.679	1417.26
561.041	1432.41
561.404	1408.68
561.767	1406.42
562.129	1432.18
562.492	1422.46
562.854	1425.63
563.217	1442.35
563.579	1447.32
563.941	1435.8
564.304	1441.22
564.666	1440.77
565.028	1440.09
565.39	1430.15
565.753	1438.06
566.115	1448.22
566.477	1450.03
566.839	1432.86
567.201	1470.6
567.563	1448.22
567.925	1478.51
568.287	1461.78
568.648	1451.84
569.01	1467.66
569.372	1477.38
569.734	1492.97
570.095	1455.23
570.457	1459.75
570.819	1463.82
571.18	1480.09
571.542	1488
571.903	1478.28
572.265	1462.91
572.626	1464.27
572.987	1479.64
573.349	1468.79
573.71	1470.37
574.071	1462.24
574.432	1517.38
574.794	1460.2
575.155	1463.37
575.516	1474.44
575.877	1472.18
576.238	1515.34
576.599	1498.84
576.96	1475.34
577.32	1472.86
577.681	1478.96
578.042	1473.31
578.403	1478.05
578.763	1446.19
579.124	1486.19
579.485	1510.82
579.845	1481.22
580.206	1443.7
580.566	1505.85
580.927	1481.22
581.287	1508.34
581.648	1489.58
582.008	1466.98
582.368	1469.24
582.728	1434.89
583.089	1467.43
583.449	1466.76
583.809	1424.04
584.169	1446.42
584.529	1459.52
584.889	1454.1
585.249	1436.02
585.609	1418.39
585.969	1434.44
586.329	1435.34
586.688	1446.19
587.048	1427.21
587.408	1432.63
587.768	1425.85
588.127	1431.95
588.487	1434.67
588.846	1432.41
589.206	1417.04
589.565	1424.72
589.925	1432.63
590.284	1418.17
590.643	1445.06
591.003	1430.15
591.362	1417.72
591.721	1417.49
592.08	1402.35
592.44	1423.37
592.799	1406.42
593.158	1438.73
593.517	1403.48
593.876	1441.67
594.235	1403.71
594.593	1419.98
594.952	1430.15
595.311	1392.18
595.67	1437.83
596.029	1419.98
596.387	1409.13
596.746	1398.73
597.104	1436.02
597.463	1400.32
597.822	1391.95
598.18	1415.01
598.538	1438.28
598.897	1415.46
599.255	1393.99
599.613	1403.48
599.972	1415.01
600.33	1403.25
600.688	1429.92
601.046	1378.85
601.404	1434.67
601.762	1444.16
602.12	1409.13
602.478	1417.72
602.836	1433.54
603.194	1408.68
603.552	1415.01
603.91	1450.71
604.268	1425.4
604.625	1433.08
604.983	1456.59
605.341	1415.46
605.698	1433.76
606.056	1429.92
606.413	1452.29
606.771	1457.26
607.128	1466.08
607.485	1459.52
607.843	1438.73
608.2	1436.25
608.557	1442.12
608.914	1420.2
609.272	1430.82
609.629	1430.82
609.986	1470.82
610.343	1462.91
610.7	1460.65
611.057	1443.7
611.414	1457.72
611.771	1459.98
612.127	1463.59
612.484	1431.05
612.841	1441.45
613.198	1443.25
613.554	1457.49
613.911	1486.64
614.267	1488.68
614.624	1477.15
614.98	1483.93
615.337	1484.83
615.693	1474.89
616.05	1462.24
616.406	1487.77
616.762	1494.33
617.118	1479.41
617.475	1475.34
617.831	1485.74
618.187	1496.58
618.543	1480.77
618.899	1464.95
619.255	1485.51
619.611	1501.78
619.967	1497.94
620.323	1480.31
620.678	1484.83
621.034	1495.68
621.39	1457.94
621.746	1489.81
622.101	1489.13
622.457	1487.77
622.812	1462.69
623.168	1479.18
623.523	1485.29
623.879	1477.6
624.234	1487.32
624.589	1483.93
624.945	1478.96
625.3	1493.2
625.655	1482.57
626.01	1473.99
626.365	1468.56
626.72	1482.57
627.075	1464.27
627.43	1465.17
627.785	1474.44
628.14	1483.25
628.495	1473.76
628.85	1486.64
629.205	1461.56
629.559	1466.3
629.914	1458.85
630.269	1483.03
630.623	1480.31
630.978	1483.93
631.332	1480.99
631.687	1436.47
632.041	1459.52
632.396	1463.59
632.75	1448.22
633.104	1478.96
633.459	1473.53
633.813	1475.34
634.167	1464.27
634.521	1475.34
634.875	1463.37
635.229	1469.69
635.583	1444.16
635.937	1455.46
636.291	1477.15
636.645	1443.25
636.999	1450.94
637.352	1468.34
637.706	1471.95
638.06	1472.86
638.413	1439.64
638.767	1471.05
639.121	1462.01
639.474	1453.65
639.828	1439.19
640.181	1447.09
640.534	1448.68
640.888	1454.55
641.241	1449.13
641.594	1469.02
641.947	1445.29
642.301	1441.9
642.654	1460.65
643.007	1442.8
643.36	1468.56
643.713	1454.78
644.066	1487.77
644.419	1463.14
644.771	1455.46
645.124	1446.64
645.477	1461.56
645.83	1430.82
646.182	1422.69
646.535	1443.7
646.888	1442.8
647.24	1437.83
647.593	1438.51
647.945	1414.78
648.298	1440.54
648.65	1466.3
649.002	1442.12
649.355	1480.31
649.707	1454.33
650.059	1440.99
650.411	1456.59
650.763	1468.34
651.115	1501.1
651.467	1501.56
651.819	1507.66
652.171	1515.12
652.523	1493.2
652.875	1512.86
653.227	1522.12
653.578	1526.19
653.93	1520.99
654.282	1526.19
654.633	1527.09
654.985	1529.8
655.337	1532.97
655.688	1550.82
656.039	1539.97
656.391	1555.11
656.742	1528.45
657.094	1550.37
657.445	1568.22
657.796	1571.39
658.147	1584.94
658.498	1586.53
658.849	1594.66
659.2	1570.48
659.551	1605.96
659.902	1630.82
660.253	1631.04
660.604	1595.34
660.955	1601.21
661.306	1644.38
661.656	1630.82
662.007	1655.22
662.358	1663.81
662.708	1658.16
663.059	1676.92
663.409	1671.27
663.76	1684.83
664.11	1686.41
664.461	1730.03
664.811	1714.43
665.161	1727.99
665.511	1727.99
665.862	1761.21
666.212	1758.95
666.562	1782.91
666.912	1764.6
667.262	1779.52
667.612	1793.98
667.962	1814.32
668.312	1812.73
668.662	1800.98
669.011	1841.66
669.361	1849.8
669.711	1853.41
670.06	1871.26
670.41	1873.3
670.76	1882.11
671.109	1943.8
671.459	1890.7
671.808	1923.69
672.157	1932.28
672.507	1899.51
672.856	1957.14
673.205	1976.35
673.554	1983.58
673.904	2004.37
674.253	2014.31
674.602	2027.42
674.951	2008.89
675.3	2020.64
675.649	2055.21
675.998	2070.81
676.346	2105.16
676.695	2124.59
677.044	2120.75
677.393	2129.34
677.741	2158.49
678.09	2140.64
678.438	2175.21
678.787	2142.22
679.135	2189.67
679.484	2198.49
679.832	2240.29
680.181	2215.89
680.529	2263.12
680.877	2272.38
681.225	2290.24
681.573	2319.39
681.922	2297.92
682.27	2309.67
682.618	2308.77
682.966	2346.73
683.314	2352.38
683.661	2361.19
684.009	2404.13
684.357	2405.26
684.705	2444.58
685.053	2452.27
685.4	2468.76
685.748	2475.54
686.095	2530.46
686.443	2476.45
686.79	2511.47
687.138	2547.18
687.485	2509.89
687.832	2572.26
688.18	2588.99
688.527	2569.55
688.874	2588.76
689.221	2620.85
689.568	2656.1
689.915	2667.63
690.262	2703.56
690.609	2697.46
690.956	2700.4
691.303	2713.73
691.65	2726.84
691.997	2760.73
692.344	2765.93
692.69	2788.08
693.037	2809.32
693.383	2804.35
693.73	2803.67
694.077	2851.13
694.423	2831.92
694.769	2898.58
695.116	2885.47
695.462	2922.76
695.808	2903.33
696.155	2955.53
696.501	2906.49
696.847	2968.41
697.193	2953.5
697.539	3000.95
697.885	3008.41
698.231	2990.56
698.577	3032.59
698.923	3046.15
699.269	3057.67
699.614	3053.83
699.96	3082.31
700.306	3104
700.651	3113.49
700.997	3106.03
701.342	3101.74
701.688	3162.3
702.033	3153.49
702.379	3176.99
702.724	3199.14
703.069	3217.67
703.415	3211.12
703.76	3234.84
704.105	3239.82
704.45	3256.09
704.795	3311.9
705.14	3308.97
705.485	3292.47
705.83	3302.64
706.175	3336.99
706.52	3359.36
706.865	3340.83
707.209	3388.51
707.554	3363.65
707.899	3423.09
708.243	3392.13
708.588	3412.24
708.932	3400.72
709.277	3444.56
709.621	3444.1
709.966	3445.69
710.31	3461.51
710.654	3442.3
710.998	3470.09
711.342	3503.76
711.687	3498.79
712.031	3483.2
712.375	3543.31
712.719	3528.17
713.063	3547.38
713.407	3607.94
713.75	3571.56
714.094	3562.07
714.438	3595.29
714.782	3618.11
715.125	3588.51
715.469	3628.96
715.812	3600.03
716.156	3594.83
716.499	3611.56
716.843	3629.41
717.186	3639.58
717.53	3672.57
717.873	3703.31
718.216	3717.09
718.559	3659.69
718.902	3697.88
719.246	3713.48
719.589	3722.06
719.932	3732.23
720.275	3677.32
720.617	3755.06
720.96	3718.45
721.303	3763.19
721.646	3747.6
721.989	3754.6
722.331	3784.89
722.674	3818.56
723.016	3809.52
723.359	3821.95
723.701	3791.67
724.044	3807.71
724.386	3780.37
724.729	3793.47
725.071	3816.07
725.413	3833.47
725.755	3811.78
726.097	3840.25
726.439	3768.62
726.782	3784.43
727.124	3807.03
727.465	3846.81
727.807	3852.23
728.149	3796.19
728.491	3823.08
728.833	3887.03
729.175	3859.23
729.516	3863.98
729.858	3858.1
730.199	3848.16
730.541	3829.86
730.882	3893.36
731.224	3876.86
731.565	3883.87
731.906	3869.86
732.248	3926.8
732.589	3867.82
732.93	3898.1
733.271	3863.3
733.612	3892.23
733.953	3917.09
734.294	3912.11
734.635	3904.43
734.976	3891.55
735.317	3899.23
735.658	3903.3
735.999	3902.17
736.339	3892.45
736.68	3930.19
737.021	3909.4
737.361	3886.58
737.702	3903.08
738.042	3898.1
738.383	3896.52
738.723	3870.99
739.063	3823.98
739.404	3869.4
739.744	3874.15
740.084	3900.82
740.424	3884.09
740.764	3848.84
741.104	3881.61
741.444	3892.45
741.784	3876.64
742.124	3868.95
742.464	3870.99
742.804	3944.66
743.143	3860.59
743.483	3861.49
743.823	3854.04
744.162	3900.36
744.502	3869.86
744.841	3846.81
745.181	3875.73
745.52	3870.76
745.86	3866.69
746.199	3882.96
746.538	3883.41
746.877	3889.29
747.216	3874.83
747.556	3833.7
747.895	3852
748.234	3883.87
748.573	3862.85
748.911	3850.2
749.25	3842.96
749.589	3814.72
749.928	3824.43
750.267	3790.99
750.605	3832.12
750.944	3816.07
751.283	3766.58
751.621	3804.32
751.96	3747.15
752.298	3772.23
752.636	3741.27
752.975	3771.33
753.313	3767.71
753.651	3798.9
753.989	3761.38
754.327	3718.9
754.666	3741.5
755.004	3759.12
755.342	3751.21
755.679	3724.77
756.017	3741.27
756.355	3694.49
756.693	3709.63
757.031	3668.51
757.368	3730.2
757.706	3687.71
758.044	3710.54
758.381	3706.02
758.719	3671.44
759.056	3681.16
759.394	3621.95
759.731	3658.11
760.068	3660.37
760.405	3621.5
760.743	3658.79
761.08	3634.16
761.417	3582.86
761.754	3597.77
762.091	3648.84
762.428	3579.24
762.765	3601.16
763.102	3567.49
763.438	3583.08
763.775	3546.93
764.112	3517.1
764.449	3510.09
764.785	3506.48
765.122	3460.15
765.458	3506.48
765.795	3470.54
766.131	3500.6
766.467	3499.24
766.804	3473.93
767.14	3469.64
767.476	3442.3
767.812	3442.3
768.148	3460.15
768.485	3408.85
768.821	3433.48
769.157	3402.07
769.492	3395.97
769.828	3403.88
770.164	3357.55
770.5	3373.15
770.836	3394.61
771.171	3354.16
771.507	3350.77
771.842	3371.11
772.178	3318.23
772.513	3318.01
772.849	3320.27
773.184	3302.87
773.519	3279.81
773.855	3280.94
774.19	3284.33
774.525	3211.57
774.86	3259.25
775.195	3272.36
775.53	3250.21
775.865	3204.11
776.2	3187.16
776.535	3177.67
776.87	3188.97
777.205	3149.2
777.539	3138.35
777.874	3179.93
778.209	3173.6
778.543	3136.99
778.878	3137.9
779.212	3078.01
779.547	3093.15
779.881	3104.9
780.215	3086.37
780.55	3084.79
780.884	3046.6
781.218	3051.8
781.552	3066.71
781.886	3031.01
782.22	3043.21
782.554	3000.05
782.888	3023.55
783.222	3007.51
783.556	2977
783.889	2995.08
784.223	2955.76
784.557	2975.87
784.89	2980.84
785.224	2983.1
785.557	2959.15
785.891	2940.16
786.224	2918.47
786.558	2910.11
786.891	2877.79
787.224	2895.87
787.557	2878.92
787.891	2875.31
788.224	2918.47
788.557	2856.78
788.89	2838.47
789.223	2841.86
789.556	2850.22
789.888	2813.39
790.221	2804.35
790.554	2842.99
790.887	2807.28
791.219	2785.59
791.552	2823.33
791.884	2777.68
792.217	2773.61
792.549	2756.44
792.882	2750.79
793.214	2730.9
793.546	2730
793.879	2742.43
794.211	2711.92
794.543	2709.66
794.875	2725.93
795.207	2719.38
795.539	2684.35
795.871	2703.78
796.203	2695.88
796.535	2671.02
796.867	2637.12
797.198	2661.98
797.53	2668.98
797.862	2662.66
798.193	2630.34
798.525	2632.6
798.856	2598.25
799.188	2621.75
799.519	2615.88
799.85	2617.01
800.182	2570.68
800.513	2587.4
800.844	2561.19
801.175	2574.75
801.506	2585.82
801.837	2603
802.168	2543.11
802.499	2575.2
802.83	2524.81
803.161	2554.18
803.491	2567.29
803.822	2531.81
804.153	2492.49
804.483	2508.99
804.814	2480.74
805.145	2480.74
805.475	2512.6
805.805	2476.67
806.136	2509.67
806.466	2466.5
806.796	2492.26
807.126	2482.55
807.457	2474.64
807.787	2421.76
808.117	2448.65
808.447	2422.21
808.777	2403
809.107	2399.84
809.436	2452.04
809.766	2444.13
810.096	2417.69
810.426	2408.43
810.755	2423.79
811.085	2382.66
811.414	2400.29
811.744	2354.42
812.073	2353.96
812.403	2364.36
812.732	2348.09
813.061	2367.52
813.39	2378.82
813.719	2350.8
814.049	2350.12
814.378	2332.27
814.707	2320.07
815.036	2346.28
815.365	2311.93
815.693	2303.8
816.022	2360.52
816.351	2277.58
816.68	2240.52
817.008	2314.64
817.337	2304.93
817.665	2290.91
817.994	2296.56
818.322	2275.55
818.651	2273.06
818.979	2278.71
819.307	2303.12
819.636	2261.99
819.964	2268.09
820.292	2241.42
820.62	2253.63
820.948	2233.29
821.276	2264.7
821.604	2234.19
821.932	2236.45
822.259	2266.51
822.587	2281.2
822.915	2231.93
823.243	2253.4
823.57	2254.53
823.898	2255.44
824.225	2251.59
824.553	2252.05
824.88	2219.05
825.207	2264.47
825.535	2235.1
825.862	2254.76
826.189	2264.7
826.516	2254.53
826.843	2247.53
827.17	2232.61
827.497	2235.77
827.824	2240.75
828.151	2271.25
828.478	2274.19
828.805	2258.6
829.131	2218.37
829.458	2238.26
829.785	2243.23
830.111	2258.6
830.438	2238.71
830.764	2238.71
831.09	2227.87
831.417	2231.48
831.743	2215.44
832.069	2222.67
832.395	2229.45
832.722	2218.6
833.048	2249.11
833.374	2215.89
833.7	2217.02
834.026	2222.89
834.351	2210.24
834.677	2216.79
835.003	2182.22
835.329	2236.68
835.654	2221.09
835.98	2188.77
836.306	2259.5
836.631	2216.79
836.956	2198.04
837.282	2183.57
837.607	2216.57
837.932	2201.2
838.258	2180.41
838.583	2193.97
838.908	2175.66
839.233	2144.93
839.558	2160.75
839.883	2137.92
840.208	2197.81
840.533	2173.18
840.858	2139.05
841.182	2202.56
841.507	2153.06
841.832	2160.3
842.156	2145.61
842.481	2139.51
842.805	2168.88
843.13	2138.6
843.454	2136.34
843.778	2125.49
844.103	2129.56
844.427	2122.11
844.751	2119.62
845.075	2135.21
845.399	2126.62
845.723	2074.65
846.047	2141.77
846.371	2108.32
846.695	2073.07
847.019	2078.04
847.343	2048.89
847.666	2039.17
847.99	2039.62
848.313	2034.2
848.637	2045.95
848.96	2046.63
849.284	2054.76
849.607	1980.64
849.931	2010.47
850.254	1986.74
850.577	1984.26
850.9	1993.75
851.223	1974.31
851.546	2002.11
851.869	1983.8
852.192	1955.56
852.515	1967.98
852.838	1955.56
853.161	1965.95
853.483	1918.04
853.806	1973.63
854.129	1948.1
854.451	1927.53
854.774	1920.08
855.096	1917.36
855.419	1938.83
855.741	1918.27
856.063	1887.76
856.385	1881.43
856.708	1925.73
857.03	1859.97
857.352	1904.03
857.674	1907.87
857.996	1877.59
858.318	1870.59
858.64	1884.15
858.961	1869
859.283	1870.59
859.605	1841.21
859.926	1815.9
860.248	1845.05
860.57	1831.72
860.891	1847.31
861.212	1823.58
861.534	1821.55
861.855	1834.43
862.176	1812.06
862.498	1829.68
862.819	1847.31
863.14	1812.73
863.461	1831.49
863.782	1843.02
864.103	1814.09
864.424	1793.07
864.745	1836.24
865.065	1798.05
865.386	1807.09
865.707	1801.44
866.027	1775.45
866.348	1789.46
866.668	1765.05
866.989	1791.04
867.309	1761.66
867.63	1813.41
867.95	1772.51
868.27	1768.89
868.59	1774.77
868.91	1781.1
869.23	1772.96
869.55	1761.44
869.87	1800.53
870.19	1781.55
870.51	1775
870.83	1757.14
871.15	1764.15
871.469	1772.28
871.789	1767.31
872.109	1746.75
872.428	1740.65
872.748	1760.98
873.067	1760.53
873.386	1709.01
873.706	1722.79
874.025	1720.53
874.344	1721.89
874.663	1726.64
874.982	1738.39
875.301	1771.83
875.62	1700.2
875.939	1698.16
876.258	1711.72
876.577	1708.78
876.896	1714.88
877.214	1695.45
877.533	1692.74
877.852	1726.18
878.17	1696.13
878.489	1690.93
878.807	1689.8
879.125	1695.22
879.444	1709.46
879.762	1720.31
880.08	1732.28
880.398	1683.7
880.716	1687.09
881.034	1682.12
881.352	1711.04
881.67	1691.16
881.988	1669.91
882.306	1673.98
882.624	1674.43
882.941	1667.43
883.259	1705.84
883.577	1674.21
883.894	1646.19
884.212	1646.19
884.529	1660.87
884.846	1639.41
885.164	1641.89
885.481	1625.85
885.798	1642.8
886.115	1644.83
886.432	1656.58
886.75	1614.32
887.067	1611.84
887.383	1627.2
887.7	1612.51
888.017	1619.07
888.334	1641.44
888.651	1594.21
888.967	1622.23
889.284	1602.8
889.6	1582.46
889.917	1590.82
890.233	1578.16
890.55	1566.87
890.866	1582.46
891.182	1577.49
891.498	1551.95
891.815	1601.89
892.131	1550.14
892.447	1554.21
892.763	1546.53
893.079	1549.69
893.395	1551.72
893.71	1544.04
894.026	1566.64
894.342	1549.46
894.657	1539.97
894.973	1534.1
895.289	1521.22
895.604	1548.79
895.92	1527.32
896.235	1499.07
896.55	1511.5
896.865	1537.49
897.181	1502.69
897.496	1518.96
897.811	1505.4
898.126	1480.54
898.441	1513.31
898.756	1486.19
899.071	1482.8
899.386	1473.53
899.7	1459.75
900.015	1470.82
900.33	1439.41
900.644	1471.05
900.959	1422.69
901.273	1447.77
901.588	1497.49
901.902	1426.53
902.216	1421.33
902.531	1439.86
902.845	1445.06
903.159	1423.82
903.473	1401.9
903.787	1424.04
904.101	1414.33
904.415	1405.51
904.729	1397.15
905.042	1388.11
905.356	1414.1
905.67	1422.24
905.984	1375.46
906.297	1377.27
906.611	1399.19
906.924	1400.09
907.237	1368
907.551	1375.01
907.864	1376.59
908.177	1365.74
908.491	1349.47
908.804	1366.64
909.117	1353.99
909.43	1326.87
909.743	1309.47
910.056	1345.85
910.368	1320.77
910.681	1342.69
910.994	1338.85
911.307	1356.48
911.619	1313.31
911.932	1306.76
912.244	1299.98
912.557	1290.71
912.869	1289.58
913.181	1304.73
913.494	1272.86
913.806	1295.23
914.118	1264.05
914.43	1294.78
914.742	1276.48
915.054	1294.56
915.366	1269.92
915.678	1283.26
915.99	1245.29
916.302	1252.07
916.613	1240.09
916.925	1271.05
917.236	1258.63
917.548	1237.38
917.859	1250.04
918.171	1229.47
918.482	1230.38
918.794	1209.13
919.105	1240.77
919.416	1210.49
919.727	1207.78
920.038	1243.71
920.349	1183.6
920.66	1186.31
920.971	1215.91
921.282	1192.19
921.593	1179.98
921.903	1156.03
922.214	1191.96
922.525	1154.9
922.835	1164.84
923.146	1166.42
923.456	1161
923.767	1177.95
924.077	1148.35
924.387	1162.13
924.697	1156.03
925.008	1143.83
925.318	1144.73
925.628	1145.18
925.938	1151.74
926.248	1137.27
926.558	1130.94
926.867	1125.3
927.177	1133.88
927.487	1119.42
927.796	1138.4
928.106	1099.76
928.416	1117.39
928.725	1102.25
929.034	1087.78
929.344	1085.97
929.653	1093.66
929.962	1091.4
930.271	1082.81
930.581	1093.88
930.89	1077.61
931.199	1070.16
931.508	1085.07
931.817	1054.11
932.125	1039.87
932.434	1041.91
932.743	1086.88
933.051	1062.47
933.36	1058.86
933.669	1041.68
933.977	1042.59
934.286	1040.78
934.594	1045.07
934.902	1054.79
935.21	1032.64
935.519	1026.99
935.827	1018.18
936.135	1025.86
936.443	1023.83
936.751	1009.82
937.059	1023.83
937.367	1012.3
937.674	1044.85
937.982	1006.2
938.29	988.35
938.597	1024.28
938.905	957.84
939.213	987.9
939.52	993.77
939.827	1013.89
940.135	965.75
940.442	998.97
940.749	984.96
941.056	975.47
941.363	967.56
941.67	948.35
941.977	969.59
942.284	974.56
942.591	975.92
942.898	972.3
943.205	956.49
943.511	944.06
943.818	948.58
944.125	944.51
944.431	945.86
944.738	957.39
945.044	938.41
945.35	944.06
945.657	918.07
945.963	936.15
946.269	927.33
946.575	940.22
946.881	916.26
947.187	923.27
947.493	934.79
947.799	907.9
948.105	896.15
948.41	933.89
948.716	930.72
949.022	888.92
949.327	903.15
949.633	901.8
949.938	897.73
950.244	895.7
950.549	877.17
950.854	877.62
951.16	897.28
951.465	889.37
951.77	911.06
952.075	877.39
952.38	859.77
952.685	881.91
952.99	846.66
953.294	860.22
953.599	895.02
953.904	856.6
954.209	854.34
954.513	856.38
954.818	862.03
955.122	840.33
955.426	865.42
955.731	843.04
956.035	843.04
956.339	866.09
956.643	858.18
956.948	821.57
957.252	840.11
957.556	808.02
957.86	845.53
958.163	811.86
958.467	830.39
958.771	813.67
959.075	820.22
959.378	853.66
959.682	819.09
959.985	820.44
960.289	824.06
960.592	823.16
960.896	832.2
961.199	803.5
961.502	834.46
961.805	770.28
962.108	796.04
962.411	800.11
962.714	807.34
963.017	800.78
963.32	808.92
963.623	779.99
963.926	785.42
964.228	794.23
964.531	790.16
964.833	756.04
965.136	754.23
965.438	760.11
965.741	755.14
966.043	787.23
966.345	757.17
966.648	772.76
966.95	769.15
967.252	762.59
967.554	766.66
967.856	742.03
968.158	749.49
968.46	739.09
968.761	732.99
969.063	742.25
969.365	724.18
969.666	745.19
969.968	736.15
970.269	723.5
970.571	732.76
970.872	747
971.174	759.2
971.475	736.83
971.776	709.49
972.077	742.03
972.378	731.41
972.679	727.34
972.98	722.14
973.281	728.24
973.582	735.93
973.883	698.41
974.183	703.61
974.484	723.27
974.785	734.57
975.085	699.32
975.386	704.74
975.686	708.81
975.986	703.39
976.287	691.18
976.587	676.95
976.887	696.83
977.187	690.05
977.487	703.39
977.787	700.67
978.087	693.89
978.387	697.51
978.687	670.84
978.987	679.88
979.286	665.19
979.586	682.6
979.885	695.7
980.185	694.35
980.484	685.53
980.784	681.47
981.083	677.17
981.382	677.17
981.682	687.34
981.981	665.42
982.28	668.13
982.579	655.03
982.878	659.54
983.177	659.32
983.475	669.26
983.774	672.43
984.073	653.44
984.372	655.25
984.67	643.5
984.969	655.93
985.267	644.18
985.566	662.26
985.864	641.69
986.162	639.66
986.461	648.25
986.759	636.72
987.057	624.52
987.355	638.53
987.653	639.66
987.951	615.93
988.249	622.48
988.547	626.1
988.844	625.2
989.142	621.35
989.44	622.48
989.737	611.86
990.035	620.9
990.332	629.94
990.63	618.42
990.927	621.13
991.224	623.39
991.521	601.92
991.819	606.44
992.116	599.21
992.413	617.74
992.71	603.5
993.006	574.58
993.303	609.83
993.6	605.53
993.897	614.57
994.193	578.87
994.49	598.53
994.787	585.2
995.083	599.43
995.379	597.4
995.676	563.05
995.972	598.53
996.268	580.22
996.565	594.91
996.861	587.91
997.157	583.39
997.453	580.22
997.749	595.14
998.044	565.31
998.34	574.35
998.636	574.8
998.932	567.8
999.227	565.31
999.523	561.24
999.818	560.34
1000.114	581.13
1000.409	575.71
1000.704	557.63
1001	576.61
1001.295	565.99
1001.59	561.69
1001.885	563.05
1002.18	558.76
1002.475	549.27
1002.77	553.33
1003.065	554.01
1003.359	572.99
1003.654	538.42
1003.949	549.04
1004.243	552.88
1004.538	573.22
1004.832	530.28
1005.127	538.87
1005.421	543.62
1005.715	521.7
1006.009	563.28
1006.304	540.45
1006.598	519.44
1006.892	532.54
1007.186	535.71
1007.48	531.64
1007.773	537.74
1008.067	532.54
1008.361	524.41
1008.655	552.88
1008.948	527.34
1009.242	544.07
1009.535	516.05
1009.829	505.65
1010.122	518.53
1010.415	518.53
1010.708	514.24
1011.001	511.75
1011.295	497.97
1011.588	497.29
1011.881	484.41
1012.173	509.04
1012.466	497.29
1012.759	485.99
1013.052	489.61
1013.344	502.71
1013.637	488.93
1013.93	486.89
1014.222	491.64
1014.514	493.22
1014.807	501.81
1015.099	491.64
1015.391	493.45
1015.683	483.5
1015.976	478.53
1016.268	475.59
1016.56	492.09
1016.851	489.38
1017.143	477.85
1017.435	476.95
1017.727	477.18
1018.018	483.96
1018.31	488.48
1018.602	470.4
1018.893	489.15
1019.185	477.63
1019.476	460.23
1019.767	487.35
1020.058	480.79
1020.35	477.85
1020.641	472.66
1020.932	483.05
1021.223	483.28
1021.514	469.27
1021.804	453.22
1022.095	464.07
1022.386	450.28
1022.677	451.87
1022.967	453.9
1023.258	455.71
1023.548	446.67
1023.839	463.62
1024.129	451.19
1024.419	469.49
1024.709	452.77
1025	460.23
1025.29	456.84
1025.58	464.3
1025.87	463.17
1026.16	453.9
1026.449	438.99
1026.739	449.38
1027.029	461.36
1027.319	421.36
1027.608	456.16
1027.898	429.72
1028.187	441.25
1028.477	432.43
1028.766	445.31
1029.055	430.85
1029.344	413.9
1029.634	441.25
1029.923	425.65
1030.212	415.71
1030.501	443.05
1030.79	417.52
1031.078	428.59
1031.367	422.26
1031.656	411.42
1031.945	438.76
1032.233	418.87
1032.522	428.82
1032.81	426.33
1033.099	417.52
1033.387	415.26
1033.675	426.33
1033.963	425.43
1034.251	403.28
1034.54	399.66
1034.828	400.79
1035.116	425.2
1035.403	411.87
1035.691	390.17
1035.979	424.07
1036.267	426.1
1036.554	413.68
1036.842	403.73
1037.129	401.92
1037.417	399.44
1037.704	405.99
1037.992	392.21
1038.279	398.53
1038.566	406.67
1038.853	406.67
1039.14	406.67
