Data from carpet_green_FLMS001491_00012.txt Node
Date: Wed Feb 08 10:34:58 GMT 2017
User: dcchb
Spectrometer: FLMS00149
Trigger mode: 0
Integration Time (sec): 2.000000E-2
Scans to average: 10
Electric dark correction enabled: true
Nonlinearity correction enabled: false
Boxcar width: 0
XAxis mode: Wavelengths
Number of Pixels in Spectrum: 2048
>>>>>Begin Spectral Data<<<<<
341.393	-10.18
341.776	-10.18
342.16	-10.18
342.543	-70.07
342.927	-73.91
343.31	-54.93
343.693	-80.46
344.077	-59.9
344.46	-63.74
344.843	-39.79
345.226	-46.34
345.61	-35.04
345.993	-27.13
346.376	-10.41
346.759	9.48
347.142	0.89
347.525	35.47
347.908	66.65
348.291	79.31
348.674	105.29
349.057	120.66
349.44	110.72
349.823	138.74
350.206	163.15
350.588	171.05
350.971	187.1
351.354	189.81
351.737	206.08
352.119	221.22
352.502	237.95
352.884	241.34
353.267	267.32
353.65	244.73
354.032	263.48
354.414	285.4
354.797	276.14
355.179	286.08
355.562	280.88
355.944	293.31
356.326	287.89
356.709	303.71
357.091	302.35
357.473	319.07
357.855	308.23
358.238	312.52
358.62	298.06
359.002	310.03
359.384	315.68
359.766	313.88
360.148	305.51
360.53	302.8
360.912	304.16
361.294	304.84
361.676	320.2
362.057	320.2
362.439	284.95
362.821	293.99
363.203	289.24
363.584	286.31
363.966	284.05
364.348	288.57
364.729	278.17
365.111	278.85
365.493	286.76
365.874	301.67
366.256	283.59
366.637	288.79
367.019	279.3
367.4	293.54
367.781	294.44
368.163	270.94
368.544	271.84
368.925	279.3
369.306	269.81
369.688	294.22
370.069	259.87
370.45	275.68
370.831	285.4
371.212	279.07
371.593	290.6
371.974	284.95
372.355	279.98
372.736	277.49
373.117	287.66
373.498	286.98
373.879	279.53
374.26	275.01
374.641	291.96
375.021	270.26
375.402	273.88
375.783	278.17
376.163	274.33
376.544	267.1
376.925	275.01
377.305	304.16
377.686	261.67
378.066	290.6
378.447	282.24
378.827	285.4
379.208	301.9
379.588	288.34
379.968	309.81
380.349	284.5
380.729	271.39
381.109	285.85
381.489	281.33
381.87	268
382.25	281.11
382.63	304.38
383.01	304.38
383.39	292.41
383.77	320.88
384.15	302.35
384.53	293.54
384.91	293.99
385.29	293.09
385.67	288.11
386.049	300.32
386.429	285.63
386.809	309.58
387.189	302.8
387.568	281.79
387.948	294.67
388.328	306.64
388.707	315.01
389.087	288.34
389.466	327.89
389.846	313.42
390.225	307.32
390.605	317.27
390.984	298.96
391.363	279.75
391.743	293.99
392.122	315.91
392.501	309.13
392.881	301.9
393.26	309.58
393.639	306.87
394.018	292.18
394.397	304.38
394.776	307.77
395.155	312.29
395.534	287.89
395.913	304.61
396.292	302.12
396.671	320.43
397.05	302.35
397.429	313.88
397.808	298.51
398.186	296.93
398.565	300.77
398.944	310.94
399.323	296.25
399.701	308
400.08	314.55
400.458	305.97
400.837	305.74
401.215	332.63
401.594	307.55
401.972	310.26
402.351	291.96
402.729	314.1
403.107	323.82
403.486	321.79
403.864	288.79
404.242	303.93
404.62	299.19
404.999	322.92
405.377	297.15
405.755	327.89
406.133	308.68
406.511	312.97
406.889	321.11
407.267	309.13
407.645	328.56
408.023	308
408.401	325.18
408.779	314.1
409.156	315.68
409.534	326.98
409.912	336.25
410.29	322.01
410.667	325.18
411.045	310.03
411.422	312.52
411.8	321.11
412.178	325.18
412.555	326.53
412.933	351.84
413.31	317.72
413.687	309.81
414.065	323.14
414.442	309.13
414.819	340.99
415.197	324.27
415.574	350.49
415.951	333.54
416.328	338.28
416.705	333.99
417.082	327.89
417.46	321.11
417.837	343.25
418.214	330.15
418.591	316.59
418.967	312.07
419.344	323.82
419.721	323.37
420.098	337.83
420.475	326.3
420.852	325.18
421.228	328.34
421.605	311.39
421.982	346.87
422.358	342.12
422.735	329.24
423.111	333.76
423.488	336.25
423.864	343.03
424.241	339.41
424.617	337.83
424.994	343.48
425.37	354.33
425.746	338.73
426.123	325.85
426.499	343.25
426.875	334.67
427.251	357.26
427.627	338.28
428.003	329.24
428.379	350.03
428.756	348
429.132	341.9
429.507	348.23
429.883	350.94
430.259	361.33
430.635	343.93
431.011	343.93
431.387	363.59
431.763	354.1
432.138	368.79
432.514	372.41
432.89	359.75
433.265	381.67
433.641	360.88
434.016	366.3
434.392	367.21
434.767	369.69
435.143	361.33
435.518	375.12
435.894	359.07
436.269	358.17
436.644	371.28
437.02	371.05
437.395	388.45
437.77	354.1
438.145	383.7
438.52	359.07
438.895	385.06
439.271	381.44
439.646	378.06
440.021	366.98
440.395	381.22
440.77	364.72
441.145	380.99
441.52	393.65
441.895	378.73
442.27	397.72
442.645	380.31
443.019	410.37
443.394	374.89
443.769	376.47
444.143	376.02
444.518	369.92
444.892	385.06
445.267	398.17
445.641	395.23
446.016	403.82
446.39	407.43
446.764	403.37
447.139	389.13
447.513	420.99
447.887	388
448.262	407.43
448.636	415.34
449.01	389.58
449.384	414.66
449.758	419.86
450.132	406.53
450.506	394.33
450.88	388.22
451.254	423.25
451.628	424.38
452.002	413.99
452.376	399.3
452.75	429.58
453.123	406.98
453.497	404.72
453.871	428.22
454.244	421.67
454.618	443.36
454.992	438.62
455.365	417.6
455.739	441.33
456.112	439.52
456.486	427.09
456.859	430.71
457.232	423.48
457.606	422.8
457.979	435.45
458.352	420.77
458.725	437.26
459.099	443.59
459.472	441.78
459.845	463.25
460.218	433.65
460.591	446.75
460.964	446.98
461.337	469.58
461.71	447.66
462.083	475.68
462.456	445.62
462.829	439.3
463.201	463.93
463.574	453.08
463.947	455.12
464.32	484.27
464.692	483.36
465.065	490.82
465.438	470.48
465.81	466.41
466.183	462.35
466.555	493.76
466.928	482.91
467.3	505.06
467.672	508.45
468.045	489.46
468.417	528.11
468.789	495.11
469.161	517.26
469.534	504.83
469.906	499.18
470.278	497.15
470.65	525.85
471.022	524.27
471.394	518.16
471.766	526.53
472.138	538.5
472.51	548.9
472.882	555.23
473.253	538.95
473.625	558.62
473.997	564.04
474.369	556.13
474.74	550.93
475.112	575.79
475.484	568.56
475.855	584.83
476.227	560.88
476.598	587.77
476.97	586.19
477.341	591.61
477.713	595.22
478.084	622.57
478.455	613.76
478.827	632.74
479.198	640.87
479.569	597.94
479.94	626.41
480.311	635.9
480.682	657.37
481.053	653.08
481.424	657.37
481.795	669.35
482.166	680.65
482.537	661.89
482.908	692.62
483.279	674.54
483.65	679.74
484.021	709.8
484.391	711.61
484.762	720.42
485.133	696.24
485.503	716.58
485.874	735.79
486.244	764.26
486.615	757.25
486.985	761.32
487.356	761.55
487.726	748.21
488.097	779.4
488.467	763.13
488.837	781.43
489.207	787.99
489.578	830.25
489.948	794.09
490.318	823.24
490.688	816.91
491.058	844.26
491.428	833.86
491.798	854.2
492.168	865.73
492.538	861.21
492.908	870.7
493.278	868.89
493.648	871.15
494.017	877.48
494.387	874.54
494.757	866.18
495.126	883.13
495.496	881.54
495.866	910.92
496.235	916.35
496.605	910.24
496.974	933.29
497.344	900.53
497.713	918.38
498.082	932.16
498.452	947.53
498.821	930.13
499.19	933.97
499.559	936.46
499.928	942.33
500.298	964.03
500.667	959.96
501.036	959.06
501.405	965.61
501.774	968.32
502.143	990.92
502.512	980.3
502.88	994.54
503.249	983.01
503.618	978.04
503.987	1005.84
504.356	1007.87
504.724	990.24
505.093	981.65
505.462	1004.93
505.83	1010.81
506.199	1013.29
506.567	1042.9
506.936	1063.69
507.304	1043.8
507.672	1020.07
508.041	1025.72
508.409	1053.07
508.777	1059.62
509.145	1026.63
509.514	1070.24
509.882	1053.52
510.25	1045.83
510.618	1060.75
510.986	1060.52
511.354	1066.17
511.722	1084.93
512.09	1059.17
512.458	1056
512.826	1109.79
513.193	1101.43
513.561	1075.66
513.929	1092.39
514.297	1120.63
514.664	1146.85
515.032	1112.5
515.4	1121.76
515.767	1125.83
516.135	1094.42
516.502	1094.65
516.869	1133.06
517.237	1147.75
517.604	1115.21
517.972	1120.41
518.339	1161.09
518.706	1139.16
519.073	1147.98
519.44	1163.12
519.808	1192.27
520.175	1172.16
520.542	1160.63
520.909	1164.48
521.276	1171.03
521.643	1182.33
522.009	1176.9
522.376	1197.24
522.743	1196.34
523.11	1199.05
523.477	1154.31
523.843	1217.13
524.21	1192.5
524.577	1234.08
524.943	1208.32
525.31	1225.49
525.676	1244.7
526.043	1212.84
526.409	1231.59
526.776	1223.23
527.142	1236.34
527.508	1239.73
527.874	1253.74
528.241	1258.71
528.607	1260.07
528.973	1252.83
529.339	1232.95
529.705	1282.44
530.071	1269.11
530.437	1262.1
530.803	1291.03
531.169	1248.54
531.535	1273.4
531.901	1279.27
532.267	1266.85
532.632	1268.2
532.998	1284.92
533.364	1260.29
533.73	1277.24
534.095	1270.69
534.461	1288.09
534.826	1288.54
535.192	1336.67
535.557	1299.61
535.923	1280.4
536.288	1316.11
536.653	1315.88
537.019	1283.79
537.384	1295.55
537.749	1312.04
538.114	1328.54
538.479	1301.65
538.845	1331.25
539.21	1288.54
539.575	1286.96
539.94	1326.28
540.305	1345.49
540.67	1310.69
541.034	1319.27
541.399	1317.47
541.764	1316.34
542.129	1307.52
542.494	1316.56
542.858	1325.83
543.223	1305.94
543.587	1320.63
543.952	1313.62
544.316	1334.64
544.681	1322.66
545.045	1328.31
545.41	1321.99
545.774	1343.23
546.138	1344.81
546.503	1331.02
546.867	1319.73
547.231	1323.34
547.595	1309.33
547.959	1360.18
548.324	1340.74
548.688	1352.72
549.052	1328.76
549.416	1333.06
549.779	1320.18
550.143	1350.23
550.507	1344.81
550.871	1349.33
551.235	1377.12
551.599	1343.91
551.962	1323.57
552.326	1327.86
552.689	1336.45
553.053	1326.96
553.417	1322.66
553.78	1354.07
554.143	1348.2
554.507	1349.78
554.87	1371.48
555.234	1366.28
555.597	1342.1
555.96	1364.47
556.323	1363.11
556.686	1383.68
557.05	1372.15
557.413	1377.8
557.776	1383.68
558.139	1380.74
558.502	1373.28
558.865	1359.95
559.228	1369.44
559.59	1395.88
559.953	1400.85
560.316	1363.79
560.679	1387.97
561.041	1417.8
561.404	1389.78
561.767	1406.28
562.129	1423
562.492	1397.24
562.854	1402.43
563.217	1396.79
563.579	1402.66
563.941	1410.57
564.304	1411.7
564.666	1413.06
565.028	1425.26
565.39	1406.05
565.753	1397.24
566.115	1418.48
566.477	1463.68
566.839	1425.94
567.201	1432.04
567.563	1420.29
567.925	1430
568.287	1439.04
568.648	1430.91
569.01	1451.25
569.372	1452.15
569.734	1416.45
570.095	1425.94
570.457	1463.9
570.819	1446.28
571.18	1439.27
571.542	1449.21
571.903	1452.38
572.265	1462.77
572.626	1445.15
572.987	1423.68
573.349	1454.41
573.71	1438.37
574.071	1454.18
574.432	1449.89
574.794	1469.78
575.155	1445.15
575.516	1455.09
575.877	1441.53
576.238	1439.95
576.599	1456.22
576.96	1470.46
577.32	1440.17
577.681	1427.97
578.042	1428.42
578.403	1447.41
578.763	1428.42
579.124	1426.39
579.485	1440.4
579.845	1465.26
580.206	1434.75
580.566	1424.36
580.927	1447.18
581.287	1458.03
581.648	1450.12
582.008	1444.47
582.368	1401.76
582.728	1436.78
583.089	1426.62
583.449	1444.02
583.809	1418.25
584.169	1426.84
584.529	1392.04
584.889	1455.99
585.249	1432.26
585.609	1407.86
585.969	1413.51
586.329	1415.32
586.688	1374.19
587.048	1393.4
587.408	1390.68
587.768	1407.86
588.127	1408.31
588.487	1405.6
588.846	1393.62
589.206	1400.63
589.565	1394.98
589.925	1394.98
590.284	1398.82
590.643	1402.89
591.003	1386.16
591.362	1384.81
591.721	1407.63
592.08	1398.82
592.44	1393.62
592.799	1417.35
593.158	1377.8
593.517	1385.94
593.876	1391.81
594.235	1402.43
594.593	1399.27
594.952	1375.32
595.311	1411.47
595.67	1385.71
596.029	1400.4
596.387	1403.56
596.746	1395.2
597.104	1398.14
597.463	1373.96
597.822	1402.21
598.18	1393.17
598.538	1375.32
598.897	1396.56
599.255	1379.16
599.613	1391.14
599.972	1407.63
600.33	1390.23
600.688	1409.21
601.046	1399.27
601.404	1404.92
601.762	1407.41
602.12	1409.67
602.478	1395.2
602.836	1409.67
603.194	1409.89
603.552	1393.62
603.91	1426.39
604.268	1412.38
604.625	1413.96
604.983	1415.77
605.341	1399.27
605.698	1421.87
606.056	1418.03
606.413	1419.38
606.771	1402.89
607.128	1407.18
607.485	1393.62
607.843	1425.94
608.2	1424.13
608.557	1459.16
608.914	1420.06
609.272	1424.58
609.629	1428.42
609.986	1427.52
610.343	1423.23
610.7	1427.97
611.057	1425.03
611.414	1424.58
611.771	1439.72
612.127	1424.13
612.484	1451.47
612.841	1413.73
613.198	1424.81
613.554	1456.67
613.911	1449.67
614.267	1442.21
614.624	1446.95
614.98	1468.2
615.337	1459.16
615.693	1460.51
616.05	1487.4
616.406	1457.35
616.762	1442.43
617.118	1463.22
617.475	1455.54
617.831	1465.71
618.187	1457.35
618.543	1466.84
618.899	1472.49
619.255	1458.7
619.611	1473.62
619.967	1465.48
620.323	1489.66
620.678	1456.67
621.034	1458.93
621.39	1444.92
621.746	1447.18
622.101	1457.57
622.457	1458.93
622.812	1472.72
623.168	1472.94
623.523	1440.17
623.879	1454.41
624.234	1456.9
624.589	1448.76
624.945	1459.38
625.3	1491.25
625.655	1471.59
626.01	1448.76
626.365	1447.41
626.72	1418.93
627.075	1445.6
627.43	1427.97
627.785	1456.22
628.14	1447.18
628.495	1461.19
628.85	1464.35
629.205	1434.75
629.559	1446.95
629.914	1458.7
630.269	1424.81
630.623	1447.63
630.978	1431.59
631.332	1459.83
631.687	1440.85
632.041	1443.11
632.396	1445.6
632.75	1447.86
633.104	1467.74
633.459	1446.28
633.813	1416.9
634.167	1436.56
634.521	1403.79
634.875	1436.11
635.229	1427.07
635.583	1397.01
635.937	1427.74
636.291	1409.67
636.645	1430.23
636.999	1436.33
637.352	1430.91
637.706	1444.92
638.06	1434.75
638.413	1427.74
638.767	1421.64
639.121	1416.9
639.474	1425.71
639.828	1432.26
640.181	1440.85
640.534	1442.66
640.888	1426.84
641.241	1419.16
641.594	1414.64
641.947	1422.55
642.301	1432.49
642.654	1446.28
643.007	1478.59
643.36	1444.69
643.713	1431.36
644.066	1439.5
644.419	1420.51
644.771	1451.47
645.124	1432.04
645.477	1417.8
645.83	1427.74
646.182	1417.12
646.535	1409.67
646.888	1418.71
647.24	1412.38
647.593	1437.69
647.945	1449.21
648.298	1439.5
648.65	1427.52
649.002	1451.47
649.355	1458.7
649.707	1440.4
650.059	1449.89
650.411	1479.95
650.763	1450.57
651.115	1474.52
651.467	1502.09
651.819	1471.13
652.171	1525.37
652.523	1477.46
652.875	1487.4
653.227	1522.43
653.578	1485.6
653.93	1498.48
654.282	1507.06
654.633	1514.75
654.985	1527.18
655.337	1524.69
655.688	1562.43
656.039	1564.92
656.391	1545.71
656.742	1536.44
657.094	1546.16
657.445	1546.61
657.796	1560.17
658.147	1573.5
658.498	1586.84
658.849	1577.8
659.2	1573.05
659.551	1594.52
659.902	1620.73
660.253	1612.15
660.604	1623.67
660.955	1630.68
661.306	1629.55
661.656	1647.85
662.007	1664.35
662.358	1667.29
662.708	1669.55
663.059	1682.88
663.409	1665.48
663.76	1693.95
664.11	1683.56
664.461	1718.81
664.811	1706.61
665.161	1747.51
665.511	1723.33
665.862	1749.54
666.212	1751.13
666.562	1784.57
666.912	1780.05
667.262	1767.85
667.612	1804.01
667.962	1828.19
668.312	1812.37
668.662	1836.1
669.011	1823.21
669.361	1858.92
669.711	1835.42
670.06	1840.39
670.41	1859.6
670.76	1889.43
671.109	1901.18
671.459	1912.48
671.808	1902.76
672.157	1914.74
672.507	1931.91
672.856	1958.35
673.205	1973.95
673.554	1997
673.904	2017.79
674.253	2002.19
674.602	2022.53
674.951	2049.88
675.3	1979.37
675.649	2046.94
675.998	2032.93
676.346	2073.83
676.695	2119.03
677.044	2081.06
677.393	2145.01
677.741	2113.6
678.09	2151.79
678.438	2142.75
678.787	2164
679.135	2195.86
679.484	2195.63
679.832	2196.31
680.181	2210.32
680.529	2247.84
680.877	2252.81
681.225	2245.58
681.573	2274.28
681.922	2258.46
682.27	2257.55
682.618	2298.91
682.966	2314.5
683.314	2347.27
683.661	2349.75
684.009	2342.75
684.357	2396.76
684.705	2380.49
685.053	2387.72
685.4	2415.97
685.748	2404.44
686.095	2428.17
686.443	2479.02
686.79	2468.62
687.138	2462.07
687.485	2481.73
687.832	2530.77
688.18	2525.12
688.527	2526.25
688.874	2547.04
689.221	2537.77
689.568	2556.3
689.915	2601.5
690.262	2606.02
690.609	2577.32
690.956	2639.92
691.303	2644.89
691.65	2623.19
691.997	2642.63
692.344	2689.41
692.69	2693.7
693.037	2725.79
693.383	2706.58
693.73	2735.73
694.077	2714.04
694.423	2752.68
694.769	2777.99
695.116	2787.94
695.462	2788.16
695.808	2803.53
696.155	2804.88
696.501	2815.51
696.847	2826.8
697.193	2872.68
697.539	2812.57
697.885	2872.9
698.231	2822.51
698.577	2876.52
698.923	2888.72
699.269	2900.25
699.614	2875.16
699.96	2893.47
700.306	2985.44
700.651	2907.25
700.997	2918.1
701.342	2962.39
701.688	3000.36
702.033	2936.63
702.379	2981.15
702.724	2982.96
703.069	3019.12
703.415	3044.43
703.76	3010.53
704.105	3088.27
704.45	3096.4
704.795	3042.39
705.14	3097.31
705.485	3069.06
705.83	3095.72
706.175	3114.48
706.52	3104.31
706.865	3117.42
707.209	3124.2
707.554	3114.93
707.899	3170.52
708.243	3164.42
708.588	3189.51
708.932	3177.98
709.277	3177.98
709.621	3207.81
709.966	3195.38
710.31	3179.11
710.654	3187.25
710.998	3234.03
711.342	3234.93
711.687	3207.36
712.031	3201.03
712.375	3208.49
712.719	3252.1
713.063	3244.65
713.407	3282.84
713.75	3246.23
714.094	3277.41
714.438	3321.25
714.782	3273.57
715.125	3287.13
715.469	3327.36
715.812	3311.31
716.156	3265.21
716.499	3358.09
716.843	3308.6
717.186	3336.85
717.53	3326
717.873	3349.05
718.216	3340.01
718.559	3398.77
718.902	3343.17
719.246	3382.95
719.589	3393.57
719.932	3349.5
720.275	3388.6
720.617	3365.32
720.96	3401.48
721.303	3360.12
721.646	3350.86
721.989	3448.71
722.331	3422.72
722.674	3407.35
723.016	3415.94
723.359	3420.46
723.701	3456.17
724.044	3400.35
724.386	3424.75
724.729	3430.86
725.071	3418.88
725.413	3434.47
725.755	3435.15
726.097	3408.48
726.439	3417.98
726.782	3432.89
727.124	3439.9
727.465	3455.49
727.807	3453.91
728.149	3446.22
728.491	3455.94
728.833	3438.31
729.175	3406.68
729.516	3518.54
729.858	3408.71
730.199	3460.91
730.541	3461.59
730.882	3512.44
731.224	3436.51
731.565	3432.66
731.906	3434.02
732.248	3474.92
732.589	3471.31
732.93	3443.06
733.271	3489.16
733.612	3469.5
733.953	3482.83
734.294	3461.36
734.635	3468.82
734.976	3453.68
735.317	3440.35
735.658	3474.02
735.999	3446
736.339	3434.92
736.68	3509.5
737.021	3427.24
737.361	3466.11
737.702	3440.12
738.042	3469.05
738.383	3465.66
738.723	3474.92
739.063	3389.95
739.404	3479.22
739.744	3443.74
740.084	3417.3
740.424	3497.97
740.764	3447.58
741.104	3480.35
741.444	3492.55
741.784	3443.06
742.124	3430.4
742.464	3456.62
742.804	3444.87
743.143	3391.08
743.483	3409.84
743.823	3382.27
744.162	3429.95
744.502	3438.54
744.841	3402.16
745.181	3414.59
745.52	3407.81
745.86	3436.05
746.199	3400.35
746.538	3397.18
746.877	3410.29
747.216	3421.59
747.556	3405.09
747.895	3388.82
748.234	3377.07
748.573	3389.28
748.911	3337.07
749.25	3369.61
749.589	3334.14
749.928	3355.38
750.267	3394.02
750.605	3362.84
750.944	3337.3
751.283	3356.28
751.621	3320.8
751.96	3353.12
752.298	3409.39
752.636	3304.08
752.975	3322.61
753.313	3307.24
753.651	3342.27
753.989	3306.11
754.327	3352.44
754.666	3328.94
755.004	3280.35
755.342	3287.58
755.679	3298.88
756.017	3291.88
756.355	3293.01
756.693	3257.3
757.031	3246.68
757.368	3288.49
757.706	3300.92
758.044	3285.78
758.381	3220.47
758.719	3265.89
759.056	3269.28
759.394	3218.21
759.731	3194.03
760.068	3188.38
760.405	3208.04
760.743	3165.33
761.08	3171.88
761.417	3172.33
761.754	3118.77
762.091	3189.51
762.428	3136.4
762.765	3128.49
763.102	3146.12
763.438	3122.62
763.775	3111.09
764.112	3131.88
764.449	3131.43
764.785	3069.51
765.122	3093.69
765.458	3047.14
765.795	3064.31
766.131	3066.57
766.467	3066.57
766.804	3056.4
767.14	3012.11
767.476	3041.04
767.812	3004.65
768.148	3035.39
768.485	3008.72
768.821	2975.05
769.157	2994.94
769.492	3002.62
769.828	3021.83
770.164	2978.89
770.5	2964.2
770.836	2928.27
771.171	2959.91
771.507	2937.31
771.842	2889.4
772.178	2909.97
772.513	2902.96
772.849	2908.38
773.184	2885.33
773.519	2910.87
773.855	2898.21
774.19	2856.41
774.525	2839.69
774.86	2860.93
775.195	2860.02
775.53	2847.37
775.865	2817.54
776.2	2772.34
776.535	2770.99
776.87	2812.12
777.205	2761.95
777.539	2766.92
777.874	2758.11
778.209	2772.12
778.543	2735.51
778.878	2746.58
779.212	2741.38
779.547	2730.31
779.881	2693.02
780.215	2719.24
780.55	2699.58
780.884	2688.28
781.218	2667.49
781.552	2672.23
781.886	2689.63
782.22	2662.51
782.554	2633.81
782.888	2598.11
783.222	2645.11
783.556	2636.53
783.889	2620.71
784.223	2587.71
784.557	2597.21
784.89	2597.66
785.224	2633.59
785.557	2576.19
785.891	2558.56
786.224	2571.22
786.558	2544.78
786.891	2504.78
787.224	2537.32
787.557	2532.12
787.891	2520.82
788.224	2516.53
788.557	2535.06
788.89	2540.94
789.223	2470.66
789.556	2501.84
789.888	2472.46
790.221	2460.03
790.554	2447.38
790.887	2462.52
791.219	2458.45
791.552	2423.2
791.884	2420.04
792.217	2398.34
792.549	2433.82
792.882	2398.11
793.214	2401.28
793.546	2404.67
793.879	2362.86
794.211	2366.25
794.543	2400.15
794.875	2337.78
795.207	2399.47
795.539	2373.48
795.871	2345.69
796.203	2346.59
796.535	2334.84
796.867	2318.57
797.198	2317.21
797.53	2313.6
797.862	2289.19
798.193	2339.13
798.525	2300.04
798.856	2311.79
799.188	2292.58
799.519	2269.53
799.85	2258.01
800.182	2279.25
800.513	2273.82
800.844	2262.98
801.175	2248.29
801.506	2273.37
801.837	2218.91
802.168	2251.23
802.499	2248.06
802.83	2199.02
803.161	2215.52
803.491	2214.84
803.822	2203.32
804.153	2225.69
804.483	2220.72
804.814	2177.78
805.145	2184.56
805.475	2185.24
805.805	2183.66
806.136	2152.92
806.466	2157.9
806.796	2131.91
807.126	2121.74
807.457	2146.37
807.787	2194.28
808.117	2164.67
808.447	2144.11
808.777	2143.43
809.107	2116.09
809.436	2137.33
809.766	2101.4
810.096	2111.34
810.426	2108.63
810.755	2123.32
811.085	2092.59
811.414	2104.34
811.744	2109.08
812.073	2108.41
812.403	2067.95
812.732	2071.34
813.061	2068.86
813.39	2048.52
813.719	2047.84
814.049	2067.73
814.378	2048.97
814.707	2001.74
815.036	2078.35
815.365	2027.28
815.693	2030.44
816.022	2021.63
816.351	2051.46
816.68	2017.79
817.008	2025.92
817.337	2006.26
817.665	1999.03
817.994	1991.35
818.322	1993.61
818.651	2005.36
818.979	1982.76
819.307	2020.05
819.636	1934.85
819.964	1960.61
820.292	1978.24
820.62	1980.27
820.948	1968.97
821.276	1973.72
821.604	1971.23
821.932	1983.89
822.259	1995.41
822.587	1964.45
822.915	1946.15
823.243	1981.4
823.57	1989.09
823.898	1954.06
824.225	1936.66
824.553	1955.41
824.88	1964.68
825.207	1990.44
825.535	1927.84
825.862	1973.49
826.189	1991.57
826.516	1987.28
826.843	1974.4
827.17	1961.74
827.497	1987.28
827.824	1944.79
828.151	1956.09
828.478	1968.97
828.805	1999.71
829.131	1993.38
829.458	1942.31
829.785	1970.33
830.111	1976.43
830.438	1978.01
830.764	1959.71
831.09	1959.26
831.417	1912.03
831.743	1963.78
832.069	1966.04
832.395	1955.41
832.722	1960.39
833.048	1942.53
833.374	1930.33
833.7	1959.26
834.026	1934.17
834.351	1933.27
834.677	1940.95
835.003	1931.69
835.329	1930.78
835.654	1918.58
835.98	1952.93
836.306	1941.63
836.631	1933.27
836.956	1936.88
837.282	1939.37
837.607	1919.26
837.932	1945.7
838.258	1949.09
838.583	1935.08
838.908	1913.83
839.233	1899.37
839.558	1946.38
839.883	1902.31
840.208	1907.96
840.533	1881.07
840.858	1913.61
841.182	1913.16
841.507	1877.45
841.832	1877.9
842.156	1885.13
842.481	1900.95
842.805	1850.78
843.13	1879.48
843.454	1873.16
843.778	1848.07
844.103	1874.29
844.427	1861.86
844.751	1857.34
845.075	1832.25
845.399	1853.5
845.723	1837.9
846.047	1837.23
846.371	1841.52
846.695	1831.58
847.019	1826.83
847.343	1819.37
847.666	1788.87
847.99	1801.75
848.313	1792.03
848.637	1789.09
848.96	1805.81
849.284	1786.38
849.607	1784.12
849.931	1776.89
850.254	1762.2
850.577	1754.97
850.9	1748.87
851.223	1763.1
851.546	1743.44
851.869	1720.62
852.192	1713.61
852.515	1693.5
852.838	1731.24
853.161	1699.15
853.483	1702.54
853.806	1688.76
854.129	1684.24
854.451	1710.45
854.774	1698.02
855.096	1671.35
855.419	1684.46
855.741	1685.37
856.063	1674.29
856.385	1657.8
856.708	1677.46
857.03	1677.91
857.352	1664.57
857.674	1655.08
857.996	1666.16
858.318	1652.15
858.64	1654.18
858.961	1637.91
859.283	1633.39
859.605	1642.88
859.926	1624.35
860.248	1598.36
860.57	1614.63
860.891	1636.33
861.212	1602.88
861.534	1627.97
861.855	1591.81
862.176	1584.58
862.498	1611.69
862.819	1629.1
863.14	1599.04
863.461	1590.23
863.782	1567.4
864.103	1597.91
864.424	1603.33
864.745	1568.76
865.065	1561.3
865.386	1579.15
865.707	1570.34
866.027	1606.72
866.348	1578.7
866.668	1559.49
866.989	1591.58
867.309	1567.4
867.63	1556.1
867.95	1543.45
868.27	1547.74
868.59	1566.95
868.91	1571.47
869.23	1569.66
869.55	1566.72
869.87	1560.17
870.19	1560.4
870.51	1535.76
870.83	1558.81
871.15	1565.14
871.469	1523.79
871.789	1571.7
872.109	1523.34
872.428	1536.22
872.748	1534.86
873.067	1537.12
873.386	1544.58
873.706	1498.93
874.025	1555.2
874.344	1523.34
874.663	1561.98
874.982	1553.39
875.301	1532.6
875.62	1510.68
875.939	1494.41
876.258	1527.63
876.577	1492.83
876.896	1499.38
877.214	1512.71
877.533	1519.04
877.852	1494.41
878.17	1504.58
878.489	1516.33
878.807	1504.13
879.125	1516.78
879.444	1461.19
879.762	1515.43
880.08	1457.12
880.398	1486.5
880.716	1486.5
881.034	1450.12
881.352	1482.21
881.67	1488.76
881.988	1484.01
882.306	1498.25
882.624	1469.78
882.941	1462.55
883.259	1459.61
883.577	1433.17
883.894	1478.59
884.212	1484.92
884.529	1450.57
884.846	1458.7
885.164	1474.07
885.481	1439.27
885.798	1421.87
886.115	1437.46
886.432	1424.81
886.75	1454.18
887.067	1460.96
887.383	1411.25
887.7	1439.27
888.017	1419.16
888.334	1424.13
888.651	1425.71
888.967	1451.93
889.284	1395.66
889.6	1408.99
889.917	1392.04
890.233	1401.53
890.55	1383.23
890.866	1410.12
891.182	1386.39
891.498	1389.78
891.815	1368.31
892.131	1386.84
892.447	1375.54
892.763	1375.32
893.079	1384.58
893.395	1369.22
893.71	1384.36
894.026	1350.68
894.342	1363.79
894.657	1345.71
894.973	1358.14
895.289	1368.09
895.604	1319.5
895.92	1351.81
896.235	1345.26
896.55	1326.28
896.865	1332.38
897.181	1331.25
897.496	1314.98
897.811	1321.31
898.126	1320.63
898.441	1327.86
898.756	1319.73
899.071	1291.03
899.386	1329.22
899.7	1296.67
900.015	1283.79
900.33	1317.24
900.644	1305.04
900.959	1296.9
901.273	1296.9
901.588	1257.35
901.902	1303
902.216	1256
902.531	1284.7
902.845	1281.53
903.159	1271.82
903.473	1250.8
903.787	1255.32
904.101	1235.43
904.415	1234.53
904.729	1237.02
905.042	1208.54
905.356	1224.81
905.67	1237.47
905.984	1235.21
906.297	1209.22
906.611	1208.32
906.924	1225.04
907.237	1241.08
907.551	1213.06
907.864	1206.51
908.177	1221.87
908.491	1194.53
908.804	1183.23
909.117	1187.75
909.43	1197.24
909.743	1222.1
910.056	1202.89
910.368	1185.27
910.681	1209.22
910.994	1181.88
911.307	1136.91
911.619	1178.71
911.932	1174.64
912.244	1177.81
912.557	1132.84
912.869	1162.67
913.181	1143.46
913.494	1155.66
913.806	1144.81
914.118	1114.53
914.43	1107.75
914.742	1135.1
915.054	1112.27
915.366	1148.66
915.678	1118.6
915.99	1136.68
916.302	1112.5
916.613	1115.21
916.925	1113.63
917.236	1117.7
917.548	1101.43
917.859	1104.14
918.171	1072.27
918.482	1088.32
918.794	1093.06
919.105	1067.98
919.416	1083.8
919.727	1066.62
920.038	1081.31
920.349	1038.15
920.66	1057.13
920.971	1080.86
921.282	1056.91
921.593	1056.23
921.903	1044.7
922.214	1044.48
922.525	1042.22
922.835	1037.02
923.146	1053.29
923.456	1024.59
923.767	1026.63
924.077	1011.03
924.387	1027.3
924.697	1020.3
925.008	1008.32
925.318	1009
925.628	1022.33
925.938	1026.85
926.248	999.51
926.558	1053.97
926.867	1014.2
927.177	1012.16
927.487	1002.67
927.796	1004.93
928.106	1006.06
928.416	997.7
928.725	990.47
929.034	957.7
929.344	995.89
929.653	981.88
929.962	969
930.271	985.04
930.581	979.17
930.89	972.62
931.199	958.83
931.508	948.89
931.817	947.53
932.125	941.88
932.434	940.98
932.743	932.62
933.051	932.62
933.36	944.82
933.669	959.28
933.977	942.11
934.286	947.76
934.594	953.63
934.902	950.47
935.21	916.8
935.519	914.54
935.827	924.48
936.135	933.97
936.443	915.44
936.751	916.35
937.059	930.36
937.367	920.41
937.674	927.19
937.982	924.03
938.29	912.28
938.597	903.46
938.905	879.06
939.213	880.41
939.52	884.71
939.827	888.1
940.135	861.88
940.442	884.71
940.749	891.49
941.056	893.97
941.363	889.91
941.67	884.93
941.977	873.64
942.284	885.39
942.591	878.61
942.898	873.41
943.205	859.4
943.511	857.14
943.818	859.85
944.125	864.37
944.431	868.89
944.738	864.82
945.044	842.68
945.35	868.21
945.657	865.05
945.963	841.55
946.269	855.56
946.575	848.1
946.881	811.49
947.187	837.7
947.493	851.04
947.799	840.87
948.105	827.08
948.41	819.4
948.716	825.05
949.022	816.01
949.327	823.69
949.633	852.39
949.938	821.66
950.244	818.95
950.549	809.23
950.854	783.92
951.16	798.83
951.465	790.7
951.77	789.34
952.075	766.97
952.38	769.23
952.685	787.31
952.99	794.32
953.294	775.56
953.599	787.31
953.904	794.54
954.209	775.56
954.513	788.89
954.818	784.15
955.122	748.67
955.426	759.97
955.731	776.46
956.035	746.18
956.339	768.33
956.643	760.19
956.948	764.26
957.252	770.14
957.556	753.41
957.86	745.73
958.163	769.46
958.467	735.56
958.771	736.24
959.075	741.66
959.378	736.24
959.682	730.81
959.985	730.14
960.289	744.6
960.592	745.28
960.896	711.15
961.199	732.62
961.502	726.07
961.805	717.26
962.108	749.12
962.411	734.66
962.714	715.45
963.017	716.8
963.32	723.81
963.623	712.51
963.926	704.83
964.228	710.7
964.531	717.48
964.833	703.24
965.136	699.63
965.438	693.53
965.741	735.33
966.043	716.35
966.345	707.99
966.648	702.34
966.95	709.12
967.252	703.02
967.554	724.26
967.856	668.89
968.158	686.97
968.46	675.22
968.761	697.37
969.063	687.65
969.365	679.06
969.666	693.3
969.968	685.84
970.269	665.28
970.571	677.48
970.872	689.46
971.174	682.23
971.475	675.67
971.776	674.77
972.077	696.69
972.378	667.76
972.679	664.15
972.98	669.57
973.281	653.3
973.582	655.11
973.883	661.89
974.183	646.75
974.484	655.56
974.785	663.02
975.085	671.15
975.386	644.71
975.686	654.43
975.986	660.31
976.287	649.23
976.587	625.73
976.887	657.6
977.187	650.14
977.487	648.78
977.787	637.26
978.087	627.99
978.387	623.7
978.687	630.25
978.987	646.75
979.286	627.31
979.586	637.94
979.885	658.27
980.185	632.96
980.484	641.55
980.784	618.27
981.083	614.43
981.382	621.44
981.682	610.82
981.981	624.38
982.28	602.68
982.579	601.33
982.878	631.16
983.177	612.4
983.475	584.15
983.774	607.2
984.073	604.94
984.372	614.88
984.67	606.3
984.969	596.58
985.267	583.02
985.566	579.41
985.864	612.17
986.162	577.82
986.461	596.13
986.759	594.77
987.057	603.13
987.355	596.58
987.653	583.25
987.951	606.52
988.249	584.83
988.547	595.9
988.844	578.5
989.142	568.33
989.44	576.47
989.737	583.93
990.035	562.91
990.332	574.66
990.63	578.5
990.927	574.21
991.224	583.7
991.521	570.82
991.819	584.38
992.116	558.62
992.413	564.94
992.71	550.93
993.006	560.2
993.303	540.54
993.6	594.55
993.897	566.07
994.193	558.62
994.49	547.77
994.787	552.51
995.083	565.17
995.379	539.86
995.676	540.08
995.972	540.76
996.268	537.6
996.565	524.94
996.861	537.6
997.157	545.28
997.453	548.9
997.749	562.91
998.044	543.47
998.34	550.03
998.636	538.28
998.932	551.16
999.227	556.58
999.523	538.73
999.818	530.37
1000.114	538.28
1000.409	533.98
1000.704	543.47
1001	529.24
1001.295	559.75
1001.59	531.5
1001.885	518.39
1002.18	517.03
1002.475	522.23
1002.77	533.53
1003.065	506.64
1003.359	503.25
1003.654	495.57
1003.949	502.35
1004.243	526.75
1004.538	505.51
1004.832	493.08
1005.127	516.13
1005.421	500.54
1005.715	487.2
1006.009	482.91
1006.304	523.59
1006.598	488.11
1006.892	484.94
1007.186	492.85
1007.48	505.06
1007.773	486.07
1008.067	485.85
1008.361	476.13
1008.655	484.04
1008.948	489.01
1009.242	505.28
1009.535	506.87
1009.829	489.24
1010.122	505.96
1010.415	475.91
1010.708	473.42
1011.001	465.74
1011.295	473.65
1011.588	475.45
1011.881	509.58
1012.173	471.61
1012.466	486.3
1012.759	480.2
1013.052	482.91
1013.344	469.58
1013.637	471.16
1013.93	484.04
1014.222	493.53
1014.514	447.43
1014.807	489.69
1015.099	464.61
1015.391	477.94
1015.683	453.31
1015.976	453.76
1016.268	459.63
1016.56	441.56
1016.851	478.62
1017.143	460.31
1017.435	465.74
1017.727	466.19
1018.018	460.09
1018.31	458.5
1018.602	458.28
1018.893	459.86
1019.185	465.28
1019.476	453.53
1019.767	443.59
1020.058	468.9
1020.35	441.1
1020.641	445.85
1020.932	447.88
1021.223	430.71
1021.514	434.55
1021.804	454.66
1022.095	456.02
1022.386	458.05
1022.677	445.62
1022.967	447.66
1023.258	439.97
1023.548	433.87
1023.839	450.6
1024.129	438.39
1024.419	437.94
1024.709	430.48
1025	402.24
1025.29	428
1025.58	430.93
1025.87	451.5
1026.16	429.13
1026.449	425.06
1026.739	430.26
1027.029	434.1
1027.319	412.18
1027.608	414.66
1027.898	423.7
1028.187	420.09
1028.477	420.99
1028.766	434.55
1029.055	422.8
1029.344	437.04
1029.634	412.4
1029.923	412.4
1030.212	424.38
1030.501	404.04
1030.79	411.5
1031.078	411.27
1031.367	405.62
1031.656	407.43
1031.945	417.83
1032.233	401.56
1032.522	398.62
1032.81	387.55
1033.099	409.24
1033.387	402.91
1033.675	408.56
1033.963	406.75
1034.251	412.86
1034.54	400.88
1034.828	405.17
1035.116	402.46
1035.403	409.69
1035.691	418.96
1035.979	383.48
1036.267	411.5
1036.554	387.55
1036.842	398.17
1037.129	382.12
1037.417	371.73
1037.704	395.91
1037.992	399.3
1038.279	400.88
1038.566	406.08
1038.853	406.08
1039.14	406.08
