Data from carpet_green_FLMS001491_00002.txt Node
Date: Wed Feb 08 10:34:47 GMT 2017
User: dcchb
Spectrometer: FLMS00149
Trigger mode: 0
Integration Time (sec): 2.000000E-2
Scans to average: 10
Electric dark correction enabled: true
Nonlinearity correction enabled: false
Boxcar width: 0
XAxis mode: Wavelengths
Number of Pixels in Spectrum: 2048
>>>>>Begin Spectral Data<<<<<
341.393	-20.39
341.776	-20.39
342.16	-20.39
342.543	-50
342.927	-64.46
343.31	-54.07
343.693	-62.2
344.077	-54.52
344.46	-56.1
344.843	-71.02
345.226	-40.96
345.61	-52.71
345.993	-19.94
346.376	8.3
346.759	10.79
347.142	24.8
347.525	27.51
347.908	74.29
348.291	59.6
348.674	83.33
349.057	122.88
349.44	138.92
349.823	153.61
350.206	157.45
350.588	177.57
350.971	181.41
351.354	210.56
351.737	227.06
352.119	213.27
352.502	240.39
352.884	234.74
353.267	259.15
353.65	281.07
354.032	270.9
354.414	281.52
354.797	298.24
355.179	308.41
355.562	278.35
355.944	292.14
356.326	290.33
356.709	310.9
357.091	312.48
357.473	314.29
357.855	313.38
358.238	313.83
358.62	331.91
359.002	316.55
359.384	306.6
359.766	334.17
360.148	303.44
360.53	294.4
360.912	338.92
361.294	333.49
361.676	304.79
362.057	281.97
362.439	323.1
362.821	302.08
363.203	303.21
363.584	312.25
363.966	313.16
364.348	306.15
364.729	272.03
365.111	307.73
365.493	285.13
365.874	299.6
366.256	282.2
366.637	286.94
367.019	278.81
367.4	295.53
367.781	302.31
368.163	287.39
368.544	299.14
368.925	286.04
369.306	282.2
369.688	283.55
370.069	268.41
370.45	272.03
370.831	282.42
371.212	281.07
371.593	282.87
371.974	281.52
372.355	282.65
372.736	279.94
373.117	294.63
373.498	272.03
373.879	293.04
374.26	280.61
374.641	278.13
375.021	281.52
375.402	293.27
375.783	281.29
376.163	292.37
376.544	294.63
376.925	309.54
377.305	286.49
377.686	290.33
378.066	307.05
378.447	274.74
378.827	284.91
379.208	315.64
379.588	308.64
379.968	280.61
380.349	302.76
380.729	274.06
381.109	292.14
381.489	305.92
381.87	291.24
382.25	291.01
382.63	304.57
383.01	294.85
383.39	281.74
383.77	283.33
384.15	295.53
384.53	304.12
384.91	296.88
385.29	291.69
385.67	320.84
386.049	299.37
386.429	302.08
386.809	300.05
387.189	294.63
387.568	300.5
387.948	289.65
388.328	298.01
388.707	297.11
389.087	277.22
389.466	296.21
389.846	303.21
390.225	297.34
390.605	308.41
390.984	305.02
391.363	310.9
391.743	306.6
392.122	305.92
392.501	317.9
392.881	323.32
393.26	305.02
393.639	329.65
394.018	289.65
394.397	305.7
394.776	297.79
395.155	310.44
395.534	324.68
395.913	318.81
396.292	315.42
396.671	298.47
397.05	315.64
397.429	321.97
397.808	309.54
398.186	298.92
398.565	291.69
398.944	317.68
399.323	307.28
399.701	320.84
400.08	290.56
400.458	300.95
400.837	340.5
401.215	287.39
401.594	329.43
401.972	320.84
402.351	305.7
402.729	335.53
403.107	316.09
403.486	323.1
403.864	334.85
404.242	307.51
404.62	307.28
404.999	316.77
405.377	300.95
405.755	287.17
406.133	315.19
406.511	337.56
406.889	313.16
407.267	302.76
407.645	310.22
408.023	329.65
408.401	319.48
408.779	335.75
409.156	318.35
409.534	327.17
409.912	314.96
410.29	302.08
410.667	319.71
411.045	310.67
411.422	335.08
411.8	318.35
412.178	324.23
412.555	342.99
412.933	326.26
413.31	333.95
413.687	332.36
414.065	314.29
414.442	342.31
414.819	341.18
415.197	318.81
415.574	329.2
415.951	320.16
416.328	329.65
416.705	343.89
417.082	339.14
417.46	363.32
417.837	346.6
418.214	306.83
418.591	347.05
418.967	331.46
419.344	349.09
419.721	325.36
420.098	340.73
420.475	340.27
420.852	353.15
421.228	335.08
421.605	349.54
421.982	335.98
422.358	335.53
422.735	356.32
423.111	342.76
423.488	334.4
423.864	351.57
424.241	346.38
424.617	366.04
424.994	342.76
425.37	342.99
425.746	364.45
426.123	342.99
426.499	357.67
426.875	368.3
427.251	339.6
427.627	339.14
428.003	346.15
428.379	353.61
428.756	333.72
429.132	350.44
429.507	352.25
429.883	351.35
430.259	347.05
430.635	353.83
431.011	337.11
431.387	372.82
431.763	361.74
432.138	379.37
432.514	362.42
432.89	352.48
433.265	359.93
433.641	394.28
434.016	369.88
434.392	356.77
434.767	351.8
435.143	373.04
435.518	372.59
435.894	385.92
436.269	364.68
436.644	380.5
437.02	378.69
437.395	366.71
437.77	367.39
438.145	378.24
438.52	359.48
438.895	375.75
439.271	380.72
439.646	355.19
440.021	376.66
440.395	367.17
440.77	388.63
441.145	392.93
441.52	388.18
441.895	380.27
442.27	396.09
442.645	379.59
443.019	358.35
443.394	399.03
443.769	384.11
444.143	368.52
444.518	395.19
444.892	400.61
445.267	405.81
445.641	392.02
446.016	393.61
446.39	408.07
446.764	389.99
447.139	393.38
447.513	403.32
447.887	396.54
448.262	403.55
448.636	399.48
449.01	410.33
449.384	401.29
449.758	378.92
450.132	389.76
450.506	418.92
450.88	407.62
451.254	399.71
451.628	412.36
452.002	433.83
452.376	437.22
452.75	431.34
453.123	425.92
453.497	407.84
453.871	392.7
454.244	415.53
454.618	421.63
454.992	424.11
455.365	420.05
455.739	422.31
456.112	448.07
456.486	442.64
456.859	442.64
457.232	434.06
457.606	433.38
457.979	427.73
458.352	430.44
458.725	433.38
459.099	442.19
459.472	468.63
459.845	442.64
460.218	462.76
460.591	450.55
460.964	432.47
461.337	446.26
461.71	461.85
462.083	451.23
462.456	459.14
462.829	462.98
463.201	458.91
463.574	454.62
463.947	457.56
464.32	468.18
464.692	467.28
465.065	473.6
465.438	488.07
465.81	482.42
466.183	490.78
466.555	472.25
466.928	488.52
467.3	488.52
467.672	472.02
468.045	496.43
468.417	502.76
468.789	507.95
469.161	511.79
469.534	509.99
469.906	498.91
470.278	539.82
470.65	502.76
471.022	530.33
471.394	522.87
471.766	537.33
472.138	537.78
472.51	535.75
472.882	534.62
473.253	538.91
473.625	555.41
473.997	564.22
474.369	548.18
474.74	556.31
475.112	568.29
475.484	562.19
475.855	566.03
476.227	578.69
476.598	583.21
476.97	586.82
477.341	600.61
477.713	577.56
478.084	601.96
478.455	612.36
478.827	607.39
479.198	608.06
479.569	628.4
479.94	620.72
480.311	627.95
480.682	665.01
481.053	646.25
481.424	662.3
481.795	668.63
482.166	650.55
482.537	685.35
482.908	681.51
483.279	704.56
483.65	685.58
484.021	701.17
484.391	709.98
484.762	706.59
485.133	718.12
485.503	719.25
485.874	734.16
486.244	730.09
486.615	749.3
486.985	707.27
487.356	743.2
487.726	751.79
488.097	760.83
488.467	769.64
488.837	753.82
489.207	783.88
489.578	791.79
489.948	805.8
490.318	799.7
490.688	798.11
491.058	815.97
491.428	820.03
491.798	813.71
492.168	801.5
492.538	856.87
492.908	833.59
493.278	847.6
493.648	835.4
494.017	850.09
494.387	866.59
494.757	883.76
495.126	900.48
495.496	864.1
495.866	848.96
496.235	887.38
496.605	884.67
496.974	910.43
497.344	914.72
497.713	928.73
498.082	896.19
498.452	897.55
498.821	924.66
499.19	903.65
499.559	928.73
499.928	929.86
500.298	922.86
500.667	932.57
501.036	931.44
501.405	942.29
501.774	940.26
502.143	941.16
502.512	960.82
502.88	934.16
503.249	955.17
503.618	951.56
503.987	964.44
504.356	959.47
504.724	953.82
505.093	983.42
505.462	963.76
505.83	964.21
506.199	972.8
506.567	1003.31
506.936	988.39
507.304	990.88
507.672	989.3
508.041	1015.74
508.409	1008.5
508.777	1006.7
509.145	1005.34
509.514	1027.71
509.882	1012.8
510.25	1022.97
510.618	1015.51
510.986	1026.13
511.354	1037.2
511.722	1042.85
512.09	1033.59
512.458	1040.14
512.826	1058.45
513.193	1053.93
513.561	1049.18
513.929	1042.63
514.297	1046.02
514.664	1075.4
515.032	1057.77
515.4	1075.62
515.767	1067.94
516.135	1078.56
516.502	1083.3
516.869	1109.29
517.237	1092.34
517.604	1105.23
517.972	1087.15
518.339	1100.48
518.706	1081.95
519.073	1101.16
519.44	1106.58
519.808	1111.1
520.175	1114.72
520.542	1106.58
520.909	1104.32
521.276	1111.78
521.643	1109.97
522.009	1129.86
522.376	1146.81
522.743	1097.77
523.11	1137.31
523.477	1151.33
523.843	1136.86
524.21	1163.3
524.577	1178.22
524.943	1163.08
525.31	1192
525.676	1166.24
526.043	1176.86
526.409	1175.96
526.776	1168.05
527.142	1188.61
527.508	1195.17
527.874	1196.97
528.241	1203.53
528.607	1201.72
528.973	1208.95
529.339	1200.59
529.705	1214.15
530.071	1198.33
530.437	1195.17
530.803	1221.15
531.169	1238.1
531.535	1219.35
531.901	1205.11
532.267	1215.96
532.632	1224.54
532.998	1225.22
533.364	1231.32
533.73	1212.34
534.095	1221.83
534.461	1246.69
534.826	1202.17
535.192	1220.25
535.557	1244.43
535.923	1237.88
536.288	1234.71
536.653	1235.84
537.019	1242.17
537.384	1239.91
537.749	1213.24
538.114	1246.69
538.479	1224.32
538.845	1219.57
539.21	1227.93
539.575	1234.94
539.94	1233.13
540.305	1209.86
540.67	1232.23
541.034	1252.11
541.399	1231.1
541.764	1246.01
542.129	1239.46
542.494	1246.92
542.858	1239.91
543.223	1199.23
543.587	1225.67
543.952	1240.59
544.316	1228.84
544.681	1249.18
545.045	1243.98
545.41	1215.05
545.774	1233.36
546.138	1229.74
546.503	1267.03
546.867	1249.18
547.231	1261.61
547.595	1261.61
547.959	1236.97
548.324	1269.97
548.688	1260.93
549.052	1269.51
549.416	1246.92
549.779	1234.94
550.143	1265.45
550.507	1259.57
550.871	1247.14
551.235	1239.68
551.599	1270.42
551.962	1280.14
552.326	1280.59
552.689	1275.39
553.053	1257.54
553.417	1248.05
553.78	1272.23
554.143	1289.63
554.507	1278.55
554.87	1271.77
555.234	1250.31
555.597	1272.68
555.96	1235.62
556.323	1300.02
556.686	1274.26
557.05	1284.43
557.413	1283.07
557.776	1291.43
558.139	1297.99
558.502	1314.26
558.865	1312.9
559.228	1292.11
559.59	1318.33
559.953	1280.36
560.316	1276.97
560.679	1329.63
561.041	1335.05
561.404	1337.31
561.767	1299.34
562.129	1312
562.492	1330.76
562.854	1337.76
563.217	1333.69
563.579	1322.39
563.941	1312.45
564.304	1335.05
564.666	1374.14
565.028	1368.04
565.39	1367.37
565.753	1344.54
566.115	1335.95
566.477	1342.28
566.839	1346.57
567.201	1353.13
567.563	1342.28
567.925	1345.44
568.287	1347.03
568.648	1353.58
569.01	1352.68
569.372	1360.59
569.734	1366.24
570.095	1390.64
570.457	1361.04
570.819	1365.33
571.18	1382.96
571.542	1357.87
571.903	1376.18
572.265	1358.1
572.626	1367.82
572.987	1360.36
573.349	1387.7
573.71	1389.06
574.071	1392.9
574.432	1366.46
574.794	1383.18
575.155	1344.09
575.516	1397.87
575.877	1390.87
576.238	1397.19
576.599	1377.53
576.96	1390.19
577.32	1373.01
577.681	1374.82
578.042	1361.72
578.403	1385.22
578.763	1378.44
579.124	1368.95
579.485	1376.63
579.845	1372.11
580.206	1363.52
580.566	1373.01
580.927	1400.13
581.287	1369.17
581.648	1360.36
582.008	1355.84
582.368	1372.11
582.728	1360.81
583.089	1354.48
583.449	1364.2
583.809	1364.88
584.169	1389.51
584.529	1352.68
584.889	1378.21
585.249	1378.66
585.609	1327.37
585.969	1369.4
586.329	1372.56
586.688	1348.16
587.048	1334.15
587.408	1359.46
587.768	1348.16
588.127	1340.93
588.487	1331.43
588.846	1309.29
589.206	1360.59
589.565	1335.5
589.925	1329.63
590.284	1343.41
590.643	1356.74
591.003	1334.15
591.362	1323.52
591.721	1339.57
592.08	1352.9
592.44	1354.71
592.799	1333.47
593.158	1362.17
593.517	1334.6
593.876	1344.77
594.235	1299.57
594.593	1292.56
594.952	1325.56
595.311	1341.38
595.67	1323.75
596.029	1307.48
596.387	1339.12
596.746	1330.98
597.104	1313.13
597.463	1345.44
597.822	1326.01
598.18	1333.69
598.538	1316.07
598.897	1340.93
599.255	1321.94
599.613	1352.22
599.972	1333.92
600.33	1325.56
600.688	1322.17
601.046	1351.55
601.404	1347.03
601.762	1326.91
602.12	1342.06
602.478	1330.98
602.836	1322.62
603.194	1336.63
603.552	1318.33
603.91	1293.02
604.268	1321.49
604.625	1338.21
604.983	1337.54
605.341	1324.2
605.698	1349.96
606.056	1325.33
606.413	1344.09
606.771	1369.85
607.128	1346.35
607.485	1348.16
607.843	1353.35
608.2	1330.53
608.557	1364.2
608.914	1354.48
609.272	1356.52
609.629	1349.74
609.986	1373.47
610.343	1376.4
610.7	1348.83
611.057	1351.32
611.414	1369.85
611.771	1375.95
612.127	1372.79
612.484	1378.89
612.841	1348.83
613.198	1334.15
613.554	1368.95
613.911	1370.3
614.267	1377.99
614.624	1361.26
614.98	1374.6
615.337	1344.99
615.693	1370.08
616.05	1354.94
616.406	1381.38
616.762	1384.99
617.118	1372.79
617.475	1393.35
617.831	1376.63
618.187	1385.67
618.543	1379.79
618.899	1400.13
619.255	1408.95
619.611	1415.5
619.967	1394.03
620.323	1409.17
620.678	1379.79
621.034	1382.73
621.39	1358.1
621.746	1386.35
622.101	1385.22
622.457	1352.22
622.812	1387.7
623.168	1386.12
623.523	1395.84
623.879	1375.95
624.234	1372.79
624.589	1416.4
624.945	1377.76
625.3	1367.37
625.655	1364.2
626.01	1368.72
626.365	1382.05
626.72	1408.27
627.075	1357.87
627.43	1373.92
627.785	1379.57
628.14	1384.99
628.495	1380.7
628.85	1401.04
629.205	1398.78
629.559	1371.88
629.914	1403.07
630.269	1358.1
630.623	1378.89
630.978	1347.7
631.332	1360.59
631.687	1354.03
632.041	1367.82
632.396	1370.08
632.75	1374.37
633.104	1366.69
633.459	1394.03
633.813	1351.32
634.167	1364.65
634.521	1385.9
634.875	1350.42
635.229	1370.3
635.583	1366.01
635.937	1363.07
636.291	1368.95
636.645	1343.86
636.999	1352.9
637.352	1345.22
637.706	1341.15
638.06	1372.56
638.413	1335.28
638.767	1368.27
639.121	1334.82
639.474	1355.84
639.828	1361.49
640.181	1347.25
640.534	1357.65
640.888	1377.31
641.241	1355.39
641.594	1353.13
641.947	1341.15
642.301	1366.69
642.654	1363.07
643.007	1390.87
643.36	1365.78
643.713	1377.08
644.066	1358.1
644.419	1384.77
644.771	1350.19
645.124	1372.79
645.477	1345.9
645.83	1344.77
646.182	1327.37
646.535	1345.9
646.888	1357.42
647.24	1376.4
647.593	1340.93
647.945	1361.94
648.298	1366.69
648.65	1345.9
649.002	1363.98
649.355	1360.36
649.707	1362.62
650.059	1361.72
650.411	1383.86
650.763	1376.18
651.115	1401.94
651.467	1413.69
651.819	1419.34
652.171	1438.1
652.523	1450.53
652.875	1408.04
653.227	1386.12
653.578	1429.51
653.93	1441.49
654.282	1415.05
654.633	1409.17
654.985	1453.69
655.337	1440.81
655.688	1457.53
656.039	1443.75
656.391	1455.72
656.742	1431.54
657.094	1452.56
657.445	1484.65
657.796	1483.75
658.147	1475.16
658.498	1488.27
658.849	1466.57
659.2	1496.4
659.551	1518.32
659.902	1490.53
660.253	1511.99
660.604	1511.32
660.955	1514.93
661.306	1545.44
661.656	1563.74
662.007	1561.03
662.358	1548.83
662.708	1545.67
663.059	1575.5
663.409	1592.22
663.76	1607.58
664.11	1596.74
664.461	1610.97
664.811	1598.32
665.161	1623.86
665.511	1608.71
665.862	1614.82
666.212	1652.78
666.562	1666.79
666.912	1666.34
667.262	1682.39
667.612	1694.36
667.962	1727.58
668.312	1709.96
668.662	1742.72
669.011	1727.36
669.361	1765.77
669.711	1759.45
670.06	1767.35
670.41	1766.22
670.76	1782.5
671.109	1787.02
671.459	1817.3
671.808	1823.62
672.157	1808.03
672.507	1844.64
672.856	1848.48
673.205	1892.78
673.554	1885.32
673.904	1913.57
674.253	1925.99
674.602	1918.99
674.951	1927.35
675.3	1925.77
675.649	1953.11
675.998	1998.08
676.346	2006.22
676.695	2003.73
677.044	2015.94
677.393	2013.9
677.741	2072.88
678.09	2091.64
678.438	2070.85
678.787	2102.71
679.135	2116.05
679.484	2140
679.832	2151.98
680.181	2159.21
680.529	2207.8
680.877	2174.12
681.225	2187.91
681.573	2221.81
681.922	2227
682.27	2254.12
682.618	2288.02
682.966	2280.79
683.314	2303.84
683.661	2321.46
684.009	2342.03
684.357	2347.45
684.705	2389.71
685.053	2409.37
685.4	2404.4
685.748	2397.39
686.095	2443.72
686.443	2470.84
686.79	2473.55
687.138	2498.41
687.485	2535.02
687.832	2521.69
688.18	2569.37
688.527	2563.49
688.874	2623.38
689.221	2657.05
689.568	2642.13
689.915	2654.56
690.262	2703.83
690.609	2683.26
690.956	2704.51
691.303	2702.7
691.65	2737.72
691.997	2760.32
692.344	2778.18
692.69	2806.2
693.037	2788.57
693.383	2816.59
693.73	2836.93
694.077	2854.56
694.423	2831.73
694.769	2902.92
695.116	2929.13
695.462	2906.31
695.808	2984.72
696.155	2947.66
696.501	2991.5
696.847	3021.33
697.193	2998.73
697.539	3030.37
697.885	3070.37
698.231	3083.7
698.577	3116.92
698.923	3139.52
699.269	3174.78
699.614	3168.45
699.96	3181.33
700.306	3171.61
700.651	3223.59
700.997	3234.21
701.342	3267.65
701.688	3244.15
702.033	3270.14
702.379	3292.96
702.724	3299.74
703.069	3339.97
703.415	3323.25
703.76	3347.2
704.105	3387.65
704.45	3383.81
704.795	3415.9
705.14	3430.36
705.485	3442.34
705.83	3458.84
706.175	3525.95
706.52	3516.69
706.865	3536.35
707.209	3543.35
707.554	3602.79
707.899	3614.31
708.243	3619.28
708.588	3653.18
708.932	3622.22
709.277	3656.12
709.621	3656.57
709.966	3665.84
710.31	3693.86
710.654	3716.23
710.998	3710.58
711.342	3773.4
711.687	3753.29
712.031	3743.57
712.375	3748.09
712.719	3834.19
713.063	3800.3
713.407	3873.74
713.75	3846.85
714.094	3813.85
714.438	3920.07
714.782	3897.47
715.125	3920.97
715.469	3951.25
715.812	3929.33
716.156	3958.94
716.499	3962.1
716.843	3996
717.186	4008.65
717.53	4052.49
717.873	4050.68
718.216	4012.49
718.559	4050.46
718.902	4065.83
719.246	4022.44
719.589	4064.02
719.932	4069.89
720.275	4091.14
720.617	4064.7
720.96	4140.4
721.303	4135.88
721.646	4113.28
721.989	4113.51
722.331	4159.83
722.674	4134.52
723.016	4232.15
723.359	4154.64
723.701	4200.96
724.044	4190.57
724.386	4199.38
724.729	4227.63
725.071	4234.41
725.413	4218.59
725.755	4271.24
726.097	4240.06
726.439	4217.01
726.782	4256.1
727.124	4243.45
727.465	4250.68
727.807	4242.54
728.149	4282.09
728.491	4254.29
728.833	4278.25
729.175	4295.2
729.516	4273.96
729.858	4269.66
730.199	4337.46
730.541	4292.49
730.882	4317.34
731.224	4320.28
731.565	4334.29
731.906	4324.8
732.248	4363.67
732.589	4346.95
732.93	4339.94
733.271	4354.86
733.612	4317.34
733.953	4372.94
734.294	4321.41
734.635	4339.04
734.976	4383.78
735.317	4341.52
735.658	4346.27
735.999	4313.5
736.339	4304.01
736.68	4399.38
737.021	4394.18
737.361	4369.55
737.702	4338.13
738.042	4370.45
738.383	4328.19
738.723	4357.8
739.063	4392.82
739.404	4385.14
739.744	4373.16
740.084	4389.88
740.424	4395.53
740.764	4346.27
741.104	4357.12
741.444	4352.37
741.784	4399.83
742.124	4344.24
742.464	4379.49
742.804	4365.25
743.143	4360.96
743.483	4363.9
743.823	4339.72
744.162	4339.94
744.502	4328.64
744.841	4301.75
745.181	4395.99
745.52	4370.68
745.86	4334.97
746.199	4311.47
746.538	4360.28
746.877	4327.06
747.216	4303.11
747.556	4352.6
747.895	4322.54
748.234	4335.42
748.573	4315.08
748.911	4314.18
749.25	4325.48
749.589	4291.13
749.928	4341.52
750.267	4273.5
750.605	4334.74
750.944	4249.1
751.283	4288.87
751.621	4264.92
751.96	4259.72
752.298	4253.84
752.636	4322.99
752.975	4259.27
753.313	4235.09
753.651	4214.52
753.989	4248.42
754.327	4221.08
754.666	4243.22
755.004	4222.21
755.342	4261.53
755.679	4217.91
756.017	4211.36
756.355	4245.48
756.693	4173.85
757.031	4198.7
757.368	4155.54
757.706	4157.12
758.044	4160.96
758.381	4101.76
758.719	4122.32
759.056	4162.77
759.394	4132.94
759.731	4108.99
760.068	4093.62
760.405	4068.54
760.743	4044.81
761.08	4111.47
761.417	4068.99
761.754	4059.5
762.091	4030.8
762.428	3979.5
762.765	4020.85
763.102	3986.73
763.438	3968.2
763.775	3977.47
764.112	3948.54
764.449	3972.72
764.785	3964.13
765.122	3959.61
765.458	3934.98
765.795	3970.91
766.131	3938.82
766.467	3954.19
766.804	3897.69
767.14	3886.17
767.476	3940.63
767.812	3885.72
768.148	3894.53
768.485	3840.07
768.821	3863.34
769.157	3869.9
769.492	3864.02
769.828	3799.62
770.164	3750.58
770.5	3753.74
770.836	3763.01
771.171	3788.32
771.507	3758.26
771.842	3765.72
772.178	3733.86
772.513	3724.37
772.849	3732.5
773.184	3695.21
773.519	3679.39
773.855	3653.41
774.19	3681.2
774.525	3633.97
774.86	3678.94
775.195	3630.81
775.53	3614.54
775.865	3607.31
776.2	3598.72
776.535	3524.6
776.87	3575.89
777.205	3557.82
777.539	3562.79
777.874	3565.5
778.209	3486.41
778.543	3498.38
778.878	3514.88
779.212	3488.67
779.547	3461.77
779.881	3501.32
780.215	3430.59
780.55	3470.81
780.884	3465.39
781.218	3430.81
781.552	3419.06
781.886	3426.97
782.22	3371.83
782.554	3383.13
782.888	3348.56
783.222	3353.75
783.556	3362.11
783.889	3340.42
784.223	3310.82
784.557	3285.05
784.89	3300.87
785.224	3314.66
785.557	3282.12
785.891	3287.31
786.224	3263.59
786.558	3274.43
786.891	3221.55
787.224	3212.51
787.557	3281.44
787.891	3206.19
788.224	3206.86
788.557	3226.75
788.89	3167.54
789.223	3226.98
789.556	3190.59
789.888	3190.59
790.221	3168
790.554	3130.71
790.887	3131.39
791.219	3137.94
791.552	3132.06
791.884	3088.45
792.217	3106.98
792.549	3067.66
792.882	3055.91
793.214	3067.43
793.546	3043.93
793.879	3091.39
794.211	3018.85
794.543	3059.3
794.875	3011.62
795.207	3055.68
795.539	3012.52
795.871	3019.07
796.203	2986.76
796.535	2974.1
796.867	2998.28
797.198	2961.67
797.53	2945.18
797.862	2934.33
798.193	2984.72
798.525	2953.76
798.856	2973.42
799.188	2923.26
799.519	2935.69
799.85	2881.9
800.182	2871.73
800.513	2910.83
800.844	2849.81
801.175	2893.2
801.506	2888.23
801.837	2858.17
802.168	2833.54
802.499	2822.69
802.83	2833.09
803.161	2791.51
803.491	2830.38
803.822	2822.92
804.153	2808.91
804.483	2772.07
804.814	2776.37
805.145	2778.4
805.475	2761.9
805.805	2774.11
806.136	2745.86
806.466	2788.57
806.796	2739.76
807.126	2739.08
807.457	2677.39
807.787	2727.1
808.117	2702.25
808.447	2701.12
808.777	2732.53
809.107	2684.84
809.436	2704.96
809.766	2690.95
810.096	2652.3
810.426	2662.02
810.755	2649.37
811.085	2670.38
811.414	2658.18
811.744	2662.47
812.073	2633.55
812.403	2646.88
812.732	2603.94
813.061	2626.77
813.39	2629.48
813.719	2589.25
814.049	2620.44
814.378	2602.36
814.707	2604.17
815.036	2592.42
815.365	2599.88
815.693	2547
816.022	2558.07
816.351	2575.47
816.68	2534.34
817.008	2550.38
817.337	2541.35
817.665	2517.84
817.994	2502.02
818.322	2518.3
818.651	2558.75
818.979	2496.15
819.307	2540.67
819.636	2498.41
819.964	2506.77
820.292	2517.39
820.62	2488.69
820.948	2490.95
821.276	2479.43
821.604	2521.46
821.932	2479.43
822.259	2490.73
822.587	2514.45
822.915	2484.17
823.243	2439.65
823.57	2493.44
823.898	2492.53
824.225	2481.69
824.553	2467.9
824.88	2472.42
825.207	2464.96
825.535	2460.44
825.862	2497.73
826.189	2474.91
826.516	2502.25
826.843	2471.97
827.17	2489.6
827.497	2499.99
827.824	2467
828.151	2499.31
828.478	2503.38
828.805	2474.68
829.131	2502.25
829.458	2494.34
829.785	2471.52
830.111	2496.38
830.438	2478.07
830.764	2452.99
831.09	2473.32
831.417	2451.86
831.743	2437.17
832.069	2444.4
832.395	2474.45
832.722	2463.83
833.048	2448.69
833.374	2457.73
833.7	2438.52
834.026	2450.05
834.351	2468.35
834.677	2450.95
835.003	2450.05
835.329	2428.58
835.654	2459.31
835.98	2426.55
836.306	2448.01
836.631	2450.95
836.956	2443.27
837.282	2452.76
837.607	2423.83
837.932	2432.42
838.258	2416.15
838.583	2391.29
838.908	2395.36
839.233	2411.63
839.558	2414.8
839.883	2419.77
840.208	2379.32
840.533	2419.77
840.858	2373.21
841.182	2395.81
841.507	2363.5
841.832	2391.97
842.156	2338.41
842.481	2371.86
842.805	2376.6
843.13	2368.24
843.454	2350.16
843.778	2358.53
844.103	2359.2
844.427	2329.15
844.751	2355.14
845.075	2332.99
845.399	2343.84
845.723	2318.53
846.047	2314.01
846.371	2287.79
846.695	2294.12
847.019	2264.29
847.343	2297.06
847.666	2271.52
847.99	2251.64
848.313	2235.14
848.637	2234.24
848.96	2263.61
849.284	2260.22
849.607	2201.24
849.931	2218.19
850.254	2209.15
850.577	2230.85
850.9	2186.1
851.223	2202.82
851.546	2171.86
851.869	2186.33
852.192	2172.99
852.515	2127.57
852.838	2188.36
853.161	2151.3
853.483	2165.31
853.806	2148.59
854.129	2124.18
854.451	2125.31
854.774	2115.14
855.096	2103.39
855.419	2114.69
855.741	2091.41
856.063	2105.88
856.385	2105.88
856.708	2086.22
857.03	2079.66
857.352	2096.16
857.674	2075.14
857.996	2095.26
858.318	2071.75
858.64	2072.43
858.961	2067.01
859.283	2058.65
859.605	2038.31
859.926	2047.57
860.248	2031.08
860.57	2043.05
860.891	2029.27
861.212	2022.49
861.534	2015.94
861.855	2009.83
862.176	1992.66
862.498	2028.14
862.819	1984.75
863.14	1995.6
863.461	1966.22
863.782	1997.41
864.103	2028.82
864.424	2014.13
864.745	1974.81
865.065	1991.98
865.386	1981.81
865.707	1961.93
866.027	1995.6
866.348	1956.05
866.668	2001.02
866.989	1965.09
867.309	1943.85
867.63	1962.6
867.95	1948.14
868.27	1955.6
868.59	1969.61
868.91	1939.78
869.23	1929.38
869.55	1943.4
869.87	1949.95
870.19	1962.15
870.51	1947.91
870.83	1945.66
871.15	1921.02
871.469	1913.57
871.789	1926.22
872.109	1943.17
872.428	1897.07
872.748	1912.89
873.067	1897.29
873.386	1937.97
873.706	1908.82
874.025	1886.67
874.344	1899.1
874.663	1891.42
874.982	1919.22
875.301	1876.5
875.62	1903.85
875.939	1892.55
876.258	1865.21
876.577	1904.07
876.896	1875.37
877.214	1864.98
877.533	1870.18
877.852	1875.37
878.17	1876.5
878.489	1842.61
878.807	1862.95
879.125	1883.74
879.444	1870.85
879.762	1860.91
880.08	1847.8
880.398	1859.56
880.716	1855.26
881.034	1840.12
881.352	1847.13
881.67	1835.6
881.988	1853.91
882.306	1836.28
882.624	1838.31
882.941	1821.36
883.259	1825.88
883.577	1803.06
883.894	1829.95
884.212	1794.47
884.529	1828.14
884.846	1806.9
885.164	1812.1
885.481	1829.05
885.798	1797.64
886.115	1764.42
886.432	1791.31
886.75	1763.74
887.067	1771.87
887.383	1800.57
887.7	1793.57
888.017	1761.71
888.334	1795.38
888.651	1752.89
888.967	1770.07
889.284	1730.97
889.6	1765.32
889.917	1744.08
890.233	1760.35
890.55	1732.78
890.866	1709.73
891.182	1750.18
891.498	1752.44
891.815	1689.39
892.131	1727.81
892.447	1691.2
892.763	1694.59
893.079	1709.05
893.395	1697.3
893.71	1693.91
894.026	1707.24
894.342	1684.64
894.657	1703.85
894.973	1702.27
895.289	1679.67
895.604	1682.16
895.92	1671.99
896.235	1648.04
896.55	1665.66
896.865	1656.17
897.181	1674.02
897.496	1651.43
897.811	1646.91
898.126	1660.69
898.441	1608.71
898.756	1623.86
899.071	1622.73
899.386	1637.19
899.7	1616.85
900.015	1615.04
900.33	1585.21
900.644	1585.66
900.959	1580.92
901.273	1599.45
901.588	1594.48
901.902	1582.27
902.216	1582.27
902.531	1586.34
902.845	1552.45
903.159	1571.88
903.473	1560.35
903.787	1572.78
904.101	1580.24
904.415	1572.11
904.729	1563.07
905.042	1516.97
905.356	1537.3
905.67	1532.56
905.984	1520.36
906.297	1563.29
906.611	1493.01
906.924	1504.08
907.237	1521.26
907.551	1493.69
907.864	1483.52
908.177	1482.16
908.491	1459.11
908.804	1483.75
909.117	1463.86
909.43	1439
909.743	1465.22
910.056	1474.26
910.368	1451.88
910.681	1450.3
910.994	1443.3
911.307	1440.81
911.619	1423.41
911.932	1436.29
912.244	1409.17
912.557	1425.22
912.869	1413.92
913.181	1401.26
913.494	1430.64
913.806	1408.72
914.118	1402.84
914.43	1410.3
914.742	1377.31
915.054	1389.06
915.366	1370.53
915.678	1384.54
915.99	1378.66
916.302	1382.28
916.613	1365.78
916.925	1354.94
917.236	1347.03
917.548	1367.59
917.859	1353.35
918.171	1365.11
918.482	1332.11
918.794	1294.6
919.105	1305.22
919.416	1332.34
919.727	1297.31
920.038	1333.02
920.349	1308.84
920.66	1291.89
920.971	1302.73
921.282	1314.26
921.593	1300.02
921.903	1290.08
922.214	1293.47
922.525	1259.57
922.835	1264.54
923.146	1291.66
923.456	1269.74
923.767	1271.55
924.077	1238.33
924.387	1240.14
924.697	1243.53
925.008	1252.79
925.318	1261.15
925.628	1256.41
925.938	1247.59
926.248	1235.84
926.558	1241.94
926.867	1231.78
927.177	1222.96
927.487	1245.11
927.796	1198.1
928.106	1219.8
928.416	1217.54
928.725	1211.66
929.034	1193.58
929.344	1209.18
929.653	1203.3
929.962	1179.12
930.271	1201.95
930.581	1205.11
930.89	1180.48
931.199	1190.65
931.508	1166.92
931.817	1174.15
932.125	1149.52
932.434	1158.11
932.743	1146.81
933.051	1135.28
933.36	1147.94
933.669	1173.7
933.977	1111.55
934.286	1131.21
934.594	1116.07
934.902	1141.61
935.21	1128.5
935.519	1116.3
935.827	1132.57
936.135	1118.33
936.443	1104.77
936.751	1106.81
937.059	1117.65
937.367	1103.19
937.674	1098.22
937.982	1098.22
938.29	1112.46
938.597	1099.12
938.905	1097.32
939.213	1070.42
939.52	1090.31
939.827	1074.94
940.135	1064.1
940.442	1056.86
940.749	1049.63
941.056	1045.79
941.363	1053.7
941.67	1034.27
941.977	1021.39
942.284	1022.52
942.591	1049.86
942.898	1044.66
943.205	1035.62
943.511	1029.52
943.818	1058.67
944.125	1024.78
944.431	1014.61
944.738	1011.89
945.044	1010.76
945.35	1032.23
945.657	1015.06
945.963	1016.87
946.269	995.4
946.575	994.95
946.881	1012.8
947.187	976.64
947.493	993.82
947.799	985.91
948.105	982.97
948.41	973.03
948.716	976.64
949.022	962.63
949.327	988.17
949.633	978.22
949.938	976.19
950.244	988.84
950.549	970.77
950.854	944.55
951.16	979.8
951.465	964.21
951.77	988.84
952.075	954.04
952.38	947.72
952.685	936.19
952.99	930.31
953.294	945.68
953.599	942.74
953.904	925.79
954.209	949.75
954.513	918.56
954.818	933.25
955.122	913.82
955.426	909.52
955.731	911.56
956.035	906.36
956.339	883.31
956.643	910.2
956.948	906.36
957.252	880.15
957.556	892.58
957.86	902.07
958.163	909.07
958.467	875.4
958.771	882.63
959.075	867.94
959.378	881.5
959.682	871.56
959.985	883.76
960.289	877.89
960.592	863.2
960.896	868.17
961.199	870.66
961.502	865.68
961.805	850.32
962.108	863.65
962.411	861.39
962.714	843.09
963.017	840.6
963.32	845.12
963.623	826.59
963.926	851.45
964.228	860.03
964.531	845.35
964.833	837.89
965.136	820.26
965.438	832.46
965.741	813.03
966.043	815.97
966.345	817.32
966.648	818.91
966.95	848.73
967.252	839.92
967.554	798.79
967.856	809.41
968.158	823.2
968.46	805.57
968.761	804.67
969.063	789.3
969.365	777.78
969.666	801.28
969.968	782.3
970.269	796.08
970.571	806.7
970.872	795.85
971.174	796.53
971.475	809.87
971.776	794.95
972.077	789.75
972.378	762.86
972.679	767.15
972.98	782.97
973.281	778.23
973.582	784.78
973.883	780.94
974.183	763.54
974.484	756.99
974.785	741.62
975.085	738
975.386	766.7
975.686	753.82
975.986	755.4
976.287	746.82
976.587	741.84
976.887	750.88
977.187	761.51
977.487	759.25
977.787	722.18
978.087	736.65
978.387	753.82
978.687	734.84
978.987	760.6
979.286	738.23
979.586	727.16
979.885	747.49
980.185	704.56
980.484	730.55
980.784	731.9
981.083	706.59
981.382	700.94
981.682	715.18
981.981	738.68
982.28	720.83
982.579	698.91
982.878	715.4
983.177	725.57
983.475	697.33
983.774	681.28
984.073	710.66
984.372	674.5
984.67	674.28
984.969	681.51
985.267	684.22
985.566	690.55
985.864	688.96
986.162	705.46
986.461	668.4
986.759	666.37
987.057	689.87
987.355	684.9
987.653	681.28
987.951	667.27
988.249	681.06
988.547	674.73
988.844	663.43
989.142	671.56
989.44	665.91
989.737	679.02
990.035	659.14
990.332	667.72
990.63	676.54
990.927	646.03
991.224	643.77
991.521	666.82
991.819	650.1
992.116	652.58
992.413	625.69
992.71	649.42
993.006	629.98
993.303	637.21
993.6	618.91
993.897	631.11
994.193	634.5
994.49	627.27
994.787	625.69
995.083	639.7
995.379	643.77
995.676	634.5
995.972	624.33
996.268	653.71
996.565	603.09
996.861	616.42
997.157	623.88
997.453	618.68
997.749	619.59
998.044	603.54
998.34	624.56
998.636	589.53
998.932	603.77
999.227	586.37
999.523	599.25
999.818	618.01
1000.114	593.15
1000.409	603.09
1000.704	589.76
1001	637.44
1001.295	598.8
1001.59	592.7
1001.885	608.52
1002.18	596.76
1002.475	586.14
1002.77	611.9
1003.065	566.03
1003.359	603.54
1003.654	581.17
1003.949	560.61
1004.243	560.83
1004.538	557.67
1004.832	564.9
1005.127	571
1005.421	561.51
1005.715	577.33
1006.009	557.89
1006.304	564.22
1006.598	572.58
1006.892	571
1007.186	563.77
1007.48	573.94
1007.773	564.67
1008.067	575.07
1008.361	562.19
1008.655	557.44
1008.948	564.22
1009.242	543.43
1009.535	540.95
1009.829	568.29
1010.122	536.43
1010.415	549.99
1010.708	540.27
1011.001	537.33
1011.295	544.34
1011.588	523.55
1011.881	524.9
1012.173	515.41
1012.466	520.61
1012.759	529.65
1013.052	546.6
1013.344	510.21
1013.637	531
1013.93	517.9
1014.222	516.54
1014.514	545.47
1014.807	512.47
1015.099	523.77
1015.391	528.74
1015.683	506.82
1015.976	515.86
1016.268	502.53
1016.56	517.67
1016.851	493.04
1017.143	533.26
1017.435	522.42
1017.727	504.56
1018.018	493.94
1018.31	494.62
1018.602	498.46
1018.893	492.36
1019.185	504.56
1019.476	496.65
1019.767	488.97
1020.058	512.47
1020.35	486.03
1020.641	467.28
1020.932	491.68
1021.223	477.22
1021.514	475.86
1021.804	488.52
1022.095	481.51
1022.386	488.74
1022.677	484.45
1022.967	469.08
1023.258	459.37
1023.548	471.8
1023.839	484.68
1024.129	478.8
1024.419	486.71
1024.709	472.02
1025	468.86
1025.29	478.8
1025.58	453.72
1025.87	446.49
1026.16	463.43
1026.449	485.58
1026.739	458.46
1027.029	467.28
1027.319	469.99
1027.608	476.09
1027.898	455.07
1028.187	479.93
1028.477	467.05
1028.766	452.14
1029.055	444.68
1029.344	436.32
1029.634	443.32
1029.923	439.71
1030.212	458.91
1030.501	448.75
1030.79	448.29
1031.078	439.71
1031.367	445.58
1031.656	467.05
1031.945	430.44
1032.233	430.44
1032.522	446.03
1032.81	435.41
1033.099	432.7
1033.387	428.63
1033.675	423.21
1033.963	432.47
1034.251	450.55
1034.54	444.68
1034.828	431.57
1035.116	422.31
1035.403	424.34
1035.691	448.29
1035.979	426.82
1036.267	417.11
1036.554	413.49
1036.842	431.57
1037.129	428.86
1037.417	433.15
1037.704	415.3
1037.992	407.39
1038.279	420.5
1038.566	421.4
1038.853	421.4
1039.14	421.4
