Data from carpet_green_FLMS001491_00071.txt Node
Date: Wed Feb 08 10:35:49 GMT 2017
User: dcchb
Spectrometer: FLMS00149
Trigger mode: 0
Integration Time (sec): 2.000000E-2
Scans to average: 10
Electric dark correction enabled: true
Nonlinearity correction enabled: false
Boxcar width: 0
XAxis mode: Wavelengths
Number of Pixels in Spectrum: 2048
>>>>>Begin Spectral Data<<<<<
341.393	-22.03
341.776	-22.03
342.16	-22.03
342.543	-78.75
342.927	-56.61
343.31	-76.27
343.693	-72.65
344.077	-55.93
344.46	-63.39
344.843	-50.28
345.226	-44.41
345.61	-36.04
345.993	-25.88
346.376	-6.44
346.759	7.57
347.142	33.78
347.525	46.67
347.908	64.74
348.291	75.59
348.674	102.94
349.057	100
349.44	109.26
349.823	123.95
350.206	151.3
350.588	191.29
350.971	180.9
351.354	195.36
351.737	202.37
352.119	220.67
352.502	236.49
352.884	236.94
353.267	243.72
353.65	269.03
354.032	260.9
354.414	286.43
354.797	291.86
355.179	276.26
355.562	298.18
355.944	307.9
356.326	311.97
356.709	297.96
357.091	316.94
357.473	322.14
357.855	319.65
358.238	302.03
358.62	311.52
359.002	307
359.384	302.7
359.766	310.61
360.148	301.12
360.53	302.7
360.912	300.44
361.294	303.83
361.676	314
362.057	299.99
362.439	295.92
362.821	308.81
363.203	295.7
363.584	281.46
363.966	280.11
364.348	302.93
364.729	279.2
365.111	284.85
365.493	271.52
365.874	287.56
366.256	295.02
366.637	299.54
367.019	262.7
367.4	273.78
367.781	263.61
368.163	281.01
368.544	285.53
368.925	271.07
369.306	281.24
369.688	285.53
370.069	278.75
370.45	263.38
370.831	268.13
371.212	275.36
371.593	288.02
371.974	273.33
372.355	259.99
372.736	279.2
373.117	286.89
373.498	293.89
373.879	287.11
374.26	294.34
374.641	296.6
375.021	280.56
375.402	285.98
375.783	287.79
376.163	301.12
376.544	300.67
376.925	282.37
377.305	291.18
377.686	263.16
378.066	291.86
378.447	307.68
378.827	297.96
379.208	273.1
379.588	277.17
379.968	264.51
380.349	297.51
380.729	284.17
381.109	283.95
381.489	307.22
381.87	293.66
382.25	292.08
382.63	272.2
383.01	304.51
383.39	294.34
383.77	307
384.15	318.75
384.53	309.26
384.91	276.72
385.29	299.99
385.67	304.96
386.049	285.53
386.429	275.59
386.809	310.61
387.189	290.05
387.568	314.23
387.948	281.69
388.328	290.95
388.707	295.47
389.087	300.22
389.466	306.77
389.846	308.35
390.225	303.61
390.605	310.39
390.984	315.58
391.363	295.02
391.743	299.54
392.122	299.99
392.501	318.75
392.881	322.14
393.26	318.07
393.639	307
394.018	311.97
394.397	306.55
394.776	310.39
395.155	312.42
395.534	314
395.913	312.42
396.292	317.62
396.671	313.55
397.05	325.53
397.429	330.27
397.808	304.96
398.186	313.33
398.565	315.58
398.944	314.91
399.323	314.91
399.701	310.39
400.08	294.57
400.458	335.02
400.837	325.53
401.215	339.31
401.594	322.59
401.972	307.68
402.351	325.98
402.729	329.14
403.107	329.14
403.486	316.26
403.864	315.13
404.242	329.14
404.62	320.1
404.999	302.25
405.377	330.27
405.755	319.43
406.133	322.59
406.511	327.56
406.889	316.94
407.267	339.31
407.645	334.12
408.023	352.19
408.401	346.09
408.779	324.17
409.156	326.88
409.534	313.55
409.912	350.84
410.29	351.29
410.667	320.1
411.045	349.93
411.422	331.4
411.8	319.2
412.178	344.74
412.555	333.44
412.933	326.88
413.31	343.61
413.687	329.14
414.065	344.51
414.442	352.42
414.819	357.84
415.197	339.09
415.574	348.35
415.951	341.35
416.328	361.46
416.705	351.06
417.082	354.68
417.46	365.53
417.837	348.35
418.214	356.49
418.591	346.09
418.967	366.66
419.344	370.95
419.721	353.32
420.098	333.89
420.475	355.81
420.852	382.93
421.228	370.05
421.605	367.11
421.982	346.77
422.358	373.66
422.735	363.95
423.111	351.74
423.488	376.83
423.864	351.97
424.241	365.75
424.617	356.26
424.994	356.49
425.37	358.07
425.746	377.28
426.123	368.69
426.499	375.02
426.875	381.8
427.251	368.92
427.627	368.24
428.003	386.77
428.379	388.35
428.756	399.65
429.132	382.48
429.507	372.76
429.883	382.25
430.259	403.94
430.635	398.52
431.011	385.41
431.387	398.97
431.763	403.04
432.138	395.13
432.514	397.16
432.89	394.68
433.265	393.1
433.641	424.73
434.016	404.62
434.392	403.04
434.767	425.41
435.143	411.18
435.518	405.53
435.894	426.99
436.269	412.53
436.644	406.66
437.02	437.16
437.395	435.36
437.77	419.99
438.145	440.33
438.52	422.7
438.895	413.44
439.271	426.09
439.646	431.97
440.021	434.23
440.395	443.94
440.77	439.65
441.145	455.24
441.52	461.57
441.895	443.72
442.27	424.28
442.645	455.92
443.019	440.78
443.394	459.76
443.769	461.57
444.143	455.69
444.518	436.03
444.892	455.24
445.267	466.09
445.641	463.38
446.016	457.95
446.39	463.15
446.764	432.87
447.139	464.28
447.513	474.68
447.887	460.67
448.262	474.9
448.636	461.12
449.01	453.66
449.384	468.35
449.758	483.94
450.132	482.13
450.506	491.4
450.88	488.24
451.254	488.69
451.628	485.07
452.002	496.37
452.376	504.28
452.75	505.41
453.123	508.35
453.497	505.18
453.871	505.41
454.244	495.69
454.618	523.04
454.992	515.81
455.365	512.87
455.739	533.43
456.112	527.56
456.486	510.83
456.859	527.78
457.232	516.26
457.606	515.81
457.979	532.53
458.352	525.52
458.725	554.45
459.099	551.06
459.472	559.65
459.845	536.82
460.218	547.67
460.591	558.29
460.964	558.52
461.337	593.09
461.71	580.66
462.083	606.88
462.456	610.04
462.829	580.89
463.201	585.63
463.574	580.21
463.947	625.86
464.32	615.46
464.692	616.14
465.065	627.44
465.438	601
465.81	615.46
466.183	653.2
466.555	651.85
466.928	641
467.3	634.9
467.672	635.58
468.045	667.89
468.417	656.82
468.789	650.27
469.161	690.04
469.534	671.73
469.906	683.94
470.278	694.11
470.65	684.84
471.022	708.79
471.394	709.92
471.766	713.99
472.138	725.97
472.51	713.54
472.882	749.02
473.253	741.79
473.625	746.53
473.997	767.1
474.369	771.39
474.74	770.26
475.112	786.53
475.484	809.58
475.855	780.43
476.227	815.91
476.598	834.89
476.97	806.42
477.341	826.08
477.713	850.03
478.084	869.24
478.455	881.22
478.827	894.33
479.198	917.38
479.569	887.55
479.94	916.25
480.311	928.68
480.682	925.51
481.053	953.76
481.424	991.5
481.795	960.31
482.166	969.35
482.537	974.1
482.908	1006.64
483.279	1004.61
483.65	1026.53
484.021	1055
484.391	1065.17
484.762	1053.87
485.133	1064.94
485.503	1072.63
485.874	1056.81
486.244	1116.69
486.615	1104.49
486.985	1136.58
487.356	1160.76
487.726	1145.17
488.097	1173.87
488.467	1172.74
488.837	1196.24
489.207	1212.96
489.578	1234.2
489.948	1217.48
490.318	1257.93
490.688	1262
491.058	1257.93
491.428	1284.37
491.798	1271.27
492.168	1292.96
492.538	1336.35
492.908	1313.98
493.278	1349.46
493.648	1365.05
494.017	1347.87
494.387	1365.05
494.757	1391.26
495.126	1373.64
495.496	1405.27
495.866	1405.5
496.235	1422.45
496.605	1443.24
496.974	1430.36
497.344	1436.46
497.713	1455.67
498.082	1466.97
498.452	1502.9
498.821	1471.71
499.19	1505.61
499.559	1486.63
499.928	1540.86
500.298	1519.62
500.667	1548.32
501.036	1521.88
501.405	1572.28
501.774	1550.81
502.143	1568.66
502.512	1566.17
502.88	1598.94
503.249	1567.76
503.618	1617.92
503.987	1602.33
504.356	1618.83
504.724	1599.39
505.093	1598.94
505.462	1632.39
505.83	1641.2
506.199	1653.18
506.567	1667.64
506.936	1666.96
507.304	1704.47
507.672	1665.83
508.041	1668.09
508.409	1718.71
508.777	1725.27
509.145	1691.14
509.514	1696.34
509.882	1726.17
510.25	1731.14
510.618	1734.76
510.986	1735.21
511.354	1759.84
511.722	1776.79
512.09	1805.26
512.458	1748.09
512.826	1768.43
513.193	1779.5
513.561	1804.13
513.929	1819.27
514.297	1838.93
514.664	1828.54
515.032	1860.63
515.4	1831.03
515.767	1843.45
516.135	1867.18
516.502	1872.61
516.869	1862.21
517.237	1880.97
517.604	1905.15
517.972	1884.13
518.339	1896.11
518.706	1929.78
519.073	1921.64
519.44	1959.84
519.808	1941.08
520.175	1958.25
520.542	1956.9
520.909	1955.32
521.276	1992.6
521.643	1979.04
522.009	1983.34
522.376	1975.65
522.743	2011.59
523.11	2048.42
523.477	2042.09
523.843	2068.08
524.21	2091.81
524.577	2087.97
524.943	2083.22
525.31	2122.09
525.676	2105.14
526.043	2101.3
526.409	2124.35
526.776	2121.19
527.142	2167.06
527.508	2149.89
527.874	2149.89
528.241	2168.42
528.607	2164.58
528.973	2155.54
529.339	2172.03
529.705	2163.45
530.071	2173.39
530.437	2237.34
530.803	2196.44
531.169	2230.79
531.535	2276.89
531.901	2194.18
532.267	2245.25
532.632	2217
532.998	2255.87
533.364	2212.26
533.73	2221.3
534.095	2255.65
534.461	2238.47
534.826	2223.33
535.192	2264.01
535.557	2288.87
535.923	2268.08
536.288	2306.27
536.653	2276.21
537.019	2291.13
537.384	2287.74
537.749	2311.46
538.114	2266.72
538.479	2255.87
538.845	2304.91
539.21	2278.7
539.575	2301.52
539.94	2319.83
540.305	2330.22
540.67	2319.15
541.034	2313.27
541.399	2304.91
541.764	2307.4
542.129	2327.74
542.494	2314.4
542.858	2335.87
543.223	2330.9
543.587	2320.96
543.952	2333.84
544.316	2384.68
544.681	2366.83
545.045	2363.67
545.41	2353.72
545.774	2346.94
546.138	2337.9
546.503	2363.89
546.867	2339.94
547.231	2378.81
547.595	2359.6
547.959	2401.18
548.324	2374.06
548.688	2364.57
549.052	2391.46
549.416	2398.47
549.779	2366.83
550.143	2397.56
550.507	2401.18
550.871	2395.76
551.235	2398.02
551.599	2394.17
551.962	2387.39
552.326	2421.52
552.689	2421.74
553.053	2419.26
553.417	2364.8
553.78	2426.49
554.143	2405.25
554.507	2411.8
554.87	2441.18
555.234	2441.18
555.597	2414.96
555.96	2428.52
556.323	2413.61
556.686	2474.85
557.05	2465.58
557.413	2478.92
557.776	2470.78
558.139	2490.89
558.502	2475.3
558.865	2478.01
559.228	2471.23
559.59	2503.1
559.953	2525.24
560.316	2518.69
560.679	2505.13
561.041	2513.49
561.404	2538.35
561.767	2555.53
562.129	2556.2
562.492	2537.22
562.854	2617.9
563.217	2559.14
563.579	2567.5
563.941	2596.43
564.304	2603.66
564.666	2593.49
565.028	2590.55
565.39	2603.43
565.753	2610.89
566.115	2591.46
566.477	2633.49
566.839	2607.28
567.201	2612.47
567.563	2646.37
567.925	2640.95
568.287	2657.44
568.648	2653.15
569.01	2656.09
569.372	2630.55
569.734	2640.95
570.095	2673.04
570.457	2666.71
570.819	2642.08
571.18	2654.05
571.542	2661.96
571.903	2663.55
572.265	2692.92
572.626	2683.88
572.987	2668.29
573.349	2684.34
573.71	2688.86
574.071	2695.86
574.432	2705.13
574.794	2689.99
575.155	2743.09
575.516	2710.55
575.877	2703.77
576.238	2684.79
576.599	2670.55
576.96	2671.23
577.32	2673.49
577.681	2723.43
578.042	2699.7
578.403	2671.46
578.763	2674.84
579.124	2690.44
579.485	2774.28
579.845	2673.49
580.206	2710.78
580.566	2679.82
580.927	2696.09
581.287	2672.36
581.648	2687.73
582.008	2690.89
582.368	2658.8
582.728	2690.21
583.089	2674.39
583.449	2704.45
583.809	2646.37
584.169	2689.53
584.529	2631.46
584.889	2673.26
585.249	2680.95
585.609	2625.81
585.969	2642.98
586.329	2627.84
586.688	2626.48
587.048	2662.64
587.408	2633.26
587.768	2663.32
588.127	2664.22
588.487	2639.37
588.846	2660.16
589.206	2601.4
589.565	2614.73
589.925	2609.76
590.284	2614.96
590.643	2603.43
591.003	2617.9
591.362	2603.21
591.721	2631.23
592.08	2585.36
592.44	2636.43
592.799	2617.9
593.158	2611.8
593.517	2605.24
593.876	2607.28
594.235	2581.29
594.593	2595.75
594.952	2596.65
595.311	2572.47
595.67	2579.03
596.029	2626.94
596.387	2612.02
596.746	2654.73
597.104	2630.33
597.463	2613.38
597.822	2626.48
598.18	2623.55
598.538	2643.43
598.897	2581.06
599.255	2591.46
599.613	2648.18
599.972	2599.59
600.33	2637.78
600.688	2626.94
601.046	2633.26
601.404	2634.85
601.762	2632.81
602.12	2646.37
602.478	2598.69
602.836	2644.56
603.194	2593.94
603.552	2605.92
603.91	2638.46
604.268	2623.32
604.625	2637.78
604.983	2651.79
605.341	2655.18
605.698	2615.64
606.056	2662.87
606.413	2614.28
606.771	2659.03
607.128	2669.2
607.485	2644.56
607.843	2647.5
608.2	2668.52
608.557	2697.67
608.914	2651.79
609.272	2692.02
609.629	2689.53
609.986	2691.34
610.343	2667.39
610.7	2668.74
611.057	2685.92
611.414	2698.12
611.771	2656.31
612.127	2732.92
612.484	2719.59
612.841	2716.88
613.198	2707.84
613.554	2710.78
613.911	2725.92
614.267	2719.14
614.624	2731.57
614.98	2713.49
615.337	2759.14
615.693	2758.91
616.05	2704.67
616.406	2758.46
616.762	2746.26
617.118	2760.49
617.475	2709.42
617.831	2747.16
618.187	2741.74
618.543	2746.48
618.899	2744.22
619.255	2775.41
619.611	2720.04
619.967	2758.23
620.323	2752.58
620.678	2780.38
621.034	2721.85
621.39	2760.27
621.746	2764.11
622.101	2775.41
622.457	2744.22
622.812	2767.05
623.168	2701.06
623.523	2782.41
623.879	2783.32
624.234	2760.27
624.589	2733.83
624.945	2740.38
625.3	2790.55
625.655	2773.15
626.01	2731.34
626.365	2779.47
626.72	2771.57
627.075	2734.96
627.43	2747.61
627.785	2742.87
628.14	2748.52
628.495	2762.98
628.85	2719.14
629.205	2723.43
629.559	2767.27
629.914	2727.27
630.269	2728.18
630.623	2751.23
630.978	2734.5
631.332	2724.56
631.687	2723.43
632.041	2729.31
632.396	2687.5
632.75	2737.89
633.104	2721.62
633.459	2677.78
633.813	2747.84
634.167	2708.74
634.521	2691.12
634.875	2715.3
635.229	2668.07
635.583	2654.96
635.937	2690.44
636.291	2679.59
636.645	2658.12
636.999	2675.75
637.352	2713.71
637.706	2689.08
638.06	2678.91
638.413	2683.43
638.767	2699.48
639.121	2669.65
639.474	2707.84
639.828	2673.94
640.181	2715.75
640.534	2695.86
640.888	2691.34
641.241	2674.84
641.594	2668.29
641.947	2666.26
642.301	2704.22
642.654	2705.8
643.007	2680.95
643.36	2710.78
643.713	2719.36
644.066	2693.38
644.419	2684.11
644.771	2686.14
645.124	2669.87
645.477	2693.38
645.83	2685.47
646.182	2662.87
646.535	2654.28
646.888	2669.42
647.24	2679.59
647.593	2669.87
647.945	2676.88
648.298	2685.24
648.65	2690.21
649.002	2684.34
649.355	2697.67
649.707	2683.43
650.059	2710.32
650.411	2736.54
650.763	2753.03
651.115	2802.3
651.467	2790.77
651.819	2763.43
652.171	2809.3
652.523	2816.31
652.875	2814.28
653.227	2801.4
653.578	2836.65
653.93	2864.67
654.282	2818.12
654.633	2823.54
654.985	2831.45
655.337	2858.34
655.688	2878.23
656.039	2877.78
656.391	2906.03
656.742	2865.57
657.094	2929.75
657.445	2949.41
657.796	2919.36
658.147	2918.68
658.498	2905.12
658.849	2936.08
659.2	2975.18
659.551	2934.05
659.902	2987.15
660.253	2951.45
660.604	3010.2
660.955	3016.08
661.306	3025.34
661.656	3023.31
662.007	3055.63
662.358	3074.61
662.708	3075.29
663.059	3100.37
663.409	3072.8
663.76	3118.22
664.11	3137.66
664.461	3127.94
664.811	3181.27
665.161	3185.79
665.511	3193.48
665.862	3213.59
666.212	3257.65
666.562	3229.18
666.912	3223.31
667.262	3271.21
667.612	3263.08
667.962	3269.18
668.312	3298.11
668.662	3354.83
669.011	3355.96
669.361	3392.34
669.711	3396.63
670.06	3409.06
670.41	3418.55
670.76	3413.58
671.109	3490.87
671.459	3495.84
671.808	3503.75
672.157	3529.74
672.507	3520.92
672.856	3548.49
673.205	3546.01
673.554	3576.52
673.904	3567.25
674.253	3647.7
674.602	3632.56
674.951	3607.48
675.3	3618.77
675.649	3700.35
675.998	3720.69
676.346	3748.04
676.695	3756.17
677.044	3819.22
677.393	3764.08
677.741	3832.78
678.09	3825.78
678.438	3896.06
678.787	3900.8
679.135	3929.73
679.484	3919.11
679.832	3966.34
680.181	4020.35
680.529	3959.56
680.877	4026
681.225	4054.02
681.573	4109.84
681.922	4111.42
682.27	4048.14
682.618	4124.52
682.966	4113.23
683.314	4165.2
683.661	4185.77
684.009	4192.77
684.357	4210.17
684.705	4212.66
685.053	4262.6
685.4	4272.54
685.748	4286.1
686.095	4269.61
686.443	4332.65
686.79	4372.2
687.138	4384.86
687.485	4434.57
687.832	4424.86
688.18	4450.17
688.527	4463.95
688.874	4443.39
689.221	4458.75
689.568	4519.09
689.915	4492.88
690.262	4564.06
690.609	4574.68
690.956	4544.85
691.303	4606.09
691.65	4636.15
691.997	4664.4
692.344	4638.18
692.69	4690.61
693.037	4702.14
693.383	4696.94
693.73	4762.02
694.077	4757.28
694.423	4794.11
694.769	4811.51
695.116	4819.42
695.462	4786.43
695.808	4819.42
696.155	4878.4
696.501	4860.32
696.847	4880.66
697.193	4879.31
697.539	4951.85
697.885	4892.41
698.231	4961.56
698.577	4957.04
698.923	5059.64
699.269	4974.67
699.614	5059.87
699.96	5021.22
700.306	5098.28
700.651	5115.46
700.997	5092.63
701.342	5134.22
701.688	5135.12
702.033	5092.18
702.379	5135.35
702.724	5162.46
703.069	5204.27
703.415	5185.51
703.76	5204.5
704.105	5238.85
704.45	5256.92
704.795	5272.52
705.14	5261.9
705.485	5253.08
705.83	5316.81
706.175	5283.59
706.52	5343.93
706.865	5335.79
707.209	5351.84
707.554	5406.3
707.899	5431.38
708.243	5424.83
708.588	5479.97
708.932	5476.13
709.277	5446.3
709.621	5416.24
709.966	5435.45
710.31	5492.85
710.654	5454.66
710.998	5500.76
711.342	5565.84
711.687	5526.75
712.031	5515.22
712.375	5536.69
712.719	5564.03
713.063	5573.3
713.407	5544.15
713.75	5533.75
714.094	5625.5
714.438	5564.49
714.782	5622.34
715.125	5653.98
715.469	5637.48
715.812	5625.73
716.156	5629.57
716.499	5649.46
716.843	5667.76
717.186	5697.36
717.53	5704.14
717.873	5709.12
718.216	5710.92
718.559	5636.57
718.902	5699.4
719.246	5714.76
719.589	5749.34
719.932	5719.74
720.275	5771.26
720.617	5818.27
720.96	5783.01
721.303	5774.65
721.646	5720.64
721.989	5774.2
722.331	5789.57
722.674	5798.6
723.016	5841.77
723.359	5820.98
723.701	5878.15
724.044	5813.75
724.386	5772.84
724.729	5859.62
725.071	5818.94
725.413	5813.29
725.755	5799.96
726.097	5825.95
726.439	5808.77
726.782	5821.43
727.124	5879.73
727.465	5829.34
727.807	5875.89
728.149	5876.57
728.491	5851.03
728.833	5867.08
729.175	5881.31
729.516	5848.09
729.858	5827.53
730.199	5849.45
730.541	5881.99
730.882	5859.39
731.224	5884.48
731.565	5870.02
731.906	5839.06
732.248	5859.17
732.589	5799.28
732.93	5864.37
733.271	5879.51
733.612	5908.21
733.953	5890.81
734.294	5825.04
734.635	5847.42
734.976	5886.96
735.317	5797.93
735.658	5860.07
735.999	5848.32
736.339	5843.58
736.68	5885.61
737.021	5854.42
737.361	5876.12
737.702	5882.44
738.042	5863.69
738.383	5896.91
738.723	5868.89
739.063	5872.95
739.404	5862.33
739.744	5829.79
740.084	5826.85
740.424	5812.62
740.764	5804.03
741.104	5887.64
741.444	5810.58
741.784	5783.46
742.124	5858.04
742.464	5809.68
742.804	5788.66
743.143	5801.32
743.483	5766.29
743.823	5759.28
744.162	5742.33
744.502	5833.18
744.841	5786.85
745.181	5812.16
745.52	5754.54
745.86	5762.45
746.199	5754.76
746.538	5775.33
746.877	5783.46
747.216	5722
747.556	5745.27
747.895	5722.67
748.234	5677.93
748.573	5731.49
748.911	5692.62
749.25	5759.96
749.589	5709.34
749.928	5674.77
750.267	5667.76
750.605	5752.28
750.944	5724.48
751.283	5661.21
751.621	5651.94
751.96	5569.91
752.298	5604.26
752.636	5614.43
752.975	5620.98
753.313	5595.22
753.651	5653.98
753.989	5591.6
754.327	5620.76
754.666	5539.4
755.004	5529.91
755.342	5550.7
755.679	5558.38
756.017	5519.06
756.355	5575.56
756.693	5521.78
757.031	5526.07
757.368	5446.75
757.706	5449.69
758.044	5439.74
758.381	5477.26
758.719	5491.49
759.056	5461.89
759.394	5436.13
759.731	5411.27
760.068	5367.88
760.405	5403.13
760.743	5351.61
761.08	5359.97
761.417	5345.28
761.754	5292.63
762.091	5322.01
762.428	5324.27
762.765	5257.15
763.102	5265.29
763.438	5302.35
763.775	5235.91
764.112	5292.4
764.449	5255.57
764.785	5201.56
765.122	5212.18
765.458	5169.92
765.795	5167.43
766.131	5203.59
766.467	5147.32
766.804	5104.39
767.14	5102.8
767.476	5092.63
767.812	5050.15
768.148	5039.75
768.485	5079.3
768.821	5059.64
769.157	5025.52
769.492	4994.11
769.828	4983.48
770.164	4960.89
770.5	4936.93
770.836	4939.19
771.171	4937.61
771.507	4932.19
771.842	4870.04
772.178	4896.03
772.513	4896.71
772.849	4898.06
773.184	4819.87
773.519	4864.84
773.855	4769.48
774.19	4817.16
774.525	4792.98
774.86	4754.56
775.195	4745.07
775.53	4740.78
775.865	4698.75
776.2	4695.81
776.535	4647.67
776.87	4706.43
777.205	4668.01
777.539	4612.2
777.874	4645.41
778.209	4620.78
778.543	4629.14
778.878	4548.69
779.212	4576.94
779.547	4562.48
779.881	4527.9
780.215	4458.07
780.55	4559.09
780.884	4487.23
781.218	4490.39
781.552	4444.97
781.886	4439.09
782.22	4444.52
782.554	4428.92
782.888	4391.86
783.222	4358.42
783.556	4360
783.889	4376.27
784.223	4353.22
784.557	4329.49
784.89	4306.89
785.224	4346.89
785.557	4265.31
785.891	4293.79
786.224	4300.34
786.558	4256.95
786.891	4182.15
787.224	4194.58
787.557	4214.47
787.891	4199.32
788.224	4190.06
788.557	4202.49
788.89	4176.27
789.223	4152.77
789.556	4124.3
789.888	4149.61
790.221	4121.59
790.554	4092.66
790.887	4094.47
791.219	4063.28
791.552	4046.56
791.884	4042.04
792.217	4020.35
792.549	3993.45
792.882	4014.24
793.214	4024.64
793.546	3976.73
793.879	3937.18
794.211	3978.09
794.543	3942.83
794.875	3952.33
795.207	3905.77
795.539	3905.77
795.871	3913.68
796.203	3913.91
796.535	3868.94
796.867	3860.12
797.198	3866
797.53	3851.54
797.862	3832.1
798.193	3843.85
798.525	3768.38
798.856	3823.97
799.188	3792.78
799.519	3728.15
799.85	3742.39
800.182	3756.4
800.513	3740.58
800.844	3739.9
801.175	3723.86
801.506	3746.23
801.837	3727.25
802.168	3666.01
802.499	3677.08
802.83	3665.78
803.161	3683.18
803.491	3675.27
803.822	3636.63
804.153	3606.8
804.483	3617.87
804.814	3599.57
805.145	3574.48
805.475	3611.09
805.805	3584.88
806.136	3550.98
806.466	3614.26
806.796	3583.97
807.126	3544.88
807.457	3537.65
807.787	3506.01
808.117	3521.38
808.447	3517.53
808.777	3569.28
809.107	3472.79
809.436	3506.24
809.766	3512.56
810.096	3510.76
810.426	3517.53
810.755	3496.29
811.085	3468.5
811.414	3458.78
811.744	3441.15
812.073	3400.93
812.403	3434.15
812.732	3336.75
813.061	3449.06
813.39	3371.1
813.719	3366.13
814.049	3405
814.378	3395.28
814.707	3355.96
815.036	3339.23
815.365	3315.05
815.693	3364.54
816.022	3345.79
816.351	3314.38
816.68	3301.95
817.008	3312.12
817.337	3243.19
817.665	3284.32
817.994	3275.73
818.322	3289.07
818.651	3236.41
818.979	3227.82
819.307	3272.8
819.636	3251.1
819.964	3223.76
820.292	3242.51
820.62	3258.33
820.948	3215.62
821.276	3256.98
821.604	3239.35
821.932	3242.06
822.259	3252.46
822.587	3207.71
822.915	3203.42
823.243	3222.18
823.57	3237.99
823.898	3216.3
824.225	3206.36
824.553	3197.77
824.88	3221.95
825.207	3245.68
825.535	3207.71
825.862	3243.19
826.189	3213.36
826.516	3204.32
826.843	3213.59
827.17	3228.73
827.497	3262.17
827.824	3239.12
828.151	3237.77
828.478	3193.93
828.805	3230.99
829.131	3241.16
829.458	3189.86
829.785	3178.56
830.111	3228.05
830.438	3207.94
830.764	3201.16
831.09	3173.81
831.417	3207.94
831.743	3220.14
832.069	3213.14
832.395	3188.96
832.722	3222.4
833.048	3193.48
833.374	3195.51
833.7	3178.33
834.026	3188.73
834.351	3178.56
834.677	3205.68
835.003	3252
835.329	3185.34
835.654	3206.58
835.98	3178.11
836.306	3166.58
836.631	3207.03
836.956	3169.52
837.282	3165
837.607	3174.94
837.932	3158.22
838.258	3151.89
838.583	3141.05
838.908	3114.38
839.233	3116.19
839.558	3166.81
839.883	3120.71
840.208	3118.22
840.533	3141.27
840.858	3091.56
841.182	3129.07
841.507	3093.36
841.832	3078.9
842.156	3052.91
842.481	3081.84
842.805	3094.95
843.13	3071.22
843.454	3064.89
843.778	3048.39
844.103	3021.28
844.427	3052.24
844.751	3035.74
845.075	3030.32
845.399	3012.24
845.723	3022.63
846.047	3019.92
846.371	2975.18
846.695	2981.05
847.019	3000.03
847.343	2956.42
847.666	2951.45
847.99	2956.42
848.313	2915.97
848.637	2926.82
848.96	2912.8
849.284	2927.04
849.607	2859.7
849.931	2859.7
850.254	2874.61
850.577	2842.52
850.9	2845.01
851.223	2838
851.546	2816.99
851.869	2791.23
852.192	2818.34
852.515	2791.9
852.838	2788.51
853.161	2800.72
853.483	2802.07
853.806	2760.49
854.129	2740.61
854.451	2739.02
854.774	2721.4
855.096	2715.07
855.419	2701.96
855.741	2704.67
856.063	2698.8
856.385	2729.98
856.708	2668.97
857.03	2692.02
857.352	2669.2
857.674	2661.96
857.996	2627.84
858.318	2619.93
858.64	2692.47
858.961	2643.89
859.283	2663.55
859.605	2597.56
859.926	2625.35
860.248	2592.81
860.57	2639.59
860.891	2626.26
861.212	2641.17
861.534	2618.35
861.855	2592.14
862.176	2622.42
862.498	2611.34
862.819	2579.71
863.14	2580.16
863.461	2555.3
863.782	2608.63
864.103	2573.83
864.424	2537.45
864.745	2569.08
865.065	2546.26
865.386	2553.94
865.707	2546.49
866.027	2560.95
866.348	2529.31
866.668	2524.57
866.989	2529.54
867.309	2485.02
867.63	2487.05
867.95	2517.33
868.27	2482.53
868.59	2483.89
868.91	2509.88
869.23	2513.49
869.55	2480.05
869.87	2491.35
870.19	2458.81
870.51	2460.39
870.83	2493.83
871.15	2473.49
871.469	2438.47
871.789	2453.83
872.109	2438.24
872.428	2460.16
872.748	2470.33
873.067	2475.08
873.386	2485.47
873.706	2461.07
874.025	2427.62
874.344	2450.44
874.663	2467.62
874.982	2457.22
875.301	2417.68
875.62	2417.45
875.939	2403.67
876.258	2418.13
876.577	2415.42
876.896	2419.71
877.214	2402.54
877.533	2432.14
877.852	2387.85
878.17	2411.35
878.489	2384.68
878.807	2395.98
879.125	2391.69
879.444	2407.06
879.762	2370.67
880.08	2391.01
880.398	2352.37
880.716	2377.45
881.034	2348.3
881.352	2360.28
881.67	2350.79
881.988	2321.41
882.306	2340.84
882.624	2354.63
882.941	2322.76
883.259	2321.63
883.577	2338.13
883.894	2309.66
884.212	2333.61
884.529	2342.88
884.846	2291.58
885.164	2343.55
885.481	2290
885.798	2308.53
886.115	2269.88
886.432	2269.88
886.75	2293.61
887.067	2288.87
887.383	2280.51
887.7	2327.06
888.017	2254.97
888.334	2278.02
888.651	2287.28
888.967	2282.99
889.284	2244.35
889.6	2247.74
889.917	2272.82
890.233	2251.35
890.55	2235.53
890.866	2232.6
891.182	2212.94
891.498	2209.32
891.815	2201.41
892.131	2184.69
892.447	2213.16
892.763	2184.46
893.079	2189.21
893.395	2154.18
893.71	2167.51
894.026	2210.9
894.342	2156.44
894.657	2120.06
894.973	2129.55
895.289	2141.07
895.604	2148.98
895.92	2124.58
896.235	2119.38
896.55	2121.19
896.865	2137.91
897.181	2099.49
897.496	2092.49
897.811	2097.01
898.126	2092.94
898.441	2063.11
898.756	2088.87
899.071	2075.54
899.386	2088.19
899.7	2056.56
900.015	2044.13
900.33	2041.64
900.644	2055.65
900.959	2030.57
901.273	2041.87
901.588	2051.81
901.902	2001.19
902.216	2012.94
902.531	1992.15
902.845	2002.55
903.159	1979.95
903.473	2007.29
903.787	1939.95
904.101	1985.82
904.415	1986.05
904.729	1964.81
905.042	1990.57
905.356	1936.56
905.67	1953.28
905.984	1938.59
906.297	1958.93
906.611	1952.6
906.924	1928.2
907.237	1944.69
907.551	1923.45
907.864	1910.8
908.177	1902.89
908.491	1897.46
908.804	1908.09
909.117	1885.04
909.43	1841.19
909.743	1839.84
910.056	1863.34
910.368	1846.84
910.681	1848.65
910.994	1814.08
911.307	1819.95
911.619	1812.27
911.932	1815.66
912.244	1774.08
912.557	1815.66
912.869	1826.28
913.181	1802.1
913.494	1776.79
913.806	1781.99
914.118	1770.01
914.43	1769.11
914.742	1768.2
915.054	1769.11
915.366	1721.65
915.678	1748.09
915.99	1746.51
916.302	1715.32
916.613	1735.89
916.925	1724.59
917.236	1710.35
917.548	1712.61
917.859	1668.09
918.171	1649.79
918.482	1694.08
918.794	1669.22
919.105	1683.23
919.416	1686.4
919.727	1657.92
920.038	1637.36
920.349	1658.6
920.66	1610.69
920.971	1608.88
921.282	1631.93
921.593	1635.78
921.903	1615.21
922.214	1626.51
922.525	1624.93
922.835	1614.31
923.146	1607.08
923.456	1596.68
923.767	1553.97
924.077	1603.46
924.387	1583.35
924.697	1585.38
925.008	1575.89
925.318	1592.16
925.628	1536.8
925.938	1549.22
926.248	1556.91
926.558	1546.51
926.867	1537.7
927.177	1567.98
927.487	1537.7
927.796	1523.46
928.106	1507.19
928.416	1517.81
928.725	1520.75
929.034	1494.54
929.344	1502.67
929.653	1499.96
929.962	1513.97
930.271	1481.2
930.581	1488.89
930.89	1459.74
931.199	1452.73
931.508	1451.83
931.817	1477.81
932.125	1458.15
932.434	1445.95
932.743	1433.97
933.051	1447.08
933.36	1453.63
933.669	1447.31
933.977	1435.56
934.286	1416.12
934.594	1392.17
934.902	1421.54
935.21	1420.87
935.519	1410.92
935.827	1394.2
936.135	1388.1
936.443	1373.41
936.751	1379.29
937.059	1344.71
937.367	1358.27
937.674	1375.67
937.982	1380.64
938.29	1350.81
938.597	1344.03
938.905	1343.58
939.213	1337.7
939.52	1332.28
939.827	1335.67
940.135	1335.45
940.442	1336.58
940.749	1348.33
941.056	1316.46
941.363	1297.93
941.67	1311.04
941.977	1290.02
942.284	1303.13
942.591	1302.68
942.898	1280.98
943.205	1297.48
943.511	1282.11
943.818	1235.11
944.125	1294.99
944.431	1264.49
944.738	1282.34
945.044	1249.35
945.35	1242.79
945.657	1270.81
945.963	1268.1
946.269	1242.79
946.575	1246.63
946.881	1231.04
947.187	1237.59
947.493	1238.27
947.799	1229.69
948.105	1218.16
948.41	1188.78
948.716	1213.64
949.022	1194.66
949.327	1216.35
949.633	1193.53
949.938	1214.09
950.244	1193.3
950.549	1180.19
950.854	1209.57
951.16	1164.6
951.465	1186.97
951.77	1153.3
952.075	1189.01
952.38	1140.42
952.685	1163.47
952.99	1169.12
953.294	1144.04
953.599	1128.9
953.904	1134.55
954.209	1144.49
954.513	1162.34
954.818	1144.72
955.122	1120.54
955.426	1130.48
955.731	1137.94
956.035	1140.65
956.339	1126.86
956.643	1121.67
956.948	1114.89
957.252	1111.5
957.556	1095.45
957.86	1075.34
958.163	1090.93
958.467	1100.65
958.771	1082.8
959.075	1111.27
959.378	1062.23
959.682	1076.02
959.985	1076.92
960.289	1069.46
960.592	1074.89
960.896	1059.75
961.199	1051.61
961.502	1031.95
961.805	1071.5
962.108	1033.76
962.411	1045.28
962.714	1034.66
963.017	1024.49
963.32	1048.45
963.623	1032.18
963.926	1044.83
964.228	1033.08
964.531	1022.01
964.833	1006.19
965.136	1024.72
965.438	1036.02
965.741	1004.61
966.043	1026.3
966.345	1005.51
966.648	987.43
966.95	1000.99
967.252	1001.67
967.554	991.5
967.856	1006.64
968.158	982.46
968.46	981.56
968.761	981.33
969.063	972.74
969.365	992.63
969.666	957.38
969.968	969.81
970.269	937.94
970.571	954.89
970.872	933.65
971.174	932.97
971.475	950.6
971.776	939.75
972.077	945.85
972.378	964.16
972.679	940.2
972.98	915.34
973.281	926.87
973.582	937.26
973.883	922.57
974.183	901.11
974.484	932.07
974.785	912.18
975.085	930.03
975.386	914.21
975.686	887.77
975.986	903.59
976.287	884.84
976.587	865.17
976.887	883.03
977.187	904.04
977.487	875.8
977.787	877.6
978.087	889.13
978.387	905.4
978.687	856.14
978.987	844.16
979.286	868.56
979.586	866.53
979.885	877.38
980.185	857.94
980.484	852.29
980.784	850.49
981.083	886.87
981.382	843.71
981.682	847.32
981.981	871.95
982.28	855.46
982.579	844.84
982.878	830.15
983.177	863.14
983.475	843.93
983.774	806.87
984.073	836.7
984.372	820.66
984.67	834.67
984.969	830.83
985.267	819.53
985.566	814.55
985.864	821.33
986.162	813.88
986.461	796.48
986.759	850.71
987.057	791.5
987.355	793.76
987.653	787.66
987.951	778.62
988.249	789.02
988.547	787.21
988.844	789.92
989.142	778.4
989.44	768.91
989.737	783.14
990.035	785.86
990.332	791.05
990.63	785.18
990.927	761.22
991.224	770.26
991.521	757.83
991.819	787.89
992.116	766.19
992.413	761.9
992.71	736.36
993.006	746.53
993.303	778.62
993.6	751.28
993.897	741.11
994.193	777.95
994.49	764.84
994.787	725.52
995.083	731.17
995.379	742.92
995.676	716.48
995.972	733.2
996.268	736.14
996.565	712.41
996.861	707.21
997.157	701.56
997.453	717.83
997.749	705.41
998.044	709.7
998.34	732.52
998.636	704.5
998.932	720.32
999.227	708.12
999.523	693.43
999.818	724.84
1000.114	687.33
1000.409	707.67
1000.704	703.82
1001	680.55
1001.295	669.93
1001.59	701.11
1001.885	678.97
1002.18	660.21
1002.475	679.42
1002.77	658.85
1003.065	678.29
1003.359	700.21
1003.654	654.11
1003.949	676.93
1004.243	682.35
1004.538	667.44
1004.832	636.03
1005.127	652.98
1005.421	650.49
1005.715	676.03
1006.009	651.4
1006.304	626.31
1006.598	657.5
1006.892	651.4
1007.186	655.01
1007.48	623.15
1007.773	640.1
1008.067	640.32
1008.361	618.85
1008.655	615.69
1008.948	646.65
1009.242	617.95
1009.535	631.73
1009.829	624.5
1010.122	609.81
1010.415	629.02
1010.708	603.94
1011.001	610.72
1011.295	612.07
1011.588	614.56
1011.881	622.02
1012.173	608.46
1012.466	622.02
1012.759	593.54
1013.052	595.58
1013.344	611.4
1013.637	590.83
1013.93	597.84
1014.222	597.39
1014.514	600.32
1014.807	572.75
1015.099	574.79
1015.391	586.99
1015.683	582.92
1015.976	582.24
1016.268	567.1
1016.56	570.72
1016.851	574.34
1017.143	558.74
1017.435	585.18
1017.727	558.29
1018.018	550.16
1018.31	545.41
1018.602	566.65
1018.893	570.04
1019.185	552.64
1019.476	547.9
1019.767	558.29
1020.058	551.28
1020.35	543.6
1020.641	544.51
1020.932	536.82
1021.223	529.36
1021.514	539.53
1021.804	528.91
1022.095	543.83
1022.386	534.34
1022.677	532.3
1022.967	530.49
1023.258	540.21
1023.548	531.17
1023.839	526.88
1024.129	521.68
1024.419	538.18
1024.709	514.22
1025	523.49
1025.29	506.54
1025.58	520.1
1025.87	511.29
1026.16	483.49
1026.449	507.9
1026.739	504.05
1027.029	490.04
1027.319	508.8
1027.608	480.55
1027.898	497.95
1028.187	496.82
1028.477	493.89
1028.766	504.51
1029.055	476.03
1029.344	505.86
1029.634	488.01
1029.923	485.98
1030.212	481.68
1030.501	484.85
1030.79	477.39
1031.078	486.65
1031.367	499.31
1031.656	474.45
1031.945	483.04
1032.233	494.79
1032.522	498.86
1032.81	498.86
1033.099	465.41
1033.387	478.29
1033.675	453.66
1033.963	460.44
1034.251	479.65
1034.54	464.28
1034.828	456.6
1035.116	475.13
1035.403	458.18
1035.691	467.9
1035.979	468.35
1036.267	473.55
1036.554	471.96
1036.842	440.1
1037.129	452.76
1037.417	453.21
1037.704	455.47
1037.992	468.8
1038.279	449.59
1038.566	442.36
1038.853	442.36
1039.14	442.36
