Data from carpet_green_FLMS001491_00067.txt Node
Date: Wed Feb 08 10:35:42 GMT 2017
User: dcchb
Spectrometer: FLMS00149
Trigger mode: 0
Integration Time (sec): 2.000000E-2
Scans to average: 10
Electric dark correction enabled: true
Nonlinearity correction enabled: false
Boxcar width: 0
XAxis mode: Wavelengths
Number of Pixels in Spectrum: 2048
>>>>>Begin Spectral Data<<<<<
341.393	-26.65
341.776	-26.65
342.16	-26.65
342.543	-72.98
342.927	-67.78
343.31	-74.79
343.693	-65.29
344.077	-63.71
344.46	-58.52
344.843	-64.62
345.226	-56.03
345.61	-18.52
345.993	0.69
346.376	-5.86
346.759	5.66
347.142	36.17
347.525	41.37
347.908	73.46
348.291	72.1
348.674	87.7
349.057	90.18
349.44	122.04
349.823	138.99
350.206	163.4
350.588	164.3
350.971	187.81
351.354	207.24
351.737	201.36
352.119	223.74
352.502	243.17
352.884	246.79
353.267	255.6
353.65	258.99
354.032	280.46
354.414	284.07
354.797	257.63
355.179	308.93
355.562	308.93
355.944	286.79
356.326	276.17
356.709	302.15
357.091	294.02
357.473	301.48
357.855	322.94
358.238	322.49
358.62	320.01
359.002	302.61
359.384	337.18
359.766	305.99
360.148	319.1
360.53	333.34
360.912	285.43
361.294	311.19
361.676	307.12
362.057	320.46
362.439	312.1
362.821	316.84
363.203	306.9
363.584	291.08
363.966	310.97
364.348	282.72
364.729	280.46
365.111	284.75
365.493	285.2
365.874	301.48
366.256	297.41
366.637	291.08
367.019	293.79
367.4	286.56
367.781	280.46
368.163	291.53
368.544	285.88
368.925	270.52
369.306	286.33
369.688	277.29
370.069	277.07
370.45	280.46
370.831	301.48
371.212	279.55
371.593	273.91
371.974	280.91
372.355	278.88
372.736	278.2
373.117	284.53
373.498	267.58
373.879	296.28
374.26	254.24
374.641	277.07
375.021	261.25
375.402	282.94
375.783	260.35
376.163	262.83
376.544	301.02
376.925	296.73
377.305	284.75
377.686	284.07
378.066	273.45
378.447	292.21
378.827	296.5
379.208	278.65
379.588	299.44
379.968	289.05
380.349	300.8
380.729	299.44
381.109	293.11
381.489	291.53
381.87	284.75
382.25	297.86
382.63	308.25
383.01	285.2
383.39	292.66
383.77	315.71
384.15	287.92
384.53	294.47
384.91	298.76
385.29	283.17
385.67	306.67
386.049	279.1
386.429	299.44
386.809	280.46
387.189	304.41
387.568	285.88
387.948	282.94
388.328	308.93
388.707	301.48
389.087	313.68
389.466	308.71
389.846	309.38
390.225	315.71
390.605	293.57
390.984	309.61
391.363	296.96
391.743	285.43
392.122	313
392.501	307.8
392.881	305.09
393.26	307.58
393.639	310.74
394.018	301.48
394.397	302.61
394.776	305.09
395.155	320.91
395.534	323.17
395.913	293.79
396.292	327.92
396.671	300.12
397.05	319.33
397.429	329.95
397.808	313
398.186	304.41
398.565	305.77
398.944	304.86
399.323	304.86
399.701	311.64
400.08	309.61
400.458	327.92
400.837	320.46
401.215	313.9
401.594	306.9
401.972	329.72
402.351	335.37
402.729	339.89
403.107	310.29
403.486	348.03
403.864	314.36
404.242	318.65
404.62	300.8
404.999	314.58
405.377	308.93
405.755	303.51
406.133	335.15
406.511	327.69
406.889	334.69
407.267	312.77
407.645	333.56
408.023	340.8
408.401	316.62
408.779	321.81
409.156	331.98
409.534	332.43
409.912	329.72
410.29	325.66
410.667	329.72
411.045	342.15
411.422	351.19
411.8	323.17
412.178	360.91
412.555	333.79
412.933	337.41
413.31	328.82
413.687	338.76
414.065	332.21
414.442	336.05
414.819	336.5
415.197	346.67
415.574	336.95
415.951	348.48
416.328	331.08
416.705	331.98
417.082	356.16
417.46	331.53
417.837	344.86
418.214	360.91
418.591	339.89
418.967	323.62
419.344	344.19
419.721	334.24
420.098	345.54
420.475	342.38
420.852	344.64
421.228	331.98
421.605	351.19
421.982	357.52
422.358	340.12
422.735	364.75
423.111	335.82
423.488	339.44
423.864	348.48
424.241	355.49
424.617	337.41
424.994	356.16
425.37	348.93
425.746	348.93
426.123	361.81
426.499	380.8
426.875	374.47
427.251	368.37
427.627	366.11
428.003	372.66
428.379	364.98
428.756	364.75
429.132	368.37
429.507	368.37
429.883	384.86
430.259	369.5
430.635	371.98
431.011	377.86
431.387	378.31
431.763	365.88
432.138	378.76
432.514	381.7
432.89	374.02
433.265	384.18
433.641	392.55
434.016	360
434.392	383.51
434.767	407.91
435.143	375.37
435.518	383.96
435.894	383.51
436.269	377.41
436.644	396.16
437.02	387.35
437.395	388.03
437.77	396.61
438.145	390.74
438.52	407.91
438.895	392.77
439.271	411.08
439.646	397.07
440.021	410.62
440.395	404.52
440.77	409.27
441.145	401.36
441.52	415.82
441.895	429.83
442.27	404.52
442.645	423.73
443.019	446.1
443.394	430.29
443.769	407.24
444.143	417.63
444.518	418.76
444.892	409.04
445.267	427.8
445.641	435.03
446.016	424.41
446.39	429.16
446.764	408.59
447.139	425.99
447.513	424.86
447.887	443.39
448.262	439.55
448.636	410.17
449.01	418.99
449.384	426.9
449.758	428.48
450.132	426.9
450.506	441.13
450.88	428.7
451.254	423.96
451.628	442.04
452.002	449.95
452.376	437.97
452.75	447.69
453.123	447.91
453.497	448.59
453.871	445.65
454.244	466.89
454.618	457.4
454.992	459.89
455.365	454.47
455.739	449.95
456.112	452.43
456.486	461.02
456.859	458.08
457.232	459.66
457.606	455.14
457.979	480.68
458.352	467.12
458.725	494.69
459.099	497.85
459.472	467.12
459.845	476.39
460.218	482.71
460.591	468.7
460.964	508.7
461.337	514.58
461.71	508.7
462.083	507.35
462.456	497.63
462.829	520.9
463.201	515.03
463.574	499.21
463.947	499.21
464.32	529.49
464.692	527.68
465.065	508.02
465.438	515.71
465.81	536.5
466.183	523.84
466.555	551.19
466.928	534.46
467.3	522.49
467.672	551.41
468.045	566.1
468.417	556.16
468.789	532.2
469.161	555.25
469.534	562.03
469.906	568.81
470.278	588.47
470.65	590.06
471.022	602.03
471.394	597.06
471.766	595.03
472.138	606.1
472.51	624.18
472.882	597.96
473.253	609.49
473.625	618.98
473.997	631.64
474.369	621.01
474.74	627.12
475.112	647
475.484	669.83
475.855	644.74
476.227	657.62
476.598	677.74
476.97	639.77
477.341	687.45
477.713	674.35
478.084	707.34
478.455	709.83
478.827	712.31
479.198	745.08
479.569	727.23
479.94	713.22
480.311	752.54
480.682	763.38
481.053	742.82
481.424	745.98
481.795	758.19
482.166	767.23
482.537	805.19
482.908	812.65
483.279	805.42
483.65	815.36
484.021	816.26
484.391	845.87
484.762	837.73
485.133	860.56
485.503	847
485.874	882.48
486.244	876.15
486.615	898.3
486.985	879.09
487.356	923.61
487.726	896.04
488.097	925.64
488.467	951.63
488.837	929.26
489.207	927.67
489.578	943.49
489.948	975.13
490.318	963.6
490.688	984.85
491.058	983.27
491.428	1024.39
491.798	1000.89
492.168	1034.11
492.538	1001.34
492.908	1031.17
493.278	1040.89
493.648	1049.25
494.017	1053.55
494.387	1059.2
494.757	1063.26
495.126	1081.34
495.496	1072.08
495.866	1069.36
496.235	1119.98
496.605	1119.08
496.974	1108.46
497.344	1125.63
497.713	1106.88
498.082	1099.42
498.452	1155.92
498.821	1110.27
499.19	1150.27
499.559	1130.15
499.928	1143.71
500.298	1150.49
500.667	1176.48
501.036	1142.58
501.405	1175.58
501.774	1181.45
502.143	1185.29
502.512	1186.65
502.88	1194.56
503.249	1204.28
503.618	1209.7
503.987	1224.61
504.356	1198.85
504.724	1198.17
505.093	1237.72
505.462	1233.65
505.83	1239.3
506.199	1225.29
506.567	1254.67
506.936	1232.3
507.304	1274.33
507.672	1283.14
508.041	1244.73
508.409	1244.5
508.777	1251.28
509.145	1270.26
509.514	1268.46
509.882	1274.56
510.25	1302.35
510.618	1255.35
510.986	1293.54
511.354	1291.28
511.722	1315.69
512.09	1338.06
512.458	1296.25
512.826	1311.84
513.193	1318.85
513.561	1322.47
513.929	1313.43
514.297	1352.52
514.664	1342.13
515.032	1359.3
515.4	1348.91
515.767	1340.54
516.135	1366.98
516.502	1360.43
516.869	1350.26
517.237	1381.45
517.604	1385.74
517.972	1406.76
518.339	1372.63
518.706	1391.16
519.073	1395.23
519.44	1378.73
519.808	1414.89
520.175	1402.24
520.542	1417.38
520.909	1413.54
521.276	1425.29
521.643	1464.83
522.009	1490.37
522.376	1447.89
522.743	1447.89
523.11	1454.67
523.477	1454.44
523.843	1448.79
524.21	1454.44
524.577	1488.56
524.943	1512.52
525.31	1496.02
525.676	1510.48
526.043	1510.03
526.409	1491.73
526.776	1505.06
527.142	1520.2
527.508	1530.6
527.874	1545.96
528.241	1532.86
528.607	1530.14
528.973	1550.26
529.339	1538.05
529.705	1546.64
530.071	1568.79
530.437	1556.58
530.803	1544.61
531.169	1543.93
531.535	1576.7
531.901	1582.35
532.267	1601.1
532.632	1581.67
532.998	1595.45
533.364	1604.94
533.73	1582.57
534.095	1595.68
534.461	1573.98
534.826	1604.49
535.192	1613.76
535.557	1607.2
535.923	1584.83
536.288	1611.27
536.653	1596.81
537.019	1598.39
537.384	1603.81
537.749	1621.44
538.114	1622.12
538.479	1587.32
538.845	1624.15
539.21	1602.23
539.575	1628.22
539.94	1580.76
540.305	1625.06
540.67	1621.21
541.034	1567.88
541.399	1602.91
541.764	1617.6
542.129	1610.59
542.494	1635.45
542.858	1609.24
543.223	1611.72
543.587	1614.21
543.952	1620.54
544.316	1630.93
544.681	1623.47
545.045	1618.05
545.41	1625.96
545.774	1629.58
546.138	1639.52
546.503	1606.98
546.867	1593.64
547.231	1614.89
547.595	1632.29
547.959	1638.84
548.324	1672.06
548.688	1662.12
549.052	1644.49
549.416	1622.57
549.779	1625.73
550.143	1653.98
550.507	1668.22
550.871	1650.37
551.235	1636.81
551.599	1660.54
551.962	1677.26
552.326	1668.44
552.689	1661.21
553.053	1657.6
553.417	1651.5
553.78	1681.1
554.143	1653.98
554.507	1675.9
554.87	1684.26
555.234	1682.46
555.597	1678.16
555.96	1682.68
556.323	1695.11
556.686	1691.72
557.05	1703.7
557.413	1689.69
557.776	1696.47
558.139	1692.62
558.502	1682.68
558.865	1712.74
559.228	1706.18
559.59	1694.88
559.953	1717.71
560.316	1758.16
560.679	1725.84
561.041	1733.08
561.404	1720.87
561.767	1729.69
562.129	1745.05
562.492	1738.73
562.854	1736.92
563.217	1756.35
563.579	1759.52
563.941	1748.44
564.304	1763.13
564.666	1750.48
565.028	1757.93
565.39	1773.53
565.753	1754.77
566.115	1801.32
566.477	1763.81
566.839	1759.52
567.201	1795.22
567.563	1783.02
567.925	1781.66
568.287	1785.73
568.648	1782.79
569.01	1776.69
569.372	1804.49
569.734	1753.41
570.095	1832.96
570.457	1791.38
570.819	1813.3
571.18	1806.52
571.542	1797.48
571.903	1807.65
572.265	1810.14
572.626	1813.75
572.987	1836.8
573.349	1801.1
573.71	1789.12
574.071	1810.14
574.432	1811.72
574.794	1805.84
575.155	1799.06
575.516	1807.2
575.877	1842.23
576.238	1811.49
576.599	1819.85
576.96	1794.77
577.32	1804.94
577.681	1792.51
578.042	1795.9
578.403	1833.19
578.763	1787.76
579.124	1809.01
579.485	1792.28
579.845	1818.5
580.206	1792.06
580.566	1780.76
580.927	1801.32
581.287	1796.13
581.648	1791.83
582.008	1787.99
582.368	1787.76
582.728	1779.85
583.089	1788.67
583.449	1800.64
583.809	1752.06
584.169	1756.58
584.529	1783.47
584.889	1786.63
585.249	1754.32
585.609	1777.82
585.969	1741.21
586.329	1754.32
586.688	1739.86
587.048	1744.6
587.408	1747.09
587.768	1753.64
588.127	1753.41
588.487	1765.62
588.846	1752.28
589.206	1742.79
589.565	1717.71
589.925	1737.6
590.284	1728.1
590.643	1758.84
591.003	1745.73
591.362	1729.91
591.721	1729.46
592.08	1738.73
592.44	1735.56
592.799	1749.35
593.158	1723.36
593.517	1728.1
593.876	1716.35
594.235	1741.44
594.593	1722
594.952	1718.16
595.311	1691.72
595.67	1737.6
596.029	1729.46
596.387	1726.52
596.746	1736.01
597.104	1718.61
597.463	1684.94
597.822	1716.81
598.18	1722.68
598.538	1737.82
598.897	1694.43
599.255	1698.05
599.613	1725.17
599.972	1723.58
600.33	1729.46
600.688	1723.81
601.046	1731.04
601.404	1717.26
601.762	1713.42
602.12	1706.18
602.478	1707.77
602.836	1719.29
603.194	1730.59
603.552	1727.65
603.91	1693.98
604.268	1731.04
604.625	1713.64
604.983	1692.62
605.341	1712.96
605.698	1745.73
606.056	1721.1
606.413	1734.21
606.771	1701.44
607.128	1739.86
607.485	1743.25
607.843	1725.39
608.2	1757.93
608.557	1743.7
608.914	1738.05
609.272	1775.33
609.629	1795.22
609.986	1781.21
610.343	1746.41
610.7	1760.42
611.057	1766.3
611.414	1759.06
611.771	1771.27
612.127	1747.31
612.484	1767.65
612.841	1758.61
613.198	1779.4
613.554	1763.13
613.911	1759.06
614.267	1779.4
614.624	1754.54
614.98	1780.98
615.337	1776.69
615.693	1783.47
616.05	1814.2
616.406	1764.49
616.762	1755
617.118	1807.65
617.475	1787.09
617.831	1773.75
618.187	1769.46
618.543	1776.24
618.899	1777.59
619.255	1781.21
619.611	1760.87
619.967	1757.26
620.323	1791.61
620.678	1742.34
621.034	1781.66
621.39	1775.33
621.746	1756.35
622.101	1791.61
622.457	1794.77
622.812	1789.12
623.168	1800.19
623.523	1788.89
623.879	1796.35
624.234	1760.87
624.589	1784.83
624.945	1800.87
625.3	1805.62
625.655	1781.89
626.01	1776.92
626.365	1741.89
626.72	1817.14
627.075	1753.64
627.43	1782.11
627.785	1756.8
628.14	1803.81
628.495	1769.01
628.85	1751.38
629.205	1759.52
629.559	1768.56
629.914	1779.4
630.269	1745.5
630.623	1785.96
630.978	1780.76
631.332	1763.13
631.687	1791.15
632.041	1808.33
632.396	1757.71
632.75	1777.14
633.104	1763.13
633.459	1763.81
633.813	1745.96
634.167	1788.89
634.521	1775.79
634.875	1752.51
635.229	1757.71
635.583	1759.29
635.937	1744.6
636.291	1776.69
636.645	1787.09
636.999	1745.96
637.352	1771.27
637.706	1752.28
638.06	1741.44
638.413	1776.92
638.767	1745.96
639.121	1736.47
639.474	1740.76
639.828	1745.96
640.181	1771.27
640.534	1745.05
640.888	1771.27
641.241	1757.03
641.594	1755.45
641.947	1728.78
642.301	1730.82
642.654	1752.51
643.007	1764.49
643.36	1741.21
643.713	1737.6
644.066	1735.56
644.419	1751.61
644.771	1727.43
645.124	1722.91
645.477	1716.58
645.83	1722
646.182	1726.3
646.535	1709.35
646.888	1718.39
647.24	1711.61
647.593	1767.65
647.945	1735.56
648.298	1728.1
648.65	1709.35
649.002	1718.16
649.355	1738.27
649.707	1745.96
650.059	1730.14
650.411	1787.76
650.763	1778.05
651.115	1781.66
651.467	1751.38
651.819	1769.01
652.171	1814.2
652.523	1776.46
652.875	1792.06
653.227	1766.52
653.578	1803.36
653.93	1831.6
654.282	1804.26
654.633	1788.44
654.985	1819.4
655.337	1822.34
655.688	1834.09
656.039	1845.16
656.391	1842.68
656.742	1847.42
657.094	1842
657.445	1870.7
657.796	1861.89
658.147	1898.04
658.498	1896.46
658.849	1893.3
659.2	1898.04
659.551	1903.24
659.902	1920.87
660.253	1934.2
660.604	1916.35
660.955	1938.72
661.306	1974.88
661.656	1945.05
662.007	1960.87
662.358	1960.19
662.708	1988.66
663.059	1973.3
663.409	2002.67
663.76	2007.19
664.11	1984.14
664.461	2026.4
664.811	2032.96
665.161	2038.38
665.511	2048.32
665.862	2060.52
666.212	2093.07
666.562	2122.22
666.912	2128.77
667.262	2138.71
667.612	2125.16
667.962	2149.56
668.312	2183.46
668.662	2174.65
669.011	2198.37
669.361	2172.84
669.711	2212.39
670.06	2216.68
670.41	2216.23
670.76	2237.02
671.109	2261.65
671.459	2274.76
671.808	2300.52
672.157	2290.8
672.507	2280.63
672.856	2314.98
673.205	2341.87
673.554	2384.58
673.904	2348.43
674.253	2389.78
674.602	2408.54
674.951	2427.97
675.3	2380.74
675.649	2438.37
675.998	2462.77
676.346	2491.93
676.695	2465.94
677.044	2472.94
677.393	2556.56
677.741	2533.51
678.09	2526.5
678.438	2566.05
678.787	2588.65
679.135	2618.93
679.484	2620.28
679.832	2627.52
680.181	2659.83
680.529	2694.18
680.877	2712.26
681.225	2705.93
681.573	2787.29
681.922	2728.08
682.27	2703.67
682.618	2763.78
682.966	2808.98
683.314	2827.06
683.661	2841.07
684.009	2835.19
684.357	2853.27
684.705	2890.56
685.053	2918.36
685.4	2917.23
685.748	2961.07
686.095	2974.85
686.443	2986.15
686.79	2992.25
687.138	2995.19
687.485	3023.66
687.832	3065.92
688.18	3068.63
688.527	3070.89
688.874	3157.9
689.221	3095.98
689.568	3144.34
689.915	3171.46
690.262	3208.97
690.609	3200.38
690.956	3206.71
691.303	3246.48
691.65	3242.41
691.997	3283.09
692.344	3311.79
692.69	3336.42
693.037	3356.08
693.383	3342.3
693.73	3415.97
694.077	3386.37
694.423	3431.79
694.769	3426.82
695.116	3481.96
695.462	3511.79
695.808	3511.11
696.155	3535.51
696.501	3521.96
696.847	3589.3
697.193	3551.79
697.539	3605.8
697.885	3596.3
698.231	3638.79
698.577	3645.57
698.923	3707.49
699.269	3719.24
699.614	3738.22
699.96	3737.99
700.306	3792.91
700.651	3733.93
700.997	3810.76
701.342	3819.12
701.688	3847.6
702.033	3857.99
702.379	3865.68
702.724	3888.5
703.069	3920.36
703.415	3913.36
703.76	3941.83
704.105	3963.98
704.45	4020.25
704.795	4024.77
705.14	4051.21
705.485	4027.7
705.83	4083.3
706.175	4143.63
706.52	4106.12
706.865	4124.65
707.209	4126.01
707.554	4193.58
707.899	4204.65
708.243	4207.14
708.588	4249.85
708.932	4241.26
709.277	4227.93
709.621	4278.09
709.966	4229.51
710.31	4259.56
710.654	4311.31
710.998	4355.38
711.342	4358.32
711.687	4366.23
712.031	4362.16
712.375	4363.52
712.719	4436.96
713.063	4435.83
713.407	4465.66
713.75	4448.03
714.094	4531.65
714.438	4509.95
714.782	4554.02
715.125	4533
715.469	4533.23
715.812	4616.62
716.156	4577.75
716.499	4597.86
716.843	4591.53
717.186	4560.57
717.53	4621.81
717.873	4676.95
718.216	4654.13
718.559	4628.37
718.902	4644.19
719.246	4687.12
719.589	4722.15
719.932	4693.45
720.275	4743.62
720.617	4773.67
720.96	4704.07
721.303	4727.35
721.646	4765.99
721.989	4735.71
722.331	4732.77
722.674	4734.8
723.016	4796.05
723.359	4821.81
723.701	4837.4
724.044	4787.68
724.386	4763.96
724.729	4838.76
725.071	4826.1
725.413	4872.65
725.755	4822.49
726.097	4819.1
726.439	4858.87
726.782	4862.71
727.124	4873.78
727.465	4906.1
727.807	4911.98
728.149	4852.77
728.491	4876.04
728.833	4879.89
729.175	4901.13
729.516	4919.21
729.858	4920.56
730.199	4940
730.541	4939.32
730.882	4895.25
731.224	4936.38
731.565	4973.22
731.906	4929.6
732.248	4963.95
732.589	4998.3
732.93	4940.68
733.271	4924.63
733.612	4998.07
733.953	4927.12
734.294	4928.7
734.635	4944.52
734.976	4942.48
735.317	4972.09
735.658	4949.71
735.999	4961.92
736.339	4977.96
736.68	5024.97
737.021	5010.28
737.361	4949.49
737.702	5009.15
738.042	4961.92
738.383	4951.3
738.723	5022.71
739.063	4970.73
739.404	4950.84
739.744	4979.32
740.084	4983.16
740.424	4951.97
740.764	4954.91
741.104	5024.29
741.444	4995.14
741.784	4965.31
742.124	4948.81
742.464	4977.96
742.804	4962.6
743.143	4952.43
743.483	4943.61
743.823	4932.31
744.162	4971.41
744.502	4898.87
744.841	4932.77
745.181	4947.68
745.52	4956.72
745.86	4963.95
746.199	4935.48
746.538	4916.27
746.877	4972.99
747.216	4937.74
747.556	4945.19
747.895	4935.25
748.234	4938.19
748.573	4885.31
748.911	4895.48
749.25	4924.63
749.589	4907.46
749.928	4889.38
750.267	4889.38
750.605	4886.67
750.944	4874.91
751.283	4920.56
751.621	4876.27
751.96	4851.41
752.298	4843.73
752.636	4875.14
752.975	4812.54
753.313	4808.02
753.651	4812.54
753.989	4813.67
754.327	4811.64
754.666	4827.46
755.004	4738.42
755.342	4812.32
755.679	4744.3
756.017	4754.47
756.355	4762.37
756.693	4759.21
757.031	4770.06
757.368	4671.3
757.706	4728.93
758.044	4723.05
758.381	4729.38
758.719	4710.4
759.056	4673.34
759.394	4700.46
759.731	4705.88
760.068	4663.62
760.405	4604.64
760.743	4624.53
761.08	4628.82
761.417	4620.68
761.754	4587.01
762.091	4557.63
762.428	4539.78
762.765	4576.84
763.102	4554.47
763.438	4561.02
763.775	4583.17
764.112	4511.99
764.449	4523.06
764.785	4508.6
765.122	4476.28
765.458	4472.66
765.795	4435.83
766.131	4483.06
766.467	4413.91
766.804	4428.37
767.14	4423.85
767.476	4390.18
767.812	4370.97
768.148	4367.36
768.485	4344.31
768.821	4368.49
769.157	4341.14
769.492	4334.59
769.828	4309.51
770.164	4254.14
770.5	4290.52
770.836	4300.01
771.171	4293.23
771.507	4229.96
771.842	4215.5
772.178	4227.7
772.513	4221.82
772.849	4199.9
773.184	4200.58
773.519	4144.54
773.855	4141.83
774.19	4088.27
774.525	4134.59
774.86	4125.78
775.195	4088.95
775.53	4102.51
775.865	4080.58
776.2	4059.34
776.535	4045.11
776.87	4058.89
777.205	4001.49
777.539	4017.31
777.874	3980.25
778.209	3966.46
778.543	3973.92
778.878	3966.01
779.212	3952
779.547	3956.52
779.881	3923.98
780.215	3888.05
780.55	3912.68
780.884	3924.43
781.218	3865.45
781.552	3869.97
781.886	3844.43
782.22	3839.69
782.554	3860.03
782.888	3780.71
783.222	3790.65
783.556	3740.71
783.889	3716.98
784.223	3757.66
784.557	3753.14
784.89	3754.72
785.224	3737.32
785.557	3690.54
785.891	3712.01
786.224	3719.01
786.558	3726.02
786.891	3687.37
787.224	3657.77
787.557	3626.36
787.891	3601.73
788.224	3613.48
788.557	3642.4
788.89	3598.79
789.223	3606.7
789.556	3580.03
789.888	3561.05
790.221	3587.72
790.554	3554.04
790.887	3549.3
791.219	3549.3
791.552	3527.15
791.884	3520.6
792.217	3535.97
792.549	3511.33
792.882	3473.14
793.214	3439.7
793.546	3465.91
793.879	3491.22
794.211	3427.49
794.543	3432.92
794.875	3417.1
795.207	3446.03
795.539	3393.82
795.871	3372.35
796.203	3361.96
796.535	3373.94
796.867	3360.38
797.198	3348.85
797.53	3355.41
797.862	3338.91
798.193	3342.3
798.525	3292.13
798.856	3271.57
799.188	3246.26
799.519	3268.4
799.85	3308.4
800.182	3249.19
800.513	3268.63
800.844	3258.01
801.175	3252.81
801.506	3253.71
801.837	3223.88
802.168	3232.47
802.499	3243.77
802.83	3172.59
803.161	3182.3
803.491	3198.12
803.822	3203.09
804.153	3165.35
804.483	3183.21
804.814	3157.9
805.145	3140.95
805.475	3108.41
805.805	3088.75
806.136	3128.97
806.466	3107.05
806.796	3092.14
807.126	3094.4
807.457	3079.03
807.787	3105.7
808.117	3038.8
808.447	3048.52
808.777	3073.83
809.107	3051.46
809.436	3033.15
809.766	3053.95
810.096	3004
810.426	2996.55
810.755	3032.7
811.085	3006.71
811.414	3044.23
811.744	2983.44
812.073	2996.55
812.403	2987.96
812.732	2966.04
813.061	2966.26
813.39	3000.84
813.719	2919.71
814.049	2913.61
814.378	2927.17
814.707	2952.25
815.036	2935.53
815.365	2922.88
815.693	2872.48
816.022	2892.82
816.351	2854.63
816.68	2871.8
817.008	2884.91
817.337	2826.15
817.665	2826.15
817.994	2832.03
818.322	2847.4
818.651	2819.15
818.979	2856.44
819.307	2852.14
819.636	2838.58
819.964	2824.12
820.292	2813.5
820.62	2856.66
820.948	2858.47
821.276	2789.77
821.604	2840.62
821.932	2780.96
822.259	2815.53
822.587	2801.07
822.915	2770.79
823.243	2831.8
823.57	2793.61
823.898	2812.37
824.225	2753.16
824.553	2813.95
824.88	2799.49
825.207	2834.74
825.535	2815.76
825.862	2776.21
826.189	2826.61
826.516	2823.67
826.843	2810.34
827.17	2828.19
827.497	2829.54
827.824	2784.57
828.151	2814.4
828.478	2792.48
828.805	2846.27
829.131	2783.44
829.458	2787.29
829.785	2796.1
830.111	2820.05
830.438	2757.91
830.764	2793.39
831.09	2785.48
831.417	2741.64
831.743	2810.34
832.069	2782.54
832.395	2751.35
832.722	2781.41
833.048	2773.95
833.374	2764.24
833.7	2771.69
834.026	2770.34
834.351	2755.42
834.677	2785.03
835.003	2756.55
835.329	2728.76
835.654	2743.9
835.98	2754.52
836.306	2740.51
836.631	2744.12
836.956	2753.39
837.282	2757
837.607	2720.85
837.932	2704.58
838.258	2711.58
838.583	2712.26
838.908	2708.87
839.233	2732.37
839.558	2701.19
839.883	2690.56
840.208	2688.31
840.533	2689.89
840.858	2709.77
841.182	2706.84
841.507	2702.99
841.832	2665.93
842.156	2683.11
842.481	2666.16
842.805	2688.76
843.13	2668.19
843.454	2644.46
843.778	2657.8
844.103	2669.55
844.427	2641.98
844.751	2641.98
845.075	2652.15
845.399	2626.61
845.723	2611.92
846.047	2606.73
846.371	2606.5
846.695	2573.73
847.019	2583.22
847.343	2566.5
847.666	2542.32
847.99	2529.89
848.313	2555.43
848.637	2542.32
848.96	2498.48
849.284	2498.25
849.607	2519.95
849.931	2515.88
850.254	2505.26
850.577	2479.5
850.9	2448.54
851.223	2463.23
851.546	2431.36
851.869	2461.87
852.192	2445.37
852.515	2421.19
852.838	2453.06
853.161	2464.81
853.483	2407.41
853.806	2398.37
854.129	2390.91
854.451	2378.93
854.774	2378.03
855.096	2365.15
855.419	2365.38
855.741	2376.9
856.063	2333.29
856.385	2340.07
856.708	2336.9
857.03	2333.74
857.352	2359.5
857.674	2338.71
857.996	2327.64
858.318	2318.6
858.64	2307.52
858.961	2326.96
859.283	2311.14
859.605	2305.26
859.926	2300.29
860.248	2290.58
860.57	2265.49
860.891	2262.55
861.212	2239.28
861.534	2288.77
861.855	2249.9
862.176	2272.5
862.498	2266.17
862.819	2281.76
863.14	2286.28
863.461	2249.45
863.782	2244.7
864.103	2248.99
864.424	2256.23
864.745	2254.42
865.065	2230.69
865.386	2199.96
865.707	2201.54
866.027	2226.17
866.348	2206.28
866.668	2210.58
866.989	2200.18
867.309	2171.48
867.63	2195.21
867.95	2188.21
868.27	2201.76
868.59	2212.16
868.91	2197.47
869.23	2170.13
869.55	2161.31
869.87	2129
870.19	2158.83
870.51	2170.35
870.83	2151.37
871.15	2190.01
871.469	2167.19
871.789	2165.15
872.109	2136.23
872.428	2120.41
872.748	2143.23
873.067	2156.34
873.386	2160.86
873.706	2145.95
874.025	2151.6
874.344	2106.17
874.663	2163.57
874.982	2141.2
875.301	2118.83
875.62	2121.77
875.939	2117.25
876.258	2097.13
876.577	2128.09
876.896	2080.19
877.214	2125.61
877.533	2097.59
877.852	2115.44
878.17	2094.87
878.489	2070.92
878.807	2098.72
879.125	2113.4
879.444	2086.06
879.762	2073.86
880.08	2099.62
880.398	2080.64
880.716	2069.56
881.034	2093.74
881.352	2059.62
881.67	2037.02
881.988	2059.62
882.306	2039.28
882.624	2065.27
882.941	2044.71
883.259	2025.72
883.577	2018.49
883.894	2050.13
884.212	2038.38
884.529	2016.91
884.846	2025.27
885.164	2025.72
885.481	2025.27
885.798	2039.28
886.115	1989.57
886.432	1997.02
886.75	1990.02
887.067	2002.45
887.383	1990.92
887.7	1987.08
888.017	1974.65
888.334	1998.38
888.651	1957.48
888.967	2002.9
889.284	1986.4
889.6	1950.92
889.917	1947.53
890.233	1943.92
890.55	1959.06
890.866	1925.39
891.182	1938.49
891.498	1956.35
891.815	1926.29
892.131	1915.9
892.447	1928.33
892.763	1873.86
893.079	1907.31
893.395	1897.59
893.71	1897.37
894.026	1884.03
894.342	1899.85
894.657	1862.79
894.973	1871.83
895.289	1904.37
895.604	1894.88
895.92	1855.56
896.235	1865.05
896.55	1825.73
896.865	1840.19
897.181	1851.26
897.496	1842.68
897.811	1810.59
898.126	1864.82
898.441	1823.69
898.756	1798.84
899.071	1806.07
899.386	1804.26
899.7	1778.05
900.015	1812.4
900.33	1787.54
900.644	1780.31
900.959	1798.61
901.273	1796.58
901.588	1762.91
901.902	1785.28
902.216	1778.5
902.531	1740.53
902.845	1729.69
903.159	1720.65
903.473	1763.13
903.787	1756.35
904.101	1726.3
904.415	1690.59
904.729	1698.27
905.042	1700.76
905.356	1695.34
905.67	1711.16
905.984	1682.23
906.297	1688.11
906.611	1662.34
906.924	1667.31
907.237	1676.35
907.551	1663.25
907.864	1663.47
908.177	1670.48
908.491	1658.05
908.804	1639.52
909.117	1634.77
909.43	1626.86
909.743	1615.34
910.056	1635.68
910.368	1613.08
910.681	1616.69
910.994	1630.48
911.307	1627.77
911.619	1564.49
911.932	1630.48
912.244	1591.61
912.557	1562.68
912.869	1585.96
913.181	1547.54
913.494	1572.4
913.806	1573.31
914.118	1556.13
914.43	1556.58
914.742	1557.71
915.054	1515.45
915.366	1504.83
915.678	1548.45
915.99	1522.69
916.302	1542.57
916.613	1507.55
916.925	1504.61
917.236	1517.04
917.548	1507.32
917.859	1528.34
918.171	1492.18
918.482	1479.98
918.794	1485.62
919.105	1445.4
919.416	1463.03
919.727	1435.68
920.038	1422.58
920.349	1445.63
920.66	1467.55
920.971	1444.04
921.282	1439.52
921.593	1433.42
921.903	1406.53
922.214	1418.51
922.525	1407.21
922.835	1409.24
923.146	1382.35
923.456	1431.16
923.767	1435
924.077	1405.4
924.387	1385.06
924.697	1366.98
925.008	1391.62
925.318	1389.13
925.628	1385.51
925.938	1371.96
926.248	1364.27
926.558	1372.41
926.867	1340.32
927.177	1365.63
927.487	1337.15
927.796	1348
928.106	1356.59
928.416	1321.79
928.725	1330.6
929.034	1322.24
929.344	1327.89
929.653	1328.79
929.962	1284.5
930.271	1320.21
930.581	1276.36
930.89	1300.77
931.199	1302.13
931.508	1313.2
931.817	1292.86
932.125	1284.05
932.434	1278.62
932.743	1280.21
933.051	1269.13
933.36	1252.41
933.669	1235.24
933.977	1255.12
934.286	1263.71
934.594	1242.47
934.902	1243.37
935.21	1218.51
935.519	1245.86
935.827	1226.2
936.135	1203.37
936.443	1206.31
936.751	1221.9
937.059	1199.53
937.367	1215.35
937.674	1226.2
937.982	1198.17
938.29	1191.62
938.597	1200.66
938.905	1209.47
939.213	1202.92
939.52	1181
939.827	1153.88
940.135	1182.81
940.442	1174.45
940.749	1166.09
941.056	1176.48
941.363	1146.2
941.67	1153.43
941.977	1159.31
942.284	1135.13
942.591	1164.28
942.898	1139.65
943.205	1139.65
943.511	1144.62
943.818	1103.94
944.125	1118.18
944.431	1125.18
944.738	1107.33
945.044	1108.91
945.35	1118.85
945.657	1095.58
945.963	1118.63
946.269	1118.85
946.575	1101.91
946.881	1086.77
947.187	1102.58
947.493	1086.99
947.799	1076.14
948.105	1069.59
948.41	1088.8
948.716	1081.57
949.022	1059.2
949.327	1077.05
949.633	1049.25
949.938	1069.36
950.244	1059.2
950.549	1049.93
950.854	1017.16
951.16	1040.44
951.465	1060.1
951.77	1054.22
952.075	1056.71
952.38	1050.38
952.685	1040.21
952.99	1006.99
953.294	1017.84
953.599	1043.83
953.904	996.15
954.209	1004.28
954.513	1011.29
954.818	1016.48
955.122	1006.99
955.426	995.69
955.731	1005.19
956.035	1017.84
956.339	990.5
956.643	981.01
956.948	975.13
957.252	981.01
957.556	973.77
957.86	985.52
958.163	967.45
958.467	967.22
958.771	955.02
959.075	979.65
959.378	972.64
959.682	953.66
959.985	963.15
960.289	960.44
960.592	950.5
960.896	922.48
961.199	926.09
961.502	954.11
961.805	934.68
962.108	923.15
962.411	929.26
962.714	937.39
963.017	925.87
963.32	922.25
963.623	920.44
963.926	918.41
964.228	922.48
964.531	918.86
964.833	924.74
965.136	908.69
965.438	901.91
965.741	894
966.043	879.99
966.345	908.01
966.648	894.68
966.95	920.67
967.252	895.36
967.554	879.54
967.856	862.36
968.158	889.48
968.46	884.51
968.761	861.69
969.063	889.93
969.365	848.81
969.666	866.43
969.968	855.81
970.269	856.26
970.571	859.88
970.872	839.54
971.174	855.36
971.475	861.46
971.776	839.99
972.077	837.28
972.378	875.02
972.679	840.9
972.98	831.86
973.281	831.86
973.582	830.27
973.883	858.3
974.183	824.17
974.484	809.48
974.785	831.18
975.085	827.11
975.386	829.6
975.686	823.04
975.986	807.68
976.287	790.73
976.587	813.33
976.887	802.93
977.187	792.99
977.487	810.84
977.787	783.72
978.087	785.76
978.387	796.83
978.687	777.85
978.987	796.38
979.286	792.31
979.586	789.15
979.885	783.04
980.185	771.29
980.484	779.43
980.784	777.85
981.083	769.71
981.382	783.72
981.682	756.38
981.981	748.24
982.28	795.93
982.579	750.73
982.878	756.15
983.177	751.41
983.475	761.35
983.774	727.68
984.073	745.98
984.372	737.85
984.67	754.34
984.969	742.14
985.267	693.78
985.566	727.45
985.864	754.8
986.162	721.8
986.461	736.04
986.759	723.38
987.057	729.26
987.355	715.25
987.653	722.48
987.951	724.74
988.249	714.8
988.547	698.98
988.844	706.89
989.142	726.1
989.44	728.36
989.737	706.66
990.035	705.31
990.332	691.07
990.63	697.4
990.927	705.53
991.224	717.28
991.521	713.89
991.819	680.45
992.116	706.21
992.413	711.41
992.71	688.36
993.006	708.24
993.303	676.83
993.6	691.3
993.897	687.91
994.193	688.81
994.49	669.38
994.787	676.61
995.083	670.28
995.379	680
995.676	687.91
995.972	648.13
996.268	682.26
996.565	643.61
996.861	635.25
997.157	649.71
997.453	661.92
997.749	664.4
998.044	642.94
998.34	637.51
998.636	665.99
998.932	637.06
999.227	638.42
999.523	633.44
999.818	622.6
1000.114	656.04
1000.409	648.58
1000.704	641.13
1001	624.86
1001.295	625.99
1001.59	632.31
1001.885	631.64
1002.18	602.94
1002.475	633.67
1002.77	611.98
1003.065	608.36
1003.359	603.16
1003.654	612.43
1003.949	615.37
1004.243	612.2
1004.538	608.81
1004.832	611.52
1005.127	587.8
1005.421	609.72
1005.715	595.25
1006.009	596.16
1006.304	581.24
1006.598	604.74
1006.892	603.16
1007.186	590.73
1007.48	594.35
1007.773	591.19
1008.067	596.38
1008.361	574.46
1008.655	589.38
1008.948	573.56
1009.242	584.63
1009.535	583.05
1009.829	585.99
1010.122	562.26
1010.415	572.88
1010.708	579.89
1011.001	575.37
1011.295	561.58
1011.588	560.45
1011.881	553.22
1012.173	551.41
1012.466	567
1012.759	541.92
1013.052	554.58
1013.344	571.07
1013.637	564.07
1013.93	545.54
1014.222	556.61
1014.514	512.32
1014.807	535.14
1015.099	564.97
1015.391	543.05
1015.683	547.12
1015.976	519.77
1016.268	552.09
1016.56	529.49
1016.851	526.78
1017.143	527.23
1017.435	541.92
1017.727	520.23
1018.018	518.87
1018.31	513.45
1018.602	504.18
1018.893	512.77
1019.185	510.74
1019.476	526.1
1019.767	533.33
1020.058	509.38
1020.35	498.08
1020.641	519.77
1020.932	524.07
1021.223	515.71
1021.514	489.72
1021.804	502.15
1022.095	502.37
1022.386	504.41
1022.677	487.23
1022.967	507.12
1023.258	516.84
1023.548	509.38
1023.839	489.72
1024.129	499.66
1024.419	482.04
1024.709	499.44
1025	501.92
1025.29	495.59
1025.58	489.04
1025.87	489.72
1026.16	471.64
1026.449	461.92
1026.739	463.73
1027.029	494.46
1027.319	459.44
1027.608	472.77
1027.898	484.3
1028.187	461.24
1028.477	467.57
1028.766	469.83
1029.055	492.66
1029.344	460.79
1029.634	479.32
1029.923	459.21
1030.212	471.64
1030.501	464.63
1030.79	481.58
1031.078	472.54
1031.367	472.32
1031.656	435.71
1031.945	436.61
1032.233	460.12
1032.522	451.53
1032.81	448.36
1033.099	443.17
1033.387	451.75
1033.675	434.58
1033.963	423.96
1034.251	447.69
1034.54	434.8
1034.828	423.28
1035.116	443.39
1035.403	440.45
1035.691	456.95
1035.979	430.74
1036.267	449.72
1036.554	442.49
1036.842	443.62
1037.129	444.07
1037.417	419.89
1037.704	442.04
1037.992	442.26
1038.279	449.04
1038.566	433.45
1038.853	433.45
1039.14	433.45
