Data from carpet_green_FLMS001491_00064.txt Node
Date: Wed Feb 08 10:35:41 GMT 2017
User: dcchb
Spectrometer: FLMS00149
Trigger mode: 0
Integration Time (sec): 2.000000E-2
Scans to average: 10
Electric dark correction enabled: true
Nonlinearity correction enabled: false
Boxcar width: 0
XAxis mode: Wavelengths
Number of Pixels in Spectrum: 2048
>>>>>Begin Spectral Data<<<<<
341.393	-0.86
341.776	-0.86
342.16	-0.86
342.543	-54.42
342.927	-54.42
343.31	-68.2
343.693	-62.55
344.077	-67.75
344.46	-60.07
344.843	-49
345.226	-59.39
345.61	-1.77
345.993	-10.8
346.376	-13.29
346.759	15.64
347.142	30.1
347.525	45.46
347.908	45.01
348.291	48.63
348.674	90.89
349.057	117.1
349.44	124.33
349.823	148.29
350.206	151.9
350.588	181.73
350.971	189.64
351.354	198.23
351.737	216.08
352.119	229.64
352.502	238.91
352.884	272.13
353.267	248.62
353.65	266.48
354.032	276.65
354.414	283.2
354.797	296.53
355.179	301.28
355.562	301.73
355.944	286.59
356.326	302.86
356.709	305.12
357.091	335.17
357.473	327.94
357.855	334.27
358.238	321.39
358.62	312.35
359.002	317.32
359.384	322.07
359.766	313.48
360.148	313.71
360.53	317.55
360.912	336.3
361.294	320.03
361.676	319.58
362.057	313.71
362.439	319.13
362.821	314.38
363.203	288.17
363.584	298.57
363.966	287.94
364.348	283.42
364.729	316.64
365.111	307.6
365.493	290.88
365.874	287.72
366.256	277.78
366.637	283.2
367.019	287.72
367.4	280.94
367.781	290.43
368.163	308.06
368.544	289.3
368.925	301.5
369.306	305.8
369.688	282.97
370.069	285.46
370.45	301.5
370.831	292.46
371.212	279.58
371.593	293.14
371.974	277.78
372.355	286.36
372.736	287.27
373.117	302.41
373.498	289.53
373.879	295.85
374.26	286.59
374.641	264.44
375.021	288.4
375.402	292.92
375.783	262.63
376.163	303.76
376.544	277.1
376.925	275.06
377.305	263.76
377.686	273.48
378.066	280.71
378.447	289.07
378.827	293.14
379.208	306.02
379.588	296.08
379.968	302.63
380.349	292.69
380.729	295.63
381.109	267.61
381.489	285.91
381.87	295.63
382.25	296.53
382.63	278.91
383.01	311.67
383.39	299.92
383.77	306.93
384.15	303.76
384.53	312.35
384.91	290.2
385.29	314.38
385.67	322.97
386.049	294.27
386.429	302.18
386.809	316.42
387.189	288.17
387.568	311.9
387.948	288.17
388.328	310.09
388.707	303.99
389.087	294.72
389.466	335.17
389.846	310.54
390.225	321.84
390.605	317.32
390.984	318
391.363	310.32
391.743	310.32
392.122	299.24
392.501	298.11
392.881	327.49
393.26	345.8
393.639	324.33
394.018	317.1
394.397	315.06
394.776	318.68
395.155	297.21
395.534	313.03
395.913	315.74
396.292	321.62
396.671	305.35
397.05	295.4
397.429	310.77
397.808	328.4
398.186	329.75
398.565	309.64
398.944	316.19
399.323	340.6
399.701	326.14
400.08	303.99
400.458	340.6
400.837	315.97
401.215	313.71
401.594	309.64
401.972	326.36
402.351	328.62
402.729	316.42
403.107	321.62
403.486	317.32
403.864	323.42
404.242	327.04
404.62	342.18
404.999	329.07
405.377	332.24
405.755	343.08
406.133	321.84
406.511	324.1
406.889	335.63
407.267	328.17
407.645	339.92
408.023	337.43
408.401	310.09
408.779	344.44
409.156	327.04
409.534	334.27
409.912	344.67
410.29	335.4
410.667	341.28
411.045	315.06
411.422	342.86
411.8	346.7
412.178	321.62
412.555	334.04
412.933	327.27
413.31	344.21
413.687	335.63
414.065	340.37
414.442	332.69
414.819	337.21
415.197	360.48
415.574	337.21
415.951	342.18
416.328	357.1
416.705	364.33
417.082	361.61
417.46	335.4
417.837	347.38
418.214	350.99
418.591	344.21
418.967	340.6
419.344	341.5
419.721	356.42
420.098	353.48
420.475	327.94
420.852	341.5
421.228	385.57
421.605	342.18
421.982	326.59
422.358	362.52
422.735	369.07
423.111	345.57
423.488	365.46
423.864	362.97
424.241	349.41
424.617	380.37
424.994	353.03
425.37	365.23
425.746	349.41
426.123	370.88
426.499	353.71
426.875	356.87
427.251	368.85
427.627	358.45
428.003	364.78
428.379	376.3
428.756	372.46
429.132	359.35
429.507	344.89
429.883	380.82
430.259	384.67
430.635	372.01
431.011	388.05
431.387	372.01
431.763	374.5
432.138	397.55
432.514	368.17
432.89	390.09
433.265	375.63
433.641	389.18
434.016	408.85
434.392	402.07
434.767	403.42
435.143	398
435.518	395.74
435.894	399.35
436.269	386.25
436.644	407.49
437.02	396.87
437.395	391.9
437.77	396.64
438.145	395.74
438.52	402.74
438.895	396.42
439.271	392.8
439.646	405.46
440.021	419.69
440.395	388.73
440.77	402.52
441.145	418.79
441.52	424.66
441.895	429.18
442.27	417.43
442.645	432.8
443.019	423.76
443.394	425.79
443.769	425.79
444.143	435.29
444.518	414.95
444.892	413.14
445.267	422.86
445.641	430.54
446.016	426.7
446.39	415.62
446.764	438.9
447.139	423.31
447.513	424.66
447.887	435.29
448.262	423.76
448.636	435.29
449.01	421.5
449.384	446.58
449.758	430.09
450.132	427.6
450.506	435.29
450.88	429.86
451.254	446.58
451.628	452.23
452.002	439.58
452.376	453.14
452.75	446.58
453.123	441.61
453.497	452.69
453.871	466.7
454.244	455.17
454.618	481.39
454.992	481.61
455.365	475.28
455.739	457.43
456.112	501.27
456.486	454.72
456.859	471.22
457.232	475.74
457.606	493.81
457.979	510.99
458.352	475.28
458.725	490.42
459.099	479.8
459.472	484.55
459.845	467.6
460.218	491.1
460.591	482.06
460.964	491.1
461.337	492.01
461.71	495.85
462.083	500.14
462.456	504.89
462.829	527.26
463.201	498.56
463.574	492.46
463.947	520.25
464.32	518.22
464.692	542.18
465.065	530.42
465.438	525.45
465.81	526.36
466.183	552.34
466.555	548.28
466.928	525
467.3	551.89
467.672	556.64
468.045	550.31
468.417	574.94
468.789	537.2
469.161	578.11
469.534	557.32
469.906	559.35
470.278	592.57
470.65	593.25
471.022	591.89
471.394	590.99
471.766	600.93
472.138	611.33
472.51	613.13
472.882	596.64
473.253	620.37
473.625	612.91
473.997	631.44
474.369	628.5
474.74	616.3
475.112	644.09
475.484	644.09
475.855	644.77
476.227	663.53
476.598	678.44
476.97	682.96
477.341	693.58
477.713	707.37
478.084	692.45
478.455	698.33
478.827	712.11
479.198	708.27
479.569	704.88
479.94	727.71
480.311	745.33
480.682	766.58
481.053	776.29
481.424	783.75
481.795	783.98
482.166	771.1
482.537	772
482.908	794.82
483.279	823.07
483.65	825.11
484.021	819.46
484.391	847.93
484.762	823.98
485.133	860.36
485.503	830.53
485.874	882.73
486.244	886.8
486.615	885.22
486.985	892.9
487.356	896.74
487.726	908.72
488.097	938.1
488.467	926.57
488.837	940.36
489.207	941.71
489.578	956.4
489.948	962.95
490.318	992.78
490.688	1004.76
491.058	999.34
491.428	1011.99
491.798	1029.39
492.168	1027.13
492.538	1014.25
492.908	1033.46
493.278	1030.3
493.648	1051.09
494.017	1059.9
494.387	1067.81
494.757	1071.65
495.126	1078.66
495.496	1107.81
495.866	1072.1
496.235	1088.38
496.605	1084.31
496.974	1115.49
497.344	1124.53
497.713	1139
498.082	1128.15
498.452	1144.42
498.821	1125.89
499.19	1151.88
499.559	1176.73
499.928	1122.05
500.298	1160.01
500.667	1160.24
501.036	1186
501.405	1186.9
501.774	1187.58
502.143	1220.58
502.512	1195.04
502.88	1178.09
503.249	1199.33
503.618	1205.66
503.987	1214.47
504.356	1211.99
504.724	1243.85
505.093	1247.02
505.462	1222.61
505.83	1242.95
506.199	1255.15
506.567	1246.11
506.936	1248.82
507.304	1281.14
507.672	1273
508.041	1264.42
508.409	1268.71
508.777	1297.86
509.145	1275.26
509.514	1279.78
509.882	1292.44
510.25	1298.31
510.618	1304.87
510.986	1301.25
511.354	1329.72
511.722	1344.41
512.09	1319.56
512.458	1320.69
512.826	1318.65
513.193	1342.83
513.561	1351.19
513.929	1342.38
514.297	1336.05
514.664	1366.33
515.032	1356.84
515.4	1352.55
515.767	1388.71
516.135	1357.07
516.502	1340.35
516.869	1378.54
517.237	1380.35
517.604	1366.11
517.972	1375.83
518.339	1418.31
518.706	1391.87
519.073	1414.02
519.44	1385.09
519.808	1428.93
520.175	1446.56
520.542	1425.09
520.909	1420.12
521.276	1436.16
521.643	1407.69
522.009	1461.47
522.376	1425.09
522.743	1437.52
523.11	1453.56
523.477	1479.1
523.843	1484.07
524.21	1502.6
524.577	1487.01
524.943	1497.63
525.31	1465.54
525.676	1493.79
526.043	1512.77
526.409	1534.01
526.776	1520.91
527.142	1525.65
527.508	1524.75
527.874	1552.54
528.241	1565.2
528.607	1546.89
528.973	1550.06
529.339	1571.07
529.705	1569.04
530.071	1578.53
530.437	1561.81
530.803	1578.76
531.169	1594.35
531.535	1590.28
531.901	1567.46
532.267	1567.68
532.632	1600.68
532.998	1586.89
533.364	1598.64
533.73	1614.46
534.095	1613.79
534.461	1591.64
534.826	1590.51
535.192	1600.23
535.557	1630.51
535.923	1626.21
536.288	1613.33
536.653	1611.3
537.019	1623.28
537.384	1597.29
537.749	1643.84
538.114	1598.19
538.479	1618.3
538.845	1604.75
539.21	1610.85
539.575	1628.02
539.94	1612.2
540.305	1622.6
540.67	1623.5
541.034	1635.25
541.399	1640.9
541.764	1624.18
542.129	1618.3
542.494	1630.51
542.858	1632.54
543.223	1629.38
543.587	1631.64
543.952	1620.79
544.316	1643.84
544.681	1619.21
545.045	1605.65
545.41	1648.59
545.774	1656.04
546.138	1649.49
546.503	1635.48
546.867	1644.52
547.231	1670.51
547.595	1653.11
547.959	1659.43
548.324	1657.85
548.688	1661.92
549.052	1648.36
549.416	1649.04
549.779	1638.19
550.143	1667.12
550.507	1659.66
550.871	1635.93
551.235	1632.32
551.599	1670.73
551.962	1637.51
552.326	1645.2
552.689	1669.38
553.053	1705.99
553.417	1673.44
553.78	1677.06
554.143	1679.09
554.507	1678.64
554.87	1681.13
555.234	1710.05
555.597	1683.16
555.96	1691.75
556.323	1688.59
556.686	1709.15
557.05	1705.99
557.413	1721.35
557.776	1720.45
558.139	1699.21
558.502	1722.26
558.865	1725.65
559.228	1731.97
559.59	1739.88
559.953	1715.93
560.316	1733.56
560.679	1732.43
561.041	1726.32
561.404	1761.58
561.767	1785.31
562.129	1772.43
562.492	1781.46
562.854	1757.74
563.217	1751.63
563.579	1736.04
563.941	1779.2
564.304	1764.74
564.666	1752.99
565.028	1761.58
565.39	1796.38
565.753	1775.81
566.115	1794.35
566.477	1794.35
566.839	1797.74
567.201	1786.44
567.563	1788.02
567.925	1788.24
568.287	1802.71
568.648	1808.13
569.01	1791.18
569.372	1809.71
569.734	1791.63
570.095	1837.73
570.457	1788.02
570.819	1860.33
571.18	1784.85
571.542	1833.44
571.903	1836.15
572.265	1827.79
572.626	1821.69
572.987	1812.88
573.349	1843.16
573.71	1825.31
574.071	1802.25
574.432	1831.18
574.794	1805.87
575.155	1826.21
575.516	1840.9
575.877	1847.23
576.238	1822.37
576.599	1820.79
576.96	1816.27
577.32	1842.48
577.681	1824.85
578.042	1836.38
578.403	1821.46
578.763	1798.87
579.124	1841.35
579.485	1813.55
579.845	1831.18
580.206	1814.68
580.566	1783.05
580.927	1800.45
581.287	1811.07
581.648	1816.94
582.008	1811.29
582.368	1800.9
582.728	1793.44
583.089	1795.7
583.449	1816.27
583.809	1785.08
584.169	1788.24
584.529	1790.05
584.889	1791.86
585.249	1778.3
585.609	1794.8
585.969	1756.61
586.329	1761.13
586.688	1762.03
587.048	1782.14
587.408	1771.52
587.768	1768.36
588.127	1776.27
588.487	1736.27
588.846	1773.1
589.206	1760
589.565	1729.71
589.925	1753.22
590.284	1755.25
590.643	1715.25
591.003	1757.06
591.362	1747.34
591.721	1715.03
592.08	1720
592.44	1755.02
592.799	1745.08
593.158	1724.29
593.517	1713.22
593.876	1741.92
594.235	1738.3
594.593	1733.1
594.952	1709.6
595.311	1730.62
595.67	1740.11
596.029	1728.81
596.387	1720.22
596.746	1740.79
597.104	1751.86
597.463	1711.86
597.822	1716.16
598.18	1696.04
598.538	1711.64
598.897	1747.12
599.255	1710.51
599.613	1728.13
599.972	1744.63
600.33	1734.23
600.688	1732.2
601.046	1761.58
601.404	1749.37
601.762	1731.97
602.12	1764.06
602.478	1726.1
602.836	1736.27
603.194	1713.44
603.552	1750.73
603.91	1747.57
604.268	1743.27
604.625	1749.83
604.983	1741.92
605.341	1748.47
605.698	1707.34
606.056	1745.76
606.413	1767
606.771	1750.73
607.128	1771.3
607.485	1745.76
607.843	1767.45
608.2	1747.12
608.557	1752.76
608.914	1764.29
609.272	1779.66
609.629	1769.26
609.986	1748.47
610.343	1732.2
610.7	1771.52
611.057	1802.93
611.414	1774.23
611.771	1760
612.127	1792.99
612.484	1764.97
612.841	1770.17
613.198	1764.74
613.554	1772.2
613.911	1789.6
614.267	1790.73
614.624	1778.53
614.98	1774.23
615.337	1758.19
615.693	1806.55
616.05	1790.05
616.406	1803.61
616.762	1802.93
617.118	1794.35
617.475	1771.07
617.831	1800.67
618.187	1788.92
618.543	1781.69
618.899	1794.57
619.255	1787.57
619.611	1765.65
619.967	1779.43
620.323	1800.9
620.678	1787.34
621.034	1800.9
621.39	1803.38
621.746	1787.11
622.101	1809.49
622.457	1782.14
622.812	1780.79
623.168	1826.44
623.523	1836.38
623.879	1800.22
624.234	1800.9
624.589	1827.79
624.945	1803.61
625.3	1797.06
625.655	1783.95
626.01	1823.27
626.365	1802.71
626.72	1811.75
627.075	1806.1
627.43	1787.34
627.785	1783.27
628.14	1800.9
628.495	1778.07
628.85	1786.44
629.205	1772.43
629.559	1812.65
629.914	1766.32
630.269	1780.79
630.623	1808.81
630.978	1792.31
631.332	1787.57
631.687	1823.27
632.041	1794.12
632.396	1785.31
632.75	1761.13
633.104	1777.4
633.459	1781.69
633.813	1807.68
634.167	1791.41
634.521	1787.34
634.875	1762.71
635.229	1784.85
635.583	1766.32
635.937	1771.97
636.291	1769.26
636.645	1724.29
636.999	1779.88
637.352	1763.39
637.706	1750.28
638.06	1774.23
638.413	1744.86
638.767	1767.45
639.121	1781.24
639.474	1758.64
639.828	1745.99
640.181	1770.84
640.534	1758.87
640.888	1745.53
641.241	1738.75
641.594	1753.22
641.947	1752.76
642.301	1754.35
642.654	1760.67
643.007	1759.77
643.36	1749.37
643.713	1769.26
644.066	1755.25
644.419	1766.78
644.771	1752.09
645.124	1736.04
645.477	1720.45
645.83	1711.41
646.182	1733.78
646.535	1726.1
646.888	1742.14
647.24	1713.22
647.593	1756.61
647.945	1763.61
648.298	1781.92
648.65	1740.11
649.002	1735.59
649.355	1765.65
649.707	1712.54
650.059	1740.79
650.411	1760.67
650.763	1767
651.115	1792.09
651.467	1806.55
651.819	1828.69
652.171	1803.61
652.523	1801.12
652.875	1811.75
653.227	1796.83
653.578	1810.16
653.93	1845.42
654.282	1818.53
654.633	1809.71
654.985	1831.63
655.337	1830.28
655.688	1831.18
656.039	1844.97
656.391	1853.33
656.742	1863.95
657.094	1854.91
657.445	1881.12
657.796	1892.65
658.147	1910.5
658.498	1898.07
658.849	1896.26
659.2	1907.56
659.551	1916.6
659.902	1911.18
660.253	1927.68
660.604	1971.29
660.955	1936.26
661.306	1968.35
661.656	1991.18
662.007	1962.02
662.358	1986.43
662.708	1964.51
663.059	2021.23
663.409	1990.27
663.76	2009.71
664.11	2045.64
664.461	2043.15
664.811	2040.21
665.161	2030.5
665.511	2060.33
665.862	2075.47
666.212	2100.55
666.562	2113.89
666.912	2096.03
667.262	2165.41
667.612	2134.22
667.962	2141.23
668.312	2173.54
668.662	2183.71
669.011	2192.08
669.361	2216.93
669.711	2227.78
670.06	2229.59
670.41	2242.7
670.76	2239.08
671.109	2276.82
671.459	2296.48
671.808	2287.44
672.157	2343.48
672.507	2277.72
672.856	2314.78
673.205	2366.08
673.554	2333.99
673.904	2406.76
674.253	2419.19
674.602	2417.83
674.951	2393.88
675.3	2404.5
675.649	2444.27
675.998	2482.69
676.346	2471.16
676.695	2507.77
677.044	2555.46
677.393	2518.62
677.741	2544.61
678.09	2597.94
678.438	2584.83
678.787	2602.69
679.135	2646.3
679.484	2627.32
679.832	2646.07
680.181	2691.27
680.529	2679.07
680.877	2718.16
681.225	2731.5
681.573	2781.21
681.922	2764.94
682.27	2772.62
682.618	2830.48
682.966	2838.16
683.314	2868.89
683.661	2844.94
684.009	2853.07
684.357	2849.46
684.705	2896.24
685.053	2912.51
685.4	2968.78
685.748	2943.69
686.095	3015.78
686.443	3021.66
686.79	3038.15
687.138	3054.43
687.485	3052.17
687.832	3066.4
688.18	3104.37
688.527	3106.63
688.874	3131.26
689.221	3156.12
689.568	3158.15
689.915	3171.94
690.262	3211.26
690.609	3216.68
690.956	3247.41
691.303	3260.07
691.65	3276.34
691.997	3307.07
692.344	3319.5
692.69	3332.61
693.037	3352.72
693.383	3348.2
693.73	3396.79
694.077	3402.44
694.423	3434.53
694.769	3464.13
695.116	3459.16
695.462	3506.62
695.808	3569.89
696.155	3548.2
696.501	3570.34
696.847	3583.45
697.193	3577.35
697.539	3631.59
697.885	3626.61
698.231	3658.03
698.577	3689.44
698.923	3702.09
699.269	3731.47
699.614	3720.62
699.96	3738.48
700.306	3791.81
700.651	3769.43
700.997	3778.7
701.342	3849.43
701.688	3900.05
702.033	3823.22
702.379	3910
702.724	3894.4
703.069	3972.59
703.415	3938.47
703.76	3974.18
704.105	3977.34
704.45	4040.61
704.795	4012.82
705.14	4085.13
705.485	4075.19
705.83	4070.22
706.175	4147.28
706.52	4156.32
706.865	4163.77
707.209	4178.46
707.554	4183.66
707.899	4194.51
708.243	4162.64
708.588	4196.09
708.932	4232.02
709.277	4287.39
709.621	4290.78
709.966	4297.33
710.31	4320.15
710.654	4303.43
710.998	4327.16
711.342	4409.64
711.687	4359.93
712.031	4363.32
712.375	4401.51
712.719	4447.16
713.063	4434.95
713.407	4483.99
713.75	4467.95
714.094	4476.08
714.438	4512.47
714.782	4542.75
715.125	4511.79
715.469	4535.52
715.812	4544.1
716.156	4556.53
716.499	4579.81
716.843	4638.11
717.186	4591.33
717.53	4623.42
717.873	4675.4
718.216	4686.92
718.559	4692.35
718.902	4703.65
719.246	4726.25
719.589	4691.9
719.932	4710.43
720.275	4730.31
720.617	4765.34
720.96	4752.23
721.303	4757.43
721.646	4737.09
721.989	4779.13
722.331	4795.17
722.674	4753.82
723.016	4805.79
723.359	4780.93
723.701	4848.73
724.044	4827.03
724.386	4795.4
724.729	4803.08
725.071	4846.24
725.413	4877.88
725.755	4900.48
726.097	4861.16
726.439	4858.45
726.782	4902.96
727.124	4884.89
727.465	4853.7
727.807	4879.91
728.149	4867.94
728.491	4858.9
728.833	4915.17
729.175	4876.07
729.516	4922.17
729.858	4911.78
730.199	4962.62
730.541	4911.1
730.882	4916.75
731.224	4959.01
731.565	4916.52
731.906	4944.55
732.248	4948.61
732.589	4915.85
732.93	4916.75
733.271	4927.6
733.612	4998.33
733.953	4968.5
734.294	4962.4
734.635	4970.08
734.976	4967.37
735.317	4943.19
735.658	5031.1
735.999	4994.49
736.339	4937.31
736.68	4982.51
737.021	5003.3
737.361	4999.91
737.702	4973.7
738.042	4971.89
738.383	4962.17
738.723	4999.23
739.063	4961.27
739.404	4971.89
739.744	4979.35
740.084	4977.31
740.424	4982.74
740.764	4976.86
741.104	4980.48
741.444	4999.46
741.784	4975.28
742.124	4982.28
742.464	5024.32
742.804	4939.8
743.143	4958.1
743.483	4939.12
743.823	4916.07
744.162	4955.17
744.502	4977.31
744.841	4927.14
745.181	4960.59
745.52	4962.4
745.86	4972.79
746.199	4905
746.538	4895.51
746.877	4935.73
747.216	4954.94
747.556	4937.09
747.895	4916.98
748.234	4923.53
748.573	4895.28
748.911	4884.43
749.25	4928.95
749.589	4871.33
749.928	4894.83
750.267	4865.68
750.605	4882.85
750.944	4915.85
751.283	4900.03
751.621	4895.51
751.96	4849.86
752.298	4793.36
752.636	4851.89
752.975	4820.71
753.313	4836.98
753.651	4826.13
753.989	4808.05
754.327	4840.14
754.666	4819.58
755.004	4833.81
755.342	4832.23
755.679	4822.29
756.017	4749.52
756.355	4775.51
756.693	4746.58
757.031	4715.4
757.368	4707.26
757.706	4722.63
758.044	4699.81
758.381	4737.77
758.719	4719.01
759.056	4700.94
759.394	4678.79
759.731	4652.58
760.068	4618.45
760.405	4657.77
760.743	4640.15
761.08	4610.54
761.417	4554.05
761.754	4620.94
762.091	4630.2
762.428	4609.64
762.765	4617.55
763.102	4600.6
763.438	4572.35
763.775	4566.02
764.112	4542.07
764.449	4527.15
764.785	4556.76
765.122	4490.77
765.458	4487.38
765.795	4468.4
766.131	4470.43
766.467	4436.76
766.804	4397.89
767.14	4433.82
767.476	4446.71
767.812	4374.39
768.148	4399.25
768.485	4358.12
768.821	4345.92
769.157	4334.62
769.492	4327.39
769.828	4314.51
770.164	4281.29
770.5	4295.3
770.836	4253.72
771.171	4283.77
771.507	4241.96
771.842	4239.93
772.178	4226.15
772.513	4243.77
772.849	4171.68
773.184	4189.08
773.519	4209.2
773.855	4139.14
774.19	4167.16
774.525	4164.9
774.86	4147.73
775.195	4155.41
775.53	4139.37
775.865	4079.94
776.2	4064.12
776.535	4049.2
776.87	4013.95
777.205	4014.63
777.539	4013.95
777.874	4005.36
778.209	3973.5
778.543	4008.3
778.878	3946.61
779.212	3941.86
779.547	3936.89
779.881	3912.71
780.215	3911.8
780.55	3894.63
780.884	3899.83
781.218	3947.06
781.552	3899.83
781.886	3854.4
782.22	3815.54
782.554	3831.35
782.888	3766.5
783.222	3841.75
783.556	3788.42
783.889	3775.99
784.223	3735.99
784.557	3729.44
784.89	3738.7
785.224	3722.43
785.557	3742.77
785.891	3707.29
786.224	3690.79
786.558	3684.01
786.891	3646.95
787.224	3715.65
787.557	3685.6
787.891	3666.61
788.224	3619.61
788.557	3603.11
788.89	3649.89
789.223	3612.83
789.556	3589.55
789.888	3576.67
790.221	3558.14
790.554	3525.37
790.887	3586.39
791.219	3530.8
791.552	3528.99
791.884	3503.91
792.217	3507.52
792.549	3498.26
792.882	3473.17
793.214	3459.16
793.546	3477.01
793.879	3450.35
794.211	3406.28
794.543	3428.2
794.875	3420.74
795.207	3427.52
795.539	3400.86
795.871	3391.82
796.203	3382.1
796.535	3354.53
796.867	3342.78
797.198	3371.25
797.53	3349.56
797.862	3321.08
798.193	3345.27
798.525	3297.81
798.856	3325.6
799.188	3300.52
799.519	3296.9
799.85	3269.11
800.182	3251.93
800.513	3278.6
800.844	3261.43
801.175	3259.84
801.506	3224.82
801.837	3258.26
802.168	3217.81
802.499	3215.33
802.83	3208.32
803.161	3201.77
803.491	3210.58
803.822	3193.4
804.153	3156.8
804.483	3170.58
804.814	3138.49
805.145	3166.06
805.475	3140.98
805.805	3089
806.136	3141.2
806.466	3132.62
806.796	3101.43
807.126	3091.03
807.457	3066.85
807.787	3079.06
808.117	3078.83
808.447	3077.25
808.777	3093.29
809.107	3052.62
809.436	3075.67
809.766	3032.73
810.096	3039.74
810.426	3023.01
810.755	3009.45
811.085	3008.32
811.414	2997.7
811.744	2981.43
812.073	2985.5
812.403	2997.25
812.732	2978.27
813.061	2949.34
813.39	2966.29
813.719	2961.55
814.049	2978.72
814.378	2926.97
814.707	2928.1
815.036	2920.42
815.365	2890.36
815.693	2892.62
816.022	2887.88
816.351	2890.81
816.68	2865.28
817.008	2916.58
817.337	2836.8
817.665	2831.83
817.994	2871.61
818.322	2857.59
818.651	2821.21
818.979	2833.87
819.307	2828.67
819.636	2833.41
819.964	2832.06
820.292	2828.89
820.62	2829.57
820.948	2791.38
821.276	2855.11
821.604	2833.41
821.932	2784.15
822.259	2815.79
822.587	2820.76
822.915	2804.71
823.243	2831.61
823.57	2791.38
823.898	2806.97
824.225	2827.31
824.553	2811.95
824.88	2763.36
825.207	2803.36
825.535	2812.62
825.862	2786.18
826.189	2809.69
826.516	2807.65
826.843	2843.81
827.17	2795
827.497	2820.99
827.824	2810.14
828.151	2766.52
828.478	2827.99
828.805	2830.48
829.131	2799.52
829.458	2757.48
829.785	2754.77
830.111	2787.09
830.438	2821.21
830.764	2799.97
831.09	2798.16
831.417	2783.02
831.743	2817.82
832.069	2809.69
832.395	2773.3
832.722	2790.7
833.048	2739.63
833.374	2780.99
833.7	2751.16
834.026	2751.83
834.351	2790.25
834.677	2761.78
835.003	2762.23
835.329	2720.87
835.654	2788.44
835.98	2744.83
836.306	2745.73
836.631	2744.83
836.956	2769.01
837.282	2755
837.607	2736.24
837.932	2745.73
838.258	2779.4
838.583	2731.95
838.908	2728.78
839.233	2710.71
839.558	2716.58
839.883	2676.13
840.208	2707.77
840.533	2725.39
840.858	2701.21
841.182	2696.92
841.507	2736.92
841.832	2687.66
842.156	2676.58
842.481	2691.72
842.805	2677.03
843.13	2681.33
843.454	2636.36
843.778	2644.27
844.103	2642.46
844.427	2626.64
844.751	2667.54
845.075	2649.24
845.399	2621.44
845.723	2619.86
846.047	2643.81
846.371	2602.46
846.695	2619.63
847.019	2580.99
847.343	2593.65
847.666	2569.24
847.99	2532.63
848.313	2545.51
848.637	2529.02
848.96	2525.17
849.284	2548.68
849.607	2513.42
849.931	2514.55
850.254	2488.34
850.577	2479.75
850.9	2474.78
851.223	2460.54
851.546	2476.14
851.869	2453.09
852.192	2468.68
852.515	2436.36
852.838	2402.01
853.161	2423.03
853.483	2411.28
853.806	2397.95
854.129	2402.24
854.451	2359.53
854.774	2384.39
855.096	2390.04
855.419	2406.08
855.741	2404.95
856.063	2364.5
856.385	2352.07
856.708	2327.89
857.03	2343.71
857.352	2326.53
857.674	2293.99
857.996	2325.4
858.318	2316.14
858.64	2342.13
858.961	2322.69
859.283	2296.93
859.605	2299.64
859.926	2313.2
860.248	2311.85
860.57	2281.79
860.891	2278.4
861.212	2269.81
861.534	2258.74
861.855	2253.54
862.176	2234.56
862.498	2284.28
862.819	2272.3
863.14	2262.36
863.461	2246.09
863.782	2243.37
864.103	2239.98
864.424	2219.87
864.745	2197.95
865.065	2206.76
865.386	2257.61
865.707	2249.7
866.027	2206.54
866.348	2190.49
866.668	2216.48
866.989	2188.91
867.309	2162.7
867.63	2201.79
867.95	2247.67
868.27	2185.75
868.59	2191.62
868.91	2185.75
869.23	2183.49
869.55	2177.84
869.87	2171.96
870.19	2167.89
870.51	2183.71
870.83	2145.97
871.15	2150.72
871.469	2180.32
871.789	2168.8
872.109	2165.18
872.428	2158.4
872.748	2158.4
873.067	2184.62
873.386	2153.88
873.706	2128.57
874.025	2130.61
874.344	2151.17
874.663	2111.4
874.982	2118.4
875.301	2084.51
875.62	2081.57
875.939	2117.95
876.258	2117.05
876.577	2119.99
876.896	2125.41
877.214	2149.36
877.533	2103.94
877.852	2096.48
878.17	2101.23
878.489	2119.53
878.807	2096.03
879.125	2101.68
879.444	2079.31
879.762	2065.98
880.08	2073.66
880.398	2054.68
880.716	2088.58
881.034	2071.63
881.352	2056.49
881.67	2083.15
881.988	2072.76
882.306	2047.67
882.624	2041.57
882.941	2045.64
883.259	2072.76
883.577	2055.13
883.894	2065.75
884.212	2024.17
884.529	2042.7
884.846	1992.31
885.164	2014.23
885.481	2021.01
885.798	2028.92
886.115	2004.51
886.432	2000.44
886.75	1993.44
887.067	2018.07
887.383	2026.88
887.7	1990.05
888.017	1959.54
888.334	1985.53
888.651	1987.79
888.967	1960.89
889.284	1969.03
889.6	1976.49
889.917	1960.22
890.233	1952.76
890.55	1964.28
890.866	1924.29
891.182	1971.74
891.498	1959.99
891.815	1925.64
892.131	1904.17
892.447	1902.82
892.763	1893.33
893.079	1898.98
893.395	1913.89
893.71	1885.87
894.026	1873.44
894.342	1917.05
894.657	1892.65
894.973	1868.24
895.289	1876.83
895.604	1893.33
895.92	1859.43
896.235	1850.62
896.55	1873.44
896.865	1852.42
897.181	1873.89
897.496	1849.03
897.811	1847.45
898.126	1836.38
898.441	1810.84
898.756	1822.37
899.071	1813.55
899.386	1791.41
899.7	1810.39
900.015	1813.1
900.33	1795.93
900.644	1803.16
900.959	1817.17
901.273	1767.23
901.588	1793.44
901.902	1783.27
902.216	1770.39
902.531	1777.4
902.845	1745.76
903.159	1721.58
903.473	1766.78
903.787	1719.09
904.101	1735.82
904.415	1736.49
904.729	1732.88
905.042	1741.92
905.356	1700.11
905.67	1700.56
905.984	1713.67
906.297	1719.32
906.611	1692.88
906.924	1686.33
907.237	1670.96
907.551	1683.61
907.864	1656.5
908.177	1676.61
908.491	1659.89
908.804	1650.17
909.117	1633.9
909.43	1636.38
909.743	1633.45
910.056	1605.42
910.368	1638.64
910.681	1604.52
910.994	1582.15
911.307	1613.56
911.619	1599.77
911.932	1601.58
912.244	1591.19
912.557	1602.49
912.869	1571.3
913.181	1579.44
913.494	1551.19
913.806	1570.85
914.118	1572.43
914.43	1541.02
914.742	1568.81
915.054	1532.88
915.366	1543.28
915.678	1523.62
915.99	1534.69
916.302	1518.65
916.613	1505.09
916.925	1506.9
917.236	1499.21
917.548	1506.44
917.859	1512.54
918.171	1501.25
918.482	1491.3
918.794	1493.79
919.105	1462.83
919.416	1431.42
919.727	1453.56
920.038	1465.77
920.349	1442.94
920.66	1461.7
920.971	1427.58
921.282	1425.77
921.593	1444.75
921.903	1419.89
922.214	1437.74
922.525	1427.8
922.835	1437.29
923.146	1399.1
923.456	1421.02
923.767	1390.97
924.077	1376.28
924.387	1380.35
924.697	1371.98
925.008	1362.94
925.318	1398.65
925.628	1392.77
925.938	1364.07
926.248	1370.18
926.558	1371.76
926.867	1372.44
927.177	1379.67
927.487	1369.5
927.796	1345.77
928.106	1363.17
928.416	1324.53
928.725	1340.12
929.034	1338.54
929.344	1330.4
929.653	1343.51
929.962	1342.61
930.271	1292.21
930.581	1307.35
930.89	1299.67
931.199	1282.72
931.508	1313.91
931.817	1320.01
932.125	1294.25
932.434	1283.62
932.743	1271.2
933.051	1261.93
933.36	1281.59
933.669	1256.73
933.977	1239.78
934.286	1239.78
934.594	1263.29
934.902	1248.15
935.21	1253.57
935.519	1247.24
935.827	1262.16
936.135	1240.69
936.443	1241.82
936.751	1224.42
937.059	1226
937.367	1210.41
937.674	1213.12
937.982	1201.82
938.29	1206.56
938.597	1200.46
938.905	1207.02
939.213	1187.36
939.52	1181.03
939.827	1203.4
940.135	1154.14
940.442	1169.28
940.749	1174.25
941.056	1137.87
941.363	1164.08
941.67	1165.89
941.977	1155.04
942.284	1146.45
942.591	1132.67
942.898	1156.85
943.205	1146.23
943.511	1148.71
943.818	1148.71
944.125	1126.11
944.431	1136.74
944.738	1126.11
945.044	1134.7
945.35	1120.46
945.657	1120.69
945.963	1129.73
946.269	1114.59
946.575	1096.06
946.881	1097.19
947.187	1111.43
947.493	1102.16
947.799	1078.88
948.105	1109.39
948.41	1056.51
948.716	1071.65
949.022	1081.6
949.327	1074.14
949.633	1056.29
949.938	1070.52
950.244	1079.11
950.549	1060.35
950.854	1059.68
951.16	1058.32
951.465	1051.31
951.77	1065.78
952.075	1059.45
952.38	1029.17
952.685	1030.07
952.99	1059.45
953.294	1043.86
953.599	1030.07
953.904	1013.35
954.209	1015.83
954.513	1019
954.818	1007.7
955.122	990.75
955.426	1004.31
955.731	1003.18
956.035	1002.05
956.339	976.74
956.643	989.62
956.948	984.88
957.252	963.63
957.556	997.08
957.86	964.54
958.163	958.66
958.467	979.23
958.771	971.09
959.075	962.28
959.378	967.25
959.682	958.21
959.985	962.5
960.289	966.8
960.592	930.19
960.896	947.36
961.199	939.45
961.502	947.14
961.805	930.87
962.108	933.58
962.411	910.75
962.714	949.17
963.017	917.98
963.32	937.87
963.623	928.83
963.926	907.59
964.228	913.69
964.531	911.66
964.833	917.98
965.136	926.35
965.438	910.98
965.741	885.89
966.043	902.39
966.345	897.87
966.648	934.48
966.95	892.67
967.252	884.09
967.554	896.52
967.856	877.53
968.158	885.22
968.46	863.52
968.761	889.06
969.063	874.82
969.365	863.52
969.666	884.31
969.968	874.6
970.269	843.86
970.571	844.31
970.872	839.12
971.174	849.29
971.475	848.38
971.776	866.91
972.077	850.42
972.378	835.73
972.679	834.37
972.98	854.26
973.281	826.91
973.582	831.88
973.883	820.59
974.183	827.14
974.484	837.31
974.785	836.4
975.085	807.7
975.386	832.34
975.686	810.42
975.986	814.48
976.287	826.46
976.587	809.74
976.887	814.26
977.187	799.8
977.487	819.68
977.787	801.83
978.087	806.35
978.387	797.08
978.687	789.4
978.987	797.31
979.286	781.94
979.586	781.72
979.885	778.55
980.185	758.67
980.484	775.39
980.784	774.03
981.083	768.84
981.382	768.38
981.682	781.49
981.981	762.96
982.28	779.46
982.579	752.11
982.878	745.79
983.177	779.91
983.475	752.34
983.774	761.6
984.073	767.03
984.372	747.82
984.67	738.33
984.969	722.74
985.267	758.21
985.566	756.18
985.864	725.67
986.162	741.72
986.461	716.18
986.759	727.93
987.057	734.49
987.355	729.97
987.653	719.35
987.951	715.28
988.249	710.31
988.547	740.36
988.844	732.9
989.142	714.6
989.44	685.67
989.737	708.27
990.035	718.89
990.332	717.76
990.63	680.02
990.927	694.26
991.224	707.14
991.521	705.11
991.819	710.98
992.116	694.94
992.413	701.27
992.71	679.12
993.006	699.46
993.303	708.27
993.6	679.35
993.897	694.04
994.193	689.74
994.49	701.27
994.787	671.89
995.083	691.78
995.379	681.15
995.676	678.67
995.972	658.56
996.268	682.74
996.565	681.83
996.861	661.72
997.157	667.37
997.453	661.49
997.749	625.34
998.044	642.51
998.34	648.16
998.636	670.76
998.932	656.07
999.227	644.77
999.523	655.84
999.818	645.22
1000.114	633.92
1000.409	635.05
1000.704	646.81
1001	637.99
1001.295	646.81
1001.59	635.28
1001.885	631.21
1002.18	643.64
1002.475	617.65
1002.77	620.37
1003.065	613.36
1003.359	628.27
1003.654	612
1003.949	623.3
1004.243	620.82
1004.538	618.33
1004.832	620.82
1005.127	623.53
1005.421	629.18
1005.715	617.65
1006.009	586.69
1006.304	608.84
1006.598	594.83
1006.892	601.61
1007.186	584.66
1007.48	579.46
1007.773	597.09
1008.067	582.4
1008.361	604.77
1008.655	594.83
1008.948	584.43
1009.242	594.38
1009.535	596.64
1009.829	579.69
1010.122	574.26
1010.415	564.1
1010.708	598.22
1011.001	581.72
1011.295	572.91
1011.588	579.91
1011.881	556.41
1012.173	562.74
1012.466	554.83
1012.759	555.96
1013.052	566.58
1013.344	535.17
1013.637	567.49
1013.93	560.93
1014.222	556.86
1014.514	539.24
1014.807	538.79
1015.099	548.28
1015.391	541.27
1015.683	541.95
1015.976	548.28
1016.268	538.56
1016.56	530.88
1016.851	539.69
1017.143	515.28
1017.435	512.8
1017.727	543.98
1018.018	537.2
1018.31	520.71
1018.602	531.78
1018.893	530.42
1019.185	521.16
1019.476	518.67
1019.767	510.54
1020.058	534.04
1020.35	521.84
1020.641	519.35
1020.932	523.64
1021.223	511.67
1021.514	517.09
1021.804	521.84
1022.095	495.85
1022.386	504.89
1022.677	499.01
1022.967	499.24
1023.258	499.01
1023.548	479.8
1023.839	524.32
1024.129	482.52
1024.419	503.76
1024.709	482.06
1025	496.75
1025.29	481.84
1025.58	499.92
1025.87	479.58
1026.16	491.33
1026.449	494.27
1026.739	479.58
1027.029	490.65
1027.319	477.77
1027.608	469.86
1027.898	467.83
1028.187	467.83
1028.477	485
1028.766	454.27
1029.055	472.57
1029.344	484.32
1029.634	477.77
1029.923	453.14
1030.212	471.22
1030.501	477.09
1030.79	464.21
1031.078	440.93
1031.367	471.22
1031.656	439.58
1031.945	446.81
1032.233	434.38
1032.522	443.87
1032.81	454.95
1033.099	437.54
1033.387	466.7
1033.675	461.73
1033.963	443.65
1034.251	448.17
1034.54	466.47
1034.828	445.91
1035.116	433.93
1035.403	430.09
1035.691	436.87
1035.979	462.4
1036.267	445.68
1036.554	475.06
1036.842	434.16
1037.129	427.83
1037.417	413.59
1037.704	439.8
1037.992	443.19
1038.279	428.96
1038.566	446.36
1038.853	446.36
1039.14	446.36
