Data from carpet_green_FLMS001491_00072.txt Node
Date: Wed Feb 08 10:35:49 GMT 2017
User: dcchb
Spectrometer: FLMS00149
Trigger mode: 0
Integration Time (sec): 2.000000E-2
Scans to average: 10
Electric dark correction enabled: true
Nonlinearity correction enabled: false
Boxcar width: 0
XAxis mode: Wavelengths
Number of Pixels in Spectrum: 2048
>>>>>Begin Spectral Data<<<<<
341.393	7.61
341.776	7.61
342.16	7.61
342.543	-50.92
342.927	-40.3
343.31	-62.67
343.693	-74.64
344.077	-60.18
344.46	-47.53
344.843	-69.9
345.226	-33.74
345.61	-48.43
345.993	-13.63
346.376	-0.52
346.759	11.91
347.142	28.18
347.525	53.26
347.908	52.81
348.291	69.31
348.674	90.77
349.057	105.01
349.44	118.34
349.823	149.3
350.206	173.71
350.588	188.17
350.971	199.02
351.354	224.78
351.737	232.24
352.119	240.6
352.502	238.57
352.884	261.84
353.267	271.79
353.65	280.37
354.032	281.05
354.414	283.09
354.797	296.19
355.179	290.77
355.562	281.28
355.944	298.68
356.326	307.04
356.709	315.85
357.091	304.1
357.473	327.83
357.855	313.82
358.238	307.49
358.62	303.2
359.002	310.2
359.384	305.91
359.766	329.86
360.148	316.98
360.53	316.31
360.912	297.1
361.294	304.78
361.676	311.33
362.057	303.88
362.439	319.24
362.821	295.97
363.203	312.69
363.584	306.59
363.966	303.65
364.348	308.4
364.729	305.46
365.111	299.36
365.493	297.32
365.874	292.8
366.256	299.36
366.637	290.32
367.019	302.07
367.4	305.01
367.781	297.1
368.163	289.19
368.544	302.29
368.925	282.41
369.306	296.19
369.688	306.81
370.069	300.03
370.45	281.05
370.831	290.09
371.212	283.31
371.593	284.44
371.974	273.37
372.355	293.26
372.736	301.62
373.117	293.48
373.498	308.4
373.879	298
374.26	266.14
374.641	274.27
375.021	287.61
375.402	286.25
375.783	312.46
376.163	295.51
376.544	314.72
376.925	313.14
377.305	274.5
377.686	299.36
378.066	297.32
378.447	302.29
378.827	314.72
379.208	288.74
379.588	318.57
379.968	290.32
380.349	300.03
380.729	295.06
381.109	314.5
381.489	279.02
381.87	305.68
382.25	309.07
382.63	312.46
383.01	297.55
383.39	286.48
383.77	288.06
384.15	316.98
384.53	332.8
384.91	317.66
385.29	308.4
385.67	305.23
386.049	307.72
386.429	328.96
386.809	337.77
387.189	310.88
387.568	317.21
387.948	313.14
388.328	299.58
388.707	328.06
389.087	318.11
389.466	308.85
389.846	329.64
390.225	331.45
390.605	302.75
390.984	296.87
391.363	323.54
391.743	323.99
392.122	318.11
392.501	315.85
392.881	312.46
393.26	309.75
393.639	324.44
394.018	331.22
394.397	329.86
394.776	321.05
395.155	326.25
395.534	312.69
395.913	302.75
396.292	313.82
396.671	309.98
397.05	329.86
397.429	326.25
397.808	325.57
398.186	289.41
398.565	319.69
398.944	332.35
399.323	321.05
399.701	318.79
400.08	341.16
400.458	333.03
400.837	333.93
401.215	314.27
401.594	322.86
401.972	336.64
402.351	322.41
402.729	332.35
403.107	348.62
403.486	329.41
403.864	333.48
404.242	316.53
404.62	317.89
404.999	329.86
405.377	341.16
405.755	330.09
406.133	352.24
406.511	348.62
406.889	338.68
407.267	338.45
407.645	355.63
408.023	356.53
408.401	335.51
408.779	357.66
409.156	338.68
409.534	353.14
409.912	342.29
410.29	335.74
410.667	335.29
411.045	354.72
411.422	336.42
411.8	356.3
412.178	364.89
412.555	350.65
412.933	361.73
413.31	356.98
413.687	347.72
414.065	352.91
414.442	354.95
414.819	357.66
415.197	355.63
415.574	345.46
415.951	345.01
416.328	350.43
416.705	356.76
417.082	364.89
417.46	350.88
417.837	366.02
418.214	377.32
418.591	360.37
418.967	377.09
419.344	371.22
419.721	374.83
420.098	349.07
420.475	378.9
420.852	372.57
421.228	389.07
421.605	374.83
421.982	380.26
422.358	355.4
422.735	370.32
423.111	369.64
423.488	383.2
423.864	374.16
424.241	374.61
424.617	385.68
424.994	379.58
425.37	375.06
425.746	381.39
426.123	407.38
426.499	390.2
426.875	398.11
427.251	419.58
427.627	370.32
428.003	375.06
428.379	387.72
428.756	389.98
429.132	386.81
429.507	396.53
429.883	371.9
430.259	396.76
430.635	385.23
431.011	399.47
431.387	399.24
431.763	398.79
432.138	403.31
432.514	398.11
432.89	409.18
433.265	408.96
433.641	431.1
434.016	423.65
434.392	406.92
434.767	422.29
435.143	422.52
435.518	410.31
435.894	412.12
436.269	416.19
436.644	412.8
437.02	434.04
437.395	415.74
437.77	418.22
438.145	430.65
438.52	453.7
438.895	445.12
439.271	436.53
439.646	436.75
440.021	469.97
440.395	442.63
440.77	459.8
441.145	441.95
441.52	444.44
441.895	455.51
442.27	485.34
442.645	435.85
443.019	452.12
443.394	457.54
443.769	441.73
444.143	460.26
444.518	460.93
444.892	425.45
445.267	459.8
445.641	467.71
446.016	436.08
446.39	463.42
446.764	462.74
447.139	497.32
447.513	466.36
447.887	481.05
448.262	482.63
448.636	480.59
449.01	479.46
449.384	487.15
449.758	494.83
450.132	502.74
450.506	510.65
450.88	488.05
451.254	487.37
451.628	497.77
452.002	490.76
452.376	502.06
452.75	514.49
453.123	521.5
453.497	519.69
453.871	504.32
454.244	517.2
454.618	498.9
454.992	524.21
455.365	523.53
455.739	519.92
456.112	523.98
456.486	531.21
456.859	542.06
457.232	537.54
457.606	534.6
457.979	548.39
458.352	570.54
458.725	551.33
459.099	554.49
459.472	588.84
459.845	555.62
460.218	564.43
460.591	553.81
460.964	588.84
461.337	579.8
461.71	557.65
462.083	583.64
462.456	568.28
462.829	591.1
463.201	615.51
463.574	611.89
463.947	607.6
464.32	604.89
464.692	626.35
465.065	615.05
465.438	649.86
465.81	638.33
466.183	624.09
466.555	652.12
466.928	665.67
467.3	645.56
467.672	640.59
468.045	640.59
468.417	682.85
468.789	679.91
469.161	663.64
469.534	695.5
469.906	691.21
470.278	693.92
470.65	702.96
471.022	725.79
471.394	696.18
471.766	701.15
472.138	726.01
472.51	736.86
472.882	730.76
473.253	720.59
473.625	745.45
473.997	775.73
474.369	761.94
474.74	761.94
475.112	767.14
475.484	796.07
475.855	795.61
476.227	813.69
476.598	796.97
476.97	837.42
477.341	841.94
477.713	840.59
478.084	851.43
478.455	869.51
478.827	885.1
479.198	873.8
479.569	890.75
479.94	903.86
480.311	919.91
480.682	928.27
481.053	975.95
481.424	940.02
481.795	968.04
482.166	961.49
482.537	1017.53
482.908	1025.21
483.279	1004.65
483.65	998.55
484.021	1045.55
484.391	1076.96
484.762	1071.09
485.133	1068.15
485.503	1085.32
485.874	1106.11
486.244	1104.08
486.615	1109.96
486.985	1161.71
487.356	1161.25
487.726	1161.93
488.097	1149.96
488.467	1172.78
488.837	1200.8
489.207	1228.6
489.578	1231.76
489.948	1223.4
490.318	1245.09
490.688	1244.42
491.058	1278.31
491.428	1274.25
491.798	1268.6
492.168	1296.17
492.538	1310.63
492.908	1317.18
493.278	1341.82
493.648	1347.46
494.017	1339.33
494.387	1355.15
494.757	1387.69
495.126	1390.63
495.496	1392.66
495.866	1413.68
496.235	1448.93
496.605	1423.39
496.974	1448.93
497.344	1453
497.713	1469.04
498.082	1464.75
498.452	1476.27
498.821	1482.38
499.19	1491.64
499.559	1512.43
499.928	1508.36
500.298	1524.18
500.667	1518.31
501.036	1526.89
501.405	1513.11
501.774	1547.23
502.143	1569.61
502.512	1554.46
502.88	1565.99
503.249	1598.31
503.618	1546.56
503.987	1601.02
504.356	1599.44
504.724	1586.33
505.093	1631.52
505.462	1621.58
505.83	1626.1
506.199	1637.4
506.567	1652.54
506.936	1654.8
507.304	1654.35
507.672	1677.63
508.041	1667.46
508.409	1673.56
508.777	1707
509.145	1688.92
509.514	1696.38
509.882	1728.25
510.25	1752.43
510.618	1750.17
510.986	1723.95
511.354	1731.64
511.722	1737.06
512.09	1766.89
512.458	1777.28
512.826	1762.59
513.193	1788.13
513.561	1811.86
513.929	1796.04
514.297	1812.76
514.664	1850.5
515.032	1839.2
515.4	1840.11
515.767	1823.84
516.135	1841.24
516.502	1865.87
516.869	1867
517.237	1890.28
517.604	1878.07
517.972	1916.26
518.339	1909.26
518.706	1919.88
519.073	1883.04
519.44	1903.61
519.808	1922.14
520.175	1915.81
520.542	1928.92
520.909	1949.03
521.276	1929.37
521.643	1948.13
522.009	1967.34
522.376	1989.71
522.743	2000.55
523.11	2038.97
523.477	2040.33
523.843	2033.77
524.21	2055.24
524.577	2043.72
524.943	2082.81
525.31	2084.62
525.676	2073.1
526.043	2114.22
526.409	2110.16
526.776	2111.74
527.142	2102.25
527.508	2122.59
527.874	2121.46
528.241	2156.03
528.607	2146.31
528.973	2144.73
529.339	2163.04
529.705	2162.81
530.071	2187.22
530.437	2187.67
530.803	2186.99
531.169	2187.22
531.535	2226.76
531.901	2198.52
532.267	2239.87
532.632	2203.04
532.998	2198.06
533.364	2244.84
533.73	2250.72
534.095	2215.24
534.461	2224.73
534.826	2238.29
535.192	2211.17
535.557	2259.98
535.923	2232.41
536.288	2271.96
536.653	2293.88
537.019	2261.34
537.384	2252.3
537.749	2271.28
538.114	2268.8
538.479	2274.9
538.845	2278.51
539.21	2293.65
539.575	2284.39
539.94	2287.55
540.305	2268.57
540.67	2290.26
541.034	2290.49
541.399	2263.37
541.764	2292.52
542.129	2310.83
542.494	2287.1
542.858	2317.38
543.223	2271.06
543.587	2326.65
543.952	2325.74
544.316	2314.22
544.681	2303.6
545.045	2335.24
545.41	2330.04
545.774	2369.58
546.138	2364.84
546.503	2332.07
546.867	2348.34
547.231	2344.73
547.595	2328
547.959	2337.5
548.324	2339.08
548.688	2339.3
549.052	2369.81
549.416	2342.24
549.779	2344.73
550.143	2351.05
550.507	2386.99
550.871	2368.68
551.235	2393.09
551.599	2398.74
551.962	2396.48
552.326	2420.88
552.689	2374.56
553.053	2350.6
553.417	2399.87
553.78	2406.19
554.143	2398.28
554.507	2430.83
554.87	2366.87
555.234	2409.13
555.597	2437.83
555.96	2427.44
556.323	2404.61
556.686	2464.95
557.05	2424.95
557.413	2443.71
557.776	2454.55
558.139	2475.12
558.502	2470.82
558.865	2458.17
559.228	2477.6
559.59	2454.55
559.953	2496.81
560.316	2510.82
560.679	2484.61
561.041	2500.43
561.404	2508.56
561.767	2511.5
562.129	2503.14
562.492	2529.81
562.854	2526.42
563.217	2554.44
563.579	2561.44
563.941	2562.12
564.304	2561.67
564.666	2575.23
565.028	2594.44
565.39	2570.94
565.753	2608.67
566.115	2571.61
566.477	2571.61
566.839	2587.88
567.201	2609.35
567.563	2642.57
567.925	2650.48
568.287	2616.58
568.648	2576.36
569.01	2631.27
569.372	2633.98
569.734	2622.01
570.095	2639.41
570.457	2651.16
570.819	2683.7
571.18	2660.88
571.542	2678.73
571.903	2633.98
572.265	2612.74
572.626	2667.2
572.987	2653.19
573.349	2653.64
573.71	2674.66
574.071	2650.93
574.432	2624.72
574.794	2705.85
575.155	2660.42
575.516	2641.22
575.877	2689.35
576.238	2666.53
576.599	2673.98
576.96	2709.69
577.32	2655.45
577.681	2665.17
578.042	2693.19
578.403	2664.27
578.763	2655.45
579.124	2674.44
579.485	2640.76
579.845	2704.04
580.206	2658.62
580.566	2665.4
580.927	2661.33
581.287	2664.04
581.648	2682.57
582.008	2677.37
582.368	2663.81
582.728	2634.89
583.089	2631.27
583.449	2649.13
583.809	2657.71
584.169	2647.77
584.529	2621.56
584.889	2642.12
585.249	2581.33
585.609	2597.15
585.969	2598.96
586.329	2620.2
586.688	2621.1
587.048	2613.42
587.408	2636.24
587.768	2581.78
588.127	2603.7
588.487	2583.59
588.846	2632.4
589.206	2621.33
589.565	2562.57
589.925	2607.09
590.284	2604.38
590.643	2615.68
591.003	2583.36
591.362	2612.06
591.721	2559.18
592.08	2603.93
592.44	2567.55
592.799	2567.32
593.158	2602.8
593.517	2557.6
593.876	2586.3
594.235	2576.13
594.593	2588.79
594.952	2608.67
595.311	2585.85
595.67	2595.12
596.029	2631.5
596.387	2589.92
596.746	2605.51
597.104	2567.09
597.463	2596.25
597.822	2591.95
598.18	2593.08
598.538	2557.38
598.897	2601.22
599.255	2572.07
599.613	2608.22
599.972	2585.4
600.33	2589.92
600.688	2598.73
601.046	2588.56
601.404	2601.89
601.762	2598.28
602.12	2622.69
602.478	2585.62
602.836	2573.2
603.194	2595.79
603.552	2613.65
603.91	2633.76
604.268	2600.09
604.625	2574.78
604.983	2596.7
605.341	2602.8
605.698	2643.93
606.056	2651.84
606.413	2636.7
606.771	2622.91
607.128	2601.22
607.485	2592.63
607.843	2596.47
608.2	2643.7
608.557	2636.7
608.914	2640.76
609.272	2653.19
609.629	2654.77
609.986	2632.85
610.343	2676.02
610.7	2683.02
611.057	2650.93
611.414	2657.03
611.771	2679.63
612.127	2654.1
612.484	2665.62
612.841	2685.06
613.198	2668.79
613.554	2689.58
613.911	2683.25
614.267	2671.05
614.624	2651.84
614.98	2676.92
615.337	2714.21
615.693	2691.16
616.05	2699.52
616.406	2698.84
616.762	2674.21
617.118	2723.47
617.475	2700.88
617.831	2721.89
618.187	2696.58
618.543	2718.28
618.899	2718.05
619.255	2730.25
619.611	2734.09
619.967	2706.75
620.323	2706.75
620.678	2734.32
621.034	2706.07
621.39	2687.32
621.746	2706.3
622.101	2708.56
622.457	2706.98
622.812	2723.02
623.168	2714.21
623.523	2737.94
623.879	2728.45
624.234	2683.25
624.589	2744.04
624.945	2764.6
625.3	2739.52
625.655	2739.97
626.01	2698.84
626.365	2696.58
626.72	2700.65
627.075	2657.71
627.43	2676.02
627.785	2686.41
628.14	2723.93
628.495	2711.5
628.85	2725.06
629.205	2707.2
629.559	2696.36
629.914	2705.17
630.269	2688.9
630.623	2702.23
630.978	2695.23
631.332	2684.83
631.687	2695.45
632.041	2705.17
632.396	2693.42
632.75	2667.88
633.104	2693.87
633.459	2679.18
633.813	2641.89
634.167	2695
634.521	2695
634.875	2694.55
635.229	2670.82
635.583	2640.09
635.937	2674.44
636.291	2691.16
636.645	2675.79
636.999	2652.52
637.352	2670.82
637.706	2637.6
638.06	2690.25
638.413	2678.73
638.767	2654.32
639.121	2636.24
639.474	2621.33
639.828	2687.77
640.181	2659.29
640.534	2697.26
640.888	2676.47
641.241	2676.24
641.594	2668.56
641.947	2668.56
642.301	2611.84
642.654	2657.71
643.007	2693.42
643.36	2642.35
643.713	2674.89
644.066	2662.91
644.419	2676.92
644.771	2702.46
645.124	2646.64
645.477	2656.36
645.83	2641.44
646.182	2623.36
646.535	2643.48
646.888	2642.35
647.24	2629.46
647.593	2669.69
647.945	2677.83
648.298	2653.42
648.65	2671.05
649.002	2622.46
649.355	2697.94
649.707	2684.38
650.059	2638.28
650.411	2700.88
650.763	2671.5
651.115	2763.92
651.467	2768.22
651.819	2730.93
652.171	2763.02
652.523	2745.17
652.875	2793.53
653.227	2788.33
653.578	2775.9
653.93	2822.68
654.282	2804.15
654.633	2777.26
654.985	2826.75
655.337	2812.51
655.688	2855.67
656.039	2840.98
656.391	2840.08
656.742	2882.34
657.094	2870.59
657.445	2864.71
657.796	2878.5
658.147	2904.94
658.498	2915.33
658.849	2925.5
659.2	2903.36
659.551	2935.22
659.902	2949.91
660.253	2962.56
660.604	2948.33
660.955	2963.02
661.306	2971.15
661.656	3010.7
662.007	3017.7
662.358	2993.75
662.708	3048.44
663.059	3074.42
663.409	3045.5
663.76	3101.09
664.11	3100.41
664.461	3111.71
664.811	3132.73
665.161	3152.16
665.511	3116.91
665.862	3165.5
666.212	3215.66
666.562	3228.77
666.912	3231.26
667.262	3212.95
667.612	3235.55
667.962	3292.05
668.312	3300.18
668.662	3311.93
669.011	3352.61
669.361	3317.81
669.711	3365.72
670.06	3360.29
670.41	3343.34
670.76	3412.95
671.109	3418.82
671.459	3429.22
671.808	3474.41
672.157	3498.37
672.507	3463.79
672.856	3500.18
673.205	3505.15
673.554	3553.06
673.904	3599.16
674.253	3585.15
674.602	3619.95
674.951	3604.35
675.3	3573.17
675.649	3677.35
675.998	3694.3
676.346	3699.27
676.695	3763.45
677.044	3726.84
677.393	3734.07
677.741	3820.39
678.09	3798.47
678.438	3820.17
678.787	3867.17
679.135	3848.42
679.484	3823.56
679.832	3909.88
680.181	3906.95
680.529	3924.35
680.877	3987.17
681.225	3963.89
681.573	4031.46
681.922	4017.9
682.27	4049.99
682.618	4078.69
682.966	4098.58
683.314	4105.13
683.661	4140.84
684.009	4185.13
684.357	4143.32
684.705	4188.29
685.053	4214.51
685.4	4221.74
685.748	4226.94
686.095	4249.08
686.443	4297.9
686.79	4290.66
687.138	4348.97
687.485	4339.02
687.832	4390.1
688.18	4412.02
688.527	4435.97
688.874	4438.68
689.221	4455.41
689.568	4439.59
689.915	4490.43
690.262	4531.11
690.609	4522.07
690.956	4536.31
691.303	4536.08
691.65	4591.22
691.997	4614.27
692.344	4610.88
692.69	4635.29
693.037	4673.03
693.383	4645.46
693.73	4702.4
694.077	4706.47
694.423	4722.07
694.769	4774.04
695.116	4779.92
695.462	4736.98
695.808	4802.29
696.155	4835.73
696.501	4816.3
696.847	4859.91
697.193	4850.88
697.539	4885
697.885	4891.78
698.231	4892.68
698.577	4949.63
698.923	4936.3
699.269	4906.92
699.614	4946.47
699.96	5017.42
700.306	5048.61
700.651	5021.72
700.997	5051.77
701.342	5078.89
701.688	5072.34
702.033	5049.06
702.379	5124.99
702.724	5086.12
703.069	5146.01
703.415	5068.95
703.76	5125.44
704.105	5211.77
704.45	5218.55
704.795	5225.33
705.14	5225.1
705.485	5212.22
705.83	5231.2
706.175	5313.24
706.52	5297.64
706.865	5262.39
707.209	5314.59
707.554	5347.81
707.899	5379.45
708.243	5387.58
708.588	5364.31
708.932	5343.97
709.277	5406.34
709.621	5394.14
709.966	5388.26
710.31	5407.02
710.654	5389.84
710.998	5459.67
711.342	5507.13
711.687	5451.31
712.031	5462.84
712.375	5458.32
712.719	5502.84
713.063	5504.42
713.407	5546.9
713.75	5545.09
714.094	5551.87
714.438	5529.28
714.782	5594.81
715.125	5577.64
715.469	5640.01
715.812	5584.64
716.156	5587.81
716.499	5572.89
716.843	5636.62
717.186	5622.83
717.53	5631.87
717.873	5628.48
718.216	5701.7
718.559	5644.07
718.902	5703.51
719.246	5697.41
719.589	5728.14
719.932	5705.54
720.275	5715.49
720.617	5687.92
720.96	5750.74
721.303	5792.55
721.646	5709.16
721.989	5711.42
722.331	5753.45
722.674	5781.47
723.016	5806.33
723.359	5770.85
723.701	5792.55
724.044	5764.07
724.386	5759.78
724.729	5769.04
725.071	5750.51
725.413	5755.26
725.755	5831.41
726.097	5782.38
726.439	5737.18
726.782	5772.21
727.124	5832.09
727.465	5810.17
727.807	5790.51
728.149	5825.31
728.491	5756.61
728.833	5824.18
729.175	5804.52
729.516	5809.95
729.858	5765.43
730.199	5873.67
730.541	5875.48
730.882	5819.66
731.224	5855.82
731.565	5858.08
731.906	5805.2
732.248	5814.01
732.589	5779.66
732.93	5810.4
733.271	5827.12
733.612	5851.3
733.953	5832.54
734.294	5811.75
734.635	5785.99
734.976	5931.3
735.317	5833.67
735.658	5832.54
735.999	5818.76
736.339	5812.43
736.68	5820.79
737.021	5828.93
737.361	5757.52
737.702	5833.45
738.042	5827.57
738.383	5787.8
738.723	5827.8
739.063	5802.49
739.404	5837.06
739.744	5815.14
740.084	5778.08
740.424	5852.2
740.764	5811.3
741.104	5821.02
741.444	5808.14
741.784	5809.49
742.124	5796.61
742.464	5732.43
742.804	5788.93
743.143	5745.77
743.483	5785.09
743.823	5771.08
744.162	5770.63
744.502	5771.76
744.841	5741.02
745.181	5748.03
745.52	5715.49
745.86	5745.32
746.199	5770.4
746.538	5694.47
746.877	5713.68
747.216	5741.25
747.556	5719.1
747.895	5709.38
748.234	5715.26
748.573	5652.66
748.911	5668.25
749.25	5663.96
749.589	5670.29
749.928	5670.51
750.267	5627.13
750.605	5632.55
750.944	5622.61
751.283	5626.67
751.621	5593
751.96	5629.84
752.298	5578.77
752.636	5589.84
752.975	5581.93
753.313	5536.73
753.651	5557.52
753.989	5574.7
754.327	5557.3
754.666	5555.26
755.004	5541.25
755.342	5554.36
755.679	5529.5
756.017	5458.32
756.355	5479.56
756.693	5478.88
757.031	5529.28
757.368	5452.89
757.706	5466.68
758.044	5449.05
758.381	5401.37
758.719	5372.9
759.056	5392.1
759.394	5464.64
759.731	5372.44
760.068	5387.36
760.405	5309.17
760.743	5314.14
761.08	5282.28
761.417	5315.04
761.754	5322.05
762.091	5295.16
762.428	5258.1
762.765	5232.11
763.102	5216.52
763.438	5219.91
763.775	5204.09
764.112	5175.84
764.449	5220.58
764.785	5208.38
765.122	5168.61
765.458	5078.89
765.795	5077.76
766.131	5132.22
766.467	5110.3
766.804	5043.41
767.14	5034.37
767.476	5057.2
767.812	5038.89
768.148	5046.12
768.485	5064.88
768.821	5034.37
769.157	5044.54
769.492	5017.88
769.828	4938.1
770.164	4933.58
770.5	4916.41
770.836	4932
771.171	4917.31
771.507	4891.55
771.842	4878.22
772.178	4838.9
772.513	4870.76
772.849	4877.32
773.184	4807.49
773.519	4798.67
773.855	4797.32
774.19	4796.19
774.525	4731.33
774.86	4776.07
775.195	4696.3
775.53	4712.12
775.865	4670.54
776.2	4658.79
776.535	4645.91
776.87	4646.13
777.205	4648.85
777.539	4621.5
777.874	4607.04
778.209	4560.94
778.543	4564.33
778.878	4570.2
779.212	4565.69
779.547	4512.13
779.881	4521.39
780.215	4490.21
780.55	4508.96
780.884	4431.23
781.218	4461.73
781.552	4482.52
781.886	4428.74
782.22	4455.41
782.554	4411.11
782.888	4400.04
783.222	4355.3
783.556	4423.77
783.889	4313.26
784.223	4306.26
784.557	4303.09
784.89	4330.66
785.224	4312.36
785.557	4185.81
785.891	4247.28
786.224	4210.67
786.558	4212.47
786.891	4187.16
787.224	4149.88
787.557	4208.18
787.891	4181.06
788.224	4222.87
788.557	4178.8
788.89	4141.52
789.223	4115.75
789.556	4126.37
789.888	4127.28
790.221	4107.17
790.554	4089.99
790.887	4073.04
791.219	4051.35
791.552	4086.38
791.884	4036.43
792.217	4015.87
792.549	4031.24
792.882	3979.71
793.214	3953.5
793.546	3951.01
793.879	3960.05
794.211	3919.83
794.543	3950.33
794.875	3872.6
795.207	3960.28
795.539	3893.84
795.871	3867.85
796.203	3862.2
796.535	3870.11
796.867	3848.42
797.198	3837.34
797.53	3852.03
797.862	3834.63
798.193	3798.7
798.525	3807.96
798.856	3796.89
799.188	3782.88
799.519	3753.28
799.85	3736.78
800.182	3762.77
800.513	3735.88
800.844	3704.01
801.175	3729.32
801.506	3754.63
801.837	3680.06
802.168	3696.33
802.499	3692.71
802.83	3661.75
803.161	3636.67
803.491	3670.79
803.822	3649.78
804.153	3648.2
804.483	3606.61
804.814	3566.84
805.145	3611.81
805.475	3557.12
805.805	3587.41
806.136	3589.21
806.466	3571.81
806.796	3588.54
807.126	3525.26
807.457	3516.9
807.787	3534.07
808.117	3521.87
808.447	3472.83
808.777	3495.66
809.107	3504.92
809.436	3483.23
809.766	3496.33
810.096	3493.4
810.426	3447.52
810.755	3481.65
811.085	3398.94
811.414	3444.13
811.744	3399.61
812.073	3412.04
812.403	3398.48
812.732	3375.43
813.061	3381.76
813.39	3353.97
813.719	3376.34
814.049	3369.11
814.378	3346.06
814.707	3370.91
815.036	3357.36
815.365	3320.29
815.693	3299.05
816.022	3292.95
816.351	3286.85
816.68	3283.46
817.008	3312.16
817.337	3262.44
817.665	3278.94
817.994	3304.02
818.322	3205.27
818.651	3232.61
818.979	3218.6
819.307	3282.55
819.636	3224.25
819.964	3199.62
820.292	3253.18
820.62	3209.11
820.948	3201.65
821.276	3220.64
821.604	3209.56
821.932	3239.17
822.259	3238.26
822.587	3242.33
822.915	3224.7
823.243	3222.67
823.57	3199.85
823.898	3213.18
824.225	3167.98
824.553	3202.56
824.88	3204.82
825.207	3190.35
825.535	3217.7
825.862	3213.18
826.189	3208.88
826.516	3211.14
826.843	3236.68
827.17	3244.14
827.497	3208.43
827.824	3202.78
828.151	3207.3
828.478	3232.84
828.805	3203.01
829.131	3182.67
829.458	3210.24
829.785	3222.22
830.111	3198.49
830.438	3219.96
830.764	3188.55
831.09	3206.85
831.417	3179.96
831.743	3181.31
832.069	3202.33
832.395	3208.66
832.722	3208.21
833.048	3202.78
833.374	3189
833.7	3172.5
834.026	3165.95
834.351	3217.47
834.677	3193.97
835.003	3161.43
835.329	3181.99
835.654	3162.33
835.98	3201.43
836.306	3163.01
836.631	3168.66
836.956	3150.36
837.282	3174.54
837.607	3131.37
837.932	3158.49
838.258	3103.8
838.583	3122.79
838.908	3094.09
839.233	3063.8
839.558	3145.38
839.883	3128.66
840.208	3104.03
840.533	3123.69
840.858	3106.29
841.182	3110.58
841.507	3092.73
841.832	3061.32
842.156	3076.46
842.481	3061.32
842.805	3081.43
843.13	3081.2
843.454	3067.42
843.778	3080.98
844.103	3043.01
844.427	3040.08
844.751	3045.05
845.075	3038.95
845.399	3035.1
845.723	3006.4
846.047	3000.3
846.371	2981.77
846.695	2997.82
847.019	2975.9
847.343	2986.07
847.666	2967.53
847.99	2895.9
848.313	2930.7
848.637	2890.47
848.96	2903.13
849.284	2888.67
849.607	2871.04
849.931	2884.15
850.254	2871.49
850.577	2822.23
850.9	2850.93
851.223	2816.35
851.546	2793.3
851.869	2794.66
852.192	2801.66
852.515	2784.94
852.838	2768.9
853.161	2791.95
853.483	2733.42
853.806	2770.93
854.129	2743.36
854.451	2748.11
854.774	2722.12
855.096	2724.38
855.419	2723.25
855.741	2727.77
856.063	2697.26
856.385	2674.66
856.708	2742.91
857.03	2685.96
857.352	2682.8
857.674	2627.2
857.996	2674.89
858.318	2659.29
858.64	2629.01
858.961	2622.91
859.283	2605.74
859.605	2631.95
859.926	2647.09
860.248	2592.63
860.57	2599.64
860.891	2608.45
861.212	2587.66
861.534	2598.51
861.855	2593.31
862.176	2585.17
862.498	2569.81
862.819	2590.37
863.14	2570.26
863.461	2590.37
863.782	2570.03
864.103	2584.27
864.424	2519.19
864.745	2572.97
865.065	2534.33
865.386	2572.97
865.707	2558.51
866.027	2540.88
866.348	2546.53
866.668	2552.4
866.989	2521.67
867.309	2489.81
867.63	2517.6
867.95	2523.48
868.27	2468.11
868.59	2528
868.91	2496.81
869.23	2496.81
869.55	2503.14
869.87	2485.51
870.19	2494.78
870.51	2473.76
870.83	2475.34
871.15	2441.9
871.469	2473.76
871.789	2476.47
872.109	2451.16
872.428	2465.4
872.748	2463.14
873.067	2434.89
873.386	2464.72
873.706	2427.21
874.025	2434.44
874.344	2437.61
874.663	2448.23
874.982	2414.33
875.301	2430.6
875.62	2418.4
875.939	2414.78
876.258	2423.14
876.577	2414.78
876.896	2420.2
877.214	2403.71
877.533	2434.22
877.852	2394.22
878.17	2418.4
878.489	2394.89
878.807	2405.06
879.125	2374.33
879.444	2396.93
879.762	2370.26
880.08	2350.6
880.398	2394.67
880.716	2368
881.034	2347.44
881.352	2311.28
881.67	2342.69
881.988	2349.92
882.306	2370.71
882.624	2332.98
882.941	2349.25
883.259	2335.46
883.577	2319.42
883.894	2331.17
884.212	2298.63
884.529	2317.16
884.846	2337.72
885.164	2304.28
885.481	2295.91
885.798	2297.27
886.115	2282.13
886.432	2304.73
886.75	2271.51
887.067	2288
887.383	2271.96
887.7	2309.93
888.017	2275.58
888.334	2278.97
888.651	2275.58
888.967	2259.08
889.284	2222.92
889.6	2225.63
889.917	2200.32
890.233	2251.17
890.55	2202.81
890.866	2235.35
891.182	2192.19
891.498	2189.7
891.815	2193.54
892.131	2206.2
892.447	2212.3
892.763	2188.12
893.079	2179.31
893.395	2186.76
893.71	2163.49
894.026	2201
894.342	2164.62
894.657	2172.53
894.973	2152.87
895.289	2143.38
895.604	2146.31
895.92	2124.39
896.235	2150.83
896.55	2112.19
896.865	2121.46
897.181	2115.81
897.496	2100.89
897.811	2090.04
898.126	2101.8
898.441	2098.86
898.756	2073.77
899.071	2068.12
899.386	2040.55
899.7	2095.69
900.015	2078.74
900.33	2027.67
900.644	2046.2
900.959	2044.17
901.273	2019.31
901.588	2013.44
901.902	2011.4
902.216	2032.42
902.531	1989.93
902.845	1981.8
903.159	1999.2
903.473	2002.36
903.787	1996.94
904.101	1999.2
904.415	1991.74
904.729	1975.24
905.042	1950.61
905.356	1936.83
905.67	1960.1
905.984	1950.39
906.297	1968.24
906.611	1888.02
906.924	1935.02
907.237	1921.91
907.551	1933.66
907.864	1894.34
908.177	1888.47
908.491	1883.95
908.804	1913.78
909.117	1890.5
909.43	1851.18
909.743	1858.19
910.056	1851.86
910.368	1853.21
910.681	1844.63
910.994	1833.55
911.307	1818.86
911.619	1806.89
911.932	1841.46
912.244	1820.67
912.557	1809.83
912.869	1816.6
913.181	1765.08
913.494	1739.32
913.806	1791.52
914.118	1779.09
914.43	1741.35
914.742	1748.58
915.054	1770.73
915.366	1737.28
915.678	1740.45
915.99	1714.91
916.302	1717.62
916.613	1724.63
916.925	1721.69
917.236	1741.13
917.548	1702.94
917.859	1702.71
918.171	1685.76
918.482	1694.57
918.794	1695.48
919.105	1673.56
919.416	1667.91
919.727	1683.05
920.038	1653.67
920.349	1634.24
920.66	1628.14
920.971	1646.44
921.282	1616.84
921.593	1614.35
921.903	1620
922.214	1609.83
922.525	1614.8
922.835	1631.3
923.146	1624.52
923.456	1597.18
923.767	1575.03
924.077	1617.51
924.387	1597.18
924.697	1603.05
925.008	1568.02
925.318	1554.46
925.628	1612.09
925.938	1568.7
926.248	1570.06
926.558	1560.79
926.867	1547.91
927.177	1524.64
927.487	1568.02
927.796	1522.15
928.106	1485.31
928.416	1527.8
928.725	1532.32
929.034	1525.09
929.344	1491.87
929.653	1504.97
929.962	1500.23
930.271	1483.73
930.581	1469.95
930.89	1506.56
931.199	1456.61
931.508	1480.12
931.817	1455.48
932.125	1462.72
932.434	1453.45
932.743	1444.19
933.051	1455.94
933.36	1416.16
933.669	1463.39
933.977	1420.68
934.286	1422.26
934.594	1415.94
934.902	1426.78
935.21	1427.69
935.519	1354.7
935.827	1357.63
936.135	1406.22
936.443	1358.76
936.751	1375.26
937.059	1389.27
937.367	1385.43
937.674	1373
937.982	1351.31
938.29	1365.09
938.597	1364.87
938.905	1355.6
939.213	1346.33
939.52	1344.53
939.827	1320.12
940.135	1333.45
940.442	1337.07
940.749	1317.86
941.056	1308.6
941.363	1325.54
941.67	1303.62
941.977	1294.36
942.284	1293.68
942.591	1311.08
942.898	1297.3
943.205	1273.12
943.511	1288.48
943.818	1286
944.125	1264.08
944.431	1290.74
944.738	1258.2
945.044	1282.16
945.35	1278.09
945.657	1248.03
945.963	1253.91
946.269	1247.81
946.575	1246.68
946.881	1260.69
947.187	1233.12
947.493	1253.23
947.799	1215.72
948.105	1240.8
948.41	1234.02
948.716	1219.56
949.022	1222.72
949.327	1199.22
949.633	1180.69
949.938	1200.12
950.244	1213.46
950.549	1198.09
950.854	1195.83
951.16	1193.12
951.465	1203.74
951.77	1188.15
952.075	1164.64
952.38	1199.22
952.685	1184.31
952.99	1166
953.294	1146.11
953.599	1168.71
953.904	1171.2
954.209	1150.86
954.513	1137.3
954.818	1135.72
955.122	1122.84
955.426	1134.14
955.731	1108.15
956.035	1108.6
956.339	1142.05
956.643	1093.69
956.948	1108.83
957.252	1083.97
957.556	1112.44
957.86	1123.52
958.163	1103.86
958.467	1069.28
958.771	1091.43
959.075	1127.13
959.378	1067.7
959.682	1066.57
959.985	1114.25
960.289	1086.23
960.592	1107.47
960.896	1075.83
961.199	1064.53
961.502	1075.38
961.805	1076.96
962.108	1052.11
962.411	1048.04
962.714	1049.17
963.017	1068.15
963.32	1050.75
963.623	1031.99
963.926	1018.43
964.228	1007.13
964.531	1015.72
964.833	1012.33
965.136	1014.37
965.438	1011.88
965.741	1013.91
966.043	1012.56
966.345	1030.86
966.648	1014.37
966.95	1005.55
967.252	999.45
967.554	986.12
967.856	987.02
968.158	973.01
968.46	982.28
968.761	1017.53
969.063	997.19
969.365	973.24
969.666	985.89
969.968	961.71
970.269	950.86
970.571	944.54
970.872	954.25
971.174	968.94
971.475	953.8
971.776	935.95
972.077	956.06
972.378	958.77
972.679	926.91
972.98	937.31
973.281	932.33
973.582	926.23
973.883	935.27
974.183	905.89
974.484	918.78
974.785	906.35
975.085	898.66
975.386	920.36
975.686	916.29
975.986	905.22
976.287	904.31
976.587	911.32
976.887	904.09
977.187	883.75
977.487	915.84
977.787	892.56
978.087	886.46
978.387	897.76
978.687	879.23
978.987	878.55
979.286	883.07
979.586	886.91
979.885	884.65
980.185	862.96
980.484	875.61
980.784	862.96
981.083	870.64
981.382	863.64
981.682	867.25
981.981	860.25
982.28	880.81
982.579	860.7
982.878	874.26
983.177	847.82
983.475	834.03
983.774	852.11
984.073	813.47
984.372	841.26
984.67	832.45
984.969	829.29
985.267	816.86
985.566	807.37
985.864	847.14
986.162	821.15
986.461	792
986.759	834.03
987.057	817.99
987.355	809.4
987.653	816.18
987.951	802.39
988.249	816.86
988.547	782.73
988.844	772.34
989.142	800.13
989.44	785.9
989.737	795.39
990.035	779.12
990.332	787.71
990.63	775.05
990.927	786.35
991.224	771.21
991.521	778.67
991.819	779.12
992.116	797.87
992.413	767.59
992.71	726.46
993.006	746.12
993.303	744.32
993.6	772.79
993.897	763.98
994.193	773.02
994.49	734.15
994.787	746.35
995.083	748.38
995.379	762.17
995.676	738.89
995.972	706.8
996.268	738.89
996.565	747.25
996.861	716.75
997.157	725.79
997.453	729.4
997.749	746.35
998.044	715.39
998.34	704.09
998.636	727.59
998.932	725.56
999.227	711.55
999.523	731.89
999.818	728.27
1000.114	693.92
1000.409	704.32
1000.704	708.39
1001	680.82
1001.295	677.88
1001.59	695.73
1001.885	697.31
1002.18	720.59
1002.475	681.95
1002.77	670.42
1003.065	661.83
1003.359	675.62
1003.654	702.28
1003.949	663.19
1004.243	665.45
1004.538	667.03
1004.832	659.35
1005.127	679.46
1005.421	671.78
1005.715	649.18
1006.009	668.61
1006.304	662.51
1006.598	640.82
1006.892	663.41
1007.186	664.77
1007.48	640.36
1007.773	643.3
1008.067	633.13
1008.361	662.28
1008.655	637.88
1008.948	624.32
1009.242	636.07
1009.535	640.82
1009.829	621.38
1010.122	615.28
1010.415	647.14
1010.708	619.35
1011.001	642.62
1011.295	613.92
1011.588	625.9
1011.881	633.36
1012.173	599.91
1012.466	612.79
1012.759	606.24
1013.052	597.65
1013.344	626.13
1013.637	620.03
1013.93	603.3
1014.222	590.87
1014.514	608.27
1014.807	600.82
1015.099	596.07
1015.391	590.87
1015.683	578.9
1015.976	603.08
1016.268	590.42
1016.56	584.32
1016.851	578.45
1017.143	587.26
1017.435	572.8
1017.727	588.16
1018.018	589.97
1018.31	583.19
1018.602	552.68
1018.893	555.85
1019.185	563.98
1019.476	567.15
1019.767	567.82
1020.058	567.82
1020.35	537.99
1020.641	548.62
1020.932	565.79
1021.223	546.13
1021.514	555.17
1021.804	549.75
1022.095	528.05
1022.386	547.49
1022.677	546.81
1022.967	548.16
1023.258	547.03
1023.548	530.08
1023.839	546.13
1024.129	537.99
1024.419	530.54
1024.709	521.5
1025	543.42
1025.29	533.47
1025.58	509.52
1025.87	525.11
1026.16	514.49
1026.449	525.34
1026.739	512.23
1027.029	515.85
1027.319	519.92
1027.608	517.88
1027.898	540.71
1028.187	512.23
1028.477	525.11
1028.766	504.32
1029.055	484.21
1029.344	515.85
1029.634	511.55
1029.923	504.77
1030.212	505
1030.501	506.13
1030.79	504.77
1031.078	497.77
1031.367	471.78
1031.656	477.88
1031.945	480.59
1032.233	486.02
1032.522	488.96
1032.81	481.27
1033.099	502.29
1033.387	485.34
1033.675	497.09
1033.963	455.28
1034.251	494.38
1034.54	482.63
1034.828	462.29
1035.116	465.68
1035.403	475.4
1035.691	479.24
1035.979	488.5
1036.267	449.86
1036.554	453.7
1036.842	464.1
1037.129	453.25
1037.417	439.69
1037.704	460.93
1037.992	470.65
1038.279	429.75
1038.566	453.02
1038.853	453.02
1039.14	453.02
