Data from carpet_green_FLMS001491_00007.txt Node
Date: Wed Feb 08 10:34:48 GMT 2017
User: dcchb
Spectrometer: FLMS00149
Trigger mode: 0
Integration Time (sec): 2.000000E-2
Scans to average: 10
Electric dark correction enabled: true
Nonlinearity correction enabled: false
Boxcar width: 0
XAxis mode: Wavelengths
Number of Pixels in Spectrum: 2048
>>>>>Begin Spectral Data<<<<<
341.393	-5.56
341.776	-5.56
342.16	-5.56
342.543	-59.12
342.927	-62.51
343.31	-73.36
343.693	-83.98
344.077	-58.9
344.46	-68.84
344.843	-44.66
345.226	-43.76
345.61	-33.59
345.993	-19.58
346.376	-5.56
346.759	19.29
347.142	28.56
347.525	19.97
347.908	72.63
348.291	74.66
348.674	100.2
349.057	116.92
349.44	110.82
349.823	142.68
350.206	169.12
350.588	167.99
350.971	179.52
351.354	205.28
351.737	206.86
352.119	217.71
352.502	249.34
352.884	255.22
353.267	251.15
353.65	282.11
354.032	270.13
354.414	286.18
354.797	271.26
355.179	289.57
355.562	289.79
355.944	311.04
356.326	305.84
356.709	309.46
357.091	314.65
357.473	321.66
357.855	311.26
358.238	318.49
358.62	321.43
359.002	310.13
359.384	306.97
359.766	322.11
360.148	296.8
360.53	311.94
360.912	301.09
361.294	294.54
361.676	275.56
362.057	294.77
362.439	317.14
362.821	277.59
363.203	297.7
363.584	290.02
363.966	290.92
364.348	290.02
364.729	288.21
365.111	280.3
365.493	285.5
365.874	303.13
366.256	280.53
366.637	287.99
367.019	287.53
367.4	271.72
367.781	285.73
368.163	285.73
368.544	287.99
368.925	274.2
369.306	264.48
369.688	272.85
370.069	270.81
370.45	280.08
370.831	279.63
371.212	287.99
371.593	285.73
371.974	286.4
372.355	280.3
372.736	280.53
373.117	288.66
373.498	296.57
373.879	266.52
374.26	297.25
374.641	279.85
375.021	287.99
375.402	285.73
375.783	265.39
376.163	286.86
376.544	276.91
376.925	275.11
377.305	287.08
377.686	277.37
378.066	287.08
378.447	302
378.827	284.37
379.208	282.79
379.588	282.79
379.968	278.5
380.349	262
380.729	297.7
381.109	301.09
381.489	283.69
381.87	299.51
382.25	287.76
382.63	290.92
383.01	279.17
383.39	282.11
383.77	291.15
384.15	280.08
384.53	299.29
384.91	290.25
385.29	301.55
385.67	290.7
386.049	280.08
386.429	301.55
386.809	296.35
387.189	301.55
387.568	270.81
387.948	297.48
388.328	292.28
388.707	277.82
389.087	314.43
389.466	309
389.846	295.9
390.225	297.7
390.605	306.52
390.984	296.35
391.363	299.06
391.743	285.73
392.122	278.5
392.501	298.16
392.881	319.85
393.26	304.94
393.639	303.35
394.018	286.86
394.397	300.64
394.776	309.91
395.155	307.87
395.534	313.3
395.913	294.99
396.292	317.36
396.671	310.59
397.05	307.42
397.429	303.81
397.808	301.77
398.186	309.46
398.565	302.22
398.944	304.71
399.323	301.32
399.701	316.23
400.08	305.39
400.458	330.47
400.837	314.88
401.215	318.72
401.594	306.97
401.972	319.17
402.351	303.58
402.729	303.81
403.107	301.09
403.486	323.69
403.864	303.58
404.242	313.97
404.62	316.69
404.999	309.46
405.377	289.34
405.755	310.36
406.133	316.91
406.511	322.79
406.889	305.61
407.267	304.71
407.645	335.22
408.023	319.4
408.401	310.59
408.779	325.95
409.156	307.65
409.534	302
409.912	310.81
410.29	317.36
410.667	325.95
411.045	341.09
411.422	331.6
411.8	325.5
412.178	323.69
412.555	335.9
412.933	319.17
413.31	347.87
413.687	314.65
414.065	332.05
414.442	334.54
414.819	325.27
415.197	332.73
415.574	332.51
415.951	324.6
416.328	326.4
416.705	332.51
417.082	326.86
417.46	331.15
417.837	346.97
418.214	320.08
418.591	325.5
418.967	332.51
419.344	330.7
419.721	342.22
420.098	326.63
420.475	346.29
420.852	333.18
421.228	336.12
421.605	333.64
421.982	331.6
422.358	320.98
422.735	338.15
423.111	330.02
423.488	339.06
423.864	332.73
424.241	332.73
424.617	378.61
424.994	346.52
425.37	364.14
425.746	349
426.123	349.23
426.499	344.26
426.875	350.36
427.251	342.9
427.627	334.54
428.003	360.08
428.379	341.09
428.756	356.23
429.132	354.2
429.507	338.83
429.883	351.94
430.259	365.72
430.635	374.31
431.011	365.05
431.387	349.45
431.763	347.87
432.138	359.17
432.514	368.66
432.89	358.95
433.265	352.17
433.641	368.44
434.016	359.4
434.392	375.44
434.767	366.4
435.143	358.27
435.518	365.05
435.894	362.11
436.269	363.92
436.644	362.34
437.02	367.76
437.395	361.43
437.77	376.35
438.145	368.89
438.52	371.6
438.895	372.5
439.271	356.91
439.646	383.58
440.021	375.67
440.395	404.37
440.77	373.86
441.145	390.13
441.52	400.98
441.895	375.67
442.27	398.94
442.645	389.23
443.019	400.98
443.394	378.38
443.769	390.36
444.143	379.74
444.518	389.23
444.892	382.67
445.267	391.03
445.641	382.45
446.016	398.49
446.39	372.96
446.764	392.84
447.139	376.57
447.513	381.09
447.887	405.05
448.262	389.45
448.636	403.46
449.01	400.98
449.384	421.54
449.758	394.2
450.132	414.76
450.506	419.51
450.88	398.04
451.254	394.88
451.628	407.31
452.002	401.43
452.376	400.3
452.75	400.75
453.123	404.37
453.497	428.77
453.871	414.31
454.244	426.06
454.618	420.64
454.992	429.68
455.365	419.96
455.739	412.05
456.112	440.53
456.486	411.83
456.859	428.1
457.232	445.95
457.606	430.58
457.979	419.51
458.352	447.08
458.725	442.56
459.099	438.94
459.472	438.27
459.845	460.41
460.218	436.68
460.591	443.69
460.964	453.41
461.337	456.12
461.71	451.37
462.083	455.44
462.456	447.3
462.829	461.77
463.201	461.77
463.574	457.93
463.947	468.1
464.32	449.56
464.692	479.39
465.065	483.69
465.438	453.63
465.81	492.28
466.183	491.15
466.555	504.03
466.928	476.91
467.3	492.5
467.672	491.82
468.045	508.09
468.417	498.38
468.789	481.65
469.161	494.99
469.534	509.22
469.906	523.23
470.278	518.49
470.65	510.81
471.022	525.95
471.394	508.32
471.766	518.94
472.138	518.26
472.51	522.33
472.882	533.4
473.253	540.64
473.625	556.68
473.997	559.62
474.369	558.26
474.74	548.77
475.112	571.14
475.484	561.65
475.855	578.83
476.227	566.62
476.598	572.5
476.97	599.84
477.341	577.02
477.713	577.02
478.084	586.51
478.455	602.78
478.827	614.76
479.198	605.94
479.569	615.21
479.94	626.73
480.311	626.73
480.682	645.27
481.053	640.29
481.424	652.27
481.795	662.89
482.166	663.34
482.537	659.28
482.908	661.31
483.279	682.55
483.65	708.31
484.021	682.55
484.391	705.38
484.762	697.24
485.133	691.59
485.503	704.47
485.874	731.14
486.244	732.27
486.615	719.84
486.985	760.74
487.356	756
487.726	752.16
488.097	737.69
488.467	755.09
488.837	793.74
489.207	770.01
489.578	766.17
489.948	818.37
490.318	810.68
490.688	790.57
491.058	793.74
491.428	782.44
491.798	810.01
492.168	817.01
492.538	816.33
492.908	836.22
493.278	848.2
493.648	854.98
494.017	843.23
494.387	846.84
494.757	863.56
495.126	862.89
495.496	888.2
495.866	851.14
496.235	895.65
496.605	901.08
496.974	892.04
497.344	866.95
497.713	924.35
498.082	932.49
498.452	923.22
498.821	908.31
499.19	912.15
499.559	918.93
499.928	936.78
500.298	927.97
500.667	917.8
501.036	907.41
501.405	911.93
501.774	936.11
502.143	954.18
502.512	972.04
502.88	945.37
503.249	970
503.618	949.66
503.987	975.43
504.356	991.7
504.724	969.55
505.093	965.48
505.462	974.07
505.83	969.55
506.199	985.82
506.567	1000.28
506.936	993.05
507.304	1001.41
507.672	995.31
508.041	1026.27
508.409	1040.74
508.777	997.12
509.145	1009.55
509.514	1023.79
509.882	1007.97
510.25	1013.39
510.618	1020.4
510.986	1003.9
511.354	1030.34
511.722	1006.16
512.09	1035.54
512.458	1039.83
512.826	1004.13
513.193	1038.48
513.561	1043
513.929	1049.32
514.297	1075.54
514.664	1083.67
515.032	1078.25
515.4	1090.68
515.767	1067.85
516.135	1064.01
516.502	1064.24
516.869	1093.16
517.237	1076.89
517.604	1079.83
517.972	1093.16
518.339	1103.33
518.706	1106.5
519.073	1094.52
519.44	1105.59
519.808	1125.03
520.175	1099.49
520.542	1108.08
520.909	1131.81
521.276	1126.83
521.643	1140.62
522.009	1113.05
522.376	1144.69
522.743	1122.99
523.11	1145.14
523.477	1150.34
523.843	1169.55
524.21	1154.86
524.577	1145.82
524.943	1158.25
525.31	1147.63
525.676	1184.23
526.043	1174.52
526.409	1156.21
526.776	1200.73
527.142	1186.72
527.508	1187.62
527.874	1203.89
528.241	1217.91
528.607	1176.1
528.973	1217.91
529.339	1198.7
529.705	1193.95
530.071	1185.14
530.437	1198.7
530.803	1235.98
531.169	1220.62
531.535	1211.8
531.901	1199.83
532.267	1219.94
532.632	1223.78
532.998	1201.64
533.364	1231.46
533.73	1240.96
534.095	1250.45
534.461	1228.3
534.826	1224.01
535.192	1245.48
535.557	1242.99
535.923	1251.35
536.288	1243.22
536.653	1255.64
537.019	1231.92
537.384	1236.21
537.749	1226.72
538.114	1268.75
538.479	1231.92
538.845	1251.8
539.21	1240.28
539.575	1239.15
539.94	1241.86
540.305	1232.14
540.67	1252.03
541.034	1242.76
541.399	1247.51
541.764	1246.83
542.129	1223.33
542.494	1278.92
542.858	1261.97
543.223	1268.07
543.587	1253.84
543.952	1238.92
544.316	1244.57
544.681	1261.75
545.045	1226.49
545.41	1259.26
545.774	1235.08
546.138	1248.41
546.503	1251.58
546.867	1241.63
547.231	1241.86
547.595	1254.97
547.959	1245.02
548.324	1275.76
548.688	1261.97
549.052	1242.76
549.416	1257.23
549.779	1266.94
550.143	1245.93
550.507	1279.6
550.871	1232.59
551.235	1271.69
551.599	1249.32
551.962	1262.65
552.326	1263.55
552.689	1268.3
553.053	1281.41
553.417	1273.27
553.78	1274.4
554.143	1283.67
554.507	1269.43
554.87	1283.67
555.234	1272.82
555.597	1282.76
555.96	1299.94
556.323	1264.91
556.686	1280.5
557.05	1282.08
557.413	1271.69
557.776	1295.19
558.139	1303.78
558.502	1295.42
558.865	1311.46
559.228	1289.77
559.59	1296.55
559.953	1310.78
560.316	1302.88
560.679	1330.9
561.041	1313.5
561.404	1322.54
561.767	1318.47
562.129	1315.98
562.492	1340.16
562.854	1322.99
563.217	1338.13
563.579	1306.27
563.941	1325.02
564.304	1355.53
564.666	1320.05
565.028	1333.38
565.39	1333.16
565.753	1355.98
566.115	1350.78
566.477	1370.44
566.839	1351.24
567.201	1346.72
567.563	1344.68
567.925	1353.27
568.287	1343.1
568.648	1377
569.01	1359.82
569.372	1336.09
569.734	1355.98
570.095	1344.68
570.457	1345.81
570.819	1374.74
571.18	1396.43
571.542	1373.83
571.903	1368.18
572.265	1388.97
572.626	1377.22
572.987	1380.39
573.349	1372.25
573.71	1390.78
574.071	1374.96
574.432	1363.21
574.794	1371.8
575.155	1386.49
575.516	1366.6
575.877	1373.61
576.238	1379.71
576.599	1392.59
576.96	1387.62
577.32	1355.08
577.681	1365.02
578.042	1361.86
578.403	1380.84
578.763	1369.09
579.124	1388.97
579.485	1387.39
579.845	1374.96
580.206	1367.28
580.566	1397.11
580.927	1380.16
581.287	1343.55
581.648	1395.98
582.008	1393.72
582.368	1348.07
582.728	1349.88
583.089	1364.12
583.449	1375.42
583.809	1371.12
584.169	1373.83
584.529	1372.25
584.889	1366.15
585.249	1368.18
585.609	1370.22
585.969	1356.21
586.329	1362.53
586.688	1368.41
587.048	1340.39
587.408	1341.97
587.768	1349.43
588.127	1333.61
588.487	1370.9
588.846	1328.41
589.206	1333.83
589.565	1349.65
589.925	1324.12
590.284	1322.31
590.643	1334.51
591.003	1334.74
591.362	1357.79
591.721	1353.04
592.08	1324.34
592.44	1344
592.799	1325.47
593.158	1320.28
593.517	1347.39
593.876	1342.65
594.235	1363.21
594.593	1348.07
594.952	1339.03
595.311	1307.62
595.67	1311.46
596.029	1321.41
596.387	1320.5
596.746	1322.08
597.104	1345.59
597.463	1335.87
597.822	1326.15
598.18	1343.78
598.538	1328.41
598.897	1339.26
599.255	1337.45
599.613	1344
599.972	1350.78
600.33	1343.78
600.688	1345.36
601.046	1334.96
601.404	1316.21
601.762	1334.51
602.12	1329.99
602.478	1301.29
602.836	1308.3
603.194	1358.92
603.552	1320.5
603.91	1344.91
604.268	1365.47
604.625	1323.89
604.983	1360.5
605.341	1332.71
605.698	1333.16
606.056	1361.63
606.413	1346.94
606.771	1355.3
607.128	1376.09
607.485	1394.85
607.843	1341.97
608.2	1347.17
608.557	1362.08
608.914	1346.26
609.272	1345.36
609.629	1373.83
609.986	1386.49
610.343	1329.99
610.7	1355.3
611.057	1370.22
611.414	1358.69
611.771	1353.95
612.127	1333.38
612.484	1384.46
612.841	1360.95
613.198	1360.05
613.554	1385.36
613.911	1381.29
614.267	1368.64
614.624	1355.76
614.98	1367.51
615.337	1380.16
615.693	1371.35
616.05	1369.77
616.406	1385.36
616.762	1362.76
617.118	1378.81
617.475	1374.29
617.831	1380.61
618.187	1392.82
618.543	1382.42
618.899	1408.64
619.255	1407.51
619.611	1375.19
619.967	1409.31
620.323	1401.4
620.678	1379.48
621.034	1370.67
621.39	1413.15
621.746	1377.9
622.101	1336.77
622.457	1369.99
622.812	1373.16
623.168	1401.18
623.523	1383.55
623.879	1390.56
624.234	1380.84
624.589	1357.56
624.945	1387.84
625.3	1412.03
625.655	1391.69
626.01	1377
626.365	1385.13
626.72	1391.91
627.075	1394.85
627.43	1396.88
627.785	1391.23
628.14	1398.47
628.495	1399.37
628.85	1377.68
629.205	1363.44
629.559	1369.99
629.914	1373.83
630.269	1388.52
630.623	1347.39
630.978	1382.2
631.332	1343.55
631.687	1365.47
632.041	1390.56
632.396	1377.68
632.75	1352.14
633.104	1396.88
633.459	1354.17
633.813	1360.27
634.167	1371.35
634.521	1371.8
634.875	1360.5
635.229	1370.22
635.583	1332.48
635.937	1369.31
636.291	1355.08
636.645	1365.25
636.999	1365.47
637.352	1382.42
637.706	1351.46
638.06	1369.09
638.413	1362.08
638.767	1341.97
639.121	1389.88
639.474	1390.56
639.828	1345.13
640.181	1365.02
640.534	1327.06
640.888	1374.29
641.241	1331.35
641.594	1371.12
641.947	1323.44
642.301	1370.22
642.654	1356.43
643.007	1339.26
643.36	1371.12
643.713	1364.12
644.066	1365.02
644.419	1370.44
644.771	1343.78
645.124	1356.89
645.477	1358.69
645.83	1367.96
646.182	1348.98
646.535	1351.24
646.888	1357.56
647.24	1334.06
647.593	1356.66
647.945	1347.62
648.298	1357.79
648.65	1351.46
649.002	1356.89
649.355	1355.08
649.707	1351.91
650.059	1381.97
650.411	1391.69
650.763	1391.46
651.115	1407.28
651.467	1395.53
651.819	1405.02
652.171	1442.31
652.523	1408.64
652.875	1370.67
653.227	1416.77
653.578	1436.43
653.93	1428.3
654.282	1414.74
654.633	1432.59
654.985	1416.77
655.337	1437.56
655.688	1428.52
656.039	1460.84
656.391	1482.98
656.742	1449.54
657.094	1507.16
657.445	1479.59
657.796	1478.46
658.147	1478.24
658.498	1471.68
658.849	1507.16
659.2	1492.93
659.551	1517.56
659.902	1519.14
660.253	1513.49
660.604	1527.5
660.955	1520.95
661.306	1528.63
661.656	1535.86
662.007	1551.23
662.358	1580.16
662.708	1545.81
663.059	1568.41
663.409	1566.37
663.76	1589.65
664.11	1626.26
664.461	1572.02
664.811	1609.08
665.161	1613.15
665.511	1636.88
665.862	1608.4
666.212	1656.09
666.562	1689.53
666.912	1668.29
667.262	1666.93
667.612	1713.49
667.962	1708.51
668.312	1709.64
668.662	1732.69
669.011	1720.27
669.361	1741.96
669.711	1734.05
670.06	1771.56
670.41	1775.63
670.76	1793.71
671.109	1807.95
671.459	1811.34
671.808	1863.31
672.157	1830.55
672.507	1844.78
672.856	1851.56
673.205	1860.37
673.554	1888.4
673.904	1894.5
674.253	1924.55
674.602	1934.05
674.951	1922.07
675.3	1954.16
675.649	1987.15
675.998	1971.56
676.346	2021.27
676.695	2025.57
677.044	2028.05
677.393	2016.08
677.741	2046.58
678.09	2089.07
678.438	2087.94
678.787	2097.66
679.135	2127.26
679.484	2137.2
679.832	2154.38
680.181	2159.35
680.529	2186.02
680.877	2198.67
681.225	2224.66
681.573	2252
681.922	2261.04
682.27	2293.58
682.618	2281.83
682.966	2339.91
683.314	2324.54
683.661	2342.62
684.009	2384.65
684.357	2394.37
684.705	2393.92
685.053	2437.08
685.4	2415.84
685.748	2435.5
686.095	2484.31
686.443	2488.38
686.79	2503.52
687.138	2503.75
687.485	2546.46
687.832	2506.01
688.18	2561.6
688.527	2596.4
688.874	2594.37
689.221	2635.27
689.568	2646.57
689.915	2648.15
690.262	2643.41
690.609	2700.13
690.956	2711.88
691.303	2738.54
691.65	2760.01
691.997	2763.85
692.344	2793.23
692.69	2794.36
693.037	2838.43
693.383	2836.39
693.73	2864.64
694.077	2866.45
694.423	2866
694.769	2910.06
695.116	2972.66
695.462	2950.06
695.808	2925.43
696.155	3006.56
696.501	2986.22
696.847	3027.58
697.193	3074.13
697.539	3078.2
697.885	3073.22
698.231	3136.73
698.577	3100.79
698.923	3145.76
699.269	3160.68
699.614	3160
699.96	3165.43
700.306	3256.72
700.651	3235.48
700.997	3230.28
701.342	3251.98
701.688	3311.86
702.033	3309.38
702.379	3351.86
702.724	3299.21
703.069	3353.44
703.415	3379.66
703.76	3403.16
704.105	3370.62
704.45	3463.27
704.795	3453.55
705.14	3444.97
705.485	3498.07
705.83	3514.57
706.175	3503.5
706.52	3486.09
706.865	3578.97
707.209	3577.62
707.554	3571.06
707.899	3646.09
708.243	3643.6
708.588	3614.9
708.932	3616.26
709.277	3652.64
709.621	3699.2
709.966	3689.25
710.31	3682.47
710.654	3748.23
710.998	3761.79
711.342	3762.47
711.687	3765.64
712.031	3758.86
712.375	3798.85
712.719	3839.53
713.063	3845.63
713.407	3903.48
713.75	3878.4
714.094	3867.1
714.438	3873.43
714.782	3921.11
715.125	3915.69
715.469	3923.6
715.812	3977.16
716.156	3945.52
716.499	3968.12
716.843	3983.48
717.186	3974.22
717.53	4030.26
717.873	4066.19
718.216	4092.63
718.559	4060.09
718.902	4028.23
719.246	4080.43
719.589	4062.35
719.932	4111.62
720.275	4073.65
720.617	4098.73
720.96	4108.9
721.303	4174.21
721.646	4180.31
721.989	4136.02
722.331	4155.91
722.674	4172.18
723.016	4213.08
723.359	4226.64
723.701	4221.22
724.044	4201.56
724.386	4185.51
724.729	4220.99
725.071	4263.02
725.413	4290.37
725.755	4245.62
726.097	4256.47
726.439	4238.39
726.782	4231.16
727.124	4275.9
727.465	4292.4
727.807	4279.07
728.149	4335.79
728.491	4256.92
728.833	4330.82
729.175	4311.38
729.516	4313.42
729.858	4308.67
730.199	4333.3
730.541	4355.22
730.882	4346.19
731.224	4335.79
731.565	4319.97
731.906	4392.96
732.248	4376.47
732.589	4355.45
732.93	4352.74
733.271	4356.13
733.612	4384.15
733.953	4398.84
734.294	4388.44
734.635	4365.85
734.976	4386.41
735.317	4368.11
735.658	4393.64
735.999	4345.73
736.339	4397.71
736.68	4387.54
737.021	4417.82
737.361	4370.37
737.702	4349.8
738.042	4381.89
738.383	4402
738.723	4390.03
739.063	4394.32
739.404	4384.6
739.744	4402.91
740.084	4360.65
740.424	4425.05
740.764	4375.79
741.104	4389.12
741.444	4391.61
741.784	4371.95
742.124	4351.61
742.464	4407.2
742.804	4400.65
743.143	4352.51
743.483	4355.9
743.823	4355.68
744.162	4403.13
744.502	4362.46
744.841	4397.71
745.181	4366.07
745.52	4387.77
745.86	4343.25
746.199	4352.74
746.538	4377.37
746.877	4335.34
747.216	4325.39
747.556	4319.07
747.895	4373.76
748.234	4331.5
748.573	4283.59
748.911	4326.07
749.25	4358.39
749.589	4264.61
749.928	4308.67
750.267	4319.52
750.605	4341.89
750.944	4320.42
751.283	4327.65
751.621	4263.25
751.96	4290.59
752.298	4293.98
752.636	4323.36
752.975	4289.92
753.313	4204.72
753.651	4222.8
753.989	4242.01
754.327	4253.08
754.666	4260.31
755.004	4257.37
755.342	4231.16
755.679	4227.77
756.017	4217.37
756.355	4197.49
756.693	4211.95
757.031	4169.69
757.368	4140.09
757.706	4167.43
758.044	4127.66
758.381	4164.27
758.719	4164.27
759.056	4169.24
759.394	4124.5
759.731	4107.1
760.068	4157.94
760.405	4083.14
760.743	4109.36
761.08	4074.1
761.417	4060.32
761.754	4036.36
762.091	4048.57
762.428	4038.17
762.765	4064.61
763.102	4046.76
763.438	4019.87
763.775	4024.39
764.112	3963.14
764.449	4027.1
764.785	4039.07
765.122	3991.84
765.458	3957.72
765.795	3962.01
766.131	3960.88
766.467	3891.73
766.804	3949.59
767.14	3906.42
767.476	3863.26
767.812	3894.22
768.148	3889.02
768.485	3893.32
768.821	3863.49
769.157	3862.58
769.492	3845.41
769.828	3850.6
770.164	3811.51
770.5	3824.39
770.836	3782.58
771.171	3775.58
771.507	3766.54
771.842	3731.29
772.178	3758.63
772.513	3731.51
772.849	3709.82
773.184	3702.13
773.519	3717.05
773.855	3705.52
774.19	3703.94
774.525	3666.88
774.86	3653.55
775.195	3675.02
775.53	3627.11
775.865	3619.42
776.2	3545.53
776.535	3580.1
776.87	3549.14
777.205	3540.33
777.539	3560.44
777.874	3549.37
778.209	3558.41
778.543	3519.99
778.878	3528.35
779.212	3510.5
779.547	3502.37
779.881	3533.1
780.215	3467.56
780.55	3486.32
780.884	3461.91
781.218	3480.67
781.552	3438.86
781.886	3432.99
782.22	3404.06
782.554	3388.7
782.888	3417.17
783.222	3348.7
783.556	3349.6
783.889	3320.45
784.223	3327
784.557	3327.91
784.89	3294.91
785.224	3335.59
785.557	3288.81
785.891	3308.02
786.224	3258.3
786.558	3285.2
786.891	3254.91
787.224	3248.81
787.557	3251.3
787.891	3205.42
788.224	3228.93
788.557	3211.53
788.89	3214.69
789.223	3197.51
789.556	3165.65
789.888	3185.76
790.221	3126.56
790.554	3160.68
790.887	3170.17
791.219	3132.88
791.552	3149.15
791.884	3084.98
792.217	3128.14
792.549	3042.49
792.882	3075.26
793.214	3068.25
793.546	3040.23
793.879	3038.87
794.211	3019.21
794.543	3012.21
794.875	3050.63
795.207	3004.75
795.539	3006.79
795.871	2991.42
796.203	2970.4
796.535	2991.64
796.867	2988.93
797.198	3004.98
797.53	2959.33
797.862	2936.73
798.193	2947.35
798.525	2979.22
798.856	2997.52
799.188	2931.08
799.519	2899.9
799.85	2928.14
800.182	2946.45
800.513	2870.07
800.844	2882.95
801.175	2844.76
801.506	2888.14
801.837	2868.03
802.168	2869.84
802.499	2831.87
802.83	2835.49
803.161	2846.34
803.491	2823.74
803.822	2816.28
804.153	2823.06
804.483	2765.21
804.814	2795.04
805.145	2783.29
805.475	2783.29
805.805	2802.5
806.136	2744.87
806.466	2754.14
806.796	2767.02
807.126	2743.52
807.457	2745.55
807.787	2746
808.117	2712.56
808.447	2755.49
808.777	2699.9
809.107	2699.45
809.436	2706.91
809.766	2710.97
810.096	2667.36
810.426	2699
810.755	2687.7
811.085	2654.03
811.414	2674.82
811.744	2648.6
812.073	2626.23
812.403	2664.65
812.732	2594.14
813.061	2631.43
813.39	2627.13
813.719	2602.5
814.049	2613.8
814.378	2605.44
814.707	2607.25
815.036	2583.52
815.365	2573.12
815.693	2580.13
816.022	2555.27
816.351	2557.53
816.68	2527.48
817.008	2536.06
817.337	2562.96
817.665	2540.58
817.994	2551.88
818.322	2564.09
818.651	2516.63
818.979	2497.65
819.307	2542.39
819.636	2534.71
819.964	2507.14
820.292	2511.66
820.62	2523.18
820.948	2478.66
821.276	2515.95
821.604	2479.79
821.932	2501.26
822.259	2516.4
822.587	2514.82
822.915	2506.01
823.243	2513.01
823.57	2477.76
823.898	2484.09
824.225	2485.44
824.553	2459.46
824.88	2463.97
825.207	2493.35
825.535	2466.01
825.862	2479.79
826.189	2469.85
826.516	2511.88
826.843	2495.61
827.17	2512.34
827.497	2484.77
827.824	2469.62
828.151	2523.63
828.478	2533.35
828.805	2501.04
829.131	2465.33
829.458	2519.57
829.785	2500.36
830.111	2470.98
830.438	2506.23
830.764	2490.19
831.09	2493.58
831.417	2468.04
831.743	2519.79
832.069	2472.34
832.395	2446.12
832.722	2490.87
833.048	2471.66
833.374	2479.79
833.7	2489.96
834.026	2476.63
834.351	2473.01
834.677	2448.16
835.003	2456.97
835.329	2468.49
835.654	2463.3
835.98	2459.23
836.306	2447.25
836.631	2465.1
836.956	2452
837.282	2452.45
837.607	2442.05
837.932	2420.81
838.258	2421.49
838.583	2391.43
838.908	2410.42
839.233	2423.3
839.558	2388.27
839.883	2412.45
840.208	2410.87
840.533	2378.33
840.858	2405.67
841.182	2394.82
841.507	2410.19
841.832	2369.29
842.156	2382.85
842.481	2390.3
842.805	2380.59
843.13	2355.5
843.454	2384.88
843.778	2370.42
844.103	2332
844.427	2374.26
844.751	2382.17
845.075	2341.49
845.399	2348.5
845.723	2325.22
846.047	2316.63
846.371	2312.57
846.695	2296.3
847.019	2277.99
847.343	2296.07
847.666	2284.09
847.99	2280.48
848.313	2270.76
848.637	2264.43
848.96	2279.8
849.284	2262.17
849.607	2233.47
849.931	2195.06
850.254	2237.31
850.577	2200.93
850.9	2198.45
851.223	2205.9
851.546	2213.81
851.869	2170.2
852.192	2198.67
852.515	2176.52
852.838	2153.02
853.161	2146.69
853.483	2122.51
853.806	2157.09
854.129	2155.96
854.451	2122.51
854.774	2101.05
855.096	2132.91
855.419	2129.07
855.741	2136.07
856.063	2088.62
856.385	2097.88
856.708	2096.75
857.03	2080.93
857.352	2064.44
857.674	2064.89
857.996	2072.35
858.318	2070.99
858.64	2073.7
858.961	2050.65
859.283	2035.06
859.605	2042.97
859.926	2049.97
860.248	2022.4
860.57	2028.96
860.891	2046.81
861.212	2028.96
861.534	2018.79
861.855	2044.1
862.176	2009.3
862.498	2012.69
862.819	2024.44
863.14	2045.91
863.461	2006.59
863.782	2005.23
864.103	1983.54
864.424	2018.79
864.745	2010.43
865.065	1982.63
865.386	1996.87
865.707	2015.85
866.027	1953.71
866.348	1989.18
866.668	1966.36
866.989	1982.86
867.309	1972.24
867.63	1966.81
867.95	1965.46
868.27	1937.66
868.59	1953.48
868.91	1961.39
869.23	1966.59
869.55	1940.37
869.87	1941.73
870.19	1920.26
870.51	1935.4
870.83	1934.95
871.15	1906.25
871.469	1918
871.789	1940.37
872.109	1944.67
872.428	1919.13
872.748	1959.58
873.067	1927.49
873.386	1899.02
873.706	1904.22
874.025	1919.13
874.344	1896.98
874.663	1946.02
874.982	1902.86
875.301	1905.57
875.62	1907.83
875.939	1895.85
876.258	1903.09
876.577	1897.21
876.896	1889.3
877.214	1887.94
877.533	1925.23
877.852	1882.75
878.17	1894.05
878.489	1890.66
878.807	1888.62
879.125	1882.75
879.444	1886.59
879.762	1878
880.08	1880.49
880.398	1866.7
880.716	1874.39
881.034	1837.78
881.352	1835.52
881.67	1887.49
881.988	1839.81
882.306	1838.91
882.624	1816.53
882.941	1832.35
883.259	1843.65
883.577	1844.56
883.894	1797.55
884.212	1802.52
884.529	1818.12
884.846	1795.74
885.164	1803.43
885.481	1820.15
885.798	1800.04
886.115	1791
886.432	1818.12
886.75	1797.1
887.067	1790.55
887.383	1780.6
887.7	1769.3
888.017	1780.83
888.334	1773.37
888.651	1783.31
888.967	1768.17
889.284	1788.51
889.6	1740.38
889.917	1730.21
890.233	1747.84
890.55	1758
890.866	1745.35
891.182	1728.17
891.498	1744.67
891.815	1705.12
892.131	1709.64
892.447	1752.36
892.763	1708.06
893.079	1719.81
893.395	1687.72
893.71	1727.5
894.026	1692.47
894.342	1698.35
894.657	1685.01
894.973	1674.17
895.289	1692.02
895.604	1681.62
895.92	1705.12
896.235	1648.4
896.55	1688.85
896.865	1660.83
897.181	1649.98
897.496	1630.1
897.811	1660.61
898.126	1645.69
898.441	1637.1
898.756	1635.07
899.071	1634.62
899.386	1655.86
899.7	1638.01
900.015	1606.82
900.33	1614.28
900.644	1595.3
900.959	1600.49
901.273	1625.8
901.588	1547.39
901.902	1583.77
902.216	1572.7
902.531	1592.81
902.845	1581.06
903.159	1558.46
903.473	1565.92
903.787	1563.21
904.101	1558.91
904.415	1549.65
904.729	1544
905.042	1526.37
905.356	1548.07
905.67	1519.14
905.984	1513.72
906.297	1546.71
906.611	1491.12
906.924	1520.5
907.237	1507.62
907.551	1506.03
907.864	1501.74
908.177	1485.7
908.491	1516.2
908.804	1480.95
909.117	1472.14
909.43	1463.55
909.743	1489.99
910.056	1483.44
910.368	1445.02
910.681	1447.28
910.994	1461.97
911.307	1453.38
911.619	1456.32
911.932	1427.17
912.244	1417.9
912.557	1418.13
912.869	1422.19
913.181	1423.55
913.494	1423.55
913.806	1397.79
914.118	1403.44
914.43	1411.35
914.742	1384.91
915.054	1388.07
915.366	1362.31
915.678	1360.73
915.99	1367.05
916.302	1369.09
916.613	1351.69
916.925	1373.38
917.236	1358.92
917.548	1343.78
917.859	1360.5
918.171	1331.58
918.482	1338.58
918.794	1338.58
919.105	1341.52
919.416	1341.07
919.727	1323.67
920.038	1300.84
920.349	1329.54
920.66	1320.5
920.971	1293.16
921.282	1277.57
921.593	1269.66
921.903	1282.99
922.214	1305.36
922.525	1295.87
922.835	1278.24
923.146	1278.02
923.456	1279.83
923.767	1278.92
924.077	1271.01
924.387	1291.35
924.697	1236.66
925.008	1237.57
925.318	1251.13
925.628	1263.78
925.938	1264.91
926.248	1222.65
926.558	1221.97
926.867	1215.19
927.177	1207.28
927.487	1221.52
927.796	1239.15
928.106	1184.46
928.416	1243.89
928.725	1196.89
929.034	1216.32
929.344	1230.11
929.653	1217.23
929.962	1186.95
930.271	1177.91
930.581	1185.14
930.89	1170.68
931.199	1192.37
931.508	1175.2
931.817	1142.88
932.125	1168.19
932.434	1158.7
932.743	1152.6
933.051	1159.6
933.36	1149.43
933.669	1132.48
933.977	1125.25
934.286	1139.72
934.594	1135.65
934.902	1145.37
935.21	1126.83
935.519	1144.46
935.827	1114.18
936.135	1128.64
936.443	1110.34
936.751	1099.49
937.059	1092.03
937.367	1095.88
937.674	1103.11
937.982	1091.81
938.29	1066.5
938.597	1071.69
938.905	1057.23
939.213	1072.6
939.52	1073.05
939.827	1081.86
940.135	1058.14
940.442	1055.42
940.749	1045.26
941.056	1080.28
941.363	1068.76
941.67	1038.25
941.977	1050.45
942.284	1060.4
942.591	1055.65
942.898	1026.72
943.205	1036.44
943.511	1033.28
943.818	1029.44
944.125	1037.57
944.431	1000.06
944.738	1016.56
945.044	1020.85
945.35	1039.61
945.657	1022.43
945.963	1005.71
946.269	997.35
946.575	1001.64
946.881	997.35
947.187	973.39
947.493	1007.29
947.799	991.02
948.105	983.56
948.41	985.82
948.716	984.69
949.022	956.44
949.327	971.36
949.633	959.61
949.938	953.51
950.244	952.38
950.549	958.48
950.854	926.61
951.16	960.51
951.465	950.12
951.77	953.96
952.075	937.91
952.38	945.37
952.685	914.86
952.99	948.31
953.294	928.2
953.599	957.35
953.904	933.17
954.209	920.29
954.513	933.62
954.818	924.35
955.122	921.19
955.426	903.34
955.731	918.25
956.035	918.25
956.339	913.51
956.643	901.3
956.948	916.44
957.252	902.21
957.556	902.21
957.86	885.71
958.163	873.28
958.467	893.62
958.771	886.62
959.075	894.52
959.378	858.37
959.682	894.3
959.985	892.49
960.289	870.34
960.592	878.71
960.896	870.57
961.199	878.71
961.502	880.06
961.805	876.67
962.108	856.33
962.411	850.23
962.714	840.29
963.017	855.66
963.32	855.2
963.623	872.15
963.926	844.58
964.228	847.29
964.531	817.46
964.833	823.79
965.136	823.34
965.438	844.58
965.741	836.45
966.043	839.61
966.345	842.32
966.648	827.63
966.95	819.05
967.252	809.55
967.554	797.35
967.856	812.27
968.158	790.35
968.46	809.55
968.761	801.42
969.063	793.96
969.365	813.62
969.666	795.09
969.968	800.29
970.269	777.01
970.571	774.3
970.872	785.15
971.174	798.93
971.475	787.18
971.776	791.7
972.077	773.62
972.378	775.43
972.679	775.88
972.98	762.78
973.281	755.32
973.582	759.84
973.883	763.91
974.183	778.6
974.484	784.02
974.785	776.11
975.085	772.72
975.386	758.26
975.686	753.74
975.986	750.57
976.287	747.41
976.587	770.46
976.887	754.64
977.187	747.86
977.487	730.01
977.787	751.7
978.087	750.35
978.387	753.51
978.687	737.92
978.987	728.88
979.286	731.14
979.586	729.33
979.885	736.79
980.185	734.98
980.484	705.15
980.784	694.3
981.083	704.7
981.382	709.9
981.682	708.09
981.981	730.69
982.28	688.43
982.579	718.03
982.878	710.8
983.177	710.8
983.475	707.64
983.774	700.86
984.073	689.33
984.372	700.63
984.67	698.37
984.969	689.56
985.267	684.81
985.566	692.04
985.864	689.33
986.162	683.23
986.461	669.45
986.759	654.08
987.057	674.42
987.355	682.33
987.653	661.54
987.951	687.52
988.249	677.13
988.547	665.83
988.844	679.39
989.142	661.08
989.44	665.15
989.737	665.83
990.035	645.72
990.332	659.73
990.63	646.4
990.927	656.79
991.224	652.27
991.521	650.01
991.819	657.47
992.116	656.56
992.413	666.28
992.71	656.34
993.006	643.46
993.303	649.33
993.6	641.42
993.897	633.29
994.193	636.45
994.49	636.23
994.787	624.25
995.083	640.97
995.379	642.1
995.676	606.17
995.972	610.69
996.268	616.79
996.565	620.41
996.861	610.46
997.157	620.86
997.453	619.73
997.749	602.1
998.044	610.01
998.34	602.55
998.636	584.93
998.932	591.48
999.227	613.85
999.523	609.56
999.818	595.78
1000.114	591.03
1000.409	603.91
1000.704	583.12
1001	576.34
1001.295	594.19
1001.59	605.04
1001.885	599.17
1002.18	561.65
1002.475	575.21
1002.77	595.55
1003.065	589.45
1003.359	590.8
1003.654	556.68
1003.949	565.49
1004.243	560.52
1004.538	549
1004.832	575.21
1005.127	571.6
1005.421	562.1
1005.715	558.04
1006.009	564.59
1006.304	546.96
1006.598	578.6
1006.892	564.59
1007.186	534.08
1007.48	567.75
1007.773	578.6
1008.067	566.4
1008.361	569.56
1008.655	545.38
1008.948	539.51
1009.242	539.51
1009.535	547.41
1009.829	541.09
1010.122	556.68
1010.415	548.09
1010.708	548.54
1011.001	532.27
1011.295	532.95
1011.588	531.6
1011.881	520.07
1012.173	528.66
1012.466	520.75
1012.759	510.35
1013.052	532.5
1013.344	539.51
1013.637	517.59
1013.93	542.67
1014.222	525.04
1014.514	534.31
1014.807	516
1015.099	517.13
1015.391	541.09
1015.683	521.2
1015.976	510.35
1016.268	525.72
1016.56	511.94
1016.851	513.97
1017.143	506.74
1017.435	502.44
1017.727	499.51
1018.018	513.97
1018.31	507.87
1018.602	506.29
1018.893	513.74
1019.185	521.65
1019.476	487.3
1019.767	491.37
1020.058	471.71
1020.35	482.78
1020.641	478.04
1020.932	502.44
1021.223	487.53
1021.514	502.22
1021.804	490.24
1022.095	471.94
1022.386	471.26
1022.677	462.22
1022.967	474.2
1023.258	475.33
1023.548	447.3
1023.839	468.55
1024.129	456.34
1024.419	472.16
1024.709	485.27
1025	450.92
1025.29	461.99
1025.58	471.03
1025.87	451.37
1026.16	444.37
1026.449	466.51
1026.739	459.96
1027.029	476.91
1027.319	452.73
1027.608	436.68
1027.898	464.71
1028.187	440.98
1028.477	447.08
1028.766	449.79
1029.055	466.29
1029.344	451.82
1029.634	440.07
1029.923	454.54
1030.212	429.45
1030.501	431.49
1030.79	446.85
1031.078	416.57
1031.367	430.13
1031.656	447.08
1031.945	446.17
1032.233	439.62
1032.522	430.58
1032.81	428.77
1033.099	421.54
1033.387	422.9
1033.675	425.38
1033.963	422.22
1034.251	440.07
1034.54	426.51
1034.828	441.43
1035.116	428.77
1035.403	417.47
1035.691	419.06
1035.979	429.9
1036.267	438.27
1036.554	426.29
1036.842	405.27
1037.129	422.9
1037.417	428.1
1037.704	436.01
1037.992	429
1038.279	408.21
1038.566	412.05
1038.853	412.05
1039.14	412.05
