Data from carpet_green_FLMS001491_00030.txt Node
Date: Wed Feb 08 10:35:09 GMT 2017
User: dcchb
Spectrometer: FLMS00149
Trigger mode: 0
Integration Time (sec): 2.000000E-2
Scans to average: 10
Electric dark correction enabled: true
Nonlinearity correction enabled: false
Boxcar width: 0
XAxis mode: Wavelengths
Number of Pixels in Spectrum: 2048
>>>>>Begin Spectral Data<<<<<
341.393	-6.24
341.776	-6.24
342.16	-6.24
342.543	-50.76
342.927	-70.87
343.31	-70.2
343.693	-75.39
344.077	-69.74
344.46	-55.73
344.843	-52.57
345.226	-36.07
345.61	-23.87
345.993	1.21
346.376	-8.28
346.759	7.54
347.142	25.39
347.525	41.67
347.908	58.16
348.291	73.76
348.674	79.86
349.057	104.26
349.44	117.6
349.823	123.25
350.206	135.9
350.588	178.84
350.971	187.2
351.354	195.11
351.737	218.16
352.119	224.26
352.502	239.17
352.884	239.85
353.267	252.28
353.65	277.14
354.032	294.77
354.414	275.56
354.797	292.51
355.179	290.7
355.562	280.76
355.944	310.13
356.326	304.48
356.709	292.28
357.091	305.16
357.473	296.35
357.855	302.68
358.238	319.4
358.62	321.66
359.002	279.4
359.384	325.95
359.766	291.83
360.148	311.26
360.53	312.17
360.912	277.59
361.294	292.28
361.676	295.9
362.057	320.3
362.439	316.01
362.821	288.89
363.203	312.17
363.584	289.57
363.966	287.99
364.348	305.39
364.729	294.31
365.111	287.08
365.493	299.51
365.874	305.39
366.256	289.57
366.637	271.26
367.019	292.73
367.4	295.67
367.781	275.33
368.163	277.82
368.544	275.33
368.925	271.26
369.306	287.99
369.688	276.46
370.069	276.46
370.45	267.2
370.831	262.68
371.212	274.88
371.593	283.69
371.974	283.92
372.355	289.12
372.736	269.23
373.117	263.13
373.498	281.89
373.879	287.76
374.26	284.37
374.641	285.73
375.021	285.27
375.402	260.64
375.783	270.36
376.163	283.24
376.544	289.57
376.925	287.76
377.305	276.91
377.686	292.51
378.066	286.18
378.447	272.17
378.827	282.34
379.208	273.52
379.588	292.05
379.968	286.18
380.349	270.59
380.729	287.99
381.109	299.51
381.489	292.73
381.87	297.25
382.25	284.6
382.63	276.01
383.01	290.7
383.39	294.77
383.77	290.25
384.15	294.54
384.53	296.57
384.91	278.27
385.29	294.77
385.67	303.58
386.049	277.59
386.429	308.33
386.809	298.38
387.189	291.15
387.568	286.4
387.948	305.39
388.328	309.23
388.707	299.74
389.087	301.32
389.466	311.04
389.846	302.22
390.225	301.09
390.605	322.56
390.984	292.28
391.363	297.93
391.743	303.35
392.122	312.84
392.501	306.07
392.881	310.81
393.26	318.27
393.639	301.09
394.018	306.52
394.397	319.17
394.776	306.29
395.155	308.78
395.534	303.58
395.913	315.1
396.292	319.62
396.671	305.84
397.05	315.56
397.429	310.36
397.808	290.47
398.186	307.42
398.565	311.94
398.944	317.82
399.323	271.04
399.701	316.23
400.08	290.25
400.458	314.2
400.837	308.1
401.215	312.39
401.594	324.37
401.972	316.23
402.351	311.94
402.729	327.08
403.107	318.72
403.486	313.97
403.864	342.67
404.242	318.72
404.62	303.58
404.999	321.66
405.377	313.52
405.755	326.4
406.133	323.01
406.511	340.64
406.889	305.61
407.267	328.21
407.645	326.86
408.023	329.12
408.401	330.25
408.779	359.4
409.156	327.08
409.534	355.1
409.912	325.95
410.29	320.3
410.667	347.42
411.045	325.27
411.422	338.15
411.8	325.05
412.178	315.56
412.555	334.31
412.933	321.21
413.31	325.5
413.687	352.62
414.065	333.18
414.442	332.51
414.819	346.52
415.197	336.12
415.574	325.5
415.951	332.28
416.328	335.67
416.705	349.91
417.082	343.8
417.46	356.69
417.837	342
418.214	322.56
418.591	365.5
418.967	352.84
419.344	344.03
419.721	334.09
420.098	344.03
420.475	347.65
420.852	363.47
421.228	361.66
421.605	355.56
421.982	336.8
422.358	344.48
422.735	364.37
423.111	344.93
423.488	343.58
423.864	367.98
424.241	354.43
424.617	355.56
424.994	346.06
425.37	381.54
425.746	358.95
426.123	370.7
426.499	356.46
426.875	362.11
427.251	353.75
427.627	347.65
428.003	380.64
428.379	362.11
428.756	369.11
429.132	385.39
429.507	391.71
429.883	382
430.259	374.54
430.635	367.31
431.011	367.53
431.387	387.19
431.763	390.81
432.138	371.37
432.514	389
432.89	399.62
433.265	395.55
433.641	410.7
434.016	400.98
434.392	400.98
434.767	386.06
435.143	382.67
435.518	411.83
435.894	396.91
436.269	401.66
436.644	401.88
437.02	414.99
437.395	420.41
437.77	403.69
438.145	408.66
438.52	395.33
438.895	408.89
439.271	409.34
439.646	422.9
440.021	425.16
440.395	422.67
440.77	414.76
441.145	428.1
441.52	424.48
441.895	417.93
442.27	419.73
442.645	420.19
443.019	445.72
443.394	410.92
443.769	433.29
444.143	422.9
444.518	452.73
444.892	426.51
445.267	435.1
445.641	467.42
446.016	440.53
446.39	413.41
446.764	438.49
447.139	426.74
447.513	425.38
447.887	452.28
448.262	422.9
448.636	449.34
449.01	428.77
449.384	456.57
449.758	464.03
450.132	438.72
450.506	451.6
450.88	471.48
451.254	439.85
451.628	452.95
452.002	449.11
452.376	445.27
452.75	457.93
453.123	453.63
453.497	462.22
453.871	460.19
454.244	458.6
454.618	483.91
454.992	477.13
455.365	499.05
455.739	476
456.112	495.89
456.486	487.3
456.859	492.95
457.232	512.39
457.606	517.59
457.979	516.23
458.352	516.46
458.725	504.7
459.099	537.02
459.472	494.99
459.845	517.81
460.218	529.34
460.591	520.07
460.964	536.79
461.337	517.81
461.71	546.51
462.083	540.41
462.456	544.93
462.829	534.99
463.201	555.1
463.574	553.74
463.947	549.67
464.32	564.14
464.692	563.01
465.065	577.24
465.438	578.15
465.81	568.88
466.183	573.18
466.555	584.25
466.928	607.07
467.3	569.34
467.672	578.15
468.045	608.2
468.417	609.56
468.789	616.11
469.161	621.76
469.534	610.69
469.906	615.66
470.278	617.24
470.65	631.25
471.022	651.37
471.394	646.85
471.766	649.56
472.138	661.31
472.51	661.54
472.882	674.87
473.253	689.56
473.625	670.58
473.997	687.3
474.369	684.59
474.74	714.64
475.112	729.56
475.484	710.57
475.855	742.21
476.227	731.36
476.598	761.42
476.97	770.46
477.341	744.7
477.713	758.93
478.084	779.95
478.455	786.28
478.827	819.95
479.198	820.18
479.569	795.54
479.94	821.76
480.311	830.12
480.682	835.32
481.053	867.18
481.424	877.8
481.795	861.31
482.166	892.72
482.537	914.64
482.908	908.54
483.279	915.31
483.65	932.94
484.021	963.45
484.391	948.99
484.762	961.42
485.133	963.68
485.503	984.47
485.874	986.73
486.244	1022.2
486.615	1007.74
486.985	1041.64
487.356	1061.98
487.726	1060.85
488.097	1055.2
488.467	1102.65
488.837	1119.38
489.207	1125.48
489.578	1119.6
489.948	1126.83
490.318	1144.46
490.688	1139.04
491.058	1145.37
491.428	1165.48
491.798	1159.83
492.168	1210.9
492.538	1190.56
492.908	1209.32
493.278	1224.46
493.648	1235.76
494.017	1244.12
494.387	1261.52
494.757	1266.49
495.126	1278.24
495.496	1292.93
495.866	1308.52
496.235	1320.5
496.605	1291.58
496.974	1272.37
497.344	1315.3
497.713	1328.86
498.082	1347.39
498.452	1344
498.821	1345.81
499.19	1347.17
499.559	1371.8
499.928	1347.62
500.298	1359.37
500.667	1371.8
501.036	1385.36
501.405	1403.21
501.774	1377.9
502.143	1373.38
502.512	1402.76
502.88	1412.25
503.249	1418.35
503.618	1423.32
503.987	1439.37
504.356	1438.24
504.724	1437.56
505.093	1441.63
505.462	1457.67
505.83	1484.79
506.199	1473.72
506.567	1514.17
506.936	1498.8
507.304	1484.34
507.672	1489.76
508.041	1501.74
508.409	1512.59
508.777	1509.42
509.145	1550.78
509.514	1551.46
509.882	1553.49
510.25	1541.74
510.618	1526.6
510.986	1560.95
511.354	1547.16
511.722	1578.8
512.09	1592.59
512.458	1571.34
512.826	1586.48
513.193	1577.67
513.561	1588.07
513.929	1583.77
514.297	1630.1
514.664	1640.04
515.032	1627.84
515.4	1609.08
515.767	1649.08
516.135	1628.97
516.502	1642.08
516.869	1643.43
517.237	1669.65
517.604	1658.12
517.972	1670.1
518.339	1690.21
518.706	1661.74
519.073	1691.79
519.44	1684.79
519.808	1714.84
520.175	1734.05
520.542	1731.56
520.909	1717.78
521.276	1709.19
521.643	1695.18
522.009	1744.45
522.376	1733.15
522.743	1742.64
523.11	1750.1
523.477	1774.05
523.843	1772.47
524.21	1780.83
524.577	1774.28
524.943	1816.53
525.31	1808.17
525.676	1803.43
526.043	1802.3
526.409	1823.31
526.776	1823.99
527.142	1835.74
527.508	1856.99
527.874	1850.88
528.241	1883.43
528.607	1849.98
528.973	1892.46
529.339	1870.09
529.705	1868.96
530.071	1861.5
530.437	1881.84
530.803	1916.19
531.169	1920.49
531.535	1891.11
531.901	1891.79
532.267	1889.07
532.632	1890.66
532.998	1887.94
533.364	1932.69
533.73	1943.08
534.095	1906.93
534.461	1884.33
534.826	1928.17
535.192	1922.07
535.557	1944.44
535.923	1903.31
536.288	1911.9
536.653	1940.82
537.019	1946.47
537.384	1962.52
537.749	1916.64
538.114	1943.99
538.479	1952.35
538.845	1946.7
539.21	1920.03
539.575	1939.92
539.94	1914.84
540.305	1932.24
540.67	1913.48
541.034	1941.28
541.399	1939.92
541.764	1928.85
542.129	1948.28
542.494	1948.73
542.858	1952.35
543.223	1968.39
543.587	1955.97
543.952	1936.98
544.316	1929.98
544.681	1923.42
545.045	1945.8
545.41	1967.72
545.774	1928.62
546.138	1957.55
546.503	1969.75
546.867	1919.58
547.231	1974.5
547.595	1972.01
547.959	1978.34
548.324	1989.41
548.688	1963.42
549.052	1991.44
549.416	1959.58
549.779	1976.3
550.143	1969.3
550.507	1962.97
550.871	1963.65
551.235	2019.01
551.599	1992.57
551.962	2002.52
552.326	2005.23
552.689	2002.07
553.053	2003.2
553.417	2003.65
553.78	1972.91
554.143	1970.88
554.507	1989.64
554.87	2014.72
555.234	2003.65
555.597	2030.99
555.96	2021.05
556.323	1999.35
556.686	2003.42
557.05	1995.29
557.413	2028.73
557.776	2017.21
558.139	2037.32
558.502	2023.08
558.865	2040.48
559.228	2060.82
559.59	2047.04
559.953	2038.22
560.316	2019.47
560.679	2054.49
561.041	2080.48
561.404	2036.64
561.767	2057.43
562.129	2050.65
562.492	2075.74
562.854	2059.69
563.217	2077.77
563.579	2075.51
563.941	2093.82
564.304	2096.75
564.666	2110.99
565.028	2088.84
565.39	2103.76
565.753	2115.74
566.115	2098.79
566.477	2125.68
566.839	2110.76
567.201	2112.35
567.563	2106.92
567.925	2115.51
568.287	2131.1
568.648	2117.09
569.01	2129.29
569.372	2101.05
569.734	2130.2
570.095	2126.81
570.457	2153.7
570.819	2137.2
571.18	2142.63
571.542	2132.01
571.903	2124.77
572.265	2139.01
572.626	2150.99
572.987	2146.69
573.349	2157.77
573.71	2169.07
574.071	2135.85
574.432	2151.44
574.794	2172.46
575.155	2171.1
575.516	2148.73
575.877	2178.56
576.238	2121.16
576.599	2167.26
576.96	2142.85
577.32	2137.88
577.681	2103.31
578.042	2151.89
578.403	2159.12
578.763	2150.54
579.124	2143.98
579.485	2165.23
579.845	2135.62
580.206	2190.99
580.566	2133.59
580.927	2125.23
581.287	2135.62
581.648	2132.23
582.008	2120.48
582.368	2117.77
582.728	2101.72
583.089	2136.75
583.449	2117.77
583.809	2115.74
584.169	2099.46
584.529	2115.96
584.889	2117.77
585.249	2104.66
585.609	2068.28
585.969	2077.09
586.329	2078.45
586.688	2099.92
587.048	2068.73
587.408	2048.39
587.768	2063.08
588.127	2054.95
588.487	2061.73
588.846	2083.87
589.206	2038.9
589.565	2004.33
589.925	2055.17
590.284	2066.47
590.643	2051.1
591.003	2043.65
591.362	2060.82
591.721	2023.31
592.08	2051.1
592.44	2054.95
592.799	2047.94
593.158	2024.44
593.517	2014.04
593.876	2037.32
594.235	2014.27
594.593	2032.35
594.952	2023.08
595.311	2037.55
595.67	2000.48
596.029	2023.53
596.387	2018.11
596.746	2005.68
597.104	2021.27
597.463	2001.61
597.822	2016.3
598.18	1978.11
598.538	2012.69
598.897	1992.35
599.255	2016.3
599.613	2040.26
599.972	2041.16
600.33	2020.6
600.688	2020.82
601.046	2021.95
601.404	2008.17
601.762	1995.96
602.12	2068.73
602.478	2036.19
602.836	2046.58
603.194	2001.84
603.552	2074.15
603.91	2040.03
604.268	2019.69
604.625	2069.63
604.983	2045.45
605.341	2019.92
605.698	2039.35
606.056	2011.78
606.413	2014.04
606.771	2050.43
607.128	2089.97
607.485	2040.03
607.843	2080.71
608.2	2080.93
608.557	2054.95
608.914	2074.15
609.272	2065.12
609.629	2080.71
609.986	2090.88
610.343	2072.57
610.7	2094.72
611.057	2086.13
611.414	2076.19
611.771	2094.04
612.127	2071.89
612.484	2105.57
612.841	2098.33
613.198	2127.49
613.554	2097.43
613.911	2123.42
614.267	2093.36
614.624	2091.78
614.98	2086.13
615.337	2090.43
615.693	2090.65
616.05	2096.07
616.406	2110.99
616.762	2096.3
617.118	2079.8
617.475	2110.54
617.831	2118.67
618.187	2077.32
618.543	2119.13
618.899	2135.62
619.255	2106.92
619.611	2142.4
619.967	2141.05
620.323	2143.98
620.678	2117.09
621.034	2132.23
621.39	2131.33
621.746	2105.34
622.101	2141.5
622.457	2131.1
622.812	2104.89
623.168	2118.45
623.523	2127.94
623.879	2141.27
624.234	2115.74
624.589	2154.15
624.945	2106.92
625.3	2101.5
625.655	2111.67
626.01	2129.29
626.365	2090.2
626.72	2108.96
627.075	2102.18
627.43	2121.16
627.785	2089.3
628.14	2087.04
628.495	2100.14
628.85	2116.64
629.205	2117.77
629.559	2140.82
629.914	2116.19
630.269	2120.25
630.623	2130.42
630.978	2107.37
631.332	2104.66
631.687	2124.77
632.041	2066.7
632.396	2087.04
632.75	2109.63
633.104	2087.71
633.459	2065.79
633.813	2077.32
634.167	2085.68
634.521	2073.48
634.875	2101.95
635.229	2087.71
635.583	2081.84
635.937	2106.24
636.291	2066.92
636.645	2083.65
636.999	2069.41
637.352	2109.18
637.706	2059.92
638.06	2095.4
638.413	2092.01
638.767	2067.38
639.121	2088.17
639.474	2087.26
639.828	2059.92
640.181	2104.21
640.534	2092.23
640.888	2099.92
641.241	2071.67
641.594	2091.33
641.947	2083.65
642.301	2081.16
642.654	2050.2
643.007	2085.91
643.36	2104.44
643.713	2108.96
644.066	2096.98
644.419	2110.99
644.771	2094.94
645.124	2073.25
645.477	2095.85
645.83	2068.28
646.182	2043.65
646.535	2050.65
646.888	2056.75
647.24	2047.49
647.593	2064.21
647.945	2061.5
648.298	2071.67
648.65	2043.87
649.002	2075.28
649.355	2094.27
649.707	2076.19
650.059	2090.65
650.411	2057.21
650.763	2107.83
651.115	2184.43
651.467	2130.88
651.819	2153.25
652.171	2176.75
652.523	2165.68
652.875	2179.91
653.227	2168.16
653.578	2181.04
653.93	2170.42
654.282	2188.28
654.633	2171.78
654.985	2226.47
655.337	2204.55
655.688	2232.79
656.039	2263.53
656.391	2228.05
656.742	2218.33
657.094	2242.96
657.445	2291.55
657.796	2275.96
658.147	2274.6
658.498	2266.47
658.849	2266.24
659.2	2291.32
659.551	2286.58
659.902	2315.73
660.253	2325.67
660.604	2307.14
660.955	2312.57
661.306	2352.79
661.656	2357.31
662.007	2397.31
662.358	2390.53
662.708	2403.86
663.059	2432.34
663.409	2443.64
663.76	2440.02
664.11	2461.26
664.461	2506.01
664.811	2504.88
665.161	2486.35
665.511	2486.35
665.862	2524.09
666.212	2535.16
666.562	2549.17
666.912	2553.92
667.262	2555.05
667.612	2618.32
667.962	2600.92
668.312	2661.26
668.662	2638.43
669.011	2686.34
669.361	2657.87
669.711	2708.26
670.06	2713.69
670.41	2748.26
670.76	2750.29
671.109	2751.2
671.459	2764.98
671.808	2815.15
672.157	2842.72
672.507	2867.81
672.856	2880.91
673.205	2867.81
673.554	2909.39
673.904	2953
674.253	2962.94
674.602	2994.13
674.951	2974.7
675.3	2971.53
675.649	3017.63
675.998	3091.75
676.346	3142.6
676.695	3075.94
677.044	3111.87
677.393	3153.45
677.741	3185.54
678.09	3202.49
678.438	3194.35
678.787	3231.41
679.135	3299.66
679.484	3258.3
679.832	3294.91
680.181	3327.91
680.529	3349.6
680.877	3374.01
681.225	3390.96
681.573	3443.61
681.922	3391.18
682.27	3484.74
682.618	3478.19
682.966	3497.17
683.314	3519.77
683.661	3559.54
684.009	3604.51
684.357	3584.4
684.705	3622.59
685.053	3657.16
685.4	3619.42
685.748	3626.66
686.095	3694.9
686.443	3718.41
686.79	3698.74
687.138	3782.13
687.485	3808.8
687.832	3843.15
688.18	3844.28
688.527	3865.07
688.874	3891.51
689.221	3903.03
689.568	3890.83
689.915	3957.95
690.262	3947.1
690.609	3995.46
690.956	3987.32
691.303	4038.17
691.65	4056.48
691.997	4040.88
692.344	4116.13
692.69	4099.86
693.037	4170.37
693.383	4133.54
693.73	4213.76
694.077	4221.22
694.423	4255.34
694.769	4250.59
695.116	4287.2
695.462	4310.03
695.808	4313.64
696.155	4352.06
696.501	4333.76
696.847	4350.93
697.193	4380.31
697.539	4441.78
697.885	4421.21
698.231	4433.87
698.577	4464.37
698.923	4481.77
699.269	4494.2
699.614	4514.77
699.96	4516.58
700.306	4543.47
700.651	4575.78
700.997	4577.59
701.342	4641.09
701.688	4627.76
702.033	4644.48
702.379	4751.6
702.724	4736.91
703.069	4778.04
703.415	4724.48
703.76	4755.67
704.105	4738.94
704.45	4827.08
704.795	4775.55
705.14	4819.62
705.485	4827.53
705.83	4858.71
706.175	4915.89
706.52	4861.65
706.865	4914.31
707.209	4906.62
707.554	4940.29
707.899	4998.6
708.243	4985.49
708.588	4997.24
708.932	4994.08
709.277	4972.84
709.621	5041.99
709.966	5015.55
710.31	5079.27
710.654	5098.26
710.998	5105.26
711.342	5110.01
711.687	5122.21
712.031	5102.1
712.375	5150.91
712.719	5203.56
713.063	5164.92
713.407	5210.12
713.75	5207.41
714.094	5177.8
714.438	5216.9
714.782	5234.3
715.125	5245.82
715.469	5291.7
715.812	5286.27
716.156	5280.62
716.499	5287.4
716.843	5312.71
717.186	5285.14
717.53	5340.96
717.873	5400.17
718.216	5356.78
718.559	5355.88
718.902	5344.8
719.246	5395.42
719.589	5330.34
719.932	5396.1
720.275	5451.92
720.617	5398.59
720.96	5434.29
721.303	5465.25
721.646	5430.9
721.989	5432.94
722.331	5439.94
722.674	5433.61
723.016	5493.27
723.359	5534.63
723.701	5477.23
724.044	5453.95
724.386	5465.7
724.729	5471.81
725.071	5517.68
725.413	5486.49
725.755	5510.9
726.097	5512.48
726.439	5437.23
726.782	5462.54
727.124	5522.2
727.465	5514.06
727.807	5514.29
728.149	5533.27
728.491	5488.75
728.833	5540.73
729.175	5518.13
729.516	5466.83
729.858	5549.09
730.199	5541.41
730.541	5567.85
730.882	5585.93
731.224	5536.21
731.565	5529.2
731.906	5553.84
732.248	5536.44
732.589	5529.66
732.93	5591.58
733.271	5514.52
733.612	5568.3
733.953	5531.92
734.294	5529.66
734.635	5558.36
734.976	5556.77
735.317	5526.72
735.658	5552.03
735.999	5531.01
736.339	5536.66
736.68	5582.31
737.021	5502.31
737.361	5521.3
737.702	5522.65
738.042	5514.52
738.383	5539.83
738.723	5524.01
739.063	5537.57
739.404	5559.94
739.744	5597.68
740.084	5500.28
740.424	5568.3
740.764	5531.24
741.104	5556.55
741.444	5535.98
741.784	5481.97
742.124	5583.44
742.464	5494.4
742.804	5507.28
743.143	5491.24
743.483	5498.47
743.823	5442.88
744.162	5499.83
744.502	5495.08
744.841	5462.77
745.181	5512.03
745.52	5477.23
745.86	5501.18
746.199	5536.89
746.538	5467.74
746.877	5517.68
747.216	5481.3
747.556	5466.61
747.895	5498.25
748.234	5438.81
748.573	5486.04
748.911	5406.95
749.25	5444.24
749.589	5456.21
749.928	5415.76
750.267	5406.27
750.605	5401.3
750.944	5345.25
751.283	5402.88
751.621	5405.37
751.96	5360.4
752.298	5366.95
752.636	5375.54
752.975	5331.92
753.313	5333.5
753.651	5340.28
753.989	5284.69
754.327	5295.76
754.666	5303.22
755.004	5356.33
755.342	5274.75
755.679	5277.46
756.017	5257.57
756.355	5259.83
756.693	5236.33
757.031	5283.34
757.368	5224.35
757.706	5219.16
758.044	5228.42
758.381	5199.72
758.719	5168.31
759.056	5187.52
759.394	5198.59
759.731	5100.52
760.068	5151.36
760.405	5112.49
760.743	5126.5
761.08	5061.87
761.417	5042.66
761.754	5055.32
762.091	5070.46
762.428	5038.14
762.765	5024.59
763.102	4993.17
763.438	4957.24
763.775	4968.32
764.112	4999.95
764.449	4966.51
764.785	4980.74
765.122	4919.05
765.458	4940.52
765.795	4882.22
766.131	4910.24
766.467	4892.16
766.804	4861.88
767.14	4843.12
767.476	4861.2
767.812	4849.22
768.148	4827.53
768.485	4804.7
768.821	4746.17
769.157	4800.41
769.492	4745.5
769.828	4784.82
770.164	4717.93
770.5	4726.51
770.836	4745.95
771.171	4675.22
771.507	4713.41
771.842	4653.07
772.178	4671.6
772.513	4665.5
772.849	4594.77
773.184	4588.66
773.519	4606.52
773.855	4584.6
774.19	4565.61
774.525	4554.09
774.86	4544.15
775.195	4518.16
775.53	4503.47
775.865	4497.37
776.2	4464.83
776.535	4449.46
776.87	4459.85
777.205	4421.66
777.539	4415.34
777.874	4398.39
778.209	4372.17
778.543	4375.11
778.878	4359.52
779.212	4344.38
779.547	4366.75
779.881	4375.34
780.215	4352.29
780.55	4342.57
780.884	4274.77
781.218	4260.31
781.552	4269.58
781.886	4265.96
782.22	4235
782.554	4210.82
782.888	4196.81
783.222	4179.41
783.556	4182.8
783.889	4178.96
784.223	4142.57
784.557	4115.23
784.89	4115.68
785.224	4118.62
785.557	4103.48
785.891	4096.47
786.224	4074.78
786.558	4123.82
786.891	4096.7
787.224	4053.09
787.557	4027.55
787.891	4033.43
788.224	4025.29
788.557	3966.08
788.89	3972.41
789.223	3962.47
789.556	3973.54
789.888	3952.3
790.221	3948.23
790.554	3896.71
790.887	3922.02
791.219	3909.59
791.552	3895.58
791.884	3896.93
792.217	3831.62
792.549	3854.22
792.882	3833.43
793.214	3803.37
793.546	3795.01
793.879	3766.09
794.211	3736.48
794.543	3814
794.875	3776.93
795.207	3813.09
795.539	3746.88
795.871	3758.86
796.203	3734.45
796.535	3693.77
796.867	3708.91
797.198	3675.92
797.53	3691.74
797.862	3672.98
798.193	3657.62
798.525	3630.72
798.856	3639.31
799.188	3634.34
799.519	3606.77
799.85	3591.85
800.182	3592.31
800.513	3580.1
800.844	3550.95
801.175	3590.72
801.506	3574
801.837	3537.39
802.168	3545.98
802.499	3533.55
802.83	3502.82
803.161	3527
803.491	3514.79
803.822	3499.2
804.153	3491.97
804.483	3465.76
804.814	3446.32
805.145	3437.73
805.475	3442.71
805.805	3438.86
806.136	3426.44
806.466	3454.46
806.796	3397.28
807.126	3389.6
807.457	3366.55
807.787	3405.42
808.117	3366.32
808.447	3354.57
808.777	3401.58
809.107	3379.66
809.436	3341.69
809.766	3341.01
810.096	3362.26
810.426	3343.5
810.755	3314.35
811.085	3307.34
811.414	3331.97
811.744	3266.44
812.073	3229.6
812.403	3292.88
812.732	3244.07
813.061	3271.41
813.39	3227.8
813.719	3209.27
814.049	3237.74
814.378	3258.76
814.707	3228.02
815.036	3203.84
815.365	3176.05
815.693	3162.49
816.022	3175.14
816.351	3216.72
816.68	3146.67
817.008	3144.18
817.337	3138.08
817.665	3124.3
817.994	3148.25
818.322	3125.43
818.651	3086.11
818.979	3142.38
819.307	3102.15
819.636	3108.7
819.964	3126.78
820.292	3115.94
820.62	3071.87
820.948	3097.18
821.276	3112.77
821.604	3096.05
821.932	3073.45
822.259	3070.51
822.587	3079.55
822.915	3110.29
823.243	3122.71
823.57	3037.52
823.898	3103.96
824.225	3061.25
824.553	3078.2
824.88	3088.82
825.207	3060.57
825.535	3049.27
825.862	3075.71
826.189	3066.9
826.516	3070.29
826.843	3083.17
827.17	3059.44
827.497	3066.22
827.824	3097.4
828.151	3103.73
828.478	3083.62
828.805	3113.22
829.131	3078.87
829.458	3101.02
829.785	3064.86
830.111	3069.38
830.438	3105.09
830.764	3036.62
831.09	3089.95
831.417	3068.25
831.743	3031.19
832.069	3102.83
832.395	3068.48
832.722	3081.81
833.048	3057.41
833.374	3072.32
833.7	3068.03
834.026	3055.82
834.351	3070.29
834.677	3075.48
835.003	3058.08
835.329	3067.8
835.654	3040.91
835.98	3023.06
836.306	3033.45
836.631	3035.03
836.956	3031.19
837.282	3056.05
837.607	3028.93
837.932	2973.57
838.258	3061.7
838.583	2984.87
838.908	2998.65
839.233	3015.15
839.558	3009.27
839.883	2975.6
840.208	2922.49
840.533	3006.11
840.858	2982.61
841.182	2995.26
841.507	2986.22
841.832	2962.72
842.156	2984.19
842.481	2956.84
842.805	2951.42
843.13	2910.29
843.454	2899.22
843.778	2932.21
844.103	2899.22
844.427	2930.86
844.751	2898.54
845.075	2902.16
845.399	2907.58
845.723	2889.95
846.047	2866
846.371	2840.46
846.695	2886.11
847.019	2844.98
847.343	2835.94
847.666	2850.86
847.99	2864.64
848.313	2814.7
848.637	2802.95
848.96	2816.51
849.284	2807.24
849.607	2807.02
849.931	2765.44
850.254	2770.63
850.577	2803.63
850.9	2723.18
851.223	2732.22
851.546	2682.27
851.869	2717.3
852.192	2678.43
852.515	2684.31
852.838	2691.31
853.161	2685.89
853.483	2649.05
853.806	2641.82
854.129	2657.19
854.451	2630.75
854.774	2623.52
855.096	2601.15
855.419	2602.73
855.741	2607.7
856.063	2586.68
856.385	2596.17
856.708	2601.82
857.03	2553.46
857.352	2573.35
857.674	2574.48
857.996	2538.32
858.318	2527.25
858.64	2525.67
858.961	2515.95
859.283	2515.5
859.605	2501.26
859.926	2534.26
860.248	2513.92
860.57	2503.75
860.891	2508.49
861.212	2507.14
861.534	2486.35
861.855	2479.57
862.176	2495.61
862.498	2516.4
862.819	2485.67
863.14	2496.52
863.461	2464.65
863.782	2443.64
864.103	2433.92
864.424	2481.83
864.745	2474.6
865.065	2461.04
865.386	2442.28
865.707	2421.04
866.027	2460.59
866.348	2444.54
866.668	2442.28
866.989	2446.12
867.309	2388.27
867.63	2423.98
867.95	2425.56
868.27	2398.89
868.59	2387.37
868.91	2365.9
869.23	2378.33
869.55	2375.62
869.87	2386.91
870.19	2361.83
870.51	2392.34
870.83	2341.49
871.15	2379.23
871.469	2393.02
871.789	2381.04
872.109	2368.61
872.428	2332.23
872.748	2355.28
873.067	2339.23
873.386	2387.59
873.706	2342.85
874.025	2317.09
874.344	2346.69
874.663	2327.71
874.982	2309.63
875.301	2303.3
875.62	2317.54
875.939	2317.54
876.258	2337.65
876.577	2289.97
876.896	2291.1
877.214	2304.66
877.533	2345.11
877.852	2326.35
878.17	2281.61
878.489	2285.67
878.807	2325
879.125	2301.04
879.444	2290.65
879.762	2283.64
880.08	2282.74
880.398	2280.7
880.716	2272.57
881.034	2272.34
881.352	2285.67
881.67	2274.83
881.988	2274.38
882.306	2270.08
882.624	2266.69
882.941	2216.07
883.259	2226.69
883.577	2222.17
883.894	2184.43
884.212	2214.94
884.529	2211.78
884.846	2226.69
885.164	2197.32
885.481	2216.52
885.798	2212.68
886.115	2196.86
886.432	2184.21
886.75	2184.43
887.067	2202.96
887.383	2200.03
887.7	2197.99
888.017	2146.69
888.334	2148.05
888.651	2195.51
888.967	2157.32
889.284	2123.42
889.6	2144.44
889.917	2131.78
890.233	2144.89
890.55	2113.48
890.866	2132.23
891.182	2130.88
891.498	2136.75
891.815	2145.57
892.131	2120.03
892.447	2130.65
892.763	2092.91
893.079	2096.98
893.395	2115.74
893.71	2074.61
894.026	2079.13
894.342	2075.28
894.657	2036.87
894.973	2037.09
895.289	2073.02
895.604	2066.47
895.92	2053.82
896.235	2032.12
896.55	2059.92
896.865	2038.9
897.181	2039.81
897.496	2000.94
897.811	2035.96
898.126	2007.49
898.441	1976.53
898.756	2003.65
899.071	2016.08
899.386	1985.57
899.7	1991.44
900.015	1958.68
900.33	1960.03
900.644	1929.53
900.959	1953.03
901.273	1938.56
901.588	1951.67
901.902	1939.24
902.216	1931.11
902.531	1941.73
902.845	1932.01
903.159	1943.99
903.473	1924.1
903.787	1908.51
904.101	1882.3
904.415	1892.92
904.729	1878
905.042	1861.28
905.356	1867.38
905.67	1859.02
905.984	1901.73
906.297	1859.7
906.611	1812.69
906.924	1838.91
907.237	1843.2
907.551	1810.43
907.864	1815.63
908.177	1813.82
908.491	1856.53
908.804	1836.42
909.117	1791.68
909.43	1802.3
909.743	1792.81
910.056	1804.78
910.368	1789.19
910.681	1770.21
910.994	1764.11
911.307	1772.47
911.619	1756.87
911.932	1725.69
912.244	1732.02
912.557	1714.62
912.869	1733.82
913.181	1706.48
913.494	1708.97
913.806	1735.86
914.118	1733.82
914.43	1701.96
914.742	1700.83
915.054	1707.38
915.366	1682.98
915.678	1676.2
915.99	1656.31
916.302	1654.05
916.613	1647.95
916.925	1674.84
917.236	1661.28
917.548	1639.14
917.859	1663.09
918.171	1610.66
918.482	1619.93
918.794	1609.76
919.105	1644.34
919.416	1600.95
919.727	1608.86
920.038	1617.22
920.349	1616.77
920.66	1574.73
920.971	1603.66
921.282	1572.47
921.593	1551.23
921.903	1559.37
922.214	1575.41
922.525	1571.57
922.835	1538.8
923.146	1537.9
923.456	1553.94
923.767	1514.85
924.077	1551
924.387	1511.01
924.697	1497.22
925.008	1519.82
925.318	1498.35
925.628	1524.34
925.938	1503.77
926.248	1488.63
926.558	1518.46
926.867	1485.92
927.177	1477.33
927.487	1461.74
927.796	1473.72
928.106	1465.58
928.416	1453.83
928.725	1477.79
929.034	1435.98
929.344	1452.93
929.653	1416.09
929.962	1429.43
930.271	1422.65
930.581	1424.91
930.89	1399.6
931.199	1398.24
931.508	1415.41
931.817	1406.83
932.125	1386.94
932.434	1388.75
932.743	1384.91
933.051	1356.43
933.36	1366.15
933.669	1338.81
933.977	1374.74
934.286	1354.63
934.594	1347.17
934.902	1341.74
935.21	1351.01
935.519	1344.46
935.827	1356.89
936.135	1320.05
936.443	1323.89
936.751	1351.91
937.059	1297.45
937.367	1333.83
937.674	1306.49
937.982	1324.12
938.29	1303.33
938.597	1297.9
938.905	1267.17
939.213	1289.77
939.52	1294.97
939.827	1266.49
940.135	1301.97
940.442	1268.07
940.749	1287.28
941.056	1264.23
941.363	1251.13
941.67	1244.12
941.977	1263.1
942.284	1250.45
942.591	1217.23
942.898	1210.45
943.205	1222.65
943.511	1237.34
943.818	1242.31
944.125	1219.71
944.431	1213.61
944.738	1200.73
945.044	1193.73
945.35	1192.14
945.657	1197.57
945.963	1193.05
946.269	1191.47
946.575	1165.7
946.881	1190.79
947.187	1181.97
947.493	1179.94
947.799	1157.12
948.105	1157.12
948.41	1165.25
948.716	1191.47
949.022	1167.06
949.327	1165.7
949.633	1145.82
949.938	1113.73
950.244	1127.29
950.549	1148.98
950.854	1151.24
951.16	1101.98
951.465	1130.22
951.77	1124.57
952.075	1151.69
952.38	1138.36
952.685	1126.83
952.99	1128.19
953.294	1099.72
953.599	1097.23
953.904	1078.25
954.209	1088.87
954.513	1088.87
954.818	1092.26
955.122	1076.21
955.426	1074.18
955.731	1074.18
956.035	1081.86
956.339	1061.07
956.643	1038.02
956.948	1071.92
957.252	1054.29
957.556	1064.69
957.86	1062.88
958.163	1075.31
958.467	1032.6
958.771	1030.34
959.075	1014.97
959.378	1041.19
959.682	1033.05
959.985	1021.53
960.289	1031.02
960.592	1035.54
960.896	1004.58
961.199	1037.35
961.502	1015.43
961.805	1008.19
962.108	1031.47
962.411	980.17
962.714	1022.43
963.017	1009.1
963.32	1015.88
963.623	986.05
963.926	981.98
964.228	975.65
964.531	991.92
964.833	981.3
965.136	957.12
965.438	985.14
965.741	959.16
966.043	969.32
966.345	963
966.648	982.21
966.95	973.62
967.252	949.66
967.554	929.78
967.856	952.15
968.158	963.68
968.46	957.12
968.761	960.74
969.063	932.26
969.365	936.11
969.666	933.85
969.968	920.06
970.269	931.59
970.571	906.95
970.872	918.25
971.174	943.56
971.475	917.57
971.776	892.94
972.077	901.08
972.378	922.32
972.679	921.87
972.98	903.79
973.281	892.94
973.582	899.95
973.883	877.35
974.183	871.7
974.484	888.65
974.785	878.48
975.085	886.84
975.386	869.44
975.686	866.95
975.986	866.05
976.287	880.51
976.587	872.6
976.887	868.08
977.187	851.59
977.487	855.43
977.787	846.16
978.087	857.46
978.387	836.9
978.687	871.7
978.987	847.52
979.286	817.92
979.586	853.62
979.885	852.72
980.185	828.09
980.484	818.59
980.784	839.61
981.083	849.1
981.382	842.55
981.682	829.89
981.981	824.02
982.28	823.11
982.579	834.19
982.878	806.84
983.177	809.55
983.475	814.53
983.774	805.71
984.073	784.47
984.372	809.1
984.67	791.7
984.969	775.43
985.267	798.71
985.566	772.72
985.864	803.91
986.162	785.37
986.461	800.52
986.759	793.74
987.057	774.75
987.355	774.98
987.653	779.27
987.951	779.05
988.249	773.4
988.547	763
988.844	747.41
989.142	753.96
989.44	775.43
989.737	774.08
990.035	744.02
990.332	764.81
990.63	740.86
990.927	733.85
991.224	737.47
991.521	735.21
991.819	747.86
992.116	736.11
992.413	741.08
992.71	713.29
993.006	712.83
993.303	708.31
993.6	737.24
993.897	732.72
994.193	729.33
994.49	719.61
994.787	700.18
995.083	715.77
995.379	708.54
995.676	693.63
995.972	692.04
996.268	712.61
996.565	708.99
996.861	692.95
997.157	697.47
997.453	714.19
997.749	674.87
998.044	675.32
998.34	701.76
998.636	696.34
998.932	692.72
999.227	688.88
999.523	680.74
999.818	684.81
1000.114	671.93
1000.409	669.22
1000.704	660.41
1001	643.91
1001.295	667.86
1001.59	676
1001.885	667.64
1002.18	663.57
1002.475	647.3
1002.77	668.32
1003.065	660.18
1003.359	657.47
1003.654	623.35
1003.949	643.68
1004.243	628.09
1004.538	641.65
1004.832	653.17
1005.127	664.47
1005.421	626.96
1005.715	637.36
1006.009	641.88
1006.304	605.27
1006.598	640.97
1006.892	638.26
1007.186	611.82
1007.48	625.83
1007.773	600.07
1008.067	630.58
1008.361	599.39
1008.655	588.54
1008.948	633.74
1009.242	608.43
1009.535	608.43
1009.829	606.62
1010.122	634.64
1010.415	617.47
1010.708	597.81
1011.001	588.09
1011.295	592.84
1011.588	590.8
1011.881	606.62
1012.173	592.39
1012.466	581.09
1012.759	577.47
1013.052	591.48
1013.344	582.44
1013.637	594.42
1013.93	573.63
1014.222	575.89
1014.514	572.73
1014.807	570.47
1015.099	562.33
1015.391	553.06
1015.683	569.34
1015.976	559.84
1016.268	568.88
1016.56	553.06
1016.851	558.94
1017.143	549.22
1017.435	567.53
1017.727	549.22
1018.018	545.16
1018.31	558.49
1018.602	539.96
1018.893	556.91
1019.185	542.44
1019.476	534.08
1019.767	524.14
1020.058	540.64
1020.35	520.3
1020.641	537.92
1020.932	543.57
1021.223	525.04
1021.514	530.47
1021.804	496.79
1022.095	507.19
1022.386	508.09
1022.677	510.58
1022.967	513.74
1023.258	493.41
1023.548	496.79
1023.839	511.48
1024.129	514.87
1024.419	520.98
1024.709	498.83
1025	508.55
1025.29	522.33
1025.58	508.55
1025.87	510.58
1026.16	494.54
1026.449	492.05
1026.739	521.65
1027.029	473.74
1027.319	492.73
1027.608	476.46
1027.898	485.04
1028.187	481.43
1028.477	486.4
1028.766	504.48
1029.055	467.87
1029.344	490.92
1029.634	474.2
1029.923	477.36
1030.212	472.61
1030.501	477.36
1030.79	478.26
1031.078	474.87
1031.367	478.94
1031.656	467.64
1031.945	453.86
1032.233	471.94
1032.522	474.65
1032.81	447.08
1033.099	468.32
1033.387	454.54
1033.675	462.9
1033.963	475.78
1034.251	470.81
1034.54	454.54
1034.828	440.98
1035.116	443.69
1035.403	450.47
1035.691	461.32
1035.979	437.81
1036.267	447.76
1036.554	464.25
1036.842	434.2
1037.129	444.59
1037.417	443.69
1037.704	423.58
1037.992	427.19
1038.279	447.98
1038.566	441.66
1038.853	441.66
1039.14	441.66
