Data from carpet_green_FLMS001491_00033.txt Node
Date: Wed Feb 08 10:35:16 GMT 2017
User: dcchb
Spectrometer: FLMS00149
Trigger mode: 0
Integration Time (sec): 2.000000E-2
Scans to average: 10
Electric dark correction enabled: true
Nonlinearity correction enabled: false
Boxcar width: 0
XAxis mode: Wavelengths
Number of Pixels in Spectrum: 2048
>>>>>Begin Spectral Data<<<<<
341.393	-11.34
341.776	-11.34
342.16	-11.34
342.543	-56.99
342.927	-78.91
343.31	-90.44
343.693	-71.68
344.077	-63.54
344.46	-55.63
344.843	-24.67
345.226	-38.23
345.61	-24.67
345.993	-26.93
346.376	-13.38
346.759	25.72
347.142	26.17
347.525	46.06
347.908	61.65
348.291	70.01
348.674	70.24
349.057	109.33
349.44	119.95
349.823	144.36
350.206	174.19
350.588	169.22
350.971	187.3
351.354	187.75
351.737	225.71
352.119	219.61
352.502	219.39
352.884	249.22
353.267	252.38
353.65	254.64
354.032	276.11
354.414	282.66
354.797	278.59
355.179	283.79
355.562	300.97
355.944	309.1
356.326	316.79
356.709	299.38
357.091	316.79
357.473	309.1
357.855	325.37
358.238	312.49
358.62	313.17
359.002	325.6
359.384	308.42
359.766	314.75
360.148	304.81
360.53	300.06
360.912	308.88
361.294	308.88
361.676	293.28
362.057	287.63
362.439	320.4
362.821	316.11
363.203	298.48
363.584	298.03
363.966	311.81
364.348	299.61
364.729	304.81
365.111	288.31
365.493	290.8
365.874	276.79
366.256	301.87
366.637	287.86
367.019	279.5
367.4	291.02
367.781	281.31
368.163	285.15
368.544	280.4
368.925	290.12
369.306	291.25
369.688	292.15
370.069	286.73
370.45	277.69
370.831	276.56
371.212	294.19
371.593	274.07
371.974	286.5
372.355	273.85
372.736	261.19
373.117	279.5
373.498	281.76
373.879	289.22
374.26	285.83
374.641	284.02
375.021	265.26
375.402	261.42
375.783	280.4
376.163	256.67
376.544	280.63
376.925	287.41
377.305	276.56
377.686	284.7
378.066	279.05
378.447	272.49
378.827	300.74
379.208	301.87
379.588	293.28
379.968	311.14
380.349	283.57
380.729	312.04
381.109	295.09
381.489	290.12
381.87	294.64
382.25	309.78
382.63	304.81
383.01	306.62
383.39	309.78
383.77	286.73
384.15	320.18
384.53	292.15
384.91	287.86
385.29	296
385.67	290.35
386.049	305.26
386.429	292.83
386.809	275.43
387.189	315.88
387.568	311.36
387.948	289.89
388.328	285.37
388.707	296.45
389.087	304.13
389.466	303.68
389.846	305.94
390.225	303.68
390.605	305.49
390.984	325.37
391.363	290.57
391.743	286.28
392.122	293.06
392.501	295.77
392.881	301.19
393.26	305.49
393.639	283.79
394.018	305.71
394.397	319.95
394.776	320.18
395.155	308.42
395.534	316.79
395.913	308.88
396.292	330.57
396.671	300.97
397.05	326.95
397.429	326.73
397.808	304.13
398.186	313.4
398.565	305.71
398.944	325.15
399.323	314.75
399.701	314.75
400.08	286.5
400.458	305.49
400.837	298.71
401.215	294.41
401.594	301.42
401.972	324.92
402.351	326.95
402.729	316.56
403.107	319.05
403.486	312.49
403.864	339.16
404.242	318.82
404.62	309.78
404.999	320.63
405.377	309.33
405.755	325.82
406.133	305.26
406.511	320.63
406.889	305.94
407.267	324.02
407.645	309.33
408.023	308.88
408.401	329.89
408.779	314.07
409.156	319.5
409.534	333.06
409.912	321.98
410.29	316.56
410.667	304.81
411.045	317.24
411.422	328.76
411.8	319.72
412.178	316.56
412.555	313.17
412.933	312.94
413.31	320.18
413.687	332.38
414.065	348.88
414.442	350
414.819	336.45
415.197	335.99
415.574	325.82
415.951	342.77
416.328	320.85
416.705	319.27
417.082	342.55
417.46	348.42
417.837	349.55
418.214	340.29
418.591	334.86
418.967	347.07
419.344	331.25
419.721	335.09
420.098	330.12
420.475	342.1
420.852	326.28
421.228	324.69
421.605	335.54
421.982	345.71
422.358	336.22
422.735	343.23
423.111	330.12
423.488	343
423.864	369.21
424.241	362.21
424.617	347.07
424.994	358.82
425.37	327.18
425.746	348.65
426.123	356.33
426.499	355.43
426.875	359.95
427.251	347.97
427.627	356.33
428.003	338.48
428.379	354.75
428.756	365.37
429.132	376.44
429.507	364.47
429.883	361.53
430.259	366.28
430.635	361.08
431.011	337.8
431.387	368.76
431.763	368.08
432.138	363.79
432.514	378.03
432.89	380.74
433.265	361.76
433.641	361.08
434.016	347.52
434.392	369.21
434.767	377.8
435.143	370.34
435.518	372.83
435.894	374.41
436.269	371.47
436.644	391.59
437.02	379.83
437.395	376.22
437.77	364.69
438.145	376.9
438.52	357.01
438.895	386.84
439.271	385.03
439.646	367.41
440.021	394.98
440.395	402.21
440.77	380.51
441.145	377.57
441.52	371.02
441.895	381.87
442.27	393.62
442.645	364.69
443.019	379.38
443.394	394.07
443.769	401.53
444.143	372.83
444.518	394.98
444.892	407.18
445.267	399.72
445.641	389.55
446.016	410.79
446.39	415.77
446.764	410.34
447.139	387.97
447.513	408.31
447.887	411.47
448.262	399.27
448.636	392.49
449.01	392.94
449.384	415.77
449.758	426.84
450.132	418.7
450.506	431.58
450.88	429.55
451.254	414.86
451.628	423.68
452.002	414.41
452.376	432.04
452.75	419.16
453.123	417.57
453.497	412.15
453.871	424.58
454.244	426.84
454.618	427.07
454.992	451.7
455.365	413.96
455.739	407.63
456.112	430.68
456.486	423.22
456.859	451.25
457.232	445.37
457.606	441.98
457.979	423.68
458.352	439.04
458.725	442.21
459.099	445.37
459.472	463.22
459.845	438.36
460.218	435.65
460.591	458.48
460.964	468.87
461.337	471.13
461.71	461.64
462.083	485.14
462.456	465.03
462.829	472.49
463.201	474.3
463.574	495.31
463.947	453.96
464.32	492.15
464.692	482.66
465.065	476.78
465.438	474.52
465.81	494.41
466.183	493.73
466.555	486.05
466.928	501.19
467.3	516.78
467.672	512.49
468.045	526.95
468.417	497.57
468.789	506.61
469.161	514.29
469.534	504.35
469.906	515.88
470.278	523.56
470.65	517.46
471.022	514.97
471.394	558.36
471.766	550.23
472.138	560.62
472.51	546.84
472.882	569.66
473.253	551.36
473.625	567.85
473.997	570.11
474.369	556.33
474.74	570.34
475.112	570.56
475.484	596.33
475.855	588.87
476.227	611.24
476.598	628.19
476.97	598.13
477.341	608.08
477.713	627.96
478.084	620.51
478.455	630.9
478.827	627.96
479.198	627.51
479.569	674.52
479.94	663.89
480.311	671.35
480.682	658.47
481.053	677.23
481.424	683.78
481.795	692.82
482.166	693.95
482.537	705.7
482.908	690.11
483.279	708.87
483.65	746.6
484.021	746.83
484.391	770.78
484.762	752.03
485.133	747.51
485.503	753.16
485.874	777.79
486.244	767.85
486.615	767.85
486.985	791.12
487.356	825.7
487.726	792.25
488.097	817.56
488.467	812.82
488.837	812.59
489.207	827.96
489.578	846.94
489.948	838.13
490.318	863.89
490.688	876.32
491.058	864.34
491.428	882.87
491.798	885.81
492.168	898.47
492.538	903.21
492.908	903.66
493.278	910.22
493.648	923.1
494.017	940.72
494.387	938.01
494.757	929.65
495.126	922.87
495.496	952.02
495.866	942.98
496.235	954.96
496.605	977.56
496.974	975.98
497.344	975.53
497.713	981.17
498.082	976.2
498.452	972.59
498.821	975.53
499.19	984.11
499.559	1029.31
499.928	1004.9
500.298	987.5
500.667	1006.71
501.036	988.86
501.405	1034.28
501.774	1036.54
502.143	1034.28
502.512	1019.59
502.88	1070.21
503.249	1034.51
503.618	1047.84
503.987	1062.53
504.356	1061.85
504.724	1039.93
505.093	1064.56
505.462	1078.35
505.83	1073.15
506.199	1083.32
506.567	1089.19
506.936	1059.36
507.304	1116.31
507.672	1099.14
508.041	1083.09
508.409	1122.64
508.777	1100.72
509.145	1127.61
509.514	1134.84
509.882	1097.56
510.25	1119.93
510.618	1136.2
510.986	1109.98
511.354	1138.01
511.722	1151.11
512.09	1155.41
512.458	1129.87
512.826	1134.84
513.193	1152.92
513.561	1156.99
513.929	1158.35
514.297	1185.46
514.664	1203.77
515.032	1173.71
515.4	1173.94
515.767	1207.84
516.135	1199.47
516.502	1168.51
516.869	1167.84
517.237	1198.12
517.604	1223.65
517.972	1195.63
518.339	1211
518.706	1238.12
519.073	1207.16
519.44	1201.51
519.808	1260.26
520.175	1230.66
520.542	1247.16
520.909	1256.65
521.276	1255.07
521.643	1234.05
522.009	1247.61
522.376	1271.11
522.743	1274.5
523.11	1260.72
523.477	1254.61
523.843	1271.11
524.21	1260.26
524.577	1260.26
524.943	1280.83
525.31	1283.77
525.676	1289.19
526.043	1304.33
526.409	1307.04
526.776	1329.41
527.142	1307.95
527.508	1328.06
527.874	1340.26
528.241	1312.24
528.607	1329.41
528.973	1327.61
529.339	1313.14
529.705	1312.24
530.071	1373.25
530.437	1358.11
530.803	1336.42
531.169	1367.83
531.535	1342.75
531.901	1350.43
532.267	1362.86
532.632	1354.95
532.998	1348.62
533.364	1362.86
533.73	1368.74
534.095	1361.05
534.461	1344.1
534.826	1375.06
535.192	1378.23
535.557	1368.06
535.923	1390.88
536.288	1376.64
536.653	1366.48
537.019	1383.2
537.384	1390.88
537.749	1386.81
538.114	1366.48
538.479	1356.31
538.845	1398.34
539.21	1385.01
539.575	1386.81
539.94	1408.96
540.305	1385.46
540.67	1401.73
541.034	1381.39
541.399	1391.79
541.764	1406.02
542.129	1388.4
542.494	1378.45
542.858	1406.7
543.223	1398.11
543.587	1401.73
543.952	1383.2
544.316	1394.27
544.681	1397.44
545.045	1396.31
545.41	1407.38
545.774	1356.08
546.138	1388.62
546.503	1392.46
546.867	1415.06
547.231	1394.5
547.595	1384.33
547.959	1412.8
548.324	1418.45
548.688	1413.03
549.052	1402.63
549.416	1399.02
549.779	1428.17
550.143	1401.5
550.507	1433.14
550.871	1433.59
551.235	1423.65
551.599	1423.2
551.962	1405.8
552.326	1429.52
552.689	1422.75
553.053	1437.43
553.417	1408.06
553.78	1441.28
554.143	1432.46
554.507	1428.39
554.87	1465.23
555.234	1439.69
555.597	1440.6
555.96	1464.55
556.323	1423.87
556.686	1453.03
557.05	1444.89
557.413	1436.53
557.776	1426.81
558.139	1445.8
558.502	1461.61
558.865	1475.4
559.228	1453.7
559.59	1449.64
559.953	1486.47
560.316	1503.87
560.679	1491.22
561.041	1468.62
561.404	1472.91
561.767	1486.7
562.129	1467.72
562.492	1490.31
562.854	1501.61
563.217	1473.59
563.579	1480.82
563.941	1520.82
564.304	1498.9
564.666	1486.47
565.028	1494.61
565.39	1497.55
565.753	1521.05
566.115	1517.88
566.477	1511.78
566.839	1538
567.201	1525.34
567.563	1528.05
567.925	1535.74
568.287	1508.39
568.648	1552.69
569.01	1511.33
569.372	1549.75
569.734	1533.7
570.095	1549.52
570.457	1551.1
570.819	1552.69
571.18	1519.24
571.542	1536.41
571.903	1554.27
572.265	1543.19
572.626	1543.87
572.987	1544.55
573.349	1551.78
573.71	1556.98
574.071	1546.13
574.432	1551.56
574.794	1577.32
575.155	1541.61
575.516	1534.15
575.877	1570.76
576.238	1547.94
576.599	1541.16
576.96	1564.44
577.32	1526.7
577.681	1532.35
578.042	1523.08
578.403	1546.81
578.763	1560.37
579.124	1521.5
579.485	1523.08
579.845	1550.2
580.206	1554.94
580.566	1523.99
580.927	1552.01
581.287	1550.43
581.648	1526.92
582.008	1517.21
582.368	1524.89
582.728	1533.7
583.089	1551.33
583.449	1533.93
583.809	1528.51
584.169	1523.31
584.529	1538.9
584.889	1526.02
585.249	1521.95
585.609	1493.25
585.969	1550.2
586.329	1512.69
586.688	1484.89
587.048	1490.54
587.408	1517.21
587.768	1503.19
588.127	1519.69
588.487	1489.41
588.846	1486.25
589.206	1473.59
589.565	1526.25
589.925	1476.3
590.284	1497.32
590.643	1491.22
591.003	1503.19
591.362	1515.17
591.721	1494.16
592.08	1496.19
592.44	1490.31
592.799	1506.81
593.158	1479.01
593.517	1476.75
593.876	1501.84
594.235	1462.97
594.593	1474.27
594.952	1482.63
595.311	1450.09
595.67	1481.95
596.029	1484.66
596.387	1484.21
596.746	1481.95
597.104	1482.63
597.463	1462.97
597.822	1461.39
598.18	1492.35
598.538	1479.24
598.897	1449.41
599.255	1481.5
599.613	1500.48
599.972	1484.66
600.33	1484.44
600.688	1454.16
601.046	1479.01
601.404	1482.63
601.762	1462.29
602.12	1465.68
602.478	1475.17
602.836	1463.42
603.194	1465.23
603.552	1480.37
603.91	1476.53
604.268	1475.17
604.625	1487.15
604.983	1485.12
605.341	1468.62
605.698	1484.21
606.056	1526.7
606.413	1495.29
606.771	1487.83
607.128	1500.26
607.485	1502.52
607.843	1490.77
608.2	1513.14
608.557	1495.96
608.914	1507.71
609.272	1510.2
609.629	1515.17
609.986	1486.92
610.343	1510.43
610.7	1524.44
611.057	1517.88
611.414	1506.36
611.771	1519.69
612.127	1528.28
612.484	1541.84
612.841	1533.7
613.198	1532.57
613.554	1509.07
613.911	1525.12
614.267	1551.33
614.624	1531.44
614.98	1523.53
615.337	1549.97
615.693	1552.01
616.05	1527.15
616.406	1532.57
616.762	1552.91
617.118	1529.86
617.475	1543.87
617.831	1513.36
618.187	1542.52
618.543	1543.42
618.899	1554.27
619.255	1538.22
619.611	1544.32
619.967	1543.19
620.323	1562.85
620.678	1534.61
621.034	1537.09
621.39	1544.32
621.746	1550.88
622.101	1547.94
622.457	1538.45
622.812	1538.9
623.168	1566.24
623.523	1522.18
623.879	1535.06
624.234	1578.67
624.589	1522.4
624.945	1540.03
625.3	1523.31
625.655	1538
626.01	1521.5
626.365	1527.38
626.72	1566.92
627.075	1550.65
627.43	1548.17
627.785	1506.81
628.14	1561.5
628.495	1535.74
628.85	1510.88
629.205	1537.32
629.559	1543.19
629.914	1522.86
630.269	1555.85
630.623	1523.99
630.978	1546.58
631.332	1547.26
631.687	1541.61
632.041	1506.81
632.396	1537.09
632.75	1512.46
633.104	1531.22
633.459	1539.35
633.813	1520.6
634.167	1517.88
634.521	1504.78
634.875	1507.26
635.229	1526.02
635.583	1534.15
635.937	1506.13
636.291	1526.7
636.645	1532.8
636.999	1510.88
637.352	1520.82
637.706	1499.58
638.06	1509.3
638.413	1493.7
638.767	1526.7
639.121	1507.04
639.474	1506.13
639.828	1513.82
640.181	1489.18
640.534	1469.75
640.888	1489.86
641.241	1513.82
641.594	1516.53
641.947	1536.64
642.301	1505.91
642.654	1539.35
643.007	1510.65
643.36	1507.94
643.713	1525.34
644.066	1506.36
644.419	1495.74
644.771	1505.45
645.124	1496.19
645.477	1505.45
645.83	1530.76
646.182	1489.86
646.535	1515.17
646.888	1526.47
647.24	1480.6
647.593	1494.16
647.945	1529.41
648.298	1515.4
648.65	1507.04
649.002	1523.99
649.355	1509.97
649.707	1512.23
650.059	1539.8
650.411	1525.79
650.763	1557.88
651.115	1533.02
651.467	1559.01
651.819	1528.96
652.171	1588.84
652.523	1547.26
652.875	1554.27
653.227	1565.11
653.578	1589.75
653.93	1592.91
654.282	1592.23
654.633	1580.03
654.985	1590.88
655.337	1619.8
655.688	1604.89
656.039	1629.52
656.391	1574.15
656.742	1577.09
657.094	1623.19
657.445	1624.32
657.796	1640.37
658.147	1633.14
658.498	1654.38
658.849	1693.25
659.2	1684.89
659.551	1657.09
659.902	1673.13
660.253	1698.22
660.604	1674.26
660.955	1690.31
661.306	1695.96
661.656	1699.35
662.007	1742.51
662.358	1721.95
662.708	1749.52
663.059	1756.97
663.409	1779.12
663.76	1782.51
664.11	1773.24
664.461	1780.25
664.811	1772.34
665.161	1798.55
665.511	1803.07
665.862	1809.85
666.212	1844.43
666.562	1831.55
666.912	1845.33
667.262	1879
667.612	1882.85
667.962	1874.71
668.312	1862.28
668.662	1911.55
669.011	1924.2
669.361	1931.21
669.711	1962.84
670.06	1958.32
670.41	1961.26
670.76	1981.6
671.109	2002.16
671.459	1954.48
671.808	2055.72
672.157	2023.86
672.507	2048.27
672.856	2018.66
673.205	2052.79
673.554	2126.23
673.904	2079.45
674.253	2133.46
674.602	2125.55
674.951	2121.03
675.3	2097.98
675.649	2176.85
675.998	2197.64
676.346	2182.95
676.695	2229.5
677.044	2224.08
677.393	2229.96
677.741	2286.9
678.09	2276.96
678.438	2279.22
678.787	2317.41
679.135	2305.66
679.484	2361.25
679.832	2382.49
680.181	2365.55
680.529	2412.32
680.877	2390.63
681.225	2387.69
681.573	2460.46
681.922	2430.63
682.27	2447.8
682.618	2499.1
682.966	2531.42
683.314	2524.19
683.661	2549.95
684.009	2543.39
684.357	2547.24
684.705	2621.81
685.053	2601.25
685.4	2627.91
685.748	2656.84
686.095	2655.03
686.443	2629.49
686.79	2676.95
687.138	2701.36
687.485	2746.33
687.832	2736.61
688.18	2713.78
688.527	2756.27
688.874	2801.47
689.221	2802.6
689.568	2813.44
689.915	2828.58
690.262	2885.76
690.609	2863.84
690.956	2938.86
691.303	2877.62
691.65	2953.1
691.997	2950.16
692.344	2953.33
692.69	2931.63
693.037	2996.49
693.383	3005.98
693.73	3035.58
694.077	3030.39
694.423	3058.41
694.769	3081.46
695.116	3123.94
695.462	3160.33
695.808	3127.56
696.155	3161.23
696.501	3170.5
696.847	3165.07
697.193	3176.37
697.539	3189.25
697.885	3204.17
698.231	3232.42
698.577	3239.87
698.923	3248.91
699.269	3271.74
699.614	3301.79
699.96	3352.64
700.306	3311.06
700.651	3326.88
700.997	3308.8
701.342	3367.78
701.688	3400.77
702.033	3403.48
702.379	3399.64
702.724	3471.73
703.069	3474.22
703.415	3448.68
703.76	3495.01
704.105	3486.87
704.45	3511.05
704.795	3509.92
705.14	3505.4
705.485	3542.46
705.83	3552.63
706.175	3564.38
706.52	3623.14
706.865	3586.98
707.209	3619.98
707.554	3593.54
707.899	3636.25
708.243	3659.07
708.588	3708.56
708.932	3681.67
709.277	3649.58
709.621	3713.31
709.966	3673.08
710.31	3702.69
710.654	3728.22
710.998	3735.9
711.342	3791.5
711.687	3738.84
712.031	3785.85
712.375	3776.36
712.719	3808.45
713.063	3806.86
713.407	3864.71
713.75	3817.26
714.094	3857.94
714.438	3868.56
714.782	3831.95
715.125	3903.13
715.469	3884.38
715.812	3904.04
716.156	3839.86
716.499	3920.31
716.843	3914.2
717.186	3921.66
717.53	3983.81
717.873	3925.73
718.216	3965.28
718.559	3943.13
718.902	3949.23
719.246	3930.25
719.589	4014.77
719.932	4001.21
720.275	3981.1
720.617	4015.22
720.96	4017.93
721.303	4039.17
721.646	4046.18
721.989	4064.94
722.331	4042.79
722.674	4008.21
723.016	4022.22
723.359	4054.99
723.701	4085.95
724.044	4051.83
724.386	4081.21
724.729	4114.88
725.071	4120.53
725.413	4063.13
725.755	4080.75
726.097	4104.93
726.439	4121.21
726.782	4097.48
727.124	4153.07
727.465	4100.41
727.807	4108.78
728.149	4127.53
728.491	4155.55
728.833	4170.7
729.175	4177.02
729.516	4126.63
729.858	4127.53
730.199	4172.73
730.541	4136.8
730.882	4138.83
731.224	4210.24
731.565	4150.36
731.906	4164.59
732.248	4160.07
732.589	4203.91
732.93	4115.78
733.271	4164.82
733.612	4192.84
733.953	4175.22
734.294	4186.74
734.635	4156.23
734.976	4172.73
735.317	4168.21
735.658	4167.08
735.999	4167.76
736.339	4182.22
736.68	4194.2
737.021	4196.68
737.361	4171.6
737.702	4180.19
738.042	4148.1
738.383	4182.67
738.723	4146.06
739.063	4125.27
739.404	4160.07
739.744	4185.38
740.084	4199.62
740.424	4195.78
740.764	4171.15
741.104	4172.5
741.444	4115.56
741.784	4143.58
742.124	4192.62
742.464	4172.05
742.804	4184.03
743.143	4127.53
743.483	4179.06
743.823	4154.2
744.162	4159.17
744.502	4174.54
744.841	4114.2
745.181	4166.85
745.52	4146.29
745.86	4158.94
746.199	4148.1
746.538	4132.73
746.877	4128.89
747.216	4138.38
747.556	4105.61
747.895	4099.51
748.234	4132.73
748.573	4100.87
748.911	4147.65
749.25	4129.79
749.589	4086.63
749.928	4123.01
750.267	4093.86
750.605	4085.5
750.944	4050.02
751.283	4041.66
751.621	4105.39
751.96	4016.35
752.298	4050.47
752.636	4076.46
752.975	4064.03
753.313	4058.83
753.651	4008.89
753.989	4006.41
754.327	3979.51
754.666	3971.38
755.004	3995.11
755.342	4016.35
755.679	3979.51
756.017	4012.96
756.355	4008.44
756.693	3967.76
757.031	3986.75
757.368	3971.38
757.706	3934.77
758.044	3952.4
758.381	3945.62
758.719	3932.51
759.056	3958.95
759.394	3920.76
759.731	3911.72
760.068	3887.99
760.405	3864.26
760.743	3852.06
761.08	3880.08
761.417	3856.13
761.754	3846.64
762.091	3816.13
762.428	3866.75
762.765	3845.73
763.102	3858.61
763.438	3776.58
763.775	3790.14
764.112	3775
764.449	3786.3
764.785	3789.91
765.122	3783.59
765.458	3724.38
765.795	3731.61
766.131	3704.49
766.467	3700.2
766.804	3718.5
767.14	3662.46
767.476	3693.65
767.812	3661.1
768.148	3690.48
768.485	3635.57
768.821	3639.41
769.157	3628.56
769.492	3603.03
769.828	3596.25
770.164	3587.43
770.5	3610.48
770.836	3599.41
771.171	3551.73
771.507	3576.13
771.842	3546.08
772.178	3560.54
772.513	3548.56
772.849	3510.15
773.184	3514.67
773.519	3510.15
773.855	3507.21
774.19	3492.97
774.525	3454.1
774.86	3462.01
775.195	3438.29
775.53	3440.55
775.865	3417.72
776.2	3385.41
776.535	3377.72
776.87	3446.87
777.205	3377.04
777.539	3340.21
777.874	3352.64
778.209	3342.02
778.543	3328.46
778.878	3336.59
779.212	3329.36
779.547	3302.02
779.881	3318.97
780.215	3290.27
780.55	3263.15
780.884	3279.65
781.218	3254.56
781.552	3285.07
781.886	3229.03
782.22	3223.6
782.554	3217.73
782.888	3213.66
783.222	3155.35
783.556	3118.29
783.889	3163.94
784.223	3137.5
784.557	3105.86
784.89	3183.38
785.224	3141.12
785.557	3132.08
785.891	3161.23
786.224	3110.84
786.558	3150.84
786.891	3095.47
787.224	3071.74
787.557	3056.15
787.891	3052.31
788.224	3073.55
788.557	3058.63
788.89	3066.09
789.223	3092.53
789.556	3045.3
789.888	3014.34
790.221	2979.54
790.554	2969.15
790.887	2980.9
791.219	2947
791.552	2970.73
791.884	2975.25
792.217	2949.26
792.549	2942.03
792.882	2898.64
793.214	2916.27
793.546	2902.71
793.879	2893.89
794.211	2908.36
794.543	2869.03
794.875	2854.57
795.207	2884.4
795.539	2886.44
795.871	2888.92
796.203	2856.83
796.535	2773.9
796.867	2825.19
797.198	2792.2
797.53	2819.09
797.862	2817.96
798.193	2806.44
798.525	2773.44
798.856	2806.21
799.188	2741.58
799.519	2765.76
799.85	2750.62
800.182	2735.25
800.513	2709.26
800.844	2709.72
801.175	2700
801.506	2708.59
801.837	2718.08
802.168	2706.55
802.499	2686.21
802.83	2720.79
803.161	2649.61
803.491	2701.58
803.822	2692.99
804.153	2682.15
804.483	2667.68
804.814	2598.99
805.145	2631.98
805.475	2626.33
805.805	2608.48
806.136	2603.96
806.466	2585.2
806.796	2605.31
807.126	2607.57
807.457	2571.87
807.787	2561.92
808.117	2586.1
808.447	2556.95
808.777	2582.49
809.107	2572.09
809.436	2585.65
809.766	2556.27
810.096	2570.51
810.426	2570.96
810.755	2523.06
811.085	2534.58
811.414	2517.63
811.744	2525.31
812.073	2500.46
812.403	2527.57
812.732	2484.86
813.061	2494.58
813.39	2495.03
813.719	2456.16
814.049	2527.12
814.378	2467.46
814.707	2474.47
815.036	2404.64
815.365	2441.93
815.693	2485.09
816.022	2448.25
816.351	2467.92
816.68	2426.56
817.008	2428.59
817.337	2427.01
817.665	2420.23
817.994	2387.24
818.322	2412.1
818.651	2432.21
818.979	2378.88
819.307	2390.4
819.636	2376.62
819.964	2392.66
820.292	2380.23
820.62	2394.7
820.948	2334.81
821.276	2414.13
821.604	2358.54
821.932	2380.91
822.259	2388.37
822.587	2356.96
822.915	2384.98
823.243	2382.72
823.57	2407.58
823.898	2363.74
824.225	2344.3
824.553	2367.8
824.88	2367.58
825.207	2373.68
825.535	2391.53
825.862	2376.84
826.189	2359.22
826.516	2374.36
826.843	2391.08
827.17	2364.19
827.497	2367.35
827.824	2343.62
828.151	2374.81
828.478	2381.14
828.805	2342.27
829.131	2377.07
829.458	2402.38
829.785	2356.05
830.111	2361.7
830.438	2354.7
830.764	2343.17
831.09	2384.75
831.417	2316.05
831.743	2339.11
832.069	2343.85
832.395	2353.12
832.722	2368.26
833.048	2346.11
833.374	2354.92
833.7	2328.26
834.026	2365.09
834.351	2357.64
834.677	2326.22
835.003	2349.5
835.329	2333.46
835.654	2344.75
835.98	2285.77
836.306	2346.79
836.631	2330.07
836.956	2306.34
837.282	2323.29
837.607	2339.33
837.932	2299.11
838.258	2298.43
838.583	2298.2
838.908	2301.59
839.233	2300.91
839.558	2311.54
839.883	2263.85
840.208	2272.67
840.533	2266.34
840.858	2284.64
841.182	2336.39
841.507	2288.49
841.832	2275.15
842.156	2254.36
842.481	2288.71
842.805	2260.01
843.13	2284.87
843.454	2209.62
843.778	2269.28
844.103	2233.12
844.427	2262.27
844.751	2241.25
845.075	2241.93
845.399	2261.82
845.723	2211.65
846.047	2219.11
846.371	2230.86
846.695	2188.37
847.019	2186.11
847.343	2182.5
847.666	2188.6
847.99	2163.29
848.313	2174.14
848.637	2137.98
848.96	2141.6
849.284	2147.7
849.607	2091.2
849.931	2129.62
850.254	2120.13
850.577	2118.09
850.9	2079
851.223	2092.56
851.546	2095.27
851.869	2103.18
852.192	2088.04
852.515	2074.25
852.838	2046.01
853.161	2056.4
853.483	2061.37
853.806	2046.46
854.129	2039
854.451	2000.13
854.774	2034.25
855.096	2008.94
855.419	2019.79
855.741	2025.44
856.063	1985.22
856.385	1997.19
856.708	2027.47
857.03	2012.11
857.352	1996.97
857.674	2000.36
857.996	1957.65
858.318	1950.41
858.64	1966.91
858.961	1977.31
859.283	1957.19
859.605	1915.39
859.926	1957.42
860.248	1936.86
860.57	1925.33
860.891	1947.25
861.212	1947.48
861.534	1928.95
861.855	1918.33
862.176	1923.07
862.498	1925.78
862.819	1896.86
863.14	1956.52
863.461	1939.57
863.782	1935.73
864.103	1906.8
864.424	1894.6
864.745	1912.45
865.065	1921.72
865.386	1921.94
865.707	1915.61
866.027	1886.46
866.348	1893.02
866.668	1873.58
866.989	1882.17
867.309	1869.06
867.63	1862.73
867.95	1888.27
868.27	1844.88
868.59	1885.33
868.91	1873.58
869.23	1835.16
869.55	1822.06
869.87	1855.73
870.19	1864.99
870.51	1856.63
870.83	1834.71
871.15	1856.41
871.469	1825.45
871.789	1837.65
872.109	1857.31
872.428	1854.37
872.748	1829.29
873.067	1817.99
873.386	1830.19
873.706	1832.9
874.025	1808.27
874.344	1792.68
874.663	1833.81
874.982	1813.24
875.301	1801.94
875.62	1822.96
875.939	1795.62
876.258	1819.12
876.577	1778.22
876.896	1781.15
877.214	1780.48
877.533	1787.03
877.852	1804.66
878.17	1790.42
878.489	1805.79
878.807	1788.39
879.125	1755.17
879.444	1780.93
879.762	1781.15
880.08	1771.89
880.398	1746.8
880.716	1795.39
881.034	1781.61
881.352	1770.98
881.67	1767.37
881.988	1775.5
882.306	1749.52
882.624	1752
882.941	1752.91
883.259	1728.95
883.577	1750.19
883.894	1721.72
884.212	1721.95
884.529	1755.84
884.846	1706.35
885.164	1733.02
885.481	1736.86
885.798	1735.73
886.115	1716.75
886.432	1729.4
886.75	1704.55
887.067	1702.29
887.383	1702.96
887.7	1694.38
888.017	1696.18
888.334	1694.83
888.651	1687.37
888.967	1694.38
889.284	1664.55
889.6	1668.39
889.917	1652.12
890.233	1680.82
890.55	1645.79
890.866	1672
891.182	1629.75
891.498	1668.16
891.815	1658.9
892.131	1662.29
892.447	1659.35
892.763	1634.04
893.079	1625.45
893.395	1643.3
893.71	1626.36
894.026	1650.76
894.342	1643.76
894.657	1639.69
894.973	1618.45
895.289	1638.56
895.604	1629.75
895.92	1593.36
896.235	1596.53
896.55	1595.17
896.865	1572.8
897.181	1562.18
897.496	1590.65
897.811	1536.87
898.126	1578.9
898.441	1567.83
898.756	1542.29
899.071	1554.04
899.386	1557.43
899.7	1546.81
900.015	1533.48
900.33	1563.31
900.644	1539.13
900.959	1525.12
901.273	1536.41
901.588	1523.99
901.902	1508.17
902.216	1493.7
902.531	1487.15
902.845	1500.94
903.159	1481.73
903.473	1513.59
903.787	1520.82
904.101	1474.5
904.415	1484.89
904.729	1475.17
905.042	1488.96
905.356	1475.17
905.67	1449.64
905.984	1474.95
906.297	1480.82
906.611	1462.29
906.924	1453.48
907.237	1441.05
907.551	1455.96
907.864	1442.18
908.177	1433.59
908.491	1434.5
908.804	1429.52
909.117	1441.73
909.43	1422.75
909.743	1428.39
910.056	1405.57
910.368	1380.71
910.681	1368.74
910.994	1382.29
911.307	1378.45
911.619	1407.6
911.932	1373.71
912.244	1354.95
912.557	1375.29
912.869	1356.08
913.181	1356.76
913.494	1337.1
913.806	1352.69
914.118	1342.97
914.43	1340.71
914.742	1336.19
915.054	1319.7
915.366	1312.01
915.678	1327.61
915.99	1333.48
916.302	1300.04
916.613	1309.75
916.925	1301.39
917.236	1300.94
917.548	1276.08
917.859	1293.48
918.171	1258.46
918.482	1283.77
918.794	1282.86
919.105	1269.75
919.416	1268.17
919.727	1271.56
920.038	1247.61
920.349	1268.17
920.66	1261.85
920.971	1256.42
921.282	1262.52
921.593	1262.75
921.903	1250.55
922.214	1247.38
922.525	1242.18
922.835	1237.89
923.146	1214.84
923.456	1232.02
923.767	1204.22
924.077	1186.59
924.387	1217.55
924.697	1238.34
925.008	1217.78
925.318	1184.79
925.628	1213.94
925.938	1194.73
926.248	1168.74
926.558	1193.82
926.867	1178.01
927.177	1187.5
927.487	1182.3
927.796	1198.57
928.106	1152.47
928.416	1155.86
928.725	1132.81
929.034	1149.76
929.344	1175.07
929.653	1165.8
929.962	1139.59
930.271	1153.37
930.581	1151.11
930.89	1114.5
931.199	1121.51
931.508	1130.32
931.817	1148.18
932.125	1124
932.434	1111.11
932.743	1088.52
933.051	1106.82
933.36	1109.98
933.669	1097.1
933.977	1112.24
934.286	1097.33
934.594	1077.9
934.902	1074.73
935.21	1086.48
935.519	1067.5
935.827	1079.93
936.135	1069.31
936.443	1055.98
936.751	1086.48
937.059	1059.59
937.367	1072.02
937.674	1067.05
937.982	1049.42
938.29	1062.3
938.597	1053.94
938.905	1039.48
939.213	1017.78
939.52	1058.23
939.827	1051.46
940.135	1011
940.442	1024.34
940.749	1017.56
941.056	1007.16
941.363	1007.84
941.67	1028.86
941.977	1009.87
942.284	1019.37
942.591	1001.97
942.898	1006.26
943.205	1009.2
943.511	988.86
943.818	965.81
944.125	1011.91
944.431	998.12
944.738	982.53
945.044	987.95
945.35	966.49
945.657	965.58
945.963	968.97
946.269	973.94
946.575	954.06
946.881	964.68
947.187	972.81
947.493	969.2
947.799	986.6
948.105	956.77
948.41	962.87
948.716	947.05
949.022	938.69
949.327	945.47
949.633	913.61
949.938	936.88
950.244	953.83
950.549	923.32
950.854	900.95
951.16	914.74
951.465	885.13
951.77	893.27
952.075	946.6
952.38	912.93
952.685	894.62
952.99	914.74
953.294	901.63
953.599	923.32
953.904	882.19
954.209	894.85
954.513	886.26
954.818	890.33
955.122	894.17
955.426	874.51
955.731	901.85
956.035	853.72
956.339	870.67
956.643	909.09
956.948	882.65
957.252	867.28
957.556	863.21
957.86	837.9
958.163	868.64
958.467	864.34
958.771	861.86
959.075	860.05
959.378	834.96
959.682	826.15
959.985	847.17
960.289	827.51
960.592	848.52
960.896	844
961.199	825.02
961.502	837.22
961.805	852.36
962.108	829.99
962.411	823.44
962.714	827.96
963.017	822.08
963.32	816.43
963.623	823.21
963.926	805.81
964.228	824.34
964.531	809.65
964.833	750.9
965.136	799.48
965.438	795.64
965.741	812.37
966.043	776.21
966.345	797
966.648	805.81
966.95	806.26
967.252	798.13
967.554	795.64
967.856	778.24
968.158	810.11
968.46	775.53
968.761	764.91
969.063	764.68
969.365	791.58
969.666	775.98
969.968	786.83
970.269	785.47
970.571	777.56
970.872	753.38
971.174	759.03
971.475	751.12
971.776	768.98
972.077	767.17
972.378	735.08
972.679	766.04
972.98	752.25
973.281	724.46
973.582	738.92
973.883	754.74
974.183	770.11
974.484	728.3
974.785	758.81
975.085	710
975.386	718.13
975.686	736.66
975.986	727.62
976.287	726.27
976.587	710.22
976.887	718.13
977.187	747.06
977.487	726.94
977.787	730.33
978.087	720.39
978.387	705.48
978.687	722.42
978.987	686.95
979.286	714.97
979.586	721.07
979.885	729.43
980.185	694.4
980.484	699.6
980.784	686.72
981.083	713.61
981.382	689.88
981.682	716.55
981.981	696.89
982.28	679.04
982.579	703.44
982.878	679.04
983.177	692.37
983.475	693.5
983.774	682.2
984.073	678.13
984.372	655.99
984.67	661.86
984.969	662.99
985.267	668.87
985.566	671.8
985.864	681.75
986.162	665.02
986.461	651.92
986.759	651.69
987.057	638.58
987.355	662.99
987.653	643.56
987.951	653.95
988.249	633.84
988.547	661.86
988.844	647.4
989.142	655.53
989.44	650.79
989.737	644.91
990.035	633.84
990.332	657.34
990.63	622.77
990.927	635.2
991.224	623.9
991.521	647.62
991.819	635.87
992.116	641.07
992.413	634.52
992.71	600.62
993.006	635.65
993.303	607.4
993.6	610.56
993.897	598.81
994.193	625.7
994.49	613.95
994.787	610.11
995.083	606.95
995.379	619.15
995.676	593.16
995.972	621.41
996.268	586.61
996.565	593.16
996.861	581.64
997.157	605.37
997.453	605.82
997.749	583.67
998.044	585.03
998.34	602.88
998.636	577.8
998.932	562.43
999.227	586.83
999.523	587.29
999.818	574.18
1000.114	590
1000.409	591.58
1000.704	580.73
1001	587.96
1001.295	596.33
1001.59	580.73
1001.885	597.91
1002.18	571.69
1002.475	565.14
1002.77	563.33
1003.065	546.61
1003.359	552.94
1003.654	567.17
1003.949	553.39
1004.243	556.33
1004.538	542.99
1004.832	571.24
1005.127	562.43
1005.421	561.07
1005.715	563.56
1006.009	574.63
1006.304	563.78
1006.598	553.84
1006.892	534.18
1007.186	546.84
1007.48	571.24
1007.773	545.93
1008.067	552.49
1008.361	531.7
1008.655	540.51
1008.948	545.48
1009.242	528.31
1009.535	546.38
1009.829	534.41
1010.122	534.63
1010.415	528.98
1010.708	532.82
1011.001	511.13
1011.295	541.41
1011.588	522.88
1011.881	519.94
1012.173	499.15
1012.466	545.25
1012.759	535.76
1013.052	486.72
1013.344	519.27
1013.637	512.94
1013.93	509.32
1014.222	499.61
1014.514	503
1014.807	530.11
1015.099	508.64
1015.391	513.84
1015.683	514.29
1015.976	508.19
1016.268	500.28
1016.56	500.51
1016.851	505.71
1017.143	499.38
1017.435	481.98
1017.727	489.44
1018.018	477.91
1018.31	484.92
1018.602	489.44
1018.893	486.72
1019.185	483.79
1019.476	489.89
1019.767	474.07
1020.058	465.03
1020.35	503.67
1020.641	468.19
1020.932	494.18
1021.223	472.04
1021.514	458.93
1021.804	467.52
1022.095	448.99
1022.386	473.39
1022.677	449.44
1022.967	457.35
1023.258	455.09
1023.548	464.35
1023.839	470.23
1024.129	458.02
1024.419	485.37
1024.709	433.39
1025	475.2
1025.29	467.29
1025.58	457.8
1025.87	445.37
1026.16	464.35
1026.449	483.11
1026.739	448.76
1027.029	457.12
1027.319	469.1
1027.608	436.33
1027.898	446.5
1028.187	445.82
1028.477	453.05
1028.766	419.61
1029.055	429.55
1029.344	451.92
1029.634	443.79
1029.923	458.02
1030.212	443.34
1030.501	422.09
1030.79	428.42
1031.078	421.19
1031.367	426.39
1031.656	437.69
1031.945	425.03
1032.233	429.1
1032.522	442.43
1032.81	436.33
1033.099	413.51
1033.387	431.81
1033.675	412.38
1033.963	430.68
1034.251	434.75
1034.54	410.34
1034.828	423.22
1035.116	396.78
1035.403	408.31
1035.691	418.48
1035.979	406.73
1036.267	414.18
1036.554	406.05
1036.842	420.96
1037.129	429.32
1037.417	432.71
1037.704	411.25
1037.992	409.89
1038.279	424.35
1038.566	396.11
1038.853	396.11
1039.14	396.11
