Data from carpet_green_FLMS001491_00044.txt Node
Date: Wed Feb 08 10:35:25 GMT 2017
User: dcchb
Spectrometer: FLMS00149
Trigger mode: 0
Integration Time (sec): 2.000000E-2
Scans to average: 10
Electric dark correction enabled: true
Nonlinearity correction enabled: false
Boxcar width: 0
XAxis mode: Wavelengths
Number of Pixels in Spectrum: 2048
>>>>>Begin Spectral Data<<<<<
341.393	-13.08
341.776	-13.08
342.16	-13.08
342.543	-59.18
342.927	-73.42
343.31	-75.68
343.693	-52.4
344.077	-65.51
344.46	-65.05
344.843	-35.9
345.226	-42.46
345.61	-46.98
345.993	-11.04
346.376	-8.11
346.759	12.91
347.142	29.41
347.525	50.87
347.908	50.65
348.291	69.4
348.674	85.45
349.057	104.43
349.44	121.16
349.823	145.11
350.206	160.7
350.588	162.51
350.971	176.97
351.354	188.95
351.737	226.46
352.119	209.51
352.502	239.57
352.884	235.95
353.267	267.59
353.65	252.9
354.032	265.56
354.414	271.43
354.797	281.83
355.179	302.85
355.562	298.33
355.944	284.77
356.326	293.35
356.709	298.78
357.091	308.27
357.473	321.15
357.855	305.1
358.238	314.37
358.62	300.59
359.002	292.9
359.384	322.73
359.766	327.25
360.148	327.7
360.53	338.32
360.912	308.95
361.294	285.44
361.676	298.33
362.057	298.33
362.439	301.04
362.821	282.96
363.203	297.2
363.584	292.9
363.966	294.71
364.348	297.87
364.729	284.54
365.111	286.8
365.493	268.72
365.874	291.55
366.256	270.53
366.637	285.22
367.019	267.59
367.4	297.2
367.781	273.92
368.163	270.53
368.544	280.47
368.925	274.37
369.306	275.28
369.688	263.52
370.069	285.22
370.45	278.44
370.831	271.66
371.212	260.59
371.593	284.77
371.974	272.34
372.355	290.87
372.736	267.14
373.117	270.3
373.498	299.68
373.879	273.47
374.26	278.89
374.641	278.21
375.021	287.48
375.402	279.57
375.783	290.87
376.163	303.07
376.544	284.31
376.925	270.08
377.305	288.61
377.686	291.55
378.066	277.99
378.447	287.7
378.827	295.84
379.208	290.42
379.588	291.55
379.968	296.29
380.349	295.16
380.729	275.95
381.109	299.46
381.489	286.57
381.87	286.12
382.25	298.1
382.63	277.76
383.01	268.5
383.39	317.53
383.77	293.81
384.15	291.32
384.53	298.33
384.91	299.68
385.29	287.7
385.67	289.06
386.049	288.16
386.429	289.74
386.809	295.39
387.189	297.42
387.568	284.31
387.948	301.94
388.328	293.58
388.707	305.56
389.087	280.7
389.466	293.58
389.846	299
390.225	296.52
390.605	297.2
390.984	308.27
391.363	315.73
391.743	314.37
392.122	287.03
392.501	311.43
392.881	317.76
393.26	276.41
393.639	302.17
394.018	293.81
394.397	308.72
394.776	300.13
395.155	319.79
395.534	287.03
395.913	282.28
396.292	300.59
396.671	314.6
397.05	305.33
397.429	303.98
397.808	307.59
398.186	305.56
398.565	336.06
398.944	288.61
399.323	320.47
399.701	313.24
400.08	316.18
400.458	303.98
400.837	320.02
401.215	318.66
401.594	331.32
401.972	310.98
402.351	315.73
402.729	316.86
403.107	311.88
403.486	322.28
403.864	302.17
404.242	310.53
404.62	315.05
404.999	306.23
405.377	311.66
405.755	298.33
406.133	313.24
406.511	309.62
406.889	320.25
407.267	314.82
407.645	292.22
408.023	293.81
408.401	312.56
408.779	304.65
409.156	315.73
409.534	326.8
409.912	306.91
410.29	321.15
410.667	314.6
411.045	304.88
411.422	326.12
411.8	333.58
412.178	313.24
412.555	349.17
412.933	325.22
413.31	302.62
413.687	318.66
414.065	329.74
414.442	317.31
414.819	329.51
415.197	311.43
415.574	332.67
415.951	327.25
416.328	322.73
416.705	331.54
417.082	329.06
417.46	318.21
417.837	322.73
418.214	336.52
418.591	338.78
418.967	334.71
419.344	317.31
419.721	347.82
420.098	348.27
420.475	325.9
420.852	344.65
421.228	332.22
421.605	350.3
421.982	352.56
422.358	342.39
422.735	354.37
423.111	327.03
423.488	336.29
423.864	328.83
424.241	365.89
424.617	346.46
424.994	359.34
425.37	346.01
425.746	315.73
426.123	352.11
426.499	313.24
426.875	327.25
427.251	338.1
427.627	351.66
428.003	368.15
428.379	352.34
428.756	342.39
429.132	357.76
429.507	351.21
429.883	363.63
430.259	346.23
430.635	338.1
431.011	349.17
431.387	344.43
431.763	354.82
432.138	366.12
432.514	369.96
432.89	345.78
433.265	369.28
433.641	382.17
434.016	350.98
434.392	350.53
434.767	363.86
435.143	363.86
435.518	365.44
435.894	340.58
436.269	342.62
436.644	354.37
437.02	367.02
437.395	361.83
437.77	364.31
438.145	354.14
438.52	376.97
438.895	379.45
439.271	372.67
439.646	366.8
440.021	379.91
440.395	381.49
440.77	387.81
441.145	387.59
441.52	376.29
441.895	379
442.27	375.16
442.645	381.94
443.019	363.86
443.394	384.2
443.769	380.36
444.143	398.21
444.518	379.45
444.892	398.21
445.267	379.23
445.641	395.95
446.016	388.49
446.39	380.13
446.764	381.94
447.139	396.85
447.513	388.04
447.887	398.21
448.262	415.16
448.636	410.41
449.01	408.61
449.384	393.46
449.758	376.97
450.132	383.3
450.506	406.8
450.88	409.06
451.254	397.76
451.628	425.1
452.002	394.59
452.376	401.15
452.75	405.44
453.123	431.2
453.497	411.99
453.871	428.49
454.244	410.41
454.618	418.77
454.992	421.49
455.365	395.95
455.739	431.66
456.112	426.01
456.486	410.41
456.859	423.52
457.232	435.5
457.606	440.47
457.979	442.28
458.352	427.36
458.725	423.07
459.099	442.73
459.472	432.79
459.845	440.69
460.218	463.07
460.591	456.97
460.964	425.78
461.337	463.97
461.71	463.52
462.083	470.3
462.456	450.86
462.829	473.91
463.201	451.99
463.574	463.07
463.947	461.03
464.32	473.01
464.692	484.31
465.065	468.94
465.438	453.12
465.81	496.74
466.183	497.64
466.555	480.24
466.928	472.33
467.3	494.25
467.672	484.76
468.045	479.34
468.417	492.9
468.789	478.21
469.161	494.7
469.534	506.46
469.906	529.28
470.278	500.35
470.65	493.35
471.022	515.04
471.394	481.82
471.766	498.77
472.138	531.99
472.51	532.9
472.882	537.19
473.253	527.02
473.625	519.56
473.997	551.43
474.369	537.87
474.74	552.1
475.112	553.01
475.484	546.45
475.855	557.53
476.227	572.67
476.598	588.26
476.97	541.03
477.341	592.78
477.713	575.61
478.084	587.81
478.455	572.67
478.827	610.41
479.198	614.7
479.569	609.96
479.94	611.76
480.311	630.97
480.682	636.62
481.053	622.61
481.424	642.05
481.795	640.46
482.166	667.58
482.537	637.07
482.908	656.51
483.279	681.14
483.65	680.46
484.021	693.57
484.391	700.12
484.762	680.24
485.133	695.15
485.503	704.19
485.874	722.5
486.244	727.24
486.615	704.64
486.985	723.85
487.356	739.9
487.726	731.76
488.097	742.38
488.467	764.53
488.837	779.89
489.207	783.96
489.578	767.01
489.948	783.74
490.318	800.46
490.688	808.37
491.058	790.97
491.428	787.13
491.798	792.1
492.168	799.78
492.538	829.16
492.908	829.84
493.278	837.52
493.648	835.49
494.017	859.67
494.387	831.87
494.757	865.77
495.126	859.89
495.496	875.71
495.866	889.72
496.235	866.67
496.605	871.42
496.974	883.17
497.344	898.76
497.713	908.48
498.082	922.94
498.452	924.75
498.821	894.47
499.19	908.7
499.559	927.91
499.928	920.91
500.298	898.08
500.667	927.69
501.036	923.85
501.405	924.3
501.774	927.69
502.143	937.63
502.512	953.68
502.88	934.92
503.249	947.8
503.618	948.93
503.987	978.31
504.356	967.91
504.724	957.29
505.093	951.42
505.462	968.36
505.83	959.78
506.199	989.61
506.567	990.28
506.936	960.23
507.304	990.74
507.672	992.32
508.041	981.25
508.409	981.7
508.777	1014.24
509.145	1023.73
509.514	997.74
509.882	1019.44
510.25	992.54
510.618	1002.71
510.986	1009.95
511.354	1027.35
511.722	1028.7
512.09	1039.32
512.458	1039.1
512.826	1038.65
513.193	1040.9
513.561	1014.01
513.929	1051.75
514.297	1025.09
514.664	1040.45
515.032	1046.55
515.4	1039.1
515.767	1061.24
516.135	1066.67
516.502	1063.73
516.869	1066.21
517.237	1073.22
517.604	1105.99
517.972	1084.75
518.339	1084.07
518.706	1075.93
519.073	1086.78
519.44	1105.31
519.808	1121.35
520.175	1096.72
520.542	1127.91
520.909	1127
521.276	1125.87
521.643	1113.67
522.009	1119.77
522.376	1117.06
522.743	1106.44
523.11	1134.46
523.477	1136.04
523.843	1158.64
524.21	1126.78
524.577	1175.14
524.943	1160.45
525.31	1156.16
525.676	1172.43
526.043	1164.07
526.409	1164.97
526.776	1162.94
527.142	1147.12
527.508	1176.72
527.874	1199.54
528.241	1150.51
528.607	1202.03
528.973	1197.28
529.339	1177.4
529.705	1195.03
530.071	1219.66
530.437	1181.01
530.803	1217.4
531.169	1204.06
531.535	1195.25
531.901	1205.42
532.267	1201.58
532.632	1199.09
532.998	1221.47
533.364	1196.15
533.73	1250.84
534.095	1195.7
534.461	1231.63
534.826	1235.93
535.192	1214.91
535.557	1227.34
535.923	1218.3
536.288	1246.1
536.653	1249.94
537.019	1208.36
537.384	1258.3
537.749	1234.35
538.114	1217.62
538.479	1249.49
538.845	1238.41
539.21	1246.1
539.575	1237.96
539.94	1228.47
540.305	1218.08
540.67	1250.16
541.034	1228.47
541.399	1246.78
541.764	1232.99
542.129	1254.46
542.494	1221.24
542.858	1254.46
543.223	1211.3
543.587	1228.02
543.952	1249.03
544.316	1258.07
544.681	1208.36
545.045	1239.09
545.41	1233.22
545.774	1256.94
546.138	1264.63
546.503	1241.58
546.867	1235.93
547.231	1241.35
547.595	1234.35
547.959	1244.06
548.324	1270.73
548.688	1237.74
549.052	1244.06
549.416	1242.48
549.779	1222.82
550.143	1239.77
550.507	1268.24
550.871	1291.29
551.235	1267.79
551.599	1271.63
551.962	1277.96
552.326	1258.75
552.689	1266.44
553.053	1254.46
553.417	1268.47
553.78	1283.16
554.143	1256.04
554.507	1253.33
554.87	1277.28
555.234	1258.3
555.597	1273.44
555.96	1265.76
556.323	1284.29
556.686	1267.79
557.05	1286.1
557.413	1275.93
557.776	1268.02
558.139	1271.41
558.502	1282.48
558.865	1274.57
559.228	1297.85
559.59	1291.75
559.953	1307.11
560.316	1310.5
560.679	1284.97
561.041	1310.5
561.404	1308.02
561.767	1341.69
562.129	1325.19
562.492	1320.67
562.854	1299.2
563.217	1296.04
563.579	1324.74
563.941	1321.58
564.304	1327
564.666	1331.07
565.028	1334.46
565.39	1355.02
565.753	1362.7
566.115	1319.77
566.477	1320.22
566.839	1335.59
567.201	1341.46
567.563	1348.24
567.925	1338.07
568.287	1353.44
568.648	1336.72
569.01	1349.15
569.372	1339.2
569.734	1364.06
570.095	1364.06
570.457	1343.95
570.819	1329.03
571.18	1356.83
571.542	1336.26
571.903	1374.46
572.265	1337.39
572.626	1347.56
572.987	1359.09
573.349	1347.11
573.71	1345.76
574.071	1353.21
574.432	1354.79
574.794	1373.78
575.155	1373.33
575.516	1356.6
575.877	1346.43
576.238	1350.95
576.599	1330.16
576.96	1341.91
577.32	1345.08
577.681	1367.22
578.042	1355.7
578.403	1348.24
578.763	1325.64
579.124	1341.24
579.485	1334.91
579.845	1354.57
580.206	1348.47
580.566	1356.6
580.927	1362.93
581.287	1327.45
581.648	1343.04
582.008	1324.97
582.368	1331.29
582.728	1333.1
583.089	1327
583.449	1346.21
583.809	1351.41
584.169	1353.66
584.529	1323.84
584.889	1348.47
585.249	1345.3
585.609	1319.54
585.969	1351.41
586.329	1317.28
586.688	1348.47
587.048	1317.28
587.408	1317.96
587.768	1318.64
588.127	1318.64
588.487	1328.13
588.846	1302.14
589.206	1309.82
589.565	1315.02
589.925	1318.19
590.284	1279.54
590.643	1310.5
591.003	1332.42
591.362	1324.06
591.721	1302.59
592.08	1305.98
592.44	1326.55
592.799	1313.89
593.158	1295.81
593.517	1313.44
593.876	1313.89
594.235	1309.15
594.593	1322.71
594.952	1318.86
595.311	1300.33
595.67	1297.4
596.029	1309.15
596.387	1318.86
596.746	1310.73
597.104	1297.62
597.463	1320.45
597.822	1319.32
598.18	1320.9
598.538	1295.59
598.897	1312.54
599.255	1303.95
599.613	1312.99
599.972	1285.87
600.33	1299.43
600.688	1314.57
601.046	1290.39
601.404	1311.86
601.762	1313.21
602.12	1317.06
602.478	1308.92
602.836	1300.56
603.194	1305.3
603.552	1343.5
603.91	1281.35
604.268	1338.07
604.625	1296.27
604.983	1312.99
605.341	1304.4
605.698	1322.25
606.056	1325.19
606.413	1312.31
606.771	1343.95
607.128	1329.26
607.485	1342.82
607.843	1299.66
608.2	1319.99
608.557	1311.18
608.914	1326.32
609.272	1348.24
609.629	1329.94
609.986	1346.66
610.343	1308.47
610.7	1355.7
611.057	1327.68
611.414	1346.43
611.771	1332.87
612.127	1345.08
612.484	1353.66
612.841	1339.43
613.198	1371.74
613.554	1369.94
613.911	1329.48
614.267	1356.83
614.624	1378.3
614.98	1381.46
615.337	1356.38
615.693	1357.96
616.05	1354.12
616.406	1338.07
616.762	1339.88
617.118	1369.94
617.475	1354.12
617.831	1362.93
618.187	1376.04
618.543	1371.07
618.899	1364.74
619.255	1350.28
619.611	1347.34
619.967	1367.68
620.323	1364.74
620.678	1374.91
621.034	1347.56
621.39	1369.26
621.746	1359.77
622.101	1347.56
622.457	1334.68
622.812	1357.51
623.168	1362.93
623.523	1361.12
623.879	1387.11
624.234	1344.63
624.589	1343.04
624.945	1344.4
625.3	1364.06
625.655	1339.43
626.01	1357.28
626.365	1388.01
626.72	1366.55
627.075	1345.3
627.43	1351.41
627.785	1353.66
628.14	1350.28
628.495	1349.82
628.85	1322.93
629.205	1350.73
629.559	1345.53
629.914	1341.69
630.269	1340.56
630.623	1324.51
630.978	1327.68
631.332	1342.37
631.687	1322.03
632.041	1361.8
632.396	1349.82
632.75	1332.42
633.104	1357.05
633.459	1306.43
633.813	1331.52
634.167	1341.24
634.521	1352.54
634.875	1363.16
635.229	1361.57
635.583	1330.61
635.937	1308.24
636.291	1326.1
636.645	1309.6
636.999	1331.74
637.352	1338.3
637.706	1340.11
638.06	1338.75
638.413	1335.59
638.767	1341.24
639.121	1322.71
639.474	1305.3
639.828	1339.65
640.181	1325.19
640.534	1361.57
640.888	1322.48
641.241	1324.51
641.594	1315.47
641.947	1330.84
642.301	1323.61
642.654	1351.18
643.007	1382.82
643.36	1328.35
643.713	1321.58
644.066	1349.6
644.419	1321.12
644.771	1313.21
645.124	1326.32
645.477	1304.85
645.83	1314.8
646.182	1289.71
646.535	1327.9
646.888	1321.58
647.24	1320.45
647.593	1357.73
647.945	1318.86
648.298	1327.9
648.65	1282.48
649.002	1345.53
649.355	1358.41
649.707	1338.3
650.059	1324.97
650.411	1363.38
650.763	1376.04
651.115	1358.18
651.467	1392.08
651.819	1359.09
652.171	1401.35
652.523	1384.85
652.875	1381.23
653.227	1410.84
653.578	1366.77
653.93	1380.1
654.282	1387.34
654.633	1432.08
654.985	1403.61
655.337	1415.81
655.688	1423.49
656.039	1433.21
656.391	1418.75
656.742	1447
657.094	1413.78
657.445	1461.23
657.796	1465.3
658.147	1446.09
658.498	1448.58
658.849	1458.07
659.2	1457.62
659.551	1485.64
659.902	1470.72
660.253	1504.4
660.604	1494.45
660.955	1512.98
661.306	1494
661.656	1490.16
662.007	1531.06
662.358	1540.78
662.708	1531.51
663.059	1532.87
663.409	1508.46
663.76	1567.44
664.11	1570.16
664.461	1578.52
664.811	1596.14
665.161	1611.96
665.511	1595.92
665.862	1600.89
666.212	1611.06
666.562	1594.79
666.912	1645.63
667.262	1634.56
667.612	1648.12
667.962	1635.69
668.312	1660.1
668.662	1681.34
669.011	1684.73
669.361	1677.72
669.711	1710.49
670.06	1706.2
670.41	1730.15
670.76	1749.36
671.109	1751.39
671.459	1741.45
671.808	1775.35
672.157	1768.34
672.507	1797.95
672.856	1801.11
673.205	1796.14
673.554	1809.25
673.904	1820.32
674.253	1835.91
674.602	1851.05
674.951	1837.95
675.3	1832.07
675.649	1877.72
675.998	1896.48
676.346	1897.38
676.695	1919.98
677.044	1920.2
677.393	1971.95
677.741	1939.86
678.09	1964.5
678.438	1933.31
678.787	2012.86
679.135	2008.79
679.484	2033.87
679.832	2008.56
680.181	2035.45
680.529	2030.94
680.877	2085.4
681.225	2095.11
681.573	2107.09
681.922	2049.01
682.27	2126.07
682.618	2129.01
682.966	2150.48
683.314	2156.13
683.661	2166.3
684.009	2204.72
684.357	2169.46
684.705	2212.4
685.053	2221.66
685.4	2236.13
685.748	2265.96
686.095	2269.8
686.443	2282.91
686.79	2286.75
687.138	2318.16
687.485	2334.43
687.832	2313.87
688.18	2361.1
688.527	2363.13
688.874	2357.25
689.221	2375.11
689.568	2370.14
689.915	2422.11
690.262	2461.43
690.609	2442.9
690.956	2446.97
691.303	2442
691.65	2464.82
691.997	2500.3
692.344	2508.66
692.69	2508.44
693.037	2546.85
693.383	2505.73
693.73	2561.32
694.077	2572.62
694.423	2549.34
694.769	2598.6
695.116	2617.13
695.462	2607.19
695.808	2630.69
696.155	2644.93
696.501	2634.76
696.847	2644.7
697.193	2648.09
697.539	2678.38
697.885	2676.79
698.231	2666.4
698.577	2737.36
698.923	2758.15
699.269	2761.99
699.614	2769.9
699.96	2755.66
700.306	2793.18
700.651	2814.19
700.997	2837.47
701.342	2798.37
701.688	2825.94
702.033	2851.48
702.379	2841.08
702.724	2858.26
703.069	2891.93
703.415	2891.93
703.76	2904.36
704.105	2917.69
704.45	2942.55
704.795	2902.78
705.14	2931.02
705.485	2944.81
705.83	2928.31
706.175	2952.72
706.52	2976.45
706.865	3000.18
707.209	3006.28
707.554	2981.19
707.899	3023.9
708.243	3050.57
708.588	3039.72
708.932	3063.45
709.277	3063.68
709.621	3096.67
709.966	3120.4
710.31	3100.96
710.654	3102.32
710.998	3127.18
711.342	3157.23
711.687	3137.8
712.031	3122.88
712.375	3138.02
712.719	3133.51
713.063	3127.4
713.407	3198.59
713.75	3184.35
714.094	3226.84
714.438	3234.52
714.782	3191.36
715.125	3205.37
715.469	3241.52
715.812	3274.29
716.156	3232.49
716.499	3242.43
716.843	3276.1
717.186	3212.37
717.53	3228.19
717.873	3279.49
718.216	3294.4
718.559	3266.61
718.902	3274.07
719.246	3290.34
719.589	3302.99
719.932	3295.76
720.275	3325.59
720.617	3316.33
720.96	3345.25
721.303	3343.22
721.646	3328.53
721.989	3367.62
722.331	3352.26
722.674	3343.67
723.016	3361.75
723.359	3368.53
723.701	3351.58
724.044	3409.43
724.386	3347.96
724.729	3391.58
725.071	3352.71
725.413	3382.54
725.755	3413.27
726.097	3384.12
726.439	3355.19
726.782	3356.55
727.124	3418.24
727.465	3401.75
727.807	3386.38
728.149	3364.01
728.491	3395.65
728.833	3444.23
729.175	3391.35
729.516	3419.6
729.858	3404.46
730.199	3393.84
730.541	3407.62
730.882	3437
731.224	3469.77
731.565	3385.7
731.906	3386.61
732.248	3456.66
732.589	3442.65
732.93	3423.22
733.271	3398.13
733.612	3439.03
733.953	3452.14
734.294	3454.4
734.635	3426.83
734.976	3419.83
735.317	3426.6
735.658	3422.99
735.999	3426.38
736.339	3415.31
736.68	3408.3
737.021	3448.75
737.361	3413.5
737.702	3440.84
738.042	3415.53
738.383	3404.01
738.723	3460.05
739.063	3445.36
739.404	3451.69
739.744	3427.06
740.084	3391.8
740.424	3462.76
740.764	3422.76
741.104	3468.19
741.444	3416.21
741.784	3397.45
742.124	3445.59
742.464	3472.48
742.804	3401.52
743.143	3411.01
743.483	3423.67
743.823	3437.45
744.162	3396.55
744.502	3422.31
744.841	3412.59
745.181	3422.99
745.52	3371.69
745.86	3398.13
746.199	3374.4
746.538	3407.17
746.877	3383.89
747.216	3429.77
747.556	3382.99
747.895	3395.65
748.234	3369.43
748.573	3381.86
748.911	3363.78
749.25	3393.16
749.589	3390
749.928	3336.44
750.267	3375.98
750.605	3340.96
750.944	3341.18
751.283	3322.43
751.621	3329.43
751.96	3318.59
752.298	3317.68
752.636	3326.04
752.975	3301.41
753.313	3314.07
753.651	3306.61
753.989	3316.1
754.327	3260.96
754.666	3284.46
755.004	3302.09
755.342	3318.13
755.679	3295.31
756.017	3240.17
756.355	3262.32
756.693	3256.44
757.031	3285.59
757.368	3221.19
757.706	3250.34
758.044	3227.06
758.381	3229.77
758.719	3216.67
759.056	3229.77
759.394	3198.36
759.731	3206.27
760.068	3202.2
760.405	3175.76
760.743	3181.64
761.08	3169.44
761.417	3168.76
761.754	3154.75
762.091	3167.63
762.428	3153.62
762.765	3123.56
763.102	3153.62
763.438	3116.56
763.775	3128.08
764.112	3144.58
764.449	3116.78
764.785	3049.67
765.122	3075.2
765.458	3067.07
765.795	3070.91
766.131	3054.86
766.467	3069.55
766.804	3011.93
767.14	3039.72
767.476	3018.48
767.812	3001.31
768.148	3017.8
768.485	3042.66
768.821	2953.17
769.157	2984.81
769.492	2992.72
769.828	2945.94
770.164	2919.05
770.5	2968.31
770.836	2939.84
771.171	2939.84
771.507	2951.59
771.842	2925.15
772.178	2895.32
772.513	2936.9
772.849	2883.79
773.184	2876.56
773.519	2869.33
773.855	2849.67
774.19	2864.13
774.525	2823.46
774.86	2862.55
775.195	2886.73
775.53	2830.69
775.865	2835.66
776.2	2776.45
776.535	2788.88
776.87	2778.71
777.205	2764.02
777.539	2774.19
777.874	2736
778.209	2745.72
778.543	2737.81
778.878	2721.54
779.212	2731.26
779.547	2712.27
779.881	2721.76
780.215	2728.09
780.55	2667.08
780.884	2681.54
781.218	2666.62
781.552	2667.98
781.886	2689.22
782.22	2650.81
782.554	2646.51
782.888	2630.69
783.222	2590.24
783.556	2593.18
783.889	2592.5
784.223	2606.74
784.557	2604.71
784.89	2600.19
785.224	2548.21
785.557	2554.54
785.891	2552.28
786.224	2565.16
786.558	2552.5
786.891	2502.56
787.224	2517.93
787.557	2522.22
787.891	2503.69
788.224	2518.61
788.557	2524.93
788.89	2498.72
789.223	2505.95
789.556	2475.67
789.888	2478.61
790.221	2470.47
790.554	2448.1
790.887	2465.73
791.219	2464.6
791.552	2448.78
791.884	2410.36
792.217	2432.73
792.549	2430.7
792.882	2410.13
793.214	2408.33
793.546	2422.11
793.879	2385.05
794.211	2395.22
794.543	2361.1
794.875	2370.36
795.207	2390.93
795.539	2374.66
795.871	2365.39
796.203	2326.52
796.535	2354.54
796.867	2327.42
797.198	2319.52
797.53	2343.92
797.862	2286.75
798.193	2296.47
798.525	2289.01
798.856	2343.47
799.188	2286.52
799.519	2262.12
799.85	2256.47
800.182	2246.75
800.513	2260.99
800.844	2260.08
801.175	2237.26
801.506	2255.11
801.837	2211.72
802.168	2231.38
802.499	2243.13
802.83	2227.54
803.161	2221.21
803.491	2182.12
803.822	2219.18
804.153	2165.62
804.483	2160.88
804.814	2170.82
805.145	2142.57
805.475	2148.45
805.805	2184.83
806.136	2183.02
806.466	2150.71
806.796	2191.61
807.126	2167.2
807.457	2165.62
807.787	2126.53
808.117	2119.52
808.447	2147.09
808.777	2146.19
809.107	2132.63
809.436	2137.6
809.766	2110.71
810.096	2119.52
810.426	2083.14
810.755	2065.74
811.085	2119.29
811.414	2105.96
811.744	2081.1
812.073	2087.88
812.403	2044.49
812.732	2060.54
813.061	2037.71
813.39	2066.87
813.719	2072.52
814.049	2058.96
814.378	2082.01
814.707	2056.7
815.036	2049.47
815.365	2032.97
815.693	2015.12
816.022	2001.33
816.351	2044.95
816.68	2017.83
817.008	2053.31
817.337	2013.31
817.665	1999.52
817.994	2003.59
818.322	2013.53
818.651	2005.4
818.979	2000.2
819.307	2021.67
819.636	1980.77
819.964	1966.98
820.292	1992.07
820.62	1965.63
820.948	1957.94
821.276	1973.08
821.604	1996.81
821.932	1955.46
822.259	2010.6
822.587	1947.1
822.915	1950.03
823.243	1965.17
823.57	1986.87
823.898	1945.97
824.225	1969.02
824.553	1964.95
824.88	1952.97
825.207	1956.81
825.535	1965.63
825.862	1997.49
826.189	1980.54
826.516	1997.49
826.843	1971.5
827.17	1973.31
827.497	1970.6
827.824	1986.87
828.151	1977.15
828.478	1922.92
828.805	1968.56
829.131	1945.74
829.458	1970.82
829.785	1976.7
830.111	1951.39
830.438	1949.36
830.764	1963.14
831.09	1935.57
831.417	1947.1
831.743	1937.6
832.069	1950.71
832.395	1933.31
832.722	1962.01
833.048	1938.06
833.374	1948.45
833.7	1934.44
834.026	1948
834.351	1949.13
834.677	1932.18
835.003	1933.76
835.329	1940.77
835.654	1935.34
835.98	1945.29
836.306	1941.22
836.631	1923.82
836.956	1909.81
837.282	1928.11
837.607	1937.6
837.932	1910.26
838.258	1918.85
838.583	1917.49
838.908	1899.64
839.233	1920.88
839.558	1929.47
839.883	1907.1
840.208	1902.13
840.533	1901.45
840.858	1900.32
841.182	1903.93
841.507	1882.01
841.832	1889.02
842.156	1896.48
842.481	1906.87
842.805	1862.35
843.13	1882.46
843.454	1887.66
843.778	1868.91
844.103	1858.51
844.427	1841.56
844.751	1860.77
845.075	1828
845.399	1836.82
845.723	1826.87
846.047	1843.6
846.371	1828.23
846.695	1842.24
847.019	1839.98
847.343	1806.99
847.666	1786.42
847.99	1810.38
848.313	1792.3
848.637	1768.34
848.96	1760.21
849.284	1766.76
849.607	1757.95
849.931	1775.12
850.254	1755.24
850.577	1741
850.9	1729.25
851.223	1724.05
851.546	1752.52
851.869	1725.41
852.192	1720.66
852.515	1729.7
852.838	1721.34
853.161	1727.44
853.483	1686.99
853.806	1696.48
854.129	1657.16
854.451	1666.2
854.774	1701.68
855.096	1700.77
855.419	1694.45
855.741	1664.84
856.063	1660.78
856.385	1653.77
856.708	1680.21
857.03	1650.83
857.352	1646.09
857.674	1649.25
857.996	1674.56
858.318	1644.5
858.64	1658.29
858.961	1620.32
859.283	1638.4
859.605	1637.5
859.926	1615.58
860.248	1637.73
860.57	1641.57
860.891	1634.11
861.212	1610.83
861.534	1615.58
861.855	1622.58
862.176	1577.39
862.498	1606.31
862.819	1584.17
863.14	1578.74
863.461	1608.35
863.782	1580.78
864.103	1590.27
864.424	1599.31
864.745	1590.04
865.065	1602.25
865.386	1579.65
865.707	1586.65
866.027	1567.67
866.348	1586.43
866.668	1581.68
866.989	1569.7
867.309	1566.54
867.63	1568.12
867.95	1592.08
868.27	1610.38
868.59	1544.39
868.91	1556.6
869.23	1556.37
869.55	1511.4
869.87	1546.43
870.19	1521.12
870.51	1536.71
870.83	1529.48
871.15	1538.52
871.469	1522.47
871.789	1543.04
872.109	1558.86
872.428	1532.19
872.748	1538.07
873.067	1532.64
873.386	1536.03
873.706	1535.13
874.025	1512.3
874.344	1518.86
874.663	1505.75
874.982	1498.29
875.301	1511.17
875.62	1517.28
875.939	1521.8
876.258	1533.55
876.577	1503.94
876.896	1514.11
877.214	1488.58
877.533	1478.63
877.852	1523.15
878.17	1477.96
878.489	1510.95
878.807	1476.83
879.125	1489.03
879.444	1505.07
879.762	1480.89
880.08	1480.44
880.398	1464.4
880.716	1475.24
881.034	1462.36
881.352	1458.75
881.67	1454.23
881.988	1488.58
882.306	1478.18
882.624	1477.96
882.941	1454.68
883.259	1470.27
883.577	1454.45
883.894	1422.59
884.212	1432.76
884.529	1442.93
884.846	1450.16
885.164	1446.77
885.481	1440.89
885.798	1439.99
886.115	1422.36
886.432	1414.91
886.75	1417.17
887.067	1434.79
887.383	1432.98
887.7	1429.14
888.017	1410.84
888.334	1407.9
888.651	1431.4
888.967	1419.88
889.284	1403.16
889.6	1402.93
889.917	1377.85
890.233	1404.74
890.55	1388.24
890.866	1403.16
891.182	1388.24
891.498	1394.79
891.815	1376.94
892.131	1369.71
892.447	1379.43
892.763	1416.94
893.079	1392.76
893.395	1348.24
893.71	1358.64
894.026	1350.95
894.342	1342.59
894.657	1349.6
894.973	1362.03
895.289	1357.73
895.604	1334.91
895.92	1317.28
896.235	1342.37
896.55	1349.37
896.865	1345.76
897.181	1327.45
897.496	1320.67
897.811	1340.78
898.126	1296.72
898.441	1312.99
898.756	1333.55
899.071	1303.27
899.386	1291.07
899.7	1319.77
900.015	1264.85
900.33	1276.6
900.644	1310.5
900.959	1314.8
901.273	1260.11
901.588	1275.7
901.902	1255.14
902.216	1265.08
902.531	1250.16
902.845	1272.54
903.159	1264.85
903.473	1243.16
903.787	1242.71
904.101	1252.2
904.415	1249.26
904.729	1252.2
905.042	1214.69
905.356	1230.96
905.67	1233.67
905.984	1230.28
906.297	1225.76
906.611	1228.02
906.924	1217.4
907.237	1225.08
907.551	1219.43
907.864	1218.08
908.177	1226.66
908.491	1211.52
908.804	1210.62
909.117	1191.64
909.43	1169.26
909.743	1202.71
910.056	1166.55
910.368	1194.12
910.681	1173.56
910.994	1147.79
911.307	1174.23
911.619	1155.93
911.932	1160
912.244	1148.47
912.557	1155.93
912.869	1149.83
913.181	1135.82
913.494	1137.63
913.806	1110.51
914.118	1139.43
914.43	1134.24
914.742	1127.23
915.054	1131.75
915.366	1135.82
915.678	1114.58
915.99	1095.14
916.302	1101.02
916.613	1115.93
916.925	1099.66
917.236	1106.67
917.548	1089.27
917.859	1099.21
918.171	1095.37
918.482	1087.23
918.794	1084.52
919.105	1078.64
919.416	1083.62
919.727	1058.53
920.038	1073.22
920.349	1058.08
920.66	1065.54
920.971	1070.51
921.282	1058.53
921.593	1065.08
921.903	1038.87
922.214	1060.34
922.525	1023.05
922.835	1033
923.146	1020.34
923.456	1042.03
923.767	1030.74
924.077	1008.36
924.387	997.29
924.697	1028.48
925.008	1024.86
925.318	1018.76
925.628	997.97
925.938	1027.57
926.248	989.61
926.558	999.78
926.867	998.19
927.177	1002.49
927.487	1002.49
927.796	970.17
928.106	954.81
928.416	1005.43
928.725	995.03
929.034	967.01
929.344	977.4
929.653	971.98
929.962	979.44
930.271	979.21
930.581	957.52
930.89	962.26
931.199	953.45
931.508	954.35
931.817	993.9
932.125	939.66
932.434	947.35
932.743	927.69
933.051	928.37
933.36	916.39
933.669	955.26
933.977	932.89
934.286	947.57
934.594	947.57
934.902	931.08
935.21	917.52
935.519	930.85
935.827	920.46
936.135	920.91
936.443	917.29
936.751	918.42
937.059	913.68
937.367	893.34
937.674	895.6
937.982	922.72
938.29	881.59
938.597	887.46
938.905	885.43
939.213	879.55
939.52	885.43
939.827	890.17
940.135	891.76
940.442	865.77
940.749	891.08
941.056	873.45
941.363	883.85
941.67	883.39
941.977	861.02
942.284	877.97
942.591	856.5
942.898	864.19
943.205	844.53
943.511	831.64
943.818	851.31
944.125	848.59
944.431	862.83
944.738	857.18
945.044	835.03
945.35	852.21
945.657	828.93
945.963	838.42
946.269	818.09
946.575	836.16
946.881	835.49
947.187	820.35
947.493	806.11
947.799	850.63
948.105	803.4
948.41	822.83
948.716	825.77
949.022	844.53
949.327	809.5
949.633	790.29
949.938	801.59
950.244	815.15
950.549	781.93
950.854	806.11
951.16	794.81
951.465	806.56
951.77	768.6
952.075	800.01
952.38	786.9
952.685	809.05
952.99	783.74
953.294	811.08
953.599	771.53
953.904	757.75
954.209	768.37
954.513	767.01
954.818	781.48
955.122	772.21
955.426	764.98
955.731	775.83
956.035	773.34
956.339	748.94
956.643	762.27
956.948	734.92
957.252	729.05
957.556	742.38
957.86	738.31
958.163	754.81
958.467	755.49
958.771	751.19
959.075	731.31
959.378	756.62
959.682	730.18
959.985	739.9
960.289	742.38
960.592	718.65
960.896	713.68
961.199	727.47
961.502	720.91
961.805	726.34
962.108	721.82
962.411	729.95
962.714	727.24
963.017	721.37
963.32	712.55
963.623	716.17
963.926	679.11
964.228	706.22
964.531	698.31
964.833	691.31
965.136	697.64
965.438	706.45
965.741	721.59
966.043	698.31
966.345	682.04
966.648	720.24
966.95	695.6
967.252	694.7
967.554	693.57
967.856	712.55
968.158	688.6
968.46	682.72
968.761	685.21
969.063	678.65
969.365	653.34
969.666	681.37
969.968	663.97
970.269	662.61
970.571	681.14
970.872	676.85
971.174	668.94
971.475	645.66
971.776	685.43
972.077	657.41
972.378	665.55
972.679	665.77
972.98	659.22
973.281	656.06
973.582	657.86
973.883	642.05
974.183	648.82
974.484	659.45
974.785	651.76
975.085	656.06
975.386	644.98
975.686	658.32
975.986	625.77
976.287	640.92
976.587	612.89
976.887	642.72
977.187	630.07
977.487	619.22
977.787	633.91
978.087	626.9
978.387	633.91
978.687	621.03
978.987	623.51
979.286	632.78
979.586	632.1
979.885	620.8
980.185	639.56
980.484	623.51
980.784	619.45
981.083	647.69
981.382	615.15
981.682	629.39
981.981	609.05
982.28	582.16
982.579	608.6
982.878	590.07
983.177	600.69
983.475	616.06
983.774	615.83
984.073	610.86
984.372	600.69
984.67	590.52
984.969	594.36
985.267	606.11
985.566	577.19
985.864	579
986.162	579.9
986.461	588.71
986.759	576.51
987.057	589.17
987.355	576.51
987.653	567.02
987.951	588.04
988.249	548.49
988.547	569.96
988.844	581.48
989.142	567.47
989.44	565.66
989.737	564.76
990.035	572.22
990.332	561.14
990.63	583.52
990.927	554.36
991.224	559.34
991.521	583.97
991.819	562.95
992.116	550.07
992.413	568.37
992.71	577.41
993.006	555.49
993.303	550.52
993.6	556.85
993.897	549.84
994.193	534.48
994.49	556.4
994.787	544.42
995.083	538.32
995.379	536.06
995.676	535.83
995.972	548.26
996.268	546.68
996.565	555.04
996.861	543.06
997.157	539.68
997.453	531.99
997.749	545.78
998.044	524.53
998.34	534.03
998.636	544.19
998.932	533.35
999.227	521.82
999.523	522.27
999.818	544.19
1000.114	530.64
1000.409	526.57
1000.704	519.34
1001	528.15
1001.295	526.79
1001.59	515.27
1001.885	519.11
1002.18	501.48
1002.475	526.34
1002.77	521.6
1003.065	514.82
1003.359	508.04
1003.654	505.33
1003.949	505.55
1004.243	496.96
1004.538	502.61
1004.832	506.23
1005.127	503.52
1005.421	507.13
1005.715	502.39
1006.009	505.78
1006.304	501.94
1006.598	517.98
1006.892	498.55
1007.186	474.82
1007.48	479.56
1007.773	497.19
1008.067	505.1
1008.361	492.44
1008.655	477.53
1008.948	481.82
1009.242	486.34
1009.535	489.96
1009.829	467.81
1010.122	492.9
1010.415	472.33
1010.708	491.31
1011.001	473.46
1011.295	468.72
1011.588	478.21
1011.881	468.49
1012.173	491.77
1012.466	477.08
1012.759	479.56
1013.052	476.4
1013.344	449.51
1013.637	477.53
1013.93	466.68
1014.222	464.42
1014.514	455.84
1014.807	470.98
1015.099	443.41
1015.391	453.35
1015.683	446.57
1015.976	482.28
1016.268	473.01
1016.56	472.78
1016.851	441.37
1017.143	461.26
1017.435	441.37
1017.727	450.86
1018.018	447.7
1018.31	447.7
1018.602	462.16
1018.893	443.86
1019.185	457.42
1019.476	447.25
1019.767	441.82
1020.058	447.47
1020.35	438.43
1020.641	464.87
1020.932	426.46
1021.223	447.93
1021.514	451.99
1021.804	411.77
1022.095	431.88
1022.386	435.5
1022.677	427.14
1022.967	437.3
1023.258	451.99
1023.548	436.85
1023.839	436.17
1024.129	425.1
1024.419	439.11
1024.709	414.25
1025	427.81
1025.29	438.43
1025.58	428.94
1025.87	440.92
1026.16	431.66
1026.449	397.98
1026.739	429.4
1027.029	425.55
1027.319	403.18
1027.608	425.55
1027.898	396.4
1028.187	400.47
1028.477	418.1
1028.766	402.73
1029.055	383.07
1029.344	418.32
1029.634	430.75
1029.923	387.36
1030.212	392.33
1030.501	414.93
1030.79	393.46
1031.078	436.17
1031.367	407.02
1031.656	419
1031.945	399.57
1032.233	405.22
1032.522	398.89
1032.81	420.81
1033.099	416.74
1033.387	386.91
1033.675	395.95
1033.963	395.05
1034.251	406.8
1034.54	379
1034.828	400.02
1035.116	379.45
1035.403	407.7
1035.691	390.98
1035.979	407.48
1036.267	409.06
1036.554	394.14
1036.842	395.27
1037.129	414.03
1037.417	404.31
1037.704	383.3
1037.992	398.66
1038.279	377.19
1038.566	399.79
1038.853	399.79
1039.14	399.79
