Data from carpet_green_FLMS001491_00066.txt Node
Date: Wed Feb 08 10:35:42 GMT 2017
User: dcchb
Spectrometer: FLMS00149
Trigger mode: 0
Integration Time (sec): 2.000000E-2
Scans to average: 10
Electric dark correction enabled: true
Nonlinearity correction enabled: false
Boxcar width: 0
XAxis mode: Wavelengths
Number of Pixels in Spectrum: 2048
>>>>>Begin Spectral Data<<<<<
341.393	-15.23
341.776	-15.23
342.16	-15.23
342.543	-57.94
342.927	-62.46
343.31	-67.88
343.693	-60.65
344.077	-71.27
344.46	-62.68
344.843	-23.59
345.226	-32.63
345.61	-39.41
345.993	-14.1
346.376	-10.48
346.759	26.13
347.142	2.18
347.525	44.89
347.908	56.86
348.291	65
348.674	69.74
349.057	117.88
349.44	134.15
349.823	145.9
350.206	145
350.588	168.95
350.971	194.94
351.354	209.63
351.737	215.73
352.119	221.38
352.502	253.24
352.884	251.43
353.267	267.48
353.65	273.58
354.032	255.05
354.414	277.87
354.797	281.94
355.179	294.6
355.562	285.11
355.944	325.1
356.326	289.63
356.709	309.51
357.091	312.22
357.473	318.55
357.855	309.51
358.238	316.07
358.62	294.6
359.002	319
359.384	316.97
359.766	293.69
360.148	330.53
360.53	298.44
360.912	302.96
361.294	317.2
361.676	314.48
362.057	294.6
362.439	322.62
362.821	294.6
363.203	305.67
363.584	296.18
363.966	300.47
364.348	280.81
364.729	296.86
365.111	286.46
365.493	290.3
365.874	278.78
366.256	272
366.637	296.63
367.019	287.37
367.4	294.6
367.781	286.91
368.163	285.11
368.544	289.85
368.925	294.14
369.306	288.04
369.688	279.91
370.069	285.33
370.45	299.34
370.831	276.97
371.212	275.61
371.593	284.43
371.974	300.7
372.355	294.6
372.736	277.42
373.117	273.58
373.498	271.09
373.879	276.97
374.26	278.78
374.641	272.9
375.021	272.9
375.402	299.57
375.783	260.7
376.163	276.74
376.544	283.3
376.925	285.33
377.305	301.38
377.686	297.08
378.066	279.23
378.447	274.94
378.827	313.58
379.208	296.63
379.588	288.04
379.968	303.18
380.349	291.21
380.729	292.79
381.109	286.69
381.489	309.96
381.87	294.6
382.25	301.38
382.63	300.7
383.01	298.66
383.39	281.94
383.77	282.39
384.15	302.73
384.53	293.92
384.91	301.38
385.29	308.83
385.67	295.73
386.049	295.73
386.429	276.29
386.809	285.33
387.189	310.19
387.568	302.51
387.948	299.12
388.328	309.96
388.707	298.21
389.087	307.93
389.466	312.45
389.846	307.03
390.225	321.71
390.605	292.56
390.984	308.83
391.363	295.95
391.743	305.9
392.122	298.89
392.501	306.35
392.881	307.48
393.26	301.38
393.639	302.05
394.018	295.05
394.397	297.08
394.776	307.25
395.155	326.23
395.534	313.13
395.913	326.69
396.292	309.74
396.671	318.78
397.05	327.82
397.429	314.71
397.808	291.21
398.186	314.26
398.565	290.3
398.944	310.42
399.323	319.91
399.701	328.95
400.08	317.87
400.458	309.06
400.837	306.35
401.215	317.87
401.594	327.36
401.972	312.45
402.351	329.17
402.729	313.81
403.107	312.45
403.486	311.77
403.864	311.09
404.242	333.47
404.62	332.34
404.999	307.03
405.377	327.36
405.755	335.27
406.133	317.65
406.511	304.54
406.889	342.96
407.267	330.98
407.645	325.56
408.023	339.12
408.401	312.45
408.779	321.71
409.156	333.92
409.534	330.3
409.912	336.4
410.29	333.24
410.667	319
411.045	323.52
411.422	343.41
411.8	348.15
412.178	336.63
412.555	344.09
412.933	338.66
413.31	352.9
413.687	330.08
414.065	353.13
414.442	331.88
414.819	336.86
415.197	343.41
415.574	349.51
415.951	343.64
416.328	335.05
416.705	346.12
417.082	346.8
417.46	333.69
417.837	352.67
418.214	329.62
418.591	357.19
418.967	357.42
419.344	362.17
419.721	350.41
420.098	334.14
420.475	330.3
420.852	343.64
421.228	342.05
421.605	356.52
421.982	343.41
422.358	358.32
422.735	338.66
423.111	339.79
423.488	369.4
423.864	355.61
424.241	364.65
424.617	364.43
424.994	351.32
425.37	356.52
425.746	360.58
426.123	371.66
426.499	360.13
426.875	361.04
427.251	365.33
427.627	365.56
428.003	377.31
428.379	352.67
428.756	372.11
429.132	362.84
429.507	361.71
429.883	365.1
430.259	354.48
430.635	361.94
431.011	362.62
431.387	366.91
431.763	364.43
432.138	381.6
432.514	382.28
432.89	380.02
433.265	396.97
433.641	396.74
434.016	372.56
434.392	375.5
434.767	385.44
435.143	400.81
435.518	377.31
435.894	409.85
436.269	420.24
436.644	401.71
437.02	407.36
437.395	388.15
437.77	386.8
438.145	400.58
438.52	400.58
438.895	387.93
439.271	411.88
439.646	408.27
440.021	389.28
440.395	381.37
440.77	413.01
441.145	410.07
441.52	424.76
441.895	402.62
442.27	414.14
442.645	402.39
443.019	446.46
443.394	408.27
443.769	431.99
444.143	404.88
444.518	417.08
444.892	413.46
445.267	418.21
445.641	421.6
446.016	414.82
446.39	435.61
446.764	413.24
447.139	394.26
447.513	424.31
447.887	428.38
448.262	431.54
448.636	428.15
449.01	423.18
449.384	412.11
449.758	435.61
450.132	450.98
450.506	426.12
450.88	447.59
451.254	409.4
451.628	443.75
452.002	454.82
452.376	450.98
452.75	471.09
453.123	455.04
453.497	446.23
453.871	443.75
454.244	455.5
454.618	446.68
454.992	460.24
455.365	450.3
455.739	455.04
456.112	493.24
456.486	458.89
456.859	453.46
457.232	473.35
457.606	472.67
457.979	464.31
458.352	490.52
458.725	469.51
459.099	470.19
459.472	463.63
459.845	489.39
460.218	471.32
460.591	491.2
460.964	490.98
461.337	512.22
461.71	504.53
462.083	493.69
462.456	523.29
462.829	470.41
463.201	500.92
463.574	502.27
463.947	519
464.32	532.33
464.692	531.88
465.065	506.79
465.438	537.75
465.81	524.87
466.183	549.05
466.555	529.62
466.928	541.82
467.3	551.31
467.672	543.4
468.045	579.34
468.417	561.03
468.789	573.01
469.161	556.51
469.534	578.66
469.906	584.08
470.278	581.14
470.65	563.74
471.022	565.1
471.394	591.54
471.766	608.49
472.138	594.02
472.51	610.29
472.882	610.75
473.253	616.85
473.625	626.79
473.997	630.18
474.369	635.15
474.74	629.5
475.112	655.49
475.484	632.67
475.855	649.62
476.227	644.87
476.598	680.35
476.97	697.98
477.341	680.8
477.713	674.7
478.084	709.73
478.455	707.02
478.827	724.42
479.198	686.45
479.569	735.26
479.94	730.29
480.311	745.66
480.682	751.31
481.053	760.12
481.424	787.47
481.795	793.79
482.166	780.01
482.537	793.34
482.908	805.32
483.279	782.27
483.65	826.33
484.021	789.27
484.391	844.86
484.762	858.42
485.133	845.99
485.503	857.97
485.874	865.2
486.244	878.54
486.615	905.2
486.985	871.3
487.356	922.6
487.726	919.44
488.097	916.5
488.467	915.6
488.837	932.55
489.207	932.77
489.578	956.05
489.948	958.53
490.318	949.04
490.688	977.06
491.058	985.43
491.428	1008.7
491.798	991.08
492.168	1025.65
492.538	1019.78
492.908	1044.86
493.278	1038.31
493.648	1018.19
494.017	1038.08
494.387	1048.48
494.757	1078.53
495.126	1057.29
495.496	1085.31
495.866	1103.39
496.235	1083.73
496.605	1110.17
496.974	1099.1
497.344	1110.85
497.713	1120.56
498.082	1137.74
498.452	1148.81
498.821	1141.35
499.19	1130.96
499.559	1145.65
499.928	1161.92
500.298	1150.62
500.667	1174.8
501.036	1159.21
501.405	1180.9
501.774	1195.59
502.143	1195.36
502.512	1185.65
502.88	1187.91
503.249	1191.97
503.618	1221.8
503.987	1211.18
504.356	1212.31
504.724	1205.31
505.093	1217.74
505.462	1231.52
505.83	1264.51
506.199	1252.54
506.567	1237.85
506.936	1208.47
507.304	1292.08
507.672	1253.22
508.041	1256.15
508.409	1245.31
508.777	1270.62
509.145	1270.84
509.514	1272.65
509.882	1282.59
510.25	1287.57
510.618	1292.76
510.986	1307.9
511.354	1306.32
511.722	1316.49
512.09	1337.51
512.458	1322.37
512.826	1310.84
513.193	1326.66
513.561	1348.81
513.929	1331.41
514.297	1360.78
514.664	1366.66
515.032	1358.07
515.4	1366.43
515.767	1371.63
516.135	1419.76
516.502	1383.16
516.869	1399.43
517.237	1394.91
517.604	1388.58
517.972	1375.02
518.339	1388.35
518.706	1398.97
519.073	1377.96
519.44	1405.3
519.808	1444.62
520.175	1419.31
520.542	1425.19
520.909	1434.68
521.276	1459.76
521.643	1415.25
522.009	1453.21
522.376	1436.04
522.743	1444.17
523.11	1448.92
523.477	1480.78
523.843	1490.5
524.21	1473.1
524.577	1506.32
524.943	1474.45
525.31	1470.61
525.676	1493.66
526.043	1515.36
526.409	1511.97
526.776	1514
527.142	1530.04
527.508	1552.19
527.874	1526.65
528.241	1534.11
528.607	1566.43
528.973	1567.78
529.339	1546.77
529.705	1548.35
530.071	1566.43
530.437	1580.21
530.803	1573.66
531.169	1570.72
531.535	1523.49
531.901	1577.5
532.267	1597.39
532.632	1589.7
532.998	1590.61
533.364	1577.95
533.73	1595.81
534.095	1598.74
534.461	1600.55
534.826	1612.98
535.192	1619.53
535.557	1653.21
535.923	1621.12
536.288	1601.68
536.653	1623.6
537.019	1607.1
537.384	1608.46
537.749	1630.61
538.114	1601.23
538.479	1606.65
538.845	1623.38
539.21	1608.23
539.575	1616.82
539.94	1629.48
540.305	1618.4
540.67	1614.56
541.034	1621.12
541.399	1628.35
541.764	1620.44
542.129	1623.38
542.494	1619.76
542.858	1626.54
543.223	1594
543.587	1634.9
543.952	1619.31
544.316	1618.63
544.681	1637.61
545.045	1601.23
545.41	1628.8
545.774	1642.58
546.138	1637.84
546.503	1623.83
546.867	1639.65
547.231	1638.97
547.595	1654.34
547.959	1629.48
548.324	1683.71
548.688	1631.51
549.052	1646.2
549.416	1645.52
549.779	1646.43
550.143	1636.93
550.507	1650.49
550.871	1670.15
551.235	1634.22
551.599	1646.65
551.962	1653.66
552.326	1663.83
552.689	1700.21
553.053	1659.08
553.417	1658.4
553.78	1716.48
554.143	1673.54
554.507	1707.89
554.87	1657.95
555.234	1689.14
555.597	1692.3
555.96	1684.16
556.323	1686.65
556.686	1720.77
557.05	1680.78
557.413	1721.68
557.776	1666.76
558.139	1713.99
558.502	1730.94
558.865	1692.75
559.228	1696.59
559.59	1726.2
559.953	1735.69
560.316	1713.09
560.679	1736.59
561.041	1776.59
561.404	1742.69
561.767	1750.38
562.129	1764.39
562.492	1753.32
562.854	1752.86
563.217	1761.9
563.579	1756.03
563.941	1758.97
564.304	1762.81
564.666	1797.38
565.028	1791.28
565.39	1795.35
565.753	1767.33
566.115	1781.79
566.477	1793.54
566.839	1806.65
567.201	1789.92
567.563	1807.1
567.925	1821.34
568.287	1813.88
568.648	1800.09
569.01	1786.31
569.372	1827.89
569.734	1805.74
570.095	1789.7
570.457	1842.8
570.819	1822.92
571.18	1804.39
571.542	1827.21
571.903	1817.95
572.265	1839.87
572.626	1802.13
572.987	1826.53
573.349	1839.41
573.71	1831.05
574.071	1826.76
574.432	1833.99
574.794	1820.43
575.155	1831.28
575.516	1792.41
575.877	1835.57
576.238	1846.19
576.599	1836.03
576.96	1841.45
577.32	1826.76
577.681	1783.6
578.042	1818.4
578.403	1810.04
578.763	1828.12
579.124	1822.92
579.485	1828.79
579.845	1836.25
580.206	1803.94
580.566	1813.88
580.927	1800.09
581.287	1818.17
581.648	1792.41
582.008	1795.8
582.368	1786.99
582.728	1794.44
583.089	1789.25
583.449	1788.79
583.809	1764.61
584.169	1785.63
584.529	1772.75
584.889	1798.29
585.249	1759.87
585.609	1740.89
585.969	1801.9
586.329	1780.66
586.688	1746.99
587.048	1793.77
587.408	1765.97
587.768	1770.26
588.127	1795.12
588.487	1732.3
588.846	1782.47
589.206	1777.27
589.565	1756.48
589.925	1732.98
590.284	1727.78
590.643	1747.44
591.003	1748.8
591.362	1762.13
591.721	1715.12
592.08	1748.12
592.44	1750.6
592.799	1711.73
593.158	1726.42
593.517	1739.3
593.876	1734.56
594.235	1747.67
594.593	1723.94
594.952	1741.79
595.311	1735.69
595.67	1728.46
596.029	1721.45
596.387	1711.28
596.746	1770.72
597.104	1745.18
597.463	1716.71
597.822	1738.4
598.18	1735.69
598.538	1703.83
598.897	1744.05
599.255	1715.12
599.613	1740.66
599.972	1706.76
600.33	1733.88
600.688	1730.72
601.046	1744.5
601.404	1757.16
601.762	1732.53
602.12	1761.68
602.478	1760.32
602.836	1747.21
603.194	1719.42
603.552	1748.57
603.91	1724.62
604.268	1724.16
604.625	1749.7
604.983	1732.07
605.341	1746.31
605.698	1736.59
606.056	1757.61
606.413	1732.98
606.771	1720.32
607.128	1758.74
607.485	1728.91
607.843	1756.48
608.2	1762.35
608.557	1748.12
608.914	1778.17
609.272	1757.38
609.629	1760.77
609.986	1752.19
610.343	1797.83
610.7	1783.6
611.057	1767.78
611.414	1773.43
611.771	1780.21
612.127	1778.17
612.484	1767.78
612.841	1783.15
613.198	1770.26
613.554	1763.03
613.911	1805.74
614.267	1776.82
614.624	1773.43
614.98	1785.41
615.337	1805.07
615.693	1785.18
616.05	1782.92
616.406	1785.41
616.762	1796.93
617.118	1778.85
617.475	1797.83
617.831	1809.36
618.187	1790.38
618.543	1804.39
618.899	1801.68
619.255	1784.73
619.611	1789.02
619.967	1774.33
620.323	1795.35
620.678	1770.94
621.034	1775.46
621.39	1770.94
621.746	1768.91
622.101	1815.23
622.457	1796.48
622.812	1786.99
623.168	1789.02
623.523	1815.91
623.879	1843.26
624.234	1782.69
624.589	1767.55
624.945	1801
625.3	1779.98
625.655	1798.96
626.01	1814.33
626.365	1783.15
626.72	1817.27
627.075	1802.58
627.43	1803.26
627.785	1794.9
628.14	1800.32
628.495	1770.72
628.85	1756.48
629.205	1777.04
629.559	1783.6
629.914	1780.21
630.269	1765.52
630.623	1750.83
630.978	1786.53
631.332	1768.91
631.687	1771.85
632.041	1765.29
632.396	1786.53
632.75	1771.39
633.104	1773.43
633.459	1793.99
633.813	1772.75
634.167	1782.47
634.521	1781.79
634.875	1788.79
635.229	1776.37
635.583	1757.84
635.937	1777.5
636.291	1784.73
636.645	1753.99
636.999	1752.86
637.352	1763.71
637.706	1747.44
638.06	1746.99
638.413	1769.59
638.767	1758.06
639.121	1752.41
639.474	1775.46
639.828	1760.77
640.181	1776.14
640.534	1778.85
640.888	1750.38
641.241	1751.51
641.594	1735.01
641.947	1753.09
642.301	1817.27
642.654	1741.11
643.007	1742.02
643.36	1763.03
643.713	1752.19
644.066	1763.71
644.419	1755.12
644.771	1720.77
645.124	1754.22
645.477	1750.6
645.83	1736.37
646.182	1721.9
646.535	1731.62
646.888	1736.82
647.24	1716.93
647.593	1733.65
647.945	1734.78
648.298	1742.92
648.65	1718.74
649.002	1728.01
649.355	1744.05
649.707	1760.77
650.059	1758.29
650.411	1776.37
650.763	1795.35
651.115	1767.1
651.467	1778.17
651.819	1753.09
652.171	1805.74
652.523	1818.85
652.875	1829.92
653.227	1819.53
653.578	1814.78
653.93	1790.38
654.282	1843.93
654.633	1801
654.985	1823.14
655.337	1838.28
655.688	1851.84
656.039	1856.82
656.391	1840.77
656.742	1838.96
657.094	1859.98
657.445	1890.94
657.796	1883.26
658.147	1855.01
658.498	1915.57
658.849	1913.31
659.2	1900.43
659.551	1924.16
659.902	1875.35
660.253	1935.23
660.604	1953.31
660.955	1951.73
661.306	1949.69
661.656	1958.96
662.007	2003.48
662.358	1953.08
662.708	1994.21
663.059	2024.04
663.409	2014.55
663.76	1988.79
664.11	2014.55
664.461	2002.35
664.811	2040.09
665.161	2076.7
665.511	2067.66
665.862	2096.58
666.212	2099.07
666.562	2127.99
666.912	2127.54
667.262	2111.5
667.612	2121.44
667.962	2145.85
668.312	2170.93
668.662	2170.25
669.011	2167.09
669.361	2213.42
669.711	2228.33
670.06	2224.72
670.41	2229.91
670.76	2285.73
671.109	2257.48
671.459	2237.6
671.808	2303.13
672.157	2325.73
672.507	2306.52
672.856	2341.32
673.205	2342.68
673.554	2374.99
673.904	2391.49
674.253	2405.5
674.602	2416.35
674.951	2411.83
675.3	2411.83
675.649	2440.3
675.998	2476.91
676.346	2534.99
676.695	2496.12
677.044	2518.27
677.393	2511.26
677.741	2553.29
678.09	2559.62
678.438	2596.01
678.787	2584.48
679.135	2594.65
679.484	2658.15
679.832	2647.53
680.181	2673.52
680.529	2643.24
680.877	2675.78
681.225	2708.77
681.573	2735.66
681.922	2736.57
682.27	2763.01
682.618	2813.85
682.966	2811.59
683.314	2847.3
683.661	2828.77
684.009	2864.7
684.357	2900.4
684.705	2904.92
685.053	2963.23
685.4	2956.9
685.748	2983.11
686.095	2959.61
686.443	3016.79
686.79	2959.61
687.138	3037.35
687.485	3059.04
687.832	3074.86
688.18	3123.9
688.527	3123.22
688.874	3096.33
689.221	3147.63
689.568	3173.84
689.915	3169.1
690.262	3165.48
690.609	3234.18
690.956	3277.8
691.303	3261.3
691.65	3269.21
691.997	3294.07
692.344	3325.7
692.69	3293.84
693.037	3352.14
693.383	3359.37
693.73	3405.02
694.077	3426.94
694.423	3439.37
694.769	3467.85
695.116	3487.51
695.462	3494.51
695.808	3534.96
696.155	3565.02
696.501	3524.12
696.847	3598.24
697.193	3562.76
697.539	3621.06
697.885	3647.5
698.231	3653.83
698.577	3697.67
698.923	3703.32
699.269	3736.99
699.614	3725.92
699.96	3764.56
700.306	3739.25
700.651	3787.16
700.997	3787.61
701.342	3884.56
701.688	3830.1
702.033	3880.49
702.379	3901.73
702.724	3895.41
703.069	3967.72
703.415	3913.71
703.76	3976.53
704.105	3993.71
704.45	3991.22
704.795	4025.12
705.14	4045.23
705.485	4079.81
705.83	4093.14
706.175	4108.06
706.52	4141.05
706.865	4128.17
707.209	4153.25
707.554	4177.21
707.899	4191.9
708.243	4238.22
708.588	4220.37
708.932	4242.74
709.277	4220.82
709.621	4263.08
709.966	4308.5
710.31	4317.32
710.654	4279.58
710.998	4381.04
711.342	4372
711.687	4416.75
712.031	4376.98
712.375	4386.47
712.719	4397.54
713.063	4459.46
713.407	4483.19
713.75	4462.17
714.094	4488.61
714.438	4493.58
714.782	4530.87
715.125	4515.05
715.469	4534.94
715.812	4588.27
716.156	4524.32
716.499	4609.74
716.843	4643.18
717.186	4603.41
717.53	4643.18
717.873	4657.19
718.216	4643.18
718.559	4683.86
718.902	4665.56
719.246	4664.43
719.589	4699
719.932	4717.08
720.275	4754.82
720.617	4748.49
720.96	4764.99
721.303	4789.39
721.646	4809.96
721.989	4796.63
722.331	4810.64
722.674	4801.82
723.016	4771.99
723.359	4826.91
723.701	4828.49
724.044	4839.34
724.386	4801.82
724.729	4825.1
725.071	4847.7
725.413	4881.14
725.755	4874.82
726.097	4868.04
726.439	4819.45
726.782	4885.66
727.124	4923.85
727.465	4918.2
727.807	4839.56
728.149	4866.91
728.491	4880.69
728.833	4920.24
729.175	4883.85
729.516	4933.57
729.858	4910.07
730.199	4916.4
730.541	4968.6
730.882	4930.41
731.224	4951.65
731.565	4921.82
731.906	4956.4
732.248	4997.07
732.589	4959.11
732.93	4972.67
733.271	5008.6
733.612	4961.59
733.953	4965.89
734.294	4937.64
734.635	4954.14
734.976	4975.38
735.317	4915.94
735.658	4966.56
735.999	4964.76
736.339	4969.5
736.68	4974.93
737.021	4961.59
737.361	4955.49
737.702	4992.33
738.042	4963.63
738.383	4978.77
738.723	4999.56
739.063	4997.52
739.404	5033.68
739.744	4980.35
740.084	4974.93
740.424	4968.37
740.764	4994.36
741.104	4985.32
741.444	4975.6
741.784	4981.93
742.124	4973.57
742.464	4981.93
742.804	4962.5
743.143	4942.38
743.483	4959.11
743.823	4969.05
744.162	4994.36
744.502	4955.27
744.841	4959.78
745.181	4951.42
745.52	4950.07
745.86	4914.81
746.199	4925.44
746.538	4915.49
746.877	4895.83
747.216	4999.33
747.556	4948.03
747.895	4953.23
748.234	4939.45
748.573	4925.44
748.911	4888.83
749.25	4896.28
749.589	4924.08
749.928	4927.24
750.267	4897.41
750.605	4896.51
750.944	4856.96
751.283	4853.35
751.621	4917.75
751.96	4824.87
752.298	4856.06
752.636	4881.59
752.975	4840.69
753.313	4806.79
753.651	4857.87
753.989	4816.29
754.327	4802.05
754.666	4761.6
755.004	4788.94
755.342	4785.33
755.679	4821.71
756.017	4760.02
756.355	4776.06
756.693	4765.21
757.031	4733.8
757.368	4725.67
757.706	4716.85
758.044	4707.59
758.381	4726.8
758.719	4727.7
759.056	4709.4
759.394	4692.22
759.731	4656.52
760.068	4674.59
760.405	4636.63
760.743	4604.99
761.08	4649.96
761.417	4586.46
761.754	4560.93
762.091	4612.68
762.428	4583.07
762.765	4557.99
763.102	4604.54
763.438	4569.74
763.775	4558.21
764.112	4576.97
764.449	4529.06
764.785	4490.42
765.122	4451.78
765.458	4494.26
765.795	4490.42
766.131	4469.4
766.467	4422.4
766.804	4414.94
767.14	4401.83
767.476	4386.24
767.812	4387.14
768.148	4389.4
768.485	4339.01
768.821	4330.65
769.157	4345.79
769.492	4348.5
769.828	4316.41
770.164	4287.49
770.5	4279.58
770.836	4263.98
771.171	4263.53
771.507	4251.55
771.842	4256.98
772.178	4193.7
772.513	4252.46
772.849	4217.21
773.184	4148.51
773.519	4182.4
773.855	4123.65
774.19	4154.83
774.525	4139.69
774.86	4143.99
775.195	4131.56
775.53	4083.2
775.865	4118.9
776.2	4035.97
776.535	4023.99
776.87	4043.65
777.205	3981.96
777.539	3984.44
777.874	4022.18
778.209	3959.13
778.543	4006.14
778.878	3936.53
779.212	3928.17
779.547	3918.23
779.881	3911.22
780.215	3922.07
780.55	3876.88
780.884	3894.05
781.218	3900.38
781.552	3865.58
781.886	3860.38
782.22	3829.42
782.554	3826.48
782.888	3776.99
783.222	3837.33
783.556	3791.23
783.889	3799.59
784.223	3743.77
784.557	3732.92
784.89	3771.34
785.224	3686.37
785.557	3699.03
785.891	3709.2
786.224	3683.21
786.558	3687.28
786.891	3647.05
787.224	3628.75
787.557	3647.95
787.891	3615.87
788.224	3585.36
788.557	3611.12
788.89	3605.24
789.223	3575.19
789.556	3615.64
789.888	3581.97
790.221	3563.89
790.554	3529.99
790.887	3552.36
791.219	3475.98
791.552	3530.22
791.884	3509.88
792.217	3497
792.549	3511.69
792.882	3461.52
793.214	3428.3
793.546	3447.51
793.879	3407.74
794.211	3420.16
794.543	3443.67
794.875	3434.85
795.207	3394.18
795.539	3384.69
795.871	3399.37
796.203	3377.23
796.535	3339.71
796.867	3329.09
797.198	3341.97
797.53	3330.9
797.862	3284.57
798.193	3322.54
798.525	3298.13
798.856	3324.35
799.188	3282.99
799.519	3266.04
799.85	3254.07
800.182	3248.19
800.513	3268.98
800.844	3175.88
801.175	3226.5
801.506	3236.44
801.837	3206.84
802.168	3220.17
802.499	3214.97
802.83	3241.64
803.161	3196.89
803.491	3165.71
803.822	3164.35
804.153	3144.92
804.483	3127.06
804.814	3167.97
805.145	3095.2
805.475	3111.7
805.805	3092.04
806.136	3142.43
806.466	3134.07
806.796	3121.19
807.126	3079.38
807.457	3060.17
807.787	3084.35
808.117	3076.44
808.447	3053.39
808.777	3049.78
809.107	3033.28
809.436	3045.71
809.766	3052.72
810.096	3030.8
810.426	2981.76
810.755	3010.91
811.085	2977.01
811.414	3027.18
811.744	3012.04
812.073	2970.68
812.403	2970.68
812.732	3002.77
813.061	2980.63
813.39	2978.14
813.719	2987.18
814.049	2960.06
814.378	2927.97
814.707	2938.37
815.036	2892.72
815.365	2914.41
815.693	2897.92
816.022	2881.42
816.351	2850.24
816.68	2859.95
817.008	2886.39
817.337	2857.92
817.665	2885.94
817.994	2860.18
818.322	2845.04
818.651	2775.66
818.979	2842.55
819.307	2840.07
819.636	2834.19
819.964	2817.24
820.292	2808.88
820.62	2768.43
820.948	2807.75
821.276	2816.34
821.604	2848.2
821.932	2811.59
822.259	2827.41
822.587	2816.56
822.915	2822.67
823.243	2812.04
823.57	2774.08
823.898	2792.61
824.225	2791.25
824.553	2781.76
824.88	2805.94
825.207	2801.65
825.535	2806.85
825.862	2793.97
826.189	2809.78
826.516	2798.94
826.843	2843.46
827.17	2787.19
827.497	2782.67
827.824	2791.48
828.151	2827.41
828.478	2782.89
828.805	2825.38
829.131	2826.28
829.458	2787.86
829.785	2789.45
830.111	2805.49
830.438	2793.51
830.764	2758.71
831.09	2817.24
831.417	2804.36
831.743	2748.77
832.069	2781.54
832.395	2775.89
832.722	2791.93
833.048	2753.52
833.374	2751.48
833.7	2721.43
834.026	2771.14
834.351	2761.88
834.677	2760.07
835.003	2763.23
835.329	2738.83
835.654	2763.01
835.98	2740.63
836.306	2760.29
836.631	2719.39
836.956	2760.29
837.282	2773.63
837.607	2742.22
837.932	2721.2
838.258	2729.79
838.583	2703.57
838.908	2733.85
839.233	2704.48
839.558	2679.62
839.883	2712.84
840.208	2659.28
840.533	2663.8
840.858	2712.61
841.182	2674.65
841.507	2693.18
841.832	2698.83
842.156	2670.35
842.481	2677.81
842.805	2644.59
843.13	2634.87
843.454	2675.33
843.778	2678.94
844.103	2612.95
844.427	2647.76
844.751	2645.95
845.075	2628.77
845.399	2673.29
845.723	2642.78
846.047	2636.23
846.371	2599.17
846.695	2581.99
847.019	2564.14
847.343	2569.34
847.666	2581.99
847.99	2543.35
848.313	2575.21
848.637	2531.83
848.96	2531.15
849.284	2520.3
849.607	2512.39
849.931	2475.78
850.254	2497.7
850.577	2456.57
850.9	2470.81
851.223	2463.81
851.546	2450.47
851.869	2444.6
852.192	2422
852.515	2447.08
852.838	2432.85
853.161	2433.07
853.483	2385.84
853.806	2420.42
854.129	2419.06
854.451	2398.04
854.774	2398.5
855.096	2391.72
855.419	2366.41
855.741	2356.46
856.063	2360.08
856.385	2362.56
856.708	2349.68
857.03	2353.07
857.352	2326.63
857.674	2336.8
857.996	2328.89
858.318	2329.35
858.64	2340.42
858.961	2326.18
859.283	2298.84
859.605	2285.28
859.926	2301.32
860.248	2305.17
860.57	2256.35
860.891	2293.87
861.212	2260.19
861.534	2299.06
861.855	2259.97
862.176	2281.21
862.498	2242.57
862.819	2256.58
863.14	2253.87
863.461	2248.67
863.782	2223.13
864.103	2225.17
864.424	2193.08
864.745	2231.04
865.065	2240.99
865.386	2232.62
865.707	2224.94
866.027	2208.22
866.348	2184.94
866.668	2195.56
866.989	2189.24
867.309	2190.14
867.63	2203.7
867.95	2197.6
868.27	2156.47
868.59	2175.45
868.91	2168.9
869.23	2207.54
869.55	2190.14
869.87	2169.12
870.19	2155.11
870.51	2175.9
870.83	2152.18
871.15	2132.97
871.469	2146.3
871.789	2156.47
872.109	2149.92
872.428	2161.89
872.748	2164.6
873.067	2158.73
873.386	2131.61
873.706	2135.45
874.025	2140.42
874.344	2119.86
874.663	2139.52
874.982	2120.76
875.301	2129.8
875.62	2118.96
875.939	2127.09
876.258	2118.28
876.577	2125.74
876.896	2102.23
877.214	2096.13
877.533	2109.92
877.852	2098.17
878.17	2092.06
878.489	2121.67
878.807	2100.42
879.125	2047.09
879.444	2093.65
879.762	2073.08
880.08	2091.84
880.398	2058.17
880.716	2083.7
881.034	2057.49
881.352	2064.95
881.67	2072.63
881.988	2064.27
882.306	2066.75
882.624	2058.84
882.941	2058.62
883.259	2036.7
883.577	2051.84
883.894	2035.12
884.212	2065.4
884.529	2042.35
884.846	2023.82
885.164	2009.35
885.481	2015.68
885.798	2044.16
886.115	1991.5
886.432	1989.92
886.75	2014.1
887.067	2002.57
887.383	1988.79
887.7	1963.48
888.017	2015.68
888.334	1993.54
888.651	2000.99
888.967	1984.5
889.284	1966.42
889.6	1960.77
889.917	1957.15
890.233	1962.12
890.55	1921.45
890.866	1948.79
891.182	1936.36
891.498	1932.52
891.815	1906.31
892.131	1963.71
892.447	1907.21
892.763	1900.88
893.079	1913.31
893.395	1919.86
893.71	1911.05
894.026	1907.44
894.342	1885.74
894.657	1887.32
894.973	1885.06
895.289	1888.91
895.604	1881
895.92	1859.75
896.235	1848.45
896.55	1830.38
896.865	1837.38
897.181	1819.3
897.496	1856.59
897.811	1862.24
898.126	1815.91
898.441	1824.73
898.756	1819.08
899.071	1801.22
899.386	1792.41
899.7	1777.04
900.015	1786.31
900.33	1771.17
900.644	1808
900.959	1814.1
901.273	1768.68
901.588	1765.07
901.902	1727.55
902.216	1759.87
902.531	1763.94
902.845	1742.24
903.159	1733.43
903.473	1730.04
903.787	1704.05
904.101	1679.19
904.415	1710.15
904.729	1753.99
905.042	1703.15
905.356	1680.55
905.67	1695.46
905.984	1738.85
906.297	1687.33
906.611	1673.09
906.924	1686.2
907.237	1697.5
907.551	1666.09
907.864	1658.85
908.177	1678.74
908.491	1676.71
908.804	1660.21
909.117	1646.2
909.43	1644.39
909.743	1615.01
910.056	1660.21
910.368	1620.21
910.681	1611.85
910.994	1608.46
911.307	1602.13
911.619	1595.58
911.932	1617.05
912.244	1594.22
912.557	1586.54
912.869	1594.45
913.181	1594.9
913.494	1549.48
913.806	1546.77
914.118	1568.46
914.43	1535.92
914.742	1545.86
915.054	1555.81
915.366	1551.74
915.678	1523.49
915.99	1499.54
916.302	1528.24
916.613	1506.77
916.925	1490.95
917.236	1500.21
917.548	1500.89
917.859	1496.6
918.171	1491.4
918.482	1485.98
918.794	1491.85
919.105	1482.14
919.416	1450.72
919.727	1485.98
920.038	1465.41
920.349	1468.35
920.66	1432.42
920.971	1447.33
921.282	1440.78
921.593	1443.04
921.903	1467
922.214	1427.67
922.525	1436.04
922.835	1438.3
923.146	1393.32
923.456	1422.7
923.767	1415.92
924.077	1406.88
924.387	1396.49
924.697	1368.24
925.008	1378.64
925.318	1390.61
925.628	1390.84
925.938	1370.05
926.248	1370.73
926.558	1348.13
926.867	1370.73
927.177	1335.47
927.487	1356.04
927.796	1346.77
928.106	1342.25
928.416	1332.54
928.725	1342.03
929.034	1342.25
929.344	1321.24
929.653	1303.61
929.962	1293.44
930.271	1299.54
930.581	1299.09
930.89	1295.25
931.199	1283.05
931.508	1295.02
931.817	1292.76
932.125	1257.74
932.434	1276.72
932.743	1269.49
933.051	1271.29
933.36	1235.36
933.669	1276.49
933.977	1270.39
934.286	1257.06
934.594	1231.52
934.902	1254.57
935.21	1230.17
935.519	1217.28
935.827	1266.32
936.135	1246.44
936.443	1207.12
936.751	1232.88
937.059	1192.65
937.367	1205.31
937.674	1214.35
937.982	1210.5
938.29	1175.48
938.597	1202.82
938.905	1188.58
939.213	1165.31
939.52	1148.59
939.827	1194.01
940.135	1185.19
940.442	1171.18
940.749	1162.37
941.056	1171.41
941.363	1147.68
941.67	1160.11
941.977	1172.09
942.284	1124.63
942.591	1162.82
942.898	1132.99
943.205	1156.27
943.511	1132.09
943.818	1131.64
944.125	1136.61
944.431	1154.24
944.738	1119.66
945.044	1119.43
945.35	1111.07
945.657	1108.36
945.963	1104.29
946.269	1096.84
946.575	1077.4
946.881	1077.85
947.187	1112.2
947.493	1099.55
947.799	1083.95
948.105	1078.3
948.41	1057.51
948.716	1070.85
949.022	1074.69
949.327	1085.08
949.633	1050.96
949.938	1057.51
950.244	1057.51
950.549	1036.27
950.854	1034.24
951.16	1040.34
951.465	1045.09
951.77	1048.02
952.075	1054.12
952.38	1050.74
952.685	1035.59
952.99	1012.54
953.294	1027.01
953.599	1040.11
953.904	1024.97
954.209	1010.96
954.513	1005.31
954.818	995.14
955.122	989.72
955.426	991.53
955.731	997.86
956.035	1005.99
956.339	996.05
956.643	992.43
956.948	970.29
957.252	978.65
957.556	989.95
957.86	951.75
958.163	978.19
958.467	978.19
958.771	970.96
959.075	960.12
959.378	957.86
959.682	979.78
959.985	940.23
960.289	960.34
960.592	950.62
960.896	923.51
961.199	929.16
961.502	940
961.805	949.95
962.108	937.07
962.411	929.16
962.714	900.68
963.017	899.78
963.32	930.06
963.623	928.25
963.926	951.08
964.228	922.15
964.531	914.69
964.833	908.37
965.136	900.68
965.438	910.85
965.741	899.33
966.043	907.91
966.345	908.59
966.648	904.75
966.95	894.13
967.252	867.92
967.554	883.51
967.856	877.63
968.158	860.68
968.46	856.62
968.761	847.12
969.063	864.53
969.365	878.08
969.666	842.6
969.968	845.99
970.269	862.27
970.571	852.1
970.872	851.19
971.174	854.13
971.475	836.73
971.776	855.26
972.077	834.47
972.378	841.93
972.679	840.12
972.98	845.09
973.281	827.01
973.582	831.31
973.883	822.04
974.183	829.72
974.484	816.39
974.785	827.92
975.085	813.68
975.386	831.76
975.686	796.5
975.986	805.54
976.287	816.62
976.587	780.46
976.887	792.66
977.187	793.11
977.487	791.08
977.787	790.4
978.087	791.76
978.387	802.61
978.687	812.78
978.987	782.95
979.286	775.71
979.586	782.04
979.885	774.58
980.185	782.04
980.484	790.4
980.784	766
981.083	781.82
981.382	777.3
981.682	761.25
981.981	763.29
982.28	750.86
982.579	760.57
982.878	753.57
983.177	755.38
983.475	772.55
983.774	738.43
984.073	760.35
984.372	742.95
984.67	747.47
984.969	734.59
985.267	756.28
985.566	730.07
985.864	737.3
986.162	721.7
986.461	732.33
986.759	720.35
987.057	720.57
987.355	718.09
987.653	712.89
987.951	734.81
988.249	728.26
988.547	731.65
988.844	693.91
989.142	712.44
989.44	698.88
989.737	714.92
990.035	728.71
990.332	715.6
990.63	699.56
990.927	688.03
991.224	699.11
991.521	686
991.819	701.14
992.116	693.91
992.413	688.71
992.71	688.94
993.006	698.65
993.303	688.94
993.6	678.54
993.897	702.5
994.193	673.12
994.49	684.42
994.787	670.86
995.083	662.27
995.379	663.17
995.676	667.02
995.972	662.27
996.268	663.63
996.565	681.03
996.861	661.59
997.157	641.71
997.453	644.42
997.749	648.26
998.044	640.35
998.34	649.84
998.636	647.36
998.932	662.95
999.227	619.11
999.523	650.07
999.818	627.02
1000.114	647.58
1000.409	636.51
1000.704	634.93
1001	619.56
1001.295	621.82
1001.59	651.2
1001.885	622.72
1002.18	611.65
1002.475	624.53
1002.77	634.47
1003.065	634.93
1003.359	615.72
1003.654	608.49
1003.949	638.54
1004.243	603.97
1004.538	593.8
1004.832	593.35
1005.127	612.78
1005.421	603.74
1005.715	596.06
1006.009	594.7
1006.304	593.57
1006.598	598.77
1006.892	603.29
1007.186	608.49
1007.48	581.14
1007.773	596.74
1008.067	582.05
1008.361	588.37
1008.655	590.41
1008.948	606
1009.242	555.38
1009.535	586.34
1009.829	573.23
1010.122	584.53
1010.415	570.3
1010.708	579.79
1011.001	545.66
1011.295	558.54
1011.588	551.54
1011.881	536.4
1012.173	555.83
1012.466	560.35
1012.759	569.62
1013.052	560.8
1013.344	558.54
1013.637	551.77
1013.93	547.7
1014.222	541.6
1014.514	548.38
1014.807	538.21
1015.099	541.37
1015.391	540.47
1015.683	536.85
1015.976	549.96
1016.268	562.84
1016.56	525.33
1016.851	543.4
1017.143	535.72
1017.435	540.01
1017.727	520.58
1018.018	528.04
1018.31	509.05
1018.602	529.17
1018.893	521.26
1019.185	509.96
1019.476	513.35
1019.767	517.87
1020.058	529.84
1020.35	522.84
1020.641	514.93
1020.932	506.79
1021.223	515.61
1021.514	517.19
1021.804	491.43
1022.095	513.8
1022.386	508.38
1022.677	513.12
1022.967	508.15
1023.258	485.55
1023.548	500.24
1023.839	476.06
1024.129	491.43
1024.419	493.91
1024.709	476.06
1025	483.07
1025.29	502.95
1025.58	480.35
1025.87	493.91
1026.16	481.94
1026.449	482.61
1026.739	480.35
1027.029	489.17
1027.319	472.22
1027.608	484.42
1027.898	468.15
1028.187	452.33
1028.477	460.02
1028.766	479.68
1029.055	479.45
1029.344	462.05
1029.634	474.71
1029.923	465.21
1030.212	427.93
1030.501	461.82
1030.79	455.04
1031.078	462.73
1031.367	476.06
1031.656	488.94
1031.945	464.31
1032.233	451.43
1032.522	462.5
1032.81	431.99
1033.099	431.99
1033.387	436.51
1033.675	470.86
1033.963	456.4
1034.251	434.93
1034.54	430.19
1034.828	415.72
1035.116	456.17
1035.403	435.16
1035.691	437.19
1035.979	438.77
1036.267	440.36
1036.554	433.58
1036.842	441.26
1037.129	423.63
1037.417	438.32
1037.704	454.37
1037.992	426.12
1038.279	425.89
1038.566	428.15
1038.853	428.15
1039.14	428.15
