Data from carpet_green_FLMS001491_00051.txt Node
Date: Wed Feb 08 10:35:32 GMT 2017
User: dcchb
Spectrometer: FLMS00149
Trigger mode: 0
Integration Time (sec): 2.000000E-2
Scans to average: 10
Electric dark correction enabled: true
Nonlinearity correction enabled: false
Boxcar width: 0
XAxis mode: Wavelengths
Number of Pixels in Spectrum: 2048
>>>>>Begin Spectral Data<<<<<
341.393	-29.52
341.776	-29.52
342.16	-29.52
342.543	-41.72
342.927	-65.9
343.31	-71.55
343.693	-65.22
344.077	-55.96
344.46	-47.15
344.843	-32.91
345.226	-59.8
345.61	-48.73
345.993	-6.69
346.376	-3.98
346.759	14.77
347.142	22.91
347.525	27.2
347.908	63.59
348.291	72.63
348.674	80.99
349.057	109.91
349.44	123.92
349.823	120.99
350.206	154.2
350.588	184.03
350.971	186.97
351.354	210.02
351.737	212.06
352.119	216.35
352.502	248.44
352.884	252.51
353.267	271.26
353.65	265.39
354.032	251.83
354.414	283.69
354.797	279.85
355.179	282.11
355.562	292.05
355.944	311.71
356.326	307.2
356.709	304.48
357.091	301.32
357.473	323.24
357.855	303.81
358.238	314.65
358.62	318.04
359.002	321.21
359.384	319.85
359.766	310.13
360.148	325.27
360.53	310.36
360.912	294.09
361.294	299.29
361.676	282.56
362.057	303.35
362.439	311.04
362.821	288.44
363.203	320.75
363.584	296.8
363.966	281.66
364.348	300.19
364.729	287.53
365.111	278.95
365.493	291.83
365.874	286.63
366.256	282.56
366.637	287.08
367.019	286.63
367.4	287.99
367.781	302.9
368.163	272.62
368.544	268.78
368.925	273.75
369.306	284.82
369.688	285.27
370.069	283.92
370.45	306.97
370.831	285.95
371.212	276.01
371.593	284.37
371.974	259.06
372.355	264.26
372.736	280.3
373.117	270.81
373.498	301.77
373.879	267.2
374.26	280.53
374.641	287.76
375.021	285.73
375.402	276.01
375.783	279.17
376.163	277.37
376.544	279.63
376.925	289.34
377.305	270.81
377.686	297.7
378.066	298.83
378.447	286.18
378.827	294.09
379.208	292.96
379.588	296.12
379.968	293.64
380.349	286.18
380.729	299.51
381.109	284.15
381.489	299.06
381.87	286.86
382.25	305.84
382.63	293.86
383.01	285.95
383.39	294.09
383.77	289.12
384.15	300.42
384.53	273.98
384.91	294.09
385.29	297.93
385.67	291.6
386.049	305.84
386.429	279.63
386.809	285.05
387.189	266.52
387.568	292.28
387.948	279.63
388.328	310.81
388.707	296.35
389.087	301.09
389.466	299.06
389.846	300.19
390.225	283.24
390.605	318.49
390.984	318.27
391.363	278.27
391.743	296.8
392.122	306.97
392.501	288.66
392.881	303.35
393.26	295.44
393.639	300.64
394.018	301.77
394.397	285.05
394.776	312.39
395.155	296.57
395.534	286.4
395.913	316.23
396.292	289.12
396.671	318.95
397.05	322.56
397.429	339.96
397.808	308.1
398.186	311.94
398.565	307.87
398.944	299.06
399.323	312.62
399.701	298.61
400.08	306.74
400.458	297.25
400.837	304.94
401.215	320.98
401.594	298.83
401.972	307.42
402.351	317.36
402.729	297.25
403.107	324.82
403.486	302
403.864	327.53
404.242	315.56
404.62	318.27
404.999	327.08
405.377	331.6
405.755	289.34
406.133	315.33
406.511	323.24
406.889	310.81
407.267	309.46
407.645	315.1
408.023	317.82
408.401	332.51
408.779	327.53
409.156	320.3
409.534	314.2
409.912	337.25
410.29	318.27
410.667	309.46
411.045	334.54
411.422	317.36
411.8	318.95
412.178	315.78
412.555	307.42
412.933	309.46
413.31	318.04
413.687	329.12
414.065	326.63
414.442	314.43
414.819	318.27
415.197	313.75
415.574	325.73
415.951	313.52
416.328	325.95
416.705	323.01
417.082	330.47
417.46	346.29
417.837	345.84
418.214	349
418.591	315.1
418.967	334.54
419.344	335.67
419.721	332.05
420.098	328.89
420.475	350.36
420.852	323.01
421.228	334.77
421.605	321.66
421.982	316.69
422.358	345.16
422.735	337.48
423.111	337.93
423.488	335.44
423.864	326.18
424.241	350.36
424.617	327.99
424.994	340.64
425.37	325.95
425.746	325.73
426.123	329.12
426.499	323.92
426.875	346.97
427.251	359.17
427.627	341.32
428.003	342.67
428.379	333.64
428.756	360.3
429.132	353.75
429.507	327.08
429.883	356.69
430.259	359.17
430.635	342
431.011	358.27
431.387	351.49
431.763	340.41
432.138	351.94
432.514	358.49
432.89	340.87
433.265	351.49
433.641	340.64
434.016	340.19
434.392	333.64
434.767	341.77
435.143	365.95
435.518	367.98
435.894	350.36
436.269	347.19
436.644	369.79
437.02	372.73
437.395	374.31
437.77	347.65
438.145	369.11
438.52	367.31
438.895	363.69
439.271	374.76
439.646	368.66
440.021	350.81
440.395	375.89
440.77	362.11
441.145	366.4
441.52	362.34
441.895	357.59
442.27	382
442.645	395.1
443.019	349
443.394	363.69
443.769	384.93
444.143	370.47
444.518	349
444.892	381.77
445.267	369.79
445.641	353.3
446.016	356.91
446.39	384.93
446.764	370.7
447.139	380.64
447.513	386.06
447.887	373.63
448.262	392.39
448.636	390.58
449.01	391.03
449.384	373.41
449.758	386.29
450.132	382.22
450.506	375.22
450.88	389.68
451.254	388.55
451.628	401.88
452.002	394.2
452.376	384.26
452.75	396.91
453.123	378.61
453.497	393.29
453.871	390.58
454.244	397.14
454.618	410.92
454.992	419.96
455.365	382.45
455.739	388.78
456.112	387.87
456.486	412.05
456.859	390.81
457.232	404.14
457.606	413.86
457.979	423.58
458.352	415.44
458.725	409.34
459.099	424.03
459.472	404.82
459.845	429.68
460.218	452.28
460.591	403.69
460.964	429.68
461.337	435.33
461.71	440.98
462.083	413.41
462.456	414.31
462.829	434.2
463.201	411.15
463.574	438.49
463.947	419.73
464.32	427.87
464.692	447.98
465.065	419.96
465.438	430.13
465.81	438.27
466.183	455.21
466.555	435.55
466.928	448.66
467.3	445.95
467.672	445.72
468.045	468.1
468.417	436.23
468.789	451.6
469.161	463.58
469.534	471.94
469.906	480.07
470.278	459.06
470.65	464.25
471.022	458.6
471.394	462.22
471.766	477.81
472.138	475.78
472.51	479.85
472.882	484.82
473.253	476
473.625	483.46
473.997	486.85
474.369	502.44
474.74	495.21
475.112	502.9
475.484	494.08
475.855	528.43
476.227	507.87
476.598	501.31
476.97	513.74
477.341	534.53
477.713	513.74
478.084	522.78
478.455	522.78
478.827	549.9
479.198	533.4
479.569	536.79
479.94	546.29
480.311	560.3
480.682	566.62
481.053	569.11
481.424	569.56
481.795	572.5
482.166	582.67
482.537	571.37
482.908	592.39
483.279	600.29
483.65	595.78
484.021	590.8
484.391	619.96
484.762	610.92
485.133	622.44
485.503	622.22
485.874	622.44
486.244	629.45
486.615	640.29
486.985	650.69
487.356	641.88
487.726	665.6
488.097	669.67
488.467	673.51
488.837	673.74
489.207	671.71
489.578	679.39
489.948	687.75
490.318	701.76
490.688	693.17
491.058	701.31
491.428	708.54
491.798	707.18
492.168	709.67
492.538	716
492.908	687.98
493.278	737.01
493.648	744.7
494.017	730.91
494.387	728.65
494.757	729.33
495.126	730.01
495.496	754.42
495.866	768.2
496.235	749.67
496.605	743.79
496.974	784.02
497.344	772.04
497.713	768.2
498.082	770.46
498.452	789.67
498.821	791.93
499.19	798.03
499.559	766.39
499.928	802.55
500.298	783.34
500.667	793.74
501.036	800.97
501.405	795.09
501.774	806.84
502.143	828.31
502.512	803.23
502.88	803
503.249	813.4
503.618	794.87
503.987	817.46
504.356	842.1
504.724	819.5
505.093	828.31
505.462	828.54
505.83	829.22
506.199	845.94
506.567	836.45
506.936	870.12
507.304	843.68
507.672	841.19
508.041	857.46
508.409	852.04
508.777	860.63
509.145	877.35
509.514	849.1
509.882	859.95
510.25	867.41
510.618	862.66
510.986	877.8
511.354	857.24
511.722	886.39
512.09	877.58
512.458	881.42
512.826	882.77
513.193	904.69
513.561	890.68
513.929	888.2
514.297	911.93
514.664	900.4
515.032	891.36
515.4	894.75
515.767	914.86
516.135	905.15
516.502	906.73
516.869	911.02
517.237	911.02
517.604	906.73
517.972	901.76
518.339	923.22
518.706	922.77
519.073	922.09
519.44	913.06
519.808	930.23
520.175	927.52
520.542	945.6
520.909	916.9
521.276	944.92
521.643	916.67
522.009	973.84
522.376	960.74
522.743	950.57
523.11	946.27
523.477	968.87
523.843	978.36
524.21	944.24
524.577	969.1
524.943	971.81
525.31	979.72
525.676	986.95
526.043	1026.5
526.409	994.18
526.776	1011.58
527.142	996.89
527.508	983.11
527.874	988.08
528.241	1005.93
528.607	973.39
528.973	984.01
529.339	997.12
529.705	993.28
530.071	1012.26
530.437	1000.96
530.803	1029.89
531.169	1032.6
531.535	1030.79
531.901	1023.33
532.267	1002.09
532.632	1008.87
532.998	1012.04
533.364	1004.8
533.73	1019.27
534.095	1003.22
534.461	1024.92
534.826	1040.06
535.192	1028.31
535.557	1022.43
535.923	1041.19
536.288	1001.87
536.653	1035.99
537.019	1023.11
537.384	1045.03
537.749	1059.27
538.114	1010.68
538.479	1034.18
538.845	1019.04
539.21	1038.02
539.575	1041.64
539.94	1052.71
540.305	1046.84
540.67	1033.28
541.034	1049.32
541.399	1032.6
541.764	1033.96
542.129	1049.1
542.494	1045.03
542.858	1062.43
543.223	1063.56
543.587	1021.53
543.952	1038.7
544.316	1045.03
544.681	1051.58
545.045	1064.24
545.41	1062.2
545.774	1054.97
546.138	1077.57
546.503	1057.01
546.867	1081.86
547.231	1026.05
547.595	1059.04
547.959	1046.84
548.324	1061.75
548.688	1028.76
549.052	1043.67
549.416	1063.56
549.779	1055.88
550.143	1057.23
550.507	1061.3
550.871	1045.26
551.235	1032.15
551.599	1044.8
551.962	1050.45
552.326	1042.09
552.689	1073.05
553.053	1080.28
553.417	1096.33
553.78	1077.12
554.143	1087.51
554.507	1064.01
554.87	1060.4
555.234	1069.66
555.597	1078.93
555.96	1073.05
556.323	1085.93
556.686	1077.34
557.05	1085.48
557.413	1081.86
557.776	1085.48
558.139	1083.67
558.502	1112.15
558.865	1101.07
559.228	1107.85
559.59	1097.46
559.953	1089.32
560.316	1128.87
560.679	1115.99
561.041	1092.71
561.404	1123.45
561.767	1132.94
562.129	1122.99
562.492	1118.25
562.854	1126.16
563.217	1125.48
563.579	1140.62
563.941	1134.74
564.304	1103.56
564.666	1114.63
565.028	1129.09
565.39	1145.59
565.753	1114.41
566.115	1116.67
566.477	1140.62
566.839	1108.76
567.201	1122.32
567.563	1125.03
567.925	1157.79
568.287	1151.24
568.648	1114.86
569.01	1127.74
569.372	1147.4
569.734	1146.72
570.095	1164.57
570.457	1158.02
570.819	1154.63
571.18	1159.38
571.542	1151.69
571.903	1161.41
572.265	1190.56
572.626	1143.56
572.987	1156.66
573.349	1172.26
573.71	1170.68
574.071	1165.7
574.432	1177.23
574.794	1184.23
575.155	1197.79
575.516	1175.65
575.877	1169.77
576.238	1173.16
576.599	1175.65
576.96	1150.79
577.32	1173.84
577.681	1159.83
578.042	1182.88
578.403	1162.09
578.763	1160.28
579.124	1166.16
579.485	1167.29
579.845	1154.18
580.206	1167.74
580.566	1165.03
580.927	1153.5
581.287	1177.45
581.648	1165.93
582.008	1193.05
582.368	1158.7
582.728	1160.96
583.089	1155.53
583.449	1180.17
583.809	1162.77
584.169	1165.7
584.529	1144.69
584.889	1164.12
585.249	1183.78
585.609	1168.19
585.969	1128.87
586.329	1150.56
586.688	1161.41
587.048	1174.07
587.408	1148.53
587.768	1170.22
588.127	1171.13
588.487	1155.08
588.846	1149.43
589.206	1173.84
589.565	1143.78
589.925	1157.57
590.284	1153.95
590.643	1145.14
591.003	1142.88
591.362	1166.16
591.721	1126.61
592.08	1135.87
592.44	1157.57
592.799	1157.34
593.158	1140.17
593.517	1137.46
593.876	1144.24
594.235	1140.39
594.593	1130.22
594.952	1146.04
595.311	1110.11
595.67	1130.45
596.029	1151.69
596.387	1151.69
596.746	1148.3
597.104	1122.99
597.463	1148.76
597.822	1123.9
598.18	1135.65
598.538	1145.59
598.897	1161.18
599.255	1137.46
599.613	1142.88
599.972	1176.55
600.33	1162.77
600.688	1150.56
601.046	1146.72
601.404	1151.24
601.762	1167.74
602.12	1132.71
602.478	1148.3
602.836	1135.2
603.194	1138.36
603.552	1167.96
603.91	1152.14
604.268	1165.03
604.625	1152.14
604.983	1160.28
605.341	1190.11
605.698	1193.05
606.056	1144.24
606.413	1149.21
606.771	1160.73
607.128	1165.93
607.485	1173.16
607.843	1153.27
608.2	1168.19
608.557	1165.48
608.914	1153.27
609.272	1179.71
609.629	1180.84
609.986	1165.03
610.343	1175.2
610.7	1163.22
611.057	1200.51
611.414	1179.26
611.771	1178.36
612.127	1172.71
612.484	1179.49
612.841	1187.17
613.198	1191.92
613.554	1187.85
613.911	1198.25
614.267	1186.04
614.624	1213.61
614.98	1203.44
615.337	1179.94
615.693	1200.05
616.05	1195.31
616.406	1175.87
616.762	1175.42
617.118	1177.91
617.475	1180.84
617.831	1192.14
618.187	1207.51
618.543	1169.09
618.899	1180.17
619.255	1180.39
619.611	1195.08
619.967	1218.58
620.323	1194.18
620.678	1188.75
621.034	1176.55
621.39	1182.43
621.746	1184.23
622.101	1205.7
622.457	1192.6
622.812	1212.26
623.168	1165.7
623.523	1196.21
623.879	1204.35
624.234	1194.4
624.589	1195.53
624.945	1203.22
625.3	1169.55
625.655	1210.22
626.01	1187.85
626.365	1215.19
626.72	1195.99
627.075	1193.95
627.43	1200.05
627.785	1173.61
628.14	1200.96
628.495	1197.12
628.85	1182.65
629.205	1182.65
629.559	1227.4
629.914	1191.01
630.269	1179.26
630.623	1183.56
630.978	1165.25
631.332	1174.07
631.687	1172.48
632.041	1173.84
632.396	1197.79
632.75	1186.95
633.104	1192.6
633.459	1174.29
633.813	1142.88
634.167	1178.58
634.521	1204.12
634.875	1193.73
635.229	1157.12
635.583	1173.84
635.937	1188.75
636.291	1205.02
636.645	1188.53
636.999	1199.15
637.352	1202.99
637.706	1144.91
638.06	1175.2
638.413	1181.3
638.767	1193.95
639.121	1169.77
639.474	1167.96
639.828	1177.23
640.181	1193.73
640.534	1183.1
640.888	1191.01
641.241	1147.85
641.594	1195.99
641.947	1193.5
642.301	1172.26
642.654	1171.58
643.007	1162.09
643.36	1185.82
643.713	1186.27
644.066	1193.5
644.419	1170.68
644.771	1193.95
645.124	1155.31
645.477	1170.22
645.83	1175.87
646.182	1204.8
646.535	1181.52
646.888	1187.17
647.24	1165.25
647.593	1176.78
647.945	1164.57
648.298	1156.66
648.65	1153.05
649.002	1157.12
649.355	1144.46
649.707	1162.99
650.059	1173.61
650.411	1167.29
650.763	1207.28
651.115	1198.02
651.467	1202.76
651.819	1202.31
652.171	1205.02
652.523	1226.04
652.875	1199.6
653.227	1184.01
653.578	1207.51
653.93	1227.17
654.282	1223.33
654.633	1226.95
654.985	1200.05
655.337	1227.62
655.688	1251.35
656.039	1228.3
656.391	1205.02
656.742	1218.58
657.094	1231.46
657.445	1240.5
657.796	1259.71
658.147	1229.88
658.498	1247.74
658.849	1268.07
659.2	1267.85
659.551	1254.97
659.902	1285.47
660.253	1289.99
660.604	1259.94
660.955	1269.66
661.306	1291.58
661.656	1315.53
662.007	1295.64
662.358	1321.86
662.708	1298.81
663.059	1275.53
663.409	1283.89
663.76	1332.03
664.11	1309.65
664.461	1345.59
664.811	1357.56
665.161	1336.09
665.511	1339.48
665.862	1351.46
666.212	1390.1
666.562	1390.33
666.912	1374.29
667.262	1399.14
667.612	1398.47
667.962	1413.61
668.312	1421.74
668.662	1413.15
669.011	1425.13
669.361	1442.53
669.711	1434.17
670.06	1451.57
670.41	1466.94
670.76	1471.68
671.109	1508.07
671.459	1472.14
671.808	1490.67
672.157	1486.6
672.507	1521.4
672.856	1510.1
673.205	1511.91
673.554	1541.74
673.904	1539.03
674.253	1572.02
674.602	1582.42
674.951	1579.48
675.3	1562.76
675.649	1606.14
675.998	1647.73
676.346	1586.48
676.695	1628.06
677.044	1622.87
677.393	1655.18
677.741	1674.62
678.09	1695.63
678.438	1670.32
678.787	1708.74
679.135	1714.39
679.484	1733.6
679.832	1774.5
680.181	1738.57
680.529	1772.47
680.877	1765.69
681.225	1803.65
681.573	1789.64
681.922	1823.99
682.27	1847.95
682.618	1841.39
682.966	1887.49
683.314	1871.22
683.661	1873.71
684.009	1907.38
684.357	1910.99
684.705	1937.43
685.053	1942.41
685.4	1954.61
685.748	1953.25
686.095	1986.02
686.443	2006.81
686.79	2009.98
687.138	2045.45
687.485	2041.61
687.832	2048.39
688.18	2063.08
688.527	2100.82
688.874	2118.22
689.221	2112.35
689.568	2125.45
689.915	2111.44
690.262	2120.25
690.609	2201.16
690.956	2184.43
691.303	2217.43
691.65	2228.95
691.997	2228.95
692.344	2167.49
692.69	2242.74
693.037	2285.22
693.383	2251.55
693.73	2307.82
694.077	2319.57
694.423	2292.45
694.769	2330.87
695.116	2356.41
695.462	2391.66
695.808	2345.56
696.155	2413.35
696.501	2418.1
696.847	2439.57
697.193	2451.09
697.539	2449.06
697.885	2452.9
698.231	2499
698.577	2487.7
698.923	2510.08
699.269	2503.52
699.614	2509.85
699.96	2514.82
700.306	2560.02
700.651	2589.4
700.997	2610.86
701.342	2589.62
701.688	2644.31
702.033	2626.46
702.379	2670.52
702.724	2653.57
703.069	2695.61
703.415	2713.69
703.76	2752.33
704.105	2738.09
704.45	2749.62
704.795	2770.63
705.14	2767.92
705.485	2758.43
705.83	2788.49
706.175	2799.11
706.52	2833.46
706.865	2847.69
707.209	2870.29
707.554	2879.11
707.899	2888.37
708.243	2878.88
708.588	2894.92
708.932	2870.52
709.277	2938.31
709.621	2934.24
709.966	2958.43
710.31	2929.27
710.654	2963.85
710.998	3001.14
711.342	2978.54
711.687	3007.24
712.031	3042.72
712.375	3026.9
712.719	3035.71
713.063	3042.26
713.407	3074.81
713.75	3068.25
714.094	3084.98
714.438	3123.84
714.782	3115.03
715.125	3090.4
715.469	3108.03
715.812	3110.29
716.156	3163.62
716.499	3176.95
716.843	3185.99
717.186	3155.93
717.53	3185.99
717.873	3223.28
718.216	3222.15
718.559	3219.44
718.902	3224.63
719.246	3272.54
719.589	3265.76
719.932	3258.98
720.275	3270.28
720.617	3285.65
720.96	3273.45
721.303	3283.39
721.646	3337.4
721.989	3316.16
722.331	3318.42
722.674	3315.03
723.016	3323.61
723.359	3339.21
723.701	3377.4
724.044	3360.45
724.386	3326.55
724.729	3352.54
725.071	3371.07
725.413	3337.4
725.755	3336.49
726.097	3388.7
726.439	3361.58
726.782	3382.14
727.124	3416.04
727.465	3414.91
727.807	3383.27
728.149	3392.76
728.491	3428.92
728.833	3439.77
729.175	3396.61
729.516	3402.48
729.858	3379.43
730.199	3445.42
730.541	3436.38
730.882	3437.51
731.224	3423.95
731.565	3427.34
731.906	3399.09
732.248	3428.47
732.589	3427.34
732.93	3453.78
733.271	3412.88
733.612	3438.41
733.953	3453.55
734.294	3463.27
734.635	3428.7
734.976	3462.82
735.317	3448.13
735.658	3436.38
735.999	3483.61
736.339	3476.38
736.68	3459.88
737.021	3467.56
737.361	3430.05
737.702	3486.32
738.042	3455.14
738.383	3469.37
738.723	3449.94
739.063	3483.61
739.404	3485.87
739.744	3492.65
740.084	3442.03
740.424	3458.3
740.764	3471.63
741.104	3466.21
741.444	3447.68
741.784	3433.21
742.124	3461.24
742.464	3442.25
742.804	3453.1
743.143	3436.15
743.483	3474.57
743.823	3447.68
744.162	3429.37
744.502	3430.05
744.841	3428.7
745.181	3495.13
745.52	3444.97
745.86	3432.99
746.199	3437.73
746.538	3408.13
746.877	3416.94
747.216	3403.39
747.556	3442.03
747.895	3423.95
748.234	3421.92
748.573	3383.05
748.911	3435.93
749.25	3400
749.589	3413.55
749.928	3388.7
750.267	3413.1
750.605	3441.35
750.944	3395.25
751.283	3400.9
751.621	3410.39
751.96	3371.3
752.298	3352.09
752.636	3380.33
752.975	3353.44
753.313	3364.52
753.651	3345.31
753.989	3345.99
754.327	3363.61
754.666	3331.3
755.004	3357.96
755.342	3329.71
755.679	3363.39
756.017	3355.48
756.355	3300.79
756.693	3328.36
757.031	3321.58
757.368	3285.87
757.706	3311.41
758.044	3263.28
758.381	3310.28
758.719	3268.02
759.056	3292.2
759.394	3254.46
759.731	3210.62
760.068	3261.92
760.405	3259.66
760.743	3250.17
761.08	3227.12
761.417	3259.66
761.754	3210.17
762.091	3217.85
762.428	3171.07
762.765	3202.03
763.102	3227.8
763.438	3134.92
763.775	3154.13
764.112	3158.87
764.449	3175.37
764.785	3135.14
765.122	3118.65
765.458	3129.27
765.795	3103.05
766.131	3126.1
766.467	3148.7
766.804	3093.34
767.14	3106.22
767.476	3100.34
767.812	3061.7
768.148	3063.51
768.485	3043.39
768.821	3022.6
769.157	3024.19
769.492	3030.97
769.828	3027.12
770.164	2992.32
770.5	2983.74
770.836	2993.23
771.171	2991.42
771.507	3038.65
771.842	2961.81
772.178	2950.29
772.513	2950.74
772.849	2962.49
773.184	2929.95
773.519	2920.69
773.855	2942.15
774.19	2917.52
774.525	2941.25
774.86	2927.24
775.195	2878.88
775.53	2882.27
775.865	2878.43
776.2	2833
776.535	2846.34
776.87	2846.56
777.205	2858.09
777.539	2831.2
777.874	2823.51
778.209	2784.87
778.543	2775.38
778.878	2784.19
779.212	2776.06
779.547	2779.45
779.881	2759.33
780.215	2751.65
780.55	2736.96
780.884	2749.39
781.218	2719.34
781.552	2735.38
781.886	2715.04
782.22	2712.56
782.554	2722.73
782.888	2695.16
783.222	2683.63
783.556	2633.69
783.889	2652.22
784.223	2648.15
784.557	2635.5
784.89	2641.82
785.224	2619.45
785.557	2610.41
785.891	2588.49
786.224	2579.23
786.558	2578.55
786.891	2600.47
787.224	2567.93
787.557	2586.91
787.891	2577.87
788.224	2535.84
788.557	2554.14
788.89	2527.93
789.223	2545.33
789.556	2517.31
789.888	2543.52
790.221	2526.8
790.554	2484.31
790.887	2502.84
791.219	2487.03
791.552	2517.98
791.884	2485.22
792.217	2466.69
792.549	2469.62
792.882	2448.83
793.214	2439.12
793.546	2467.14
793.879	2420.36
794.211	2464.2
794.543	2449.06
794.875	2395.05
795.207	2429.17
795.539	2410.19
795.871	2382.39
796.203	2380.59
796.535	2388.95
796.867	2389.63
797.198	2364.77
797.53	2383.98
797.862	2358.67
798.193	2383.07
798.525	2294.49
798.856	2311.44
799.188	2318.44
799.519	2355.5
799.85	2327.48
800.182	2337.2
800.513	2296.75
800.844	2292
801.175	2309.4
801.506	2280.25
801.837	2270.53
802.168	2289.52
802.499	2293.36
802.83	2250.65
803.161	2281.38
803.491	2279.35
803.822	2289.06
804.153	2248.84
804.483	2224.89
804.814	2219.01
805.145	2216.98
805.475	2255.84
805.805	2216.75
806.136	2213.36
806.466	2234.83
806.796	2194.6
807.126	2232.79
807.457	2180.37
807.787	2211.33
808.117	2185.79
808.447	2174.49
808.777	2182.17
809.107	2151.89
809.436	2136.75
809.766	2158.45
810.096	2151.67
810.426	2156.64
810.755	2153.93
811.085	2142.63
811.414	2119.58
811.744	2141.95
812.073	2154.38
812.403	2099.46
812.732	2143.31
813.061	2105.57
813.39	2081.61
813.719	2107.15
814.049	2107.83
814.378	2057.66
814.707	2076.87
815.036	2099.24
815.365	2111.89
815.693	2084.78
816.022	2088.62
816.351	2061.73
816.68	2061.95
817.008	2041.61
817.337	2039.35
817.665	2038.68
817.994	2048.17
818.322	2043.65
818.651	2031.9
818.979	2020.37
819.307	2012.01
819.636	2023.08
819.964	2012.91
820.292	2005.23
820.62	2025.79
820.948	1998.45
821.276	2009.75
821.604	2010.2
821.932	2026.92
822.259	1982.18
822.587	1995.74
822.915	1999.58
823.243	1994.61
823.57	1996.64
823.898	2014.5
824.225	2002.07
824.553	2006.81
824.88	2003.2
825.207	2029.86
825.535	1967.49
825.862	2006.59
826.189	2038
826.516	2019.24
826.843	2001.84
827.17	1990.54
827.497	2027.38
827.824	2012.46
828.151	2003.87
828.478	1989.86
828.805	2012.69
829.131	1974.5
829.458	2015.62
829.785	1983.99
830.111	1988.73
830.438	2008.17
830.764	1996.19
831.09	1986.7
831.417	1965.68
831.743	2019.92
832.069	1977.21
832.395	1979.69
832.722	2008.39
833.048	1983.76
833.374	1969.07
833.7	1990.09
834.026	1997.77
834.351	1974.04
834.677	1977.21
835.003	2021.27
835.329	1979.24
835.654	1945.12
835.98	1976.98
836.306	1996.19
836.631	1949.64
836.956	1976.53
837.282	1962.52
837.607	1943.54
837.932	1951.9
838.258	1951.22
838.583	1960.49
838.908	1952.58
839.233	1936.53
839.558	1921.16
839.883	1939.02
840.208	1918.23
840.533	1950.77
840.858	1938.56
841.182	1921.62
841.507	1923.88
841.832	1908.74
842.156	1930.2
842.481	1940.37
842.805	1947.38
843.13	1934.27
843.454	1916.42
843.778	1885.01
844.103	1911.67
844.427	1896.08
844.751	1925.01
845.075	1893.82
845.399	1915.29
845.723	1882.07
846.047	1835.97
846.371	1858.11
846.695	1858.34
847.019	1844.78
847.343	1828.29
847.666	1842.75
847.99	1820.38
848.313	1783.09
848.637	1822.86
848.96	1838.91
849.284	1822.18
849.607	1808.4
849.931	1811.11
850.254	1793.26
850.577	1772.02
850.9	1779.25
851.223	1788.29
851.546	1759.36
851.869	1756.87
852.192	1751.45
852.515	1766.37
852.838	1723.2
853.161	1738.57
853.483	1726.59
853.806	1742.41
854.129	1734.73
854.451	1738.57
854.774	1696.76
855.096	1697.44
855.419	1691.11
855.741	1697.44
856.063	1675.29
856.385	1712.58
856.708	1736.31
857.03	1738.34
857.352	1690.66
857.674	1692.7
857.996	1683.2
858.318	1675.29
858.64	1709.64
858.961	1661.51
859.283	1652.92
859.605	1639.36
859.926	1676.88
860.248	1658.35
860.57	1670.78
860.891	1661.51
861.212	1654.28
861.534	1642.98
861.855	1636.88
862.176	1635.3
862.498	1596.65
862.819	1623.09
863.14	1634.17
863.461	1648.4
863.782	1643.66
864.103	1629.42
864.424	1627.16
864.745	1623.09
865.065	1614.28
865.386	1603.43
865.707	1612.7
866.027	1629.19
866.348	1629.87
866.668	1602.3
866.989	1599.82
867.309	1608.4
867.63	1597.78
867.95	1618.35
868.27	1571.79
868.59	1609.53
868.91	1580.61
869.23	1600.27
869.55	1575.64
869.87	1602.75
870.19	1603.21
870.51	1572.92
870.83	1579.25
871.15	1572.02
871.469	1565.02
871.789	1591
872.109	1596.43
872.428	1583.77
872.748	1601.62
873.067	1564.56
873.386	1539.93
873.706	1551
874.025	1582.19
874.344	1550.78
874.663	1568.63
874.982	1550.1
875.301	1565.02
875.62	1542.87
875.939	1539.48
876.258	1557.33
876.577	1586.71
876.896	1526.6
877.214	1550.78
877.533	1557.33
877.852	1547.84
878.17	1513.49
878.489	1515.07
878.807	1520.27
879.125	1536.99
879.444	1520.95
879.762	1523.21
880.08	1527.73
880.398	1499.93
880.716	1484.11
881.034	1528.41
881.352	1498.12
881.67	1512.14
881.988	1504.9
882.306	1499.25
882.624	1504
882.941	1483.44
883.259	1482.31
883.577	1479.14
883.894	1517.33
884.212	1468.97
884.529	1450.22
884.846	1497.22
885.164	1487.96
885.481	1445.92
885.798	1494.51
886.115	1471.91
886.432	1494.06
886.75	1458.13
887.067	1481.63
887.383	1483.44
887.7	1474.4
888.017	1474.85
888.334	1475.98
888.651	1446.15
888.967	1461.97
889.284	1445.02
889.6	1415.87
889.917	1442.76
890.233	1439.14
890.55	1417.22
890.866	1425.36
891.182	1457.67
891.498	1431.23
891.815	1421.06
892.131	1430.78
892.447	1405.25
892.763	1420.84
893.079	1407.05
893.395	1408.41
893.71	1385.81
894.026	1382.65
894.342	1393.04
894.657	1383.78
894.973	1379.26
895.289	1381.29
895.604	1353.27
895.92	1373.61
896.235	1377.68
896.55	1377.9
896.865	1367.28
897.181	1357.11
897.496	1334.96
897.811	1316.66
898.126	1355.76
898.441	1356.66
898.756	1324.8
899.071	1320.73
899.386	1346.49
899.7	1343.78
900.015	1298.13
900.33	1309.65
900.644	1322.08
900.959	1351.24
901.273	1320.5
901.588	1327.06
901.902	1295.87
902.216	1283.44
902.531	1285.93
902.845	1317.56
903.159	1278.02
903.473	1299.94
903.787	1288.86
904.101	1261.97
904.415	1278.47
904.729	1266.72
905.042	1246.83
905.356	1269.88
905.67	1277.11
905.984	1241.63
906.297	1248.41
906.611	1259.03
906.924	1230.56
907.237	1252.48
907.551	1231.01
907.864	1238.02
908.177	1253.16
908.491	1231.01
908.804	1232.14
909.117	1195.76
909.43	1229.66
909.743	1225.59
910.056	1202.99
910.368	1236.89
910.681	1200.96
910.994	1202.31
911.307	1185.14
911.619	1186.27
911.932	1167.96
912.244	1213.84
912.557	1180.39
912.869	1181.97
913.181	1194.18
913.494	1174.97
913.806	1159.38
914.118	1156.44
914.43	1146.95
914.742	1178.81
915.054	1140.85
915.366	1165.93
915.678	1164.57
915.99	1154.63
916.302	1119.83
916.613	1137.23
916.925	1157.79
917.236	1119.83
917.548	1126.38
917.859	1128.64
918.171	1141.3
918.482	1095.2
918.794	1110.34
919.105	1092.94
919.416	1114.41
919.727	1118.47
920.038	1107.4
920.349	1099.49
920.66	1099.04
920.971	1070.34
921.282	1109.89
921.593	1079.15
921.903	1054.97
922.214	1076.44
922.525	1101.98
922.835	1068.98
923.146	1057.91
923.456	1040.51
923.767	1032.15
924.077	1037.12
924.387	1056.1
924.697	1061.3
925.008	1031.92
925.318	1048.87
925.628	1041.87
925.938	1046.61
926.248	1012.04
926.558	1028.08
926.867	1040.74
927.177	1013.62
927.487	1024.92
927.796	1015.88
928.106	1039.38
928.416	993.28
928.725	1014.97
929.034	1012.71
929.344	1010.23
929.653	983.79
929.962	1010.91
930.271	996.44
930.581	1003.9
930.89	974.75
931.199	982.21
931.508	984.92
931.817	981.3
932.125	969.32
932.434	965.26
932.743	991.7
933.051	971.36
933.36	957.8
933.669	969.78
933.977	976.78
934.286	954.41
934.594	955.31
934.902	947.18
935.21	967.06
935.519	958.03
935.827	937.69
936.135	940.17
936.443	934.98
936.751	945.82
937.059	938.37
937.367	927.52
937.674	941.3
937.982	919.38
938.29	926.84
938.597	934.75
938.905	899.95
939.213	915.31
939.52	927.29
939.827	917.12
940.135	908.08
940.442	871.02
940.749	900.63
941.056	902.21
941.363	875.77
941.67	899.5
941.977	889.33
942.284	915.54
942.591	892.49
942.898	866.05
943.205	863.56
943.511	898.37
943.818	874.86
944.125	855.2
944.431	884.81
944.738	863.11
945.044	867.86
945.35	869.67
945.657	863.11
945.963	840.29
946.269	825.37
946.575	847.29
946.881	851.81
947.187	847.07
947.493	839.38
947.799	835.54
948.105	860.18
948.41	836.22
948.716	844.81
949.022	845.03
949.327	819.05
949.633	805.04
949.938	824.7
950.244	813.4
950.549	814.53
950.854	831.7
951.16	815.2
951.465	836.45
951.77	810.23
952.075	807.75
952.38	799.84
952.685	799.84
952.99	806.17
953.294	790.35
953.599	821.76
953.904	779.05
954.209	797.35
954.513	809.33
954.818	782.66
955.122	788.09
955.426	773.85
955.731	769.78
956.035	770.46
956.339	790.35
956.643	783.12
956.948	791.02
957.252	785.37
957.556	783.34
957.86	765.49
958.163	768.88
958.467	760.29
958.771	756.22
959.075	774.08
959.378	760.52
959.682	772.04
959.985	747.41
960.289	757.58
960.592	748.31
960.896	739.05
961.199	753.06
961.502	741.53
961.805	741.31
962.108	769.33
962.411	754.87
962.714	724.36
963.017	736.34
963.32	726.39
963.623	737.24
963.926	720.74
964.228	705.6
964.531	736.34
964.833	711.93
965.136	723.91
965.438	711.93
965.741	738.14
966.043	717.81
966.345	711.25
966.648	706.28
966.95	702.89
967.252	721.42
967.554	711.03
967.856	716.68
968.158	686.39
968.46	711.7
968.761	696.79
969.063	704.25
969.365	697.47
969.666	703.12
969.968	704.92
970.269	688.43
970.571	706.96
970.872	689.11
971.174	680.97
971.475	696.56
971.776	686.17
972.077	666.96
972.378	684.59
972.679	675.77
972.98	671.71
973.281	670.8
973.582	680.52
973.883	642.78
974.183	673.51
974.484	665.83
974.785	669.45
975.085	658.6
975.386	651.14
975.686	671.71
975.986	640.52
976.287	653.4
976.587	654.53
976.887	644.81
977.187	632.38
977.487	666.06
977.787	636.9
978.087	637.58
978.387	655.43
978.687	653.4
978.987	645.94
979.286	629.9
979.586	638.26
979.885	636.45
980.185	639.62
980.484	655.66
980.784	622.22
981.083	624.25
981.382	629.45
981.682	652.05
981.981	613.85
982.28	608.2
982.579	614.98
982.878	605.49
983.177	607.75
983.475	618.37
983.774	609.33
984.073	620.63
984.372	593.06
984.67	600.75
984.969	611.59
985.267	621.09
985.566	614.31
985.864	583.12
986.162	627.41
986.461	574.31
986.759	593.06
987.057	598.94
987.355	584.02
987.653	596.91
987.951	591.48
988.249	603.68
988.547	589.22
988.844	587.41
989.142	604.14
989.44	610.24
989.737	586.96
990.035	568.66
990.332	586.28
990.63	590.35
990.927	569.79
991.224	562.56
991.521	572.95
991.819	566.62
992.116	549.9
992.413	576.57
992.71	577.02
993.006	589
993.303	583.35
993.6	563.91
993.897	564.14
994.193	531.14
994.49	556.45
994.787	565.49
995.083	553.06
995.379	569.79
995.676	549.45
995.972	543.8
996.268	548.54
996.565	547.41
996.861	548.09
997.157	544.25
997.453	540.18
997.749	575.89
998.044	545.61
998.34	545.83
998.636	566.62
998.932	555.32
999.227	543.57
999.523	540.64
999.818	546.74
1000.114	554.87
1000.409	531.37
1000.704	523.91
1001	537.92
1001.295	534.08
1001.59	527.53
1001.885	535.21
1002.18	522.56
1002.475	516.68
1002.77	524.14
1003.065	526.62
1003.359	531.6
1003.654	506.74
1003.949	505.61
1004.243	513.52
1004.538	500.64
1004.832	536.12
1005.127	500.41
1005.421	509.9
1005.715	502.9
1006.009	507.19
1006.304	522.78
1006.598	496.12
1006.892	501.31
1007.186	507.19
1007.48	503.57
1007.773	515.55
1008.067	500.64
1008.361	513.29
1008.655	475.55
1008.948	509.22
1009.242	489.11
1009.535	507.87
1009.829	497.92
1010.122	503.12
1010.415	489.56
1010.708	480.75
1011.001	495.89
1011.295	498.15
1011.588	479.39
1011.881	473.74
1012.173	474.2
1012.466	489.79
1012.759	464.25
1013.052	478.49
1013.344	478.04
1013.637	479.17
1013.93	480.98
1014.222	472.39
1014.514	474.65
1014.807	483.24
1015.099	474.65
1015.391	512.39
1015.683	469.68
1015.976	490.02
1016.268	472.61
1016.56	483.46
1016.851	469.68
1017.143	482.11
1017.435	479.39
1017.727	464.03
1018.018	459.51
1018.31	461.32
1018.602	455.89
1018.893	466.29
1019.185	482.11
1019.476	446.17
1019.767	464.03
1020.058	469
1020.35	460.64
1020.641	451.6
1020.932	455.89
1021.223	453.63
1021.514	460.86
1021.804	425.84
1022.095	448.66
1022.386	442.33
1022.677	444.59
1022.967	439.85
1023.258	431.03
1023.548	452.73
1023.839	439.17
1024.129	438.94
1024.419	411.6
1024.709	436.46
1025	431.03
1025.29	418.83
1025.58	435.55
1025.87	419.96
1026.16	426.51
1026.449	417.47
1026.739	429.23
1027.029	444.37
1027.319	425.16
1027.608	438.94
1027.898	439.4
1028.187	420.41
1028.477	414.31
1028.766	419.28
1029.055	424.93
1029.344	436.23
1029.634	408.89
1029.923	439.62
1030.212	411.83
1030.501	432.16
1030.79	428.32
1031.078	418.83
1031.367	421.32
1031.656	396.68
1031.945	393.52
1032.233	411.83
1032.522	398.94
1032.81	417.47
1033.099	404.59
1033.387	394.2
1033.675	404.37
1033.963	391.03
1034.251	379.06
1034.54	400.07
1034.828	424.48
1035.116	405.95
1035.403	413.86
1035.691	398.72
1035.979	389.45
1036.267	407.31
1036.554	392.62
1036.842	390.13
1037.129	376.35
1037.417	393.75
1037.704	384.03
1037.992	384.48
1038.279	399.4
1038.566	398.94
1038.853	398.94
1039.14	398.94
