Data from carpet_green_FLMS001491_00050.txt Node
Date: Wed Feb 08 10:35:26 GMT 2017
User: dcchb
Spectrometer: FLMS00149
Trigger mode: 0
Integration Time (sec): 2.000000E-2
Scans to average: 10
Electric dark correction enabled: true
Nonlinearity correction enabled: false
Boxcar width: 0
XAxis mode: Wavelengths
Number of Pixels in Spectrum: 2048
>>>>>Begin Spectral Data<<<<<
341.393	-1.07
341.776	-1.07
342.16	-1.07
342.543	-57.12
342.927	-69.09
343.31	-72.71
343.693	-62.99
344.077	-78.81
344.46	-64.12
344.843	-40.85
345.226	-36.78
345.61	-44.01
345.993	-18.25
346.376	-23.9
346.759	7.29
347.142	24.69
347.525	55.42
347.908	90.68
348.291	70.79
348.674	76.89
349.057	116.66
349.44	101.3
349.823	129.09
350.206	157.34
350.588	165.48
350.971	179.94
351.354	194.63
351.737	183.55
352.119	226.94
352.502	247.96
352.884	241.86
353.267	243.21
353.65	246.83
354.032	270.56
354.414	288.86
354.797	284.57
355.179	276.89
355.562	292.48
355.944	285.92
356.326	305.81
356.709	280.73
357.091	298.13
357.473	297.68
357.855	292.7
358.238	303.1
358.62	307.85
359.002	313.72
359.384	297.22
359.766	304.91
360.148	311.46
360.53	324.57
360.912	297.45
361.294	307.85
361.676	297.9
362.057	294.06
362.439	298.13
362.821	299.71
363.203	305.81
363.584	283.89
363.966	263.1
364.348	277.56
364.729	277.11
365.111	291.57
365.493	286.15
365.874	263.1
366.256	283.21
366.637	258.13
367.019	278.24
367.4	285.47
367.781	288.41
368.163	263.33
368.544	252.25
368.925	278.69
369.306	275.08
369.688	268.07
370.069	273.5
370.45	280.05
370.831	283.66
371.212	275.76
371.593	273.04
371.974	277.79
372.355	264
372.736	256.55
373.117	268.52
373.498	286.15
373.879	272.14
374.26	267.17
374.641	264.23
375.021	275.3
375.402	261.52
375.783	275.3
376.163	282.99
376.544	278.02
376.925	290.9
377.305	284.57
377.686	269.43
378.066	274.85
378.447	276.43
378.827	279.37
379.208	272.82
379.588	269.43
379.968	300.84
380.349	274.4
380.729	273.5
381.109	290.9
381.489	280.05
381.87	299.71
382.25	272.82
382.63	287.05
383.01	285.92
383.39	277.11
383.77	283.21
384.15	294.51
384.53	315.53
384.91	267.39
385.29	297.22
385.67	290.9
386.049	298.35
386.429	290.44
386.809	288.86
387.189	278.92
387.568	290.9
387.948	288.18
388.328	278.69
388.707	284.57
389.087	291.12
389.466	304.23
389.846	304.91
390.225	297.45
390.605	309.2
390.984	300.39
391.363	299.94
391.743	293.61
392.122	304.46
392.501	310.56
392.881	295.19
393.26	311.01
393.639	310.1
394.018	296.77
394.397	303.55
394.776	275.76
395.155	313.04
395.534	285.25
395.913	304.23
396.292	299.03
396.671	320.73
397.05	301.52
397.429	303.55
397.808	284.12
398.186	306.94
398.565	286.6
398.944	309.65
399.323	315.08
399.701	304.46
400.08	298.13
400.458	305.13
400.837	307.62
401.215	296.32
401.594	306.26
401.972	301.52
402.351	306.72
402.729	330.22
403.107	309.2
403.486	301.52
403.864	308.07
404.242	311.91
404.62	318.69
404.999	324.34
405.377	324.57
405.755	311.46
406.133	309.65
406.511	313.27
406.889	308.97
407.267	305.36
407.645	331.35
408.023	295.42
408.401	305.81
408.779	318.69
409.156	309.65
409.534	323.66
409.912	318.92
410.29	305.81
410.667	312.82
411.045	305.13
411.422	327.28
411.8	332.03
412.178	321.4
412.555	320.95
412.933	318.69
413.31	344
413.687	326.83
414.065	322.76
414.442	313.95
414.819	289.31
415.197	329.77
415.574	311.23
415.951	320.05
416.328	331.8
416.705	319.14
417.082	320.5
417.46	321.63
417.837	327.51
418.214	311.23
418.591	318.92
418.967	339.48
419.344	338.8
419.721	339.71
420.098	328.41
420.475	317.79
420.852	347.17
421.228	347.84
421.605	340.39
421.982	345.81
422.358	341.74
422.735	336.54
423.111	334.96
423.488	325.7
423.864	325.47
424.241	331.8
424.617	334.28
424.994	344.23
425.37	326.83
425.746	322.99
426.123	343.78
426.499	362.76
426.875	351.23
427.251	333.83
427.627	325.92
428.003	329.54
428.379	338.35
428.756	323.44
429.132	322.99
429.507	347.17
429.883	353.95
430.259	358.47
430.635	322.99
431.011	337.9
431.387	367.5
431.763	351.46
432.138	353.27
432.514	362.08
432.89	357.56
433.265	351.01
433.641	368.86
434.016	362.08
434.392	361.63
434.767	362.76
435.143	350.1
435.518	356.21
435.894	382.19
436.269	350.78
436.644	359.37
437.02	359.6
437.395	365.02
437.77	369.99
438.145	366.37
438.52	381.74
438.895	392.59
439.271	366.37
439.646	372.02
440.021	392.81
440.395	365.7
440.77	352.59
441.145	395.75
441.52	373.38
441.895	394.17
442.27	389.2
442.645	380.39
443.019	376.32
443.394	359.6
443.769	364.34
444.143	380.16
444.518	379.93
444.892	402.31
445.267	399.59
445.641	375.87
446.016	373.61
446.39	390.1
446.764	386.04
447.139	392.81
447.513	386.04
447.887	395.3
448.262	402.53
448.636	388.52
449.01	394.62
449.384	384.91
449.758	396.88
450.132	406.37
450.506	385.36
450.88	392.59
451.254	421.51
451.628	400.72
452.002	404.34
452.376	385.81
452.75	406.83
453.123	398.69
453.497	409.09
453.871	400.95
454.244	415.19
454.618	403.21
454.992	423.32
455.365	393.94
455.739	418.58
456.112	414.28
456.486	434.17
456.859	402.98
457.232	436.43
457.606	429.42
457.979	420.16
458.352	426.71
458.725	420.84
459.099	436.88
459.472	434.17
459.845	428.52
460.218	435.3
460.591	443.89
460.964	434.62
461.337	463.55
461.71	440.04
462.083	451.57
462.456	440.04
462.829	444.79
463.201	456.77
463.574	450.21
463.947	450.21
464.32	464.23
464.692	449.76
465.065	457.67
465.438	478.69
465.81	465.81
466.183	472.36
466.555	467.61
466.928	484.11
467.3	488.63
467.672	474.85
468.045	483.66
468.417	487.95
468.789	484.79
469.161	508.29
469.534	485.69
469.906	498.35
470.278	464.45
470.65	502.19
471.022	509.65
471.394	514.62
471.766	493.83
472.138	517.56
472.51	534.96
472.882	503.55
473.253	546.26
473.625	528.86
473.997	556.2
474.369	539.93
474.74	542.19
475.112	555.3
475.484	549.65
475.855	555.52
476.227	579.48
476.598	554.84
476.97	576.76
477.341	592.36
477.713	588.97
478.084	593.49
478.455	599.36
478.827	611.79
479.198	601.17
479.569	628.29
479.94	621.28
480.311	605.46
480.682	643.66
481.053	635.75
481.424	638.46
481.795	634.84
482.166	654.73
482.537	663.99
482.908	649.3
483.279	665.35
483.65	684.11
484.021	677.33
484.391	684.11
484.762	688.17
485.133	689.3
485.503	708.06
485.874	708.51
486.244	727.27
486.615	726.59
486.985	745.12
487.356	743.54
487.726	734.95
488.097	752.58
488.467	752.81
488.837	756.19
489.207	760.26
489.578	772.01
489.948	790.32
490.318	759.36
490.688	782.63
491.058	822.63
491.428	816.53
491.798	827.38
492.168	822.63
492.538	835.51
492.908	840.71
493.278	831.45
493.648	819.02
494.017	842.07
494.387	827.61
494.757	860.6
495.126	864.67
495.496	839.36
495.866	891.56
496.235	870.32
496.605	870.32
496.974	866.02
497.344	900.37
497.713	887.04
498.082	894.27
498.452	889.98
498.821	896.08
499.19	916.42
499.559	917.77
499.928	905.34
500.298	906.7
500.667	936.08
501.036	920.03
501.405	925
501.774	918.68
502.143	939.69
502.512	934.95
502.88	950.54
503.249	947.38
503.618	946.02
503.987	966.13
504.356	947.6
504.724	953.03
505.093	948.51
505.462	969.3
505.83	959.13
506.199	985.57
506.567	982.18
506.936	965.45
507.304	1012.46
507.672	965.68
508.041	987.38
508.409	1014.49
508.777	981.05
509.145	999.58
509.514	988.28
509.882	1002.74
510.25	995.06
510.618	998
510.986	1021.72
511.354	1037.77
511.722	1017.2
512.09	1035.74
512.458	1018.11
512.826	1034.38
513.193	1044.55
513.561	1046.81
513.929	1030.76
514.297	1046.36
514.664	1052.91
515.032	1023.31
515.4	1066.02
515.767	1072.8
516.135	1055.62
516.502	1050.65
516.869	1057.2
517.237	1092.91
517.604	1081.16
517.972	1068.05
518.339	1091.55
518.706	1068.28
519.073	1102.85
519.44	1108.05
519.808	1089.52
520.175	1109.63
520.542	1093.14
520.909	1130.87
521.276	1099.01
521.643	1088.62
522.009	1120.03
522.376	1115.51
522.743	1106.24
523.11	1110.76
523.477	1138.78
523.843	1142.17
524.21	1137.88
524.577	1132.23
524.943	1152.34
525.31	1152.79
525.676	1165
526.043	1177.43
526.409	1165.22
526.776	1168.16
527.142	1148.95
527.508	1182.17
527.874	1191.44
528.241	1179.23
528.607	1165.22
528.973	1202.06
529.339	1183.53
529.705	1175.17
530.071	1199.57
530.437	1204.32
530.803	1200.93
531.169	1190.76
531.535	1236.41
531.901	1202.06
532.267	1215.84
532.632	1200.7
532.998	1238.22
533.364	1193.25
533.73	1198.9
534.095	1200.25
534.461	1208.84
534.826	1224.88
535.192	1230.31
535.557	1222.85
535.923	1211.55
536.288	1240.25
536.653	1243.19
537.019	1212.45
537.384	1239.12
537.749	1206.35
538.114	1224.21
538.479	1221.72
538.845	1227.59
539.21	1175.39
539.575	1228.5
539.94	1226.92
540.305	1238.22
540.67	1233.92
541.034	1241.15
541.399	1214.49
541.764	1271.89
542.129	1219.91
542.494	1221.95
542.858	1249.97
543.223	1259.46
543.587	1227.14
543.952	1235.96
544.316	1251.1
544.681	1222.17
545.045	1253.36
545.41	1221.95
545.774	1237.76
546.138	1251.55
546.503	1216.52
546.867	1237.54
547.231	1273.7
547.595	1257.88
547.959	1248.61
548.324	1241.61
548.688	1226.24
549.052	1245.9
549.416	1240.48
549.779	1251.1
550.143	1214.94
550.507	1250.87
550.871	1273.92
551.235	1259.91
551.599	1264.43
551.962	1257.88
552.326	1240.93
552.689	1265.11
553.053	1233.7
553.417	1233.24
553.78	1259.91
554.143	1287.25
554.507	1270.98
554.87	1287.48
555.234	1278.67
555.597	1303.3
555.96	1268.5
556.323	1276.86
556.686	1286.8
557.05	1272.79
557.413	1259.46
557.776	1266.01
558.139	1275.28
558.502	1270.98
558.865	1312.79
559.228	1280.7
559.59	1299.01
559.953	1292
560.316	1305.78
560.679	1315.5
561.041	1312.79
561.404	1308.95
561.767	1321.83
562.129	1326.8
562.492	1278.44
562.854	1299.46
563.217	1323.86
563.579	1316.86
563.941	1322.51
564.304	1310.3
564.666	1341.26
565.028	1351.66
565.39	1316.86
565.753	1336.52
566.115	1320.93
566.477	1344.43
566.839	1312.79
567.201	1345.56
567.563	1346.91
567.925	1345.11
568.287	1339
568.648	1337.65
569.01	1355.5
569.372	1337.42
569.734	1346.01
570.095	1335.61
570.457	1329.51
570.819	1328.16
571.18	1329.51
571.542	1337.87
571.903	1364.99
572.265	1331.55
572.626	1327.48
572.987	1332.68
573.349	1364.31
573.71	1364.31
574.071	1350.08
574.432	1373.13
574.794	1368.83
575.155	1357.08
575.516	1356.63
575.877	1365.22
576.238	1368.83
576.599	1362.51
576.96	1360.92
577.32	1329.06
577.681	1381.04
578.042	1361.83
578.403	1378.78
578.763	1364.77
579.124	1385.56
579.485	1339.46
579.845	1339.91
580.206	1338.1
580.566	1322.51
580.927	1353.47
581.287	1346.69
581.648	1326.35
582.008	1345.78
582.368	1329.06
582.728	1324.77
583.089	1338.55
583.449	1320.47
583.809	1327.48
584.169	1322.96
584.529	1319.34
584.889	1343.07
585.249	1317.54
585.609	1315.28
585.969	1346.01
586.329	1325.67
586.688	1323.41
587.048	1311.43
587.408	1302.62
587.768	1303.07
588.127	1299.46
588.487	1302.4
588.846	1283.19
589.206	1321.6
589.565	1319.12
589.925	1330.64
590.284	1295.39
590.643	1315.5
591.003	1280.02
591.362	1276.41
591.721	1308.95
592.08	1304.2
592.44	1308.27
592.799	1314.6
593.158	1322.51
593.517	1326.58
593.876	1323.64
594.235	1309.4
594.593	1298.1
594.952	1273.92
595.311	1301.27
595.67	1289.51
596.029	1306.46
596.387	1300.14
596.746	1294.03
597.104	1276.86
597.463	1296.29
597.822	1314.37
598.18	1299.46
598.538	1298.1
598.897	1283.64
599.255	1304.88
599.613	1273.92
599.972	1270.76
600.33	1310.08
600.688	1302.4
601.046	1305.11
601.404	1270.31
601.762	1327.03
602.12	1339.23
602.478	1312.56
602.836	1309.4
603.194	1325.22
603.552	1333.81
603.91	1306.69
604.268	1299.23
604.625	1298.1
604.983	1330.87
605.341	1337.2
605.698	1332.9
606.056	1328.84
606.413	1317.54
606.771	1323.86
607.128	1318.89
607.485	1328.61
607.843	1311.43
608.2	1349.4
608.557	1341.49
608.914	1326.12
609.272	1327.48
609.629	1316.41
609.986	1332.22
610.343	1316.41
610.7	1326.12
611.057	1315.28
611.414	1322.96
611.771	1311.21
612.127	1335.84
612.484	1336.97
612.841	1356.63
613.198	1352.34
613.554	1323.41
613.911	1350.3
614.267	1365.22
614.624	1383.07
614.98	1343.75
615.337	1355.28
615.693	1336.29
616.05	1335.39
616.406	1351.66
616.762	1340.81
617.118	1362.51
617.475	1345.33
617.831	1359.79
618.187	1346.24
618.543	1338.1
618.899	1350.3
619.255	1349.4
619.611	1364.99
619.967	1358.44
620.323	1384.43
620.678	1341.26
621.034	1391.43
621.39	1325.22
621.746	1331.09
622.101	1337.65
622.457	1356.86
622.812	1360.25
623.168	1355.95
623.523	1387.36
623.879	1353.92
624.234	1356.41
624.589	1341.04
624.945	1334.26
625.3	1345.11
625.655	1332.9
626.01	1362.73
626.365	1360.02
626.72	1363.18
627.075	1356.86
627.43	1354.82
627.785	1346.46
628.14	1352.11
628.495	1339.46
628.85	1319.34
629.205	1325.67
629.559	1339.46
629.914	1332.45
630.269	1351.89
630.623	1375.16
630.978	1351.66
631.332	1329.51
631.687	1346.01
632.041	1330.64
632.396	1370.64
632.75	1339.91
633.104	1346.46
633.459	1347.82
633.813	1328.84
634.167	1336.52
634.521	1346.91
634.875	1299.01
635.229	1328.61
635.583	1322.96
635.937	1314.6
636.291	1310.3
636.645	1322.51
636.999	1297.88
637.352	1323.86
637.706	1326.12
638.06	1302.17
638.413	1319.34
638.767	1315.05
639.121	1338.1
639.474	1324.99
639.828	1317.31
640.181	1312.11
640.534	1342.62
640.888	1330.19
641.241	1303.3
641.594	1340.36
641.947	1335.61
642.301	1336.07
642.654	1306.69
643.007	1346.24
643.36	1349.63
643.713	1331.32
644.066	1334.03
644.419	1307.59
644.771	1309.85
645.124	1330.64
645.477	1309.85
645.83	1332.68
646.182	1321.6
646.535	1301.04
646.888	1317.76
647.24	1320.02
647.593	1327.48
647.945	1327.25
648.298	1343.3
648.65	1347.59
649.002	1329.06
649.355	1330.19
649.707	1316.18
650.059	1322.73
650.411	1338.55
650.763	1316.86
651.115	1373.58
651.467	1374.26
651.819	1379.46
652.171	1388.49
652.523	1362.05
652.875	1379.68
653.227	1350.98
653.578	1422.62
653.93	1412.9
654.282	1400.02
654.633	1412.45
654.985	1409.06
655.337	1430.3
655.688	1411.54
656.039	1424.88
656.391	1416.29
656.742	1425.56
657.094	1419.23
657.445	1414.93
657.796	1462.16
658.147	1449.74
658.498	1484.54
658.849	1463.75
659.2	1476.63
659.551	1483.18
659.902	1480.7
660.253	1501.03
660.604	1493.12
660.955	1494.71
661.306	1520.92
661.656	1499.45
662.007	1519.79
662.358	1522.95
662.708	1542.39
663.059	1521.82
663.409	1514.14
663.76	1545.33
664.11	1562.05
664.461	1569.73
664.811	1542.39
665.161	1577.87
665.511	1609.05
665.862	1598.88
666.212	1623.06
666.562	1597.98
666.912	1610.64
667.262	1628.49
667.612	1636.4
667.962	1620.35
668.312	1667.36
668.662	1670.52
669.011	1683.63
669.361	1682.72
669.711	1687.47
670.06	1696.51
670.41	1725.21
670.76	1740.35
671.109	1764.76
671.459	1754.81
671.808	1741.03
672.157	1762.72
672.507	1776.51
672.856	1799.78
673.205	1790.74
673.554	1837.75
673.904	1838.2
674.253	1834.36
674.602	1827.35
674.951	1834.13
675.3	1851.76
675.649	1860.57
675.998	1898.76
676.346	1891.31
676.695	1901.48
677.044	1914.58
677.393	1933.34
677.741	1973.11
678.09	1974.69
678.438	1987.35
678.787	2004.98
679.135	2028.7
679.484	2015.6
679.832	2037.74
680.181	2061.47
680.529	2055.14
680.877	2061.47
681.225	2082.04
681.573	2105.31
681.922	2142.6
682.27	2139.21
682.618	2145.99
682.966	2117.29
683.314	2182.82
683.661	2149.15
684.009	2148.93
684.357	2193.67
684.705	2234.57
685.053	2209.72
685.4	2235.25
685.748	2237.74
686.095	2275.02
686.443	2269.6
686.79	2309.37
687.138	2297.17
687.485	2309.83
687.832	2322.48
688.18	2305.31
688.527	2348.24
688.874	2379.88
689.221	2376.49
689.568	2374.46
689.915	2390.73
690.262	2413.1
690.609	2424.85
690.956	2438.64
691.303	2475.92
691.65	2443.38
691.997	2511.18
692.344	2507.56
692.69	2538.07
693.037	2552.31
693.383	2576.71
693.73	2503.72
694.077	2539.65
694.423	2561.57
694.769	2589.37
695.116	2588.91
695.462	2616.94
695.808	2589.37
696.155	2600.21
696.501	2642.7
696.847	2670.49
697.193	2683.83
697.539	2694.67
697.885	2695.58
698.231	2687.67
698.577	2674.34
698.923	2717.27
699.269	2743.94
699.614	2748.23
699.96	2799.08
700.306	2781.23
700.651	2785.52
700.997	2831.17
701.342	2810.38
701.688	2828
702.033	2823.26
702.379	2866.65
702.724	2876.82
703.069	2918.17
703.415	2905.74
703.76	2882.24
704.105	2896.7
704.45	2915.91
704.795	2921.56
705.14	2931.5
705.485	2965.63
705.83	2955.68
706.175	2988.45
706.52	2989.81
706.865	3011.28
707.209	3019.86
707.554	3020.54
707.899	3018.96
708.243	3049.24
708.588	3037.72
708.932	3048.79
709.277	3031.39
709.621	3085.4
709.966	3057.83
710.31	3105.96
710.654	3082.91
710.998	3100.31
711.342	3139.41
711.687	3124.72
712.031	3187.54
712.375	3152.52
712.719	3115.91
713.063	3146.19
713.407	3169.01
713.75	3162.46
714.094	3212.85
714.438	3213.08
714.782	3207.88
715.125	3247.43
715.469	3253.3
715.812	3190.48
716.156	3213.98
716.499	3232.51
716.843	3296.02
717.186	3288.33
717.53	3249.24
717.873	3278.61
718.216	3292.85
718.559	3289.01
718.902	3290.37
719.246	3335.79
719.589	3292.63
719.932	3322
720.275	3340.31
720.617	3269.35
720.96	3330.82
721.303	3307.99
721.646	3352.96
721.989	3352.06
722.331	3339.4
722.674	3355.22
723.016	3363.13
723.359	3353.41
723.701	3387.09
724.044	3381.66
724.386	3339.4
724.729	3380.08
725.071	3357.71
725.413	3394.54
725.755	3412.85
726.097	3348.22
726.439	3378.5
726.782	3377.14
727.124	3429.57
727.465	3416.46
727.807	3348.67
728.149	3370.59
728.491	3396.8
728.833	3456.46
729.175	3407.88
729.516	3455.33
729.858	3394.09
730.199	3469.34
730.541	3436.12
730.882	3445.84
731.224	3432.96
731.565	3402.45
731.906	3426.41
732.248	3475.9
732.589	3394.77
732.93	3401.1
733.271	3440.19
733.612	3433.19
733.953	3430.7
734.294	3420.53
734.635	3385.73
734.976	3438.16
735.317	3403.81
735.658	3469.57
735.999	3447.88
736.339	3437.03
736.68	3417.59
737.021	3454.65
737.361	3393.41
737.702	3475.22
738.042	3463.69
738.383	3392.28
738.723	3421.21
739.063	3451.94
739.404	3461.21
739.744	3415.11
740.084	3421.44
740.424	3428.21
740.764	3403.36
741.104	3447.65
741.444	3444.71
741.784	3434.32
742.124	3428.67
742.464	3452.4
742.804	3421.89
743.143	3410.36
743.483	3437.03
743.823	3434.77
744.162	3383.92
744.502	3408.33
744.841	3385.96
745.181	3404.94
745.52	3423.7
745.86	3413.07
746.199	3413.07
746.538	3387.99
746.877	3427.54
747.216	3385.05
747.556	3386.41
747.895	3366.75
748.234	3352.74
748.573	3373.98
748.911	3374.66
749.25	3387.31
749.589	3387.99
749.928	3391.15
750.267	3371.95
750.605	3368.78
750.944	3335.11
751.283	3332.62
751.621	3329.01
751.96	3291.95
752.298	3323.36
752.636	3324.94
752.975	3309.8
753.313	3325.62
753.651	3336.47
753.989	3319.29
754.327	3305.28
754.666	3297.14
755.004	3308.67
755.342	3252.63
755.679	3253.98
756.017	3265.28
756.355	3231.84
756.693	3263.47
757.031	3283.59
757.368	3222.34
757.706	3207.66
758.044	3229.12
758.381	3217.15
758.719	3236.58
759.056	3191.39
759.394	3235.45
759.731	3215.57
760.068	3197.71
760.405	3171.27
760.743	3181.44
761.08	3172.18
761.417	3159.3
761.754	3143.93
762.091	3171.5
762.428	3140.99
762.765	3118.84
763.102	3166.75
763.438	3133.99
763.775	3130.82
764.112	3114.1
764.449	3112.97
764.785	3066.64
765.122	3061.44
765.458	3067.32
765.795	3055.57
766.131	3040.88
766.467	3070.03
766.804	3041.56
767.14	3031.62
767.476	3051.73
767.812	2988.9
768.148	3001.33
768.485	3037.49
768.821	3011.73
769.157	3022.35
769.492	2973.31
769.828	2938.96
770.164	2936.25
770.5	2933.09
770.836	2935.35
771.171	2950.71
771.507	2902.35
771.842	2922.69
772.178	2913.43
772.513	2908.68
772.849	2866.87
773.184	2865.29
773.519	2876.59
773.855	2865.07
774.19	2843.82
774.525	2871.62
774.86	2881.56
775.195	2844.05
775.53	2841.11
775.865	2841.79
776.2	2808.8
776.535	2786.2
776.87	2771.06
777.205	2794.11
777.539	2742.81
777.874	2790.49
778.209	2776.48
778.543	2751.17
778.878	2762.02
779.212	2761.57
779.547	2760.89
779.881	2704.62
780.215	2678.18
780.55	2670.04
780.884	2729.48
781.218	2670.72
781.552	2695.35
781.886	2718.63
782.22	2613.55
782.554	2684.96
782.888	2610.84
783.222	2638.63
783.556	2618.74
783.889	2637.5
784.223	2569.71
784.557	2581.46
784.89	2606.09
785.224	2590.72
785.557	2561.8
785.891	2570.16
786.224	2544.62
786.558	2564.51
786.891	2543.04
787.224	2538.75
787.557	2486.54
787.891	2545.07
788.224	2520.67
788.557	2486.54
788.89	2483.16
789.223	2508.47
789.556	2468.01
789.888	2456.94
790.221	2519.99
790.554	2463.95
790.887	2451.74
791.219	2469.6
791.552	2416.04
791.884	2399.77
792.217	2416.04
792.549	2404.74
792.882	2401.58
793.214	2354.12
793.546	2402.25
793.879	2364.29
794.211	2391.86
794.543	2395.47
794.875	2332.42
795.207	2372.65
795.539	2377.85
795.871	2378.3
796.203	2362.93
796.535	2347.57
796.867	2328.58
797.198	2306.89
797.53	2311.63
797.862	2301.46
798.193	2303.05
798.525	2283.16
798.856	2302.82
799.188	2263.5
799.519	2265.99
799.85	2275.25
800.182	2282.93
800.513	2264.4
800.844	2249.71
801.175	2265.99
801.506	2265.53
801.837	2230.05
802.168	2221.69
802.499	2231.64
802.83	2243.61
803.161	2233.9
803.491	2213.56
803.822	2216.95
804.153	2217.4
804.483	2214.69
804.814	2198.19
805.145	2167.23
805.475	2201.81
805.805	2197.96
806.136	2218.3
806.466	2152.54
806.796	2149.6
807.126	2170.39
807.457	2130.17
807.787	2135.82
808.117	2159.77
808.447	2162.94
808.777	2115.93
809.107	2152.54
809.436	2118.42
809.766	2140.11
810.096	2113
810.426	2100.79
810.755	2091.3
811.085	2100.34
811.414	2079.32
811.744	2054.92
812.073	2088.82
812.403	2063.28
812.732	2069.38
813.061	2076.16
813.39	2075.48
813.719	2083.17
814.049	2053.34
814.378	2057.4
814.707	2032.32
815.036	2027.35
815.365	2055.37
815.693	2019.21
816.022	2034.81
816.351	2050.62
816.68	2014.69
817.008	2024.64
817.337	2010.17
817.665	2011.3
817.994	2009.04
818.322	2003.17
818.651	1966.78
818.979	1990.29
819.307	2004.3
819.636	1982.15
819.964	1964.75
820.292	1967.91
820.62	2002.72
820.948	1958.2
821.276	1966.33
821.604	1967.91
821.932	1977.18
822.259	1962.26
822.587	1969.04
822.915	1961.59
823.243	1951.42
823.57	1938.31
823.898	1953.9
824.225	1920.23
824.553	1993.9
824.88	1971.76
825.207	1990.29
825.535	1961.36
825.862	1974.02
826.189	1942.38
826.516	1952.77
826.843	1967.91
827.17	1932.44
827.497	1956.84
827.824	1944.64
828.151	1963.62
828.478	1988.48
828.805	1977.41
829.131	1980.12
829.458	1979.67
829.785	1954.58
830.111	1960.46
830.438	1959.33
830.764	1975.6
831.09	1960.68
831.417	1944.86
831.743	1956.62
832.069	1944.64
832.395	1940.34
832.722	1947.12
833.048	1948.48
833.374	1953.9
833.7	1924.07
834.026	1969.5
834.351	1964.75
834.677	1930.4
835.003	1952.32
835.329	1910.97
835.654	1909.61
835.98	1910.29
836.306	1921.14
836.631	1947.35
836.956	1917.97
837.282	1919.78
837.607	1919.55
837.932	1904.41
838.258	1924.75
838.583	1906.45
838.908	1919.1
839.233	1923.4
839.558	1881.59
839.883	1908.71
840.208	1897.63
840.533	1896.96
840.858	1898.76
841.182	1879.56
841.507	1858.99
841.832	1877.97
842.156	1863.51
842.481	1879.78
842.805	1859.89
843.13	1890.18
843.454	1879.1
843.778	1890.4
844.103	1895.15
844.427	1841.36
844.751	1866.9
845.075	1863.06
845.399	1852.66
845.723	1814.25
846.047	1840.23
846.371	1830.97
846.695	1856.73
847.019	1797.07
847.343	1802.04
847.666	1801.59
847.99	1797.07
848.313	1808.37
848.637	1805.21
848.96	1780.35
849.284	1786.9
849.607	1759.11
849.931	1739.67
850.254	1747.36
850.577	1735.83
850.9	1758.88
851.223	1755.94
851.546	1728.6
851.869	1738.32
852.192	1722.95
852.515	1724.3
852.838	1729.5
853.161	1701.93
853.483	1716.17
853.806	1683.18
854.129	1686.11
854.451	1681.37
854.774	1671.88
855.096	1685.89
855.419	1655.61
855.741	1679.56
856.063	1653.35
856.385	1664.87
856.708	1669.62
857.03	1659.22
857.352	1633.23
857.674	1639.11
857.996	1640.92
858.318	1619
858.64	1646.57
858.961	1604.31
859.283	1641.6
859.605	1601.14
859.926	1627.81
860.248	1635.49
860.57	1633.46
860.891	1628.26
861.212	1609.96
861.534	1612.67
861.855	1569.73
862.176	1610.18
862.498	1594.14
862.819	1605.89
863.14	1589.62
863.461	1569.96
863.782	1576.96
864.103	1601.82
864.424	1571.09
864.745	1603.4
865.065	1597.08
865.386	1573.57
865.707	1566.34
866.027	1555.72
866.348	1578.77
866.668	1579.9
866.989	1555.72
867.309	1545.55
867.63	1588.04
867.95	1585.1
868.27	1553.69
868.59	1572.44
868.91	1562.28
869.23	1566.79
869.55	1564.31
869.87	1550.3
870.19	1557.76
870.51	1551.88
870.83	1549.39
871.15	1534.93
871.469	1551.43
871.789	1522.5
872.109	1521.15
872.428	1514.82
872.748	1509.17
873.067	1546
873.386	1547.81
873.706	1520.92
874.025	1511.88
874.344	1529.28
874.663	1513.24
874.982	1500.13
875.301	1466.68
875.62	1523.41
875.939	1518.89
876.258	1500.58
876.577	1497.42
876.896	1493.12
877.214	1485.22
877.533	1495.38
877.852	1508.72
878.17	1483.63
878.489	1481.6
878.807	1513.91
879.125	1480.47
879.444	1499.23
879.762	1485.44
880.08	1477.53
880.398	1475.27
880.716	1472.11
881.034	1466.46
881.352	1473.46
881.67	1476.18
881.988	1477.98
882.306	1461.04
882.624	1457.42
882.941	1440.24
883.259	1454.03
883.577	1441.6
883.894	1460.81
884.212	1432.34
884.529	1445.67
884.846	1437.08
885.164	1464.2
885.481	1431.66
885.798	1444.76
886.115	1435.05
886.432	1400.7
886.75	1431.43
887.067	1449.74
887.383	1409.28
887.7	1406.8
888.017	1416.74
888.334	1417.42
888.651	1437.76
888.967	1426.69
889.284	1426.23
889.6	1406.8
889.917	1382.84
890.233	1408.16
890.55	1347.82
890.866	1399.12
891.182	1387.14
891.498	1397.53
891.815	1365.22
892.131	1359.34
892.447	1372.22
892.763	1344.65
893.079	1344.88
893.395	1353.02
893.71	1366.12
894.026	1358.89
894.342	1349.17
894.657	1361.6
894.973	1345.11
895.289	1336.07
895.604	1339.46
895.92	1346.01
896.235	1304.2
896.55	1324.09
896.865	1329.29
897.181	1322.96
897.496	1314.15
897.811	1329.29
898.126	1302.85
898.441	1307.59
898.756	1297.65
899.071	1280.25
899.386	1304.43
899.7	1327.25
900.015	1280.93
900.33	1286.12
900.644	1246.8
900.959	1283.64
901.273	1280.7
901.588	1287.25
901.902	1293.81
902.216	1266.92
902.531	1266.92
902.845	1300.81
903.159	1275.73
903.473	1243.41
903.787	1270.98
904.101	1258.55
904.415	1242.06
904.729	1248.84
905.042	1237.76
905.356	1223.3
905.67	1228.05
905.984	1221.72
906.297	1227.14
906.611	1207.03
906.924	1234.6
907.237	1233.7
907.551	1201.83
907.864	1200.93
908.177	1190.53
908.491	1213.36
908.804	1202.51
909.117	1165.45
909.43	1195.05
909.743	1179.46
910.056	1185.79
910.368	1161.16
910.681	1185.56
910.994	1172.91
911.307	1183.75
911.619	1156.18
911.932	1137.2
912.244	1141.95
912.557	1146.24
912.869	1139.69
913.181	1134.72
913.494	1154.6
913.806	1150.99
914.118	1141.04
914.43	1118.45
914.742	1104.89
915.054	1126.58
915.366	1107.6
915.678	1100.37
915.99	1103.98
916.302	1112.12
916.613	1120.93
916.925	1126.35
917.236	1114.15
917.548	1076.86
917.859	1099.91
918.171	1084.77
918.482	1083.42
918.794	1061.27
919.105	1075.96
919.416	1062.63
919.727	1068.73
920.038	1061.27
920.349	1066.02
920.66	1062.18
920.971	1036.87
921.282	1056.75
921.593	1054.04
921.903	1058.11
922.214	1068.5
922.525	1065.34
922.835	1033.25
923.146	1031.44
923.456	1012.23
923.767	1016.75
924.077	1026.24
924.387	1026.7
924.697	994.15
925.008	1038.22
925.318	1014.95
925.628	1023.08
925.938	988.73
926.248	996.19
926.558	1015.85
926.867	992.8
927.177	967.94
927.487	999.58
927.796	993.48
928.106	967.94
928.416	967.71
928.725	964.55
929.034	969.97
929.344	968.62
929.653	973.59
929.962	953.7
930.271	988.28
930.581	958
930.89	967.49
931.199	975.85
931.508	916.64
931.817	958.45
932.125	934.72
932.434	937.88
932.743	924.55
933.051	963.42
933.36	945.57
933.669	945.12
933.977	939.47
934.286	945.12
934.594	927.72
934.902	939.69
935.21	913.25
935.519	920.71
935.827	915.51
936.135	925.23
936.443	907.6
936.751	914.38
937.059	906.02
937.367	897.43
937.674	888.85
937.982	901.5
938.29	889.75
938.597	879.58
938.905	890.43
939.213	866.02
939.52	856.98
939.827	895.17
940.135	876.87
940.442	884.33
940.749	890.43
941.056	879.13
941.363	874.38
941.67	855.85
941.977	865.8
942.284	847.72
942.591	882.97
942.898	876.19
943.205	850.66
943.511	845.46
943.818	847.27
944.125	829.64
944.431	850.43
944.738	875.97
945.044	844.78
945.35	822.41
945.657	812.92
945.963	840.49
946.269	823.99
946.575	821.5
946.881	807.72
947.187	854.5
947.493	799.36
947.799	819.47
948.105	817.21
948.41	800.71
948.716	808.4
949.022	823.09
949.327	816.76
949.633	795.06
949.938	794.39
950.244	787.38
950.549	795.52
950.854	799.36
951.16	772.01
951.465	800.26
951.77	805.69
952.075	805.91
952.38	801.17
952.685	790.32
952.99	797.1
953.294	753.48
953.599	769.98
953.904	786.7
954.209	766.14
954.513	774.27
954.818	758.23
955.122	759.36
955.426	742.41
955.731	787.38
956.035	778.12
956.339	752.81
956.643	756.42
956.948	786.02
957.252	739.92
957.556	753.48
957.86	739.47
958.163	744.67
958.467	729.08
958.771	736.31
959.075	729.08
959.378	743.54
959.682	717.55
959.985	730.66
960.289	752.58
960.592	743.99
960.896	750.77
961.199	731.11
961.502	711.9
961.805	710.09
962.108	695.41
962.411	729.3
962.714	714.39
963.017	730.88
963.32	716.65
963.623	732.01
963.926	711.68
964.228	690.43
964.531	697.89
964.833	687.27
965.136	718.68
965.438	711
965.741	683.65
966.043	682.98
966.345	697.67
966.648	700.38
966.95	704.67
967.252	672.36
967.554	689.08
967.856	698.57
968.158	703.77
968.46	685.24
968.761	674.39
969.063	654.73
969.365	671.45
969.666	672.36
969.968	663.09
970.269	692.92
970.571	667.38
970.872	663.54
971.174	675.07
971.475	646.37
971.776	656.54
972.077	660.38
972.378	660.83
972.679	656.76
972.98	654.73
973.281	668.97
973.582	634.62
973.883	641.4
974.183	659.47
974.484	650.66
974.785	663.32
975.085	666.48
975.386	629.42
975.686	642.07
975.986	639.36
976.287	645.24
976.587	618.57
976.887	631.23
977.187	640.04
977.487	629.64
977.787	609.53
978.087	621.28
978.387	634.84
978.687	630.32
978.987	621.51
979.286	623.99
979.586	617.67
979.885	617.44
980.185	610.21
980.484	602.75
980.784	593.49
981.083	612.7
981.382	636.65
981.682	622.19
981.981	613.37
982.28	612.92
982.579	613.83
982.878	614.73
983.177	621.96
983.475	621.51
983.774	578.35
984.073	596.88
984.372	587.61
984.67	607.27
984.969	588.74
985.267	611.57
985.566	586.48
985.864	583.09
986.162	596.65
986.461	573.6
986.759	583.77
987.057	571.79
987.355	584.9
987.653	560.72
987.951	574.5
988.249	598.23
988.547	577.44
988.844	565.24
989.142	602.75
989.44	584
989.737	547.84
990.035	559.14
990.332	560.27
990.63	551.68
990.927	577.22
991.224	556.43
991.521	560.95
991.819	558.23
992.116	548.29
992.413	555.3
992.71	557.33
993.006	547.16
993.303	550.78
993.6	537.44
993.897	562.75
994.193	558.23
994.49	562.3
994.787	546.26
995.083	529.31
995.379	543.55
995.676	516.2
995.972	534.05
996.268	543.55
996.565	533.15
996.861	529.08
997.157	534.51
997.453	542.87
997.749	517.78
998.044	521.85
998.34	542.87
998.636	531.57
998.932	520.49
999.227	534.28
999.523	529.08
999.818	522.98
1000.114	506.71
1000.409	526.37
1000.704	513.26
1001	522.53
1001.295	512.36
1001.59	516.2
1001.885	514.62
1002.18	505.58
1002.475	535.41
1002.77	525.69
1003.065	512.36
1003.359	513.49
1003.654	515.75
1003.949	502.87
1004.243	505.81
1004.538	494.51
1004.832	517.56
1005.127	488.86
1005.421	515.3
1005.715	490.89
1006.009	511.46
1006.304	503.77
1006.598	508.52
1006.892	506.71
1007.186	478.46
1007.48	499.48
1007.773	474.17
1008.067	447.73
1008.361	475.3
1008.655	468.74
1008.948	480.72
1009.242	480.27
1009.535	464.68
1009.829	466.71
1010.122	471.91
1010.415	478.24
1010.708	471
1011.001	475.52
1011.295	488.41
1011.588	467.16
1011.881	477.33
1012.173	470.1
1012.466	475.98
1012.759	453.6
1013.052	468.74
1013.344	457.22
1013.637	480.5
1013.93	450.67
1014.222	439.82
1014.514	457.45
1014.807	470.78
1015.099	467.39
1015.391	485.92
1015.683	445.69
1015.976	454.73
1016.268	446.15
1016.56	438.24
1016.851	459.71
1017.143	463.55
1017.435	479.14
1017.727	454.06
1018.018	445.02
1018.31	426.71
1018.602	457.22
1018.893	443.21
1019.185	454.51
1019.476	445.24
1019.767	429.2
1020.058	447.28
1020.35	456.99
1020.641	431.46
1020.932	434.4
1021.223	441.85
1021.514	425.36
1021.804	429.42
1022.095	440.04
1022.386	435.3
1022.677	426.26
1022.967	420.16
1023.258	435.3
1023.548	405.7
1023.839	412.02
1024.129	440.04
1024.419	424.45
1024.709	436.2
1025	415.41
1025.29	437.11
1025.58	430.55
1025.87	398.46
1026.16	422.19
1026.449	387.39
1026.739	415.86
1027.029	411.8
1027.319	412.48
1027.608	400.27
1027.898	396.66
1028.187	419.93
1028.477	416.77
1028.766	416.32
1029.055	413.15
1029.344	405.02
1029.634	423.1
1029.923	402.98
1030.212	419.48
1030.501	391.23
1030.79	409.31
1031.078	423.77
1031.367	413.38
1031.656	418.12
1031.945	401.63
1032.233	399.37
1032.522	394.17
1032.81	401.18
1033.099	395.75
1033.387	386.49
1033.675	398.46
1033.963	379.48
1034.251	399.37
1034.54	370.89
1034.828	372.7
1035.116	405.24
1035.403	421.74
1035.691	367.96
1035.979	376.09
1036.267	376.77
1036.554	358.47
1036.842	391.23
1037.129	395.53
1037.417	369.09
1037.704	384.23
1037.992	393.49
1038.279	395.98
1038.566	373.83
1038.853	373.83
1039.14	373.83
