Data from carpet_green_FLMS001491_00076.txt Node
Date: Wed Feb 08 10:35:50 GMT 2017
User: dcchb
Spectrometer: FLMS00149
Trigger mode: 0
Integration Time (sec): 2.000000E-2
Scans to average: 10
Electric dark correction enabled: true
Nonlinearity correction enabled: false
Boxcar width: 0
XAxis mode: Wavelengths
Number of Pixels in Spectrum: 2048
>>>>>Begin Spectral Data<<<<<
341.393	-18.26
341.776	-18.26
342.16	-18.26
342.543	-66.17
342.927	-77.24
343.31	-62.1
343.693	-66.17
344.077	-56.45
344.46	-60.3
344.843	-54.65
345.226	-41.99
345.61	-32.73
345.993	-21.88
346.376	-12.39
346.759	25.58
347.142	38.69
347.525	45.46
347.908	50.44
348.291	56.31
348.674	84.33
349.057	107.84
349.44	115.52
349.823	150.77
350.206	151.45
350.588	154.61
350.971	186.25
351.354	188.96
351.737	214.73
352.119	210.21
352.502	231
352.884	240.04
353.267	264.22
353.65	270.32
354.032	254.5
354.414	280.94
354.797	294.5
355.179	264.44
355.562	292.92
355.944	310.09
356.326	272.58
356.709	301.5
357.091	299.7
357.473	298.79
357.855	314.61
358.238	315.06
358.62	302.63
359.002	312.58
359.384	313.48
359.766	303.31
360.148	306.93
360.53	301.96
360.912	296.53
361.294	288.85
361.676	296.76
362.057	292.01
362.439	299.7
362.821	284.33
363.203	308.96
363.584	254.5
363.966	302.18
364.348	294.95
364.729	275.29
365.111	294.72
365.493	294.72
365.874	287.04
366.256	276.19
366.637	269.41
367.019	265.57
367.4	285.01
367.781	285.91
368.163	291.79
368.544	263.31
368.925	268.74
369.306	289.75
369.688	267.61
370.069	281.39
370.45	278.45
370.831	258.11
371.212	283.65
371.593	293.14
371.974	282.07
372.355	272.8
372.736	274.39
373.117	290.66
373.498	275.97
373.879	271.9
374.26	280.26
374.641	279.36
375.021	282.97
375.402	273.71
375.783	281.39
376.163	294.95
376.544	278.91
376.925	274.84
377.305	279.36
377.686	281.84
378.066	271
378.447	261.73
378.827	290.2
379.208	296.98
379.588	301.5
379.968	287.27
380.349	296.08
380.729	278.45
381.109	279.58
381.489	274.84
381.87	296.08
382.25	298.57
382.63	294.27
383.01	300.83
383.39	285.01
383.77	297.21
384.15	293.59
384.53	289.53
384.91	292.69
385.29	295.4
385.67	310.32
386.049	303.99
386.429	294.05
386.809	293.82
387.189	294.05
387.568	298.57
387.948	299.24
388.328	271.45
388.707	287.04
389.087	307.83
389.466	301.05
389.846	316.87
390.225	310.99
390.605	297.89
390.984	308.73
391.363	314.38
391.743	300.15
392.122	306.7
392.501	290.2
392.881	320.03
393.26	301.96
393.639	298.34
394.018	303.76
394.397	313.71
394.776	326.81
395.155	297.21
395.534	307.38
395.913	305.12
396.292	326.36
396.671	328.17
397.05	315.29
397.429	296.08
397.808	330.2
398.186	333.14
398.565	302.86
398.944	301.05
399.323	300.6
399.701	313.93
400.08	326.81
400.458	319.36
400.837	326.14
401.215	311.9
401.594	303.09
401.972	314.61
402.351	304.67
402.729	315.06
403.107	308.28
403.486	332.01
403.864	323.65
404.242	327.27
404.62	309.41
404.999	309.19
405.377	316.19
405.755	325.01
406.133	333.37
406.511	328.85
406.889	336.76
407.267	338.79
407.645	307.38
408.023	337.43
408.401	356.64
408.779	313.93
409.156	334.95
409.534	328.62
409.912	310.54
410.29	343.76
410.667	327.72
411.045	321.62
411.422	325.91
411.8	312.58
412.178	337.21
412.555	332.69
412.933	342.63
413.31	361.16
413.687	334.27
414.065	360.03
414.442	339.24
414.819	350.77
415.197	356.19
415.574	349.86
415.951	337.89
416.328	342.41
416.705	368.17
417.082	366.81
417.46	369.52
417.837	352.58
418.214	354.16
418.591	372.24
418.967	352.58
419.344	361.39
419.721	336.53
420.098	358.68
420.475	374.95
420.852	353.93
421.228	363.2
421.605	346.7
421.982	368.17
422.358	358.23
422.735	365.91
423.111	356.42
423.488	361.39
423.864	376.3
424.241	380.82
424.617	370.88
424.994	352.35
425.37	353.93
425.746	387.38
426.123	374.04
426.499	377.43
426.875	366.13
427.251	381.05
427.627	365.23
428.003	377.89
428.379	384.44
428.756	378.79
429.132	372.24
429.507	393.7
429.883	394.38
430.259	374.5
430.635	399.58
431.011	388.05
431.387	397.32
431.763	405
432.138	405.46
432.514	406.81
432.89	398.68
433.265	415.85
433.641	400.71
434.016	402.52
434.392	416.3
434.767	404.55
435.143	402.29
435.518	403.42
435.894	431.67
436.269	412.69
436.644	422.86
437.02	402.74
437.395	418.34
437.77	409.75
438.145	426.47
438.52	423.08
438.895	447.94
439.271	430.31
439.646	418.34
440.021	440.26
440.395	430.99
440.77	428.51
441.145	444.32
441.52	431.67
441.895	461.27
442.27	429.64
442.645	466.02
443.019	469.86
443.394	412.91
443.769	459.92
444.143	458.34
444.518	444.32
444.892	464.21
445.267	460.14
445.641	434.16
446.016	461.95
446.39	453.14
446.764	473.02
447.139	447.26
447.513	475.74
447.887	461.27
448.262	456.98
448.636	495.17
449.01	474.38
449.384	471.89
449.758	474.38
450.132	481.16
450.506	473.48
450.88	491.33
451.254	485.45
451.628	488.17
452.002	463.53
452.376	502.4
452.75	477.09
453.123	520.48
453.497	498.56
453.871	492.46
454.244	512.57
454.618	520.93
454.992	525.68
455.365	519.58
455.739	522.97
456.112	492.68
456.486	515.06
456.859	546.47
457.232	526.58
457.606	541.5
457.979	548.73
458.352	533.36
458.725	548.95
459.099	540.82
459.472	576.07
459.845	563.87
460.218	560.71
460.591	560.25
460.964	562.97
461.337	561.38
461.71	595.05
462.083	582.17
462.456	575.62
462.829	584.21
463.201	581.95
463.574	606.35
463.947	620.82
464.32	599.8
464.692	618.33
465.065	626.01
465.438	630.99
465.81	620.82
466.183	655.39
466.555	647.71
466.928	647.48
467.3	632.57
467.672	654.71
468.045	642.29
468.417	668.95
468.789	650.42
469.161	671.21
469.534	666.47
469.906	686.58
470.278	680.48
470.65	677.31
471.022	690.19
471.394	700.36
471.766	699.68
472.138	700.59
472.51	749.18
472.882	747.82
473.253	758.67
473.625	736.75
473.997	765.45
474.369	787.82
474.74	773.36
475.112	776.97
475.484	799.34
475.855	794.37
476.227	813.35
476.598	832.34
476.97	798.44
477.341	819
477.713	832.34
478.084	847.03
478.455	861.71
478.827	888.15
479.198	891.77
479.569	911.2
479.94	910.53
480.311	900.81
480.682	923.41
481.053	941.71
481.424	957.08
481.795	967.02
482.166	972.67
482.537	982.39
482.908	1012.9
483.279	1017.19
483.65	1001.82
484.021	1028.04
484.391	1044.76
484.762	1077.08
485.133	1088.38
485.503	1048.38
485.874	1081.6
486.244	1097.19
486.615	1127.02
486.985	1135.61
487.356	1158.88
487.726	1154.14
488.097	1172.21
488.467	1192.33
488.837	1226.68
489.207	1225.32
489.578	1254.92
489.948	1208.82
490.318	1267.58
490.688	1251.08
491.058	1277.52
491.428	1285.21
491.798	1295.83
492.168	1332.66
492.538	1321.14
492.908	1348.93
493.278	1349.39
493.648	1356.39
494.017	1338.76
494.387	1384.19
494.757	1390.74
495.126	1384.64
495.496	1404.07
495.866	1426.9
496.235	1414.24
496.605	1439.55
496.974	1452.89
497.344	1450.17
497.713	1472.77
498.082	1464.64
498.452	1481.36
498.821	1482.72
499.19	1500.12
499.559	1514.13
499.928	1529.49
500.298	1521.36
500.667	1535.14
501.036	1522.94
501.405	1541.7
501.774	1569.72
502.143	1570.4
502.512	1570.62
502.88	1599.1
503.249	1592.09
503.618	1600.9
503.987	1599.1
504.356	1610.17
504.724	1630.06
505.093	1623.28
505.462	1640.45
505.83	1618.76
506.199	1665.99
506.567	1676.83
506.936	1676.38
507.304	1674.35
507.672	1682.03
508.041	1679.32
508.409	1685.87
508.777	1693.33
509.145	1725.42
509.514	1720.68
509.882	1699.66
510.25	1752.76
510.618	1742.82
510.986	1771.75
511.354	1766.32
511.722	1759.09
512.09	1759.09
512.458	1779.43
512.826	1778.3
513.193	1792.31
513.561	1817.4
513.929	1818.75
514.297	1813.55
514.664	1821.69
515.032	1839.32
515.4	1862.82
515.767	1846.55
516.135	1828.02
516.502	1839.77
516.869	1873.89
517.237	1893.33
517.604	1871.63
517.972	1878.41
518.339	1921.57
518.706	1937.17
519.073	1929.71
519.44	1948.92
519.808	1961.57
520.175	1921.8
520.542	1968.35
520.909	2002.93
521.276	1957.73
521.643	1987.79
522.009	1989.82
522.376	2011.74
522.743	2016.49
523.11	2043.15
523.477	2033.44
523.843	2063.72
524.21	2069.14
524.577	2073.21
524.943	2049.93
525.31	2080.67
525.676	2123.6
526.043	2100.78
526.409	2108.24
526.776	2145.97
527.142	2160.21
527.508	2165.18
527.874	2162.25
528.241	2180.1
528.607	2193.88
528.973	2166.09
529.339	2152.98
529.705	2196.59
530.071	2174
530.437	2237.5
530.803	2217.61
531.169	2212.41
531.535	2245.41
531.901	2221.23
532.267	2226.2
532.632	2232.3
532.998	2237.95
533.364	2236.14
533.73	2216.71
534.095	2252.41
534.461	2239.08
534.826	2247.44
535.192	2274.56
535.557	2287.89
535.923	2282.02
536.288	2301
536.653	2288.12
537.019	2293.09
537.384	2263.03
537.749	2272.98
538.114	2284.5
538.479	2277.5
538.845	2279.98
539.21	2292.41
539.575	2315.24
539.94	2314.56
540.305	2314.78
540.67	2301
541.034	2320.43
541.399	2355.69
541.764	2317.5
542.129	2352.52
542.494	2336.48
542.858	2341.68
543.223	2324.95
543.587	2348.46
543.952	2324.28
544.316	2344.16
544.681	2342.35
545.045	2329.7
545.41	2347.55
545.774	2350.49
546.138	2356.59
546.503	2376.48
546.867	2347.78
547.231	2370.38
547.595	2374.44
547.959	2396.59
548.324	2364.5
548.688	2378.51
549.052	2371.05
549.416	2354.56
549.779	2356.36
550.143	2409.92
550.507	2414.22
550.871	2393.88
551.235	2374.22
551.599	2370.38
551.962	2411.05
552.326	2454.89
552.689	2445.4
553.053	2420.77
553.417	2413.76
553.78	2428
554.143	2423.26
554.507	2429.36
554.87	2453.31
555.234	2468
555.597	2460.32
555.96	2460.99
556.323	2482.24
556.686	2484.04
557.05	2454.89
557.413	2471.39
557.776	2443.37
558.139	2466.87
558.502	2514.78
558.865	2461.45
559.228	2511.61
559.59	2501.22
559.953	2511.61
560.316	2488.34
560.679	2521.11
561.041	2532.63
561.404	2533.76
561.767	2551.61
562.129	2516.81
562.492	2547.09
562.854	2564.04
563.217	2578.05
563.579	2609.47
563.941	2576.7
564.304	2610.82
564.666	2617.6
565.028	2613.08
565.39	2594.78
565.753	2575.79
566.115	2614.89
566.477	2618.73
566.839	2605.17
567.201	2660.76
567.563	2630.93
567.925	2674.32
568.287	2662.35
568.648	2632.29
569.01	2665.06
569.372	2648.79
569.734	2628.9
570.095	2650.82
570.457	2679.97
570.819	2654.66
571.18	2686.75
571.542	2705.96
571.903	2660.76
572.265	2717.94
572.626	2686.07
572.987	2681.33
573.349	2703.02
573.71	2675
574.071	2690.14
574.432	2709.12
574.794	2702.34
575.155	2730.14
575.516	2700.08
575.877	2685.62
576.238	2698.95
576.599	2689.69
576.96	2688.56
577.32	2685.17
577.681	2693.98
578.042	2729.69
578.403	2657.15
578.763	2695.11
579.124	2650.59
579.485	2697.15
579.845	2726.52
580.206	2691.95
580.566	2717.71
580.927	2676.81
581.287	2690.14
581.648	2679.52
582.008	2698.5
582.368	2677.71
582.728	2695.79
583.089	2678.16
583.449	2696.92
583.809	2676.58
584.169	2643.59
584.529	2636.36
584.889	2663.25
585.249	2660.54
585.609	2637.49
585.969	2652.18
586.329	2645.4
586.688	2643.81
587.048	2632.74
587.408	2613.53
587.768	2594.1
588.127	2615.34
588.487	2653.31
588.846	2671.61
589.206	2627.77
589.565	2616.24
589.925	2610.14
590.284	2642.01
590.643	2650.82
591.003	2617.37
591.362	2632.52
591.721	2622.57
592.08	2629.8
592.44	2599.75
592.799	2584.61
593.158	2631.61
593.517	2620.31
593.876	2629.8
594.235	2604.95
594.593	2604.27
594.952	2615.57
595.311	2622.57
595.67	2601.56
596.029	2618.5
596.387	2623.25
596.746	2620.31
597.104	2628.45
597.463	2576.25
597.822	2645.85
598.18	2606.3
598.538	2586.87
598.897	2619.18
599.255	2617.83
599.613	2657.37
599.972	2595
600.33	2632.97
600.688	2641.78
601.046	2630.03
601.404	2631.61
601.762	2659.86
602.12	2624.15
602.478	2666.41
602.836	2649.24
603.194	2641.78
603.552	2628.67
603.91	2654.66
604.268	2629.35
604.625	2633.42
604.983	2670.25
605.341	2647.66
605.698	2660.54
606.056	2650.37
606.413	2647.43
606.771	2673.87
607.128	2650.14
607.485	2627.32
607.843	2632.97
608.2	2677.71
608.557	2708.45
608.914	2674.55
609.272	2692.4
609.629	2692.4
609.986	2677.03
610.343	2697.82
610.7	2728.78
611.057	2728.11
611.414	2699.41
611.771	2694.66
612.127	2715.23
612.484	2687.66
612.841	2726.52
613.198	2719.74
613.554	2680.65
613.911	2696.47
614.267	2711.61
614.624	2780.31
614.98	2745.05
615.337	2737.37
615.693	2752.74
616.05	2720.42
616.406	2722
616.762	2723.59
617.118	2755.45
617.475	2754.55
617.831	2752.29
618.187	2752.51
618.543	2782.57
618.899	2756.58
619.255	2780.31
619.611	2792.96
619.967	2738.73
620.323	2773.3
620.678	2755
621.034	2716.81
621.39	2759.97
621.746	2759.52
622.101	2741.21
622.457	2747.77
622.812	2760.42
623.168	2754.77
623.523	2782.79
623.879	2754.55
624.234	2764.26
624.589	2766.75
624.945	2773.08
625.3	2756.58
625.655	2760.87
626.01	2733.76
626.365	2766.07
626.72	2775.79
627.075	2738.73
627.43	2741.21
627.785	2764.94
628.14	2740.99
628.495	2745.73
628.85	2706.64
629.205	2748.67
629.559	2717.71
629.914	2732.63
630.269	2748.44
630.623	2724.94
630.978	2725.39
631.332	2716.13
631.687	2752.06
632.041	2715
632.396	2746.41
632.75	2727.65
633.104	2719.97
633.459	2725.39
633.813	2681.55
634.167	2705.06
634.521	2711.38
634.875	2723.59
635.229	2710.93
635.583	2652.18
635.937	2723.13
636.291	2667.99
636.645	2691.05
636.999	2682.91
637.352	2708.67
637.706	2670.93
638.06	2711.61
638.413	2695.56
638.767	2720.87
639.121	2667.77
639.474	2675.23
639.828	2715.9
640.181	2696.92
640.534	2664.38
640.888	2674.77
641.241	2684.49
641.594	2696.02
641.947	2670.25
642.301	2709.12
642.654	2672.51
643.007	2767.43
643.36	2686.98
643.713	2714.1
644.066	2712.74
644.419	2718.61
644.771	2738.95
645.124	2672.06
645.477	2694.89
645.83	2703.93
646.182	2645.4
646.535	2683.14
646.888	2672.51
647.24	2675.68
647.593	2712.74
647.945	2709.35
648.298	2664.38
648.65	2692.4
649.002	2655.57
649.355	2675.23
649.707	2685.17
650.059	2717.03
650.411	2750.25
650.763	2761.1
651.115	2801.32
651.467	2804.49
651.819	2830.7
652.171	2829.8
652.523	2793.64
652.875	2818.95
653.227	2782.12
653.578	2865.73
653.93	2800.42
654.282	2828.44
654.633	2817.37
654.985	2801.78
655.337	2844.04
655.688	2862.57
656.039	2876.8
656.391	2903.92
656.742	2864.6
657.094	2903.47
657.445	2910.7
657.796	2938.27
658.147	2925.62
658.498	2942.79
658.849	2952.96
659.2	2969.46
659.551	2971.26
659.902	2969.46
660.253	3007.87
660.604	2996.57
660.955	3011.26
661.306	3033.41
661.656	3007.87
662.007	3032.96
662.358	3067.98
662.708	3062.11
663.059	3081.77
663.409	3123.12
663.76	3120.41
664.11	3103.01
664.461	3175.78
664.811	3124.03
665.161	3198.15
665.511	3166.51
665.862	3250.13
666.212	3228.88
666.562	3244.02
666.912	3243.35
667.262	3255.1
667.612	3265.72
667.962	3253.29
668.312	3312.5
668.662	3338.94
669.011	3351.59
669.361	3436.79
669.711	3420.97
670.06	3391.82
670.41	3413.74
670.76	3425.04
671.109	3436.79
671.459	3493.28
671.808	3511.36
672.157	3528.31
672.507	3523.11
672.856	3577.12
673.205	3579.84
673.554	3618.03
673.904	3579.16
674.253	3650.34
674.602	3636.56
674.951	3617.57
675.3	3612.6
675.649	3706.61
675.998	3763.56
676.346	3781.64
676.695	3823.9
677.044	3786.16
677.393	3821.18
677.741	3842.65
678.09	3870.68
678.438	3843.11
678.787	3921.52
679.135	3928.98
679.484	3932.59
679.832	3924.68
680.181	3963.33
680.529	4035.87
680.877	4002.65
681.225	4067.28
681.573	4084.68
681.922	4132.36
682.27	4112.93
682.618	4122.87
682.966	4135.3
683.314	4223.21
683.661	4176.2
684.009	4179.82
684.357	4198.12
684.705	4222.3
685.053	4281.29
685.4	4255.07
685.748	4314.96
686.095	4326.93
686.443	4365.35
686.79	4357.44
687.138	4426.14
687.485	4396.31
687.832	4422.98
688.18	4464.33
688.527	4436.76
688.874	4487.61
689.221	4497.1
689.568	4526.03
689.915	4585.23
690.262	4585.46
690.609	4610.32
690.956	4584.33
691.303	4602.41
691.65	4632.91
691.997	4668.62
692.344	4648.51
692.69	4701.61
693.037	4718.11
693.383	4727.15
693.73	4758.34
694.077	4767.83
694.423	4768.28
694.769	4843.53
695.116	4843.08
695.462	4820.25
695.808	4825.9
696.155	4896.86
696.501	4897.99
696.847	4884.66
697.193	4898.67
697.539	4947.71
697.885	4917.65
698.231	4919.91
698.577	4940.93
698.923	5010.76
699.269	5004.66
699.614	4994.94
699.96	5030.42
700.306	5084.2
700.651	5039.23
700.997	5133.92
701.342	5120.59
701.688	5130.3
702.033	5163.75
702.379	5163.97
702.724	5182.96
703.069	5220.24
703.415	5184.99
703.76	5200.36
704.105	5240.58
704.45	5260.47
704.795	5247.81
705.14	5257.31
705.485	5293.46
705.83	5319.22
706.175	5311.99
706.52	5338.66
706.865	5356.96
707.209	5329.39
707.554	5374.59
707.899	5376.62
708.243	5389.73
708.588	5421.37
708.932	5389.05
709.277	5417.53
709.621	5487.81
709.966	5436.74
710.31	5513.8
710.654	5460.69
710.998	5542.72
711.342	5535.04
711.687	5523.96
712.031	5537.07
712.375	5555.6
712.719	5566
713.063	5564.64
713.407	5591.76
713.75	5590.4
714.094	5650.52
714.438	5587.01
714.782	5662.04
715.125	5687.8
715.469	5683.28
715.812	5675.15
716.156	5666.11
716.499	5643.06
716.843	5697.29
717.186	5664.07
717.53	5741.59
717.873	5742.26
718.216	5743.17
718.559	5676.5
718.902	5697.97
719.246	5737.74
719.589	5734.35
719.932	5733.9
720.275	5742.26
720.617	5750.85
720.96	5757.63
721.303	5733.68
721.646	5857.06
721.989	5791.75
722.331	5844.63
722.674	5816.61
723.016	5815.48
723.359	5848.93
723.701	5862.49
724.044	5803.28
724.386	5778.42
724.729	5851.41
725.071	5824.07
725.413	5863.17
725.755	5865.2
726.097	5850.74
726.439	5819.1
726.782	5882.83
727.124	5869.72
727.465	5858.19
727.807	5820.91
728.149	5851.87
728.491	5853.67
728.833	5869.72
729.175	5872.88
729.516	5861.36
729.858	5857.29
730.199	5898.42
730.541	5869.04
730.882	5837.4
731.224	5898.42
731.565	5873.33
731.906	5902.71
732.248	5864.52
732.589	5890.51
732.93	5843.28
733.271	5873.11
733.612	5883.28
733.953	5888.48
734.294	5868.81
734.635	5868.81
734.976	5871.3
735.317	5878.76
735.658	5829.27
735.999	5877.85
736.339	5883.28
736.68	5887.12
737.021	5852.54
737.361	5860
737.702	5877.63
738.042	5873.33
738.383	5854.8
738.723	5903.62
739.063	5871.3
739.404	5869.49
739.744	5867.91
740.084	5871.53
740.424	5866.33
740.764	5876.5
741.104	5854.35
741.444	5805.99
741.784	5778.2
742.124	5865.2
742.464	5814.13
742.804	5820.45
743.143	5831.98
743.483	5814.8
743.823	5787.46
744.162	5765.31
744.502	5804.18
744.841	5839.21
745.181	5799.66
745.52	5734.58
745.86	5794.47
746.199	5777.29
746.538	5738.87
746.877	5762.38
747.216	5779.33
747.556	5767.8
747.895	5756.73
748.234	5716.95
748.573	5724.64
748.911	5734.81
749.25	5747.46
749.589	5691.19
749.928	5711.53
750.267	5699.55
750.605	5640.8
750.944	5638.99
751.283	5659.1
751.621	5691.42
751.96	5649.84
752.298	5624.98
752.636	5629.72
752.975	5610.29
753.313	5605.77
753.651	5618.2
753.989	5563.96
754.327	5598.99
754.666	5568.03
755.004	5577.75
755.342	5559.9
755.679	5551.53
756.017	5531.87
756.355	5555.83
756.693	5443.74
757.031	5493.23
757.368	5507.02
757.706	5512.67
758.044	5457.75
758.381	5539.11
758.719	5423.4
759.056	5383.86
759.394	5438.54
759.731	5412.56
760.068	5403.97
760.405	5406.68
760.743	5379.11
761.08	5373.23
761.417	5281.94
761.754	5348.6
762.091	5344.08
762.428	5297.3
762.765	5275.16
763.102	5309.96
763.438	5212.79
763.775	5248.27
764.112	5215.5
764.449	5247.14
764.785	5245.1
765.122	5148.16
765.458	5184.76
765.795	5176.4
766.131	5117.87
766.467	5120.59
766.804	5124.65
767.14	5143.41
767.476	5111.09
767.812	5055.05
768.148	5097.31
768.485	5084.2
768.821	5072.45
769.157	4983.64
769.492	4986.35
769.828	5037.2
770.164	4926.69
770.5	4991.32
770.836	5001.04
771.171	4886.92
771.507	4913.81
771.842	4892.12
772.178	4866.36
772.513	4866.81
772.849	4839.69
773.184	4865
773.519	4800.82
773.855	4802.63
774.19	4798.79
774.525	4822.29
774.86	4789.52
775.195	4812.57
775.53	4726.7
775.865	4780.26
776.2	4728.28
776.535	4710.65
776.87	4626.59
777.205	4690.09
777.539	4600.15
777.874	4657.55
778.209	4622.75
778.543	4595.63
778.878	4567.83
779.212	4596.53
779.547	4567.38
779.881	4573.03
780.215	4562.63
780.55	4529.19
780.884	4490.77
781.218	4486.7
781.552	4481.96
781.886	4504.56
782.22	4436.54
782.554	4414.16
782.888	4412.81
783.222	4405.12
783.556	4398.8
783.889	4358.12
784.223	4296.88
784.557	4307.95
784.89	4356.31
785.224	4317.44
785.557	4278.8
785.891	4297.78
786.224	4271.34
786.558	4290.1
786.891	4199.48
787.224	4226.15
787.557	4205.58
787.891	4213.94
788.224	4182.98
788.557	4198.8
788.89	4156.09
789.223	4132.59
789.556	4118.8
789.888	4145.47
790.221	4140.5
790.554	4111.8
790.887	4084.45
791.219	4050.11
791.552	4083.78
791.884	4037.45
792.217	4010.78
792.549	4056.21
792.882	4039.03
793.214	3997
793.546	3989.99
793.879	3989.54
794.211	3945.48
794.543	3956.1
794.875	3947.06
795.207	3959.71
795.539	3935.08
795.871	3929.88
796.203	3885.59
796.535	3939.6
796.867	3886.95
797.198	3857.79
797.53	3846.04
797.862	3858.7
798.193	3867.96
798.525	3814.63
798.856	3834.52
799.188	3780.28
799.519	3776.21
799.85	3721.98
800.182	3752.03
800.513	3798.59
800.844	3761.98
801.175	3747.97
801.506	3774.41
801.837	3694.41
802.168	3657.35
802.499	3667.06
802.83	3683.79
803.161	3634.3
803.491	3680.4
803.822	3616.67
804.153	3621.19
804.483	3621.87
804.814	3613.51
805.145	3602.43
805.475	3620.06
805.805	3625.48
806.136	3582.1
806.466	3576.45
806.796	3571.47
807.126	3528.09
807.457	3562.21
807.787	3531.47
808.117	3544.58
808.447	3544.81
808.777	3534.19
809.107	3511.59
809.436	3501.65
809.766	3514.3
810.096	3472.27
810.426	3463.45
810.755	3459.16
811.085	3491.7
811.414	3427.3
811.744	3427.97
812.073	3454.41
812.403	3439.27
812.732	3396.56
813.061	3371.48
813.39	3416.45
813.719	3404.47
814.049	3425.26
814.378	3394.53
814.707	3384.59
815.036	3347.52
815.365	3332.16
815.693	3361.54
816.022	3305.72
816.351	3314.76
816.68	3315.89
817.008	3303.91
817.337	3311.14
817.665	3266.17
817.994	3307.53
818.322	3286.28
818.651	3246.51
818.979	3227.08
819.307	3260.3
819.636	3247.64
819.964	3214.2
820.292	3263.91
820.62	3269.79
820.948	3240.86
821.276	3274.98
821.604	3199.28
821.932	3272.72
822.259	3235.21
822.587	3225.27
822.915	3212.61
823.243	3200.64
823.57	3197.47
823.898	3217.58
824.225	3257.36
824.553	3249.22
824.88	3218.94
825.207	3223.46
825.535	3198.15
825.862	3213.29
826.189	3183.24
826.516	3204.25
826.843	3235.44
827.17	3227.75
827.497	3247.41
827.824	3235.66
828.151	3246.51
828.478	3229.11
828.805	3267.75
829.131	3213.29
829.458	3227.08
829.785	3211.94
830.111	3243.8
830.438	3233.63
830.764	3227.75
831.09	3219.39
831.417	3222.78
831.743	3205.61
832.069	3216.23
832.395	3158.83
832.722	3153.41
833.048	3190.24
833.374	3241.54
833.7	3170.35
834.026	3186.85
834.351	3183.91
834.677	3231.37
835.003	3203.8
835.329	3196.57
835.654	3168.55
835.98	3170.13
836.306	3218.71
836.631	3198.38
836.956	3198.83
837.282	3174.87
837.607	3150.02
837.932	3179.17
838.258	3174.2
838.583	3119.96
838.908	3171.03
839.233	3137.59
839.558	3141.88
839.883	3128.77
840.208	3122.9
840.533	3139.39
840.858	3142.78
841.182	3140.52
841.507	3114.76
841.832	3103.69
842.156	3095.33
842.481	3073.41
842.805	3039.06
843.13	3025.27
843.454	3075.67
843.778	3031.38
844.103	3032.05
844.427	3053.52
844.751	3038.61
845.075	3058.27
845.399	3028.89
845.723	3016.69
846.047	3040.41
846.371	2990.7
846.695	3016.23
847.019	2986.86
847.343	2934.43
847.666	2953.86
847.99	2936.01
848.313	2936.91
848.637	2923.13
848.96	2954.77
849.284	2889.91
849.607	2939.4
849.931	2893.53
850.254	2840.65
850.577	2829.8
850.9	2818.5
851.223	2848.33
851.546	2807.65
851.869	2818.5
852.192	2819.86
852.515	2794.32
852.838	2808.33
853.161	2801.1
853.483	2779.86
853.806	2760.2
854.129	2741.44
854.451	2736.02
854.774	2736.24
855.096	2748.67
855.419	2705.73
855.741	2717.26
856.063	2696.24
856.385	2702.8
856.708	2695.56
857.03	2688.11
857.352	2654.44
857.674	2676.81
857.996	2624.61
858.318	2668.9
858.64	2671.16
858.961	2661.22
859.283	2636.36
859.605	2623.02
859.926	2649.69
860.248	2631.61
860.57	2644.94
860.891	2628.9
861.212	2612.4
861.534	2606.08
861.855	2595.23
862.176	2617.83
862.498	2601.56
862.819	2591.61
863.14	2565.85
863.461	2599.97
863.782	2567.66
864.103	2590.26
864.424	2554.1
864.745	2556.13
865.065	2543.93
865.386	2525.17
865.707	2543.93
866.027	2531.5
866.348	2552.29
866.668	2545.29
866.989	2517.72
867.309	2500.99
867.63	2552.97
867.95	2478.17
868.27	2525.4
868.59	2498.96
868.91	2520.88
869.23	2495.34
869.55	2492.63
869.87	2526.98
870.19	2490.37
870.51	2478.85
870.83	2461.45
871.15	2485.4
871.469	2481.56
871.789	2486.08
872.109	2475.23
872.428	2465.06
872.748	2451.05
873.067	2440.43
873.386	2441.11
873.706	2451.96
874.025	2417.83
874.344	2426.87
874.663	2441.11
874.982	2413.31
875.301	2421.22
875.62	2441.79
875.939	2423.71
876.258	2414.67
876.577	2422.13
876.896	2405.18
877.214	2403.59
877.533	2402.92
877.852	2374.22
878.17	2412.63
878.489	2411.28
878.807	2402.01
879.125	2411.5
879.444	2401.56
879.762	2350.49
880.08	2384.61
880.398	2364.73
880.716	2389.13
881.034	2363.37
881.352	2379.87
881.67	2358.85
881.988	2384.61
882.306	2375.8
882.624	2355.01
882.941	2343.94
883.259	2342.81
883.577	2345.97
883.894	2333.54
884.212	2312.98
884.529	2312.07
884.846	2333.31
885.164	2308.68
885.481	2310.72
885.798	2291.73
886.115	2298.51
886.432	2285.41
886.75	2275.24
887.067	2305.29
887.383	2268.68
887.7	2274.56
888.017	2263.94
888.334	2256.93
888.651	2235.46
888.967	2258.97
889.284	2250.38
889.6	2251.96
889.917	2233.2
890.233	2232.75
890.55	2202.02
890.866	2253.09
891.182	2207.89
891.498	2209.7
891.815	2222.58
892.131	2192.75
892.447	2200.66
892.763	2169.02
893.079	2172.87
893.395	2174
893.71	2164.28
894.026	2173.09
894.342	2190.72
894.657	2159.31
894.973	2115.02
895.289	2154.56
895.604	2156.6
895.92	2160.44
896.235	2078.86
896.55	2138.52
896.865	2096.26
897.181	2140.55
897.496	2133.55
897.811	2103.49
898.126	2082.25
898.441	2137.39
898.756	2113.21
899.071	2067.11
899.386	2057.84
899.7	2079.76
900.015	2063.72
900.33	2018.97
900.644	2057.62
900.959	2017.39
901.273	2051.51
901.588	1994.11
901.902	1999.31
902.216	2001.8
902.531	2016.71
902.845	2006.09
903.159	1982.59
903.473	1972.42
903.787	1975.13
904.101	1968.13
904.415	2018.52
904.729	1955.25
905.042	1980.1
905.356	1955.02
905.67	1950.05
905.984	1959.99
906.297	1954.79
906.611	1929.94
906.924	1932.42
907.237	1928.13
907.551	1912.76
907.864	1902.59
908.177	1915.47
908.491	1906.66
908.804	1875.25
909.117	1903.27
909.43	1850.39
909.743	1885.19
910.056	1850.16
910.368	1851.29
910.681	1823.5
910.994	1847.68
911.307	1835.47
911.619	1806.55
911.932	1809.49
912.244	1828.02
912.557	1799.54
912.869	1769.26
913.181	1767
913.494	1774.23
913.806	1749.6
914.118	1771.75
914.43	1798.87
914.742	1778.07
915.054	1790.73
915.366	1739.88
915.678	1739.43
915.99	1739.21
916.302	1712.77
916.613	1735.14
916.925	1718.19
917.236	1727.45
917.548	1694.24
917.859	1714.57
918.171	1668.25
918.482	1666.67
918.794	1678.42
919.105	1686.55
919.416	1674.8
919.727	1653.33
920.038	1657.4
920.349	1637.51
920.66	1637.74
920.971	1640.9
921.282	1657.17
921.593	1598.64
921.903	1603.62
922.214	1624.18
922.525	1627.8
922.835	1604.97
923.146	1611.75
923.456	1596.16
923.767	1606.1
924.077	1610.62
924.387	1594.8
924.697	1574.69
925.008	1565.65
925.318	1559.32
925.628	1543.5
925.938	1566.33
926.248	1539.89
926.558	1524.3
926.867	1534.69
927.177	1531.08
927.487	1498.99
927.796	1531.53
928.106	1537.86
928.416	1514.35
928.725	1513
929.034	1504.64
929.344	1494.47
929.653	1530.85
929.962	1494.47
930.271	1476.61
930.581	1494.01
930.89	1465.09
931.199	1459.89
931.508	1475.03
931.817	1480.46
932.125	1457.86
932.434	1467.57
932.743	1459.67
933.051	1436.84
933.36	1457.41
933.669	1422.83
933.977	1390.06
934.286	1433.68
934.594	1421.47
934.902	1396.16
935.21	1381.7
935.519	1419.67
935.827	1386.9
936.135	1393
936.443	1403.17
936.751	1372.89
937.059	1371.53
937.367	1359.33
937.674	1363.17
937.982	1348.26
938.29	1364.53
938.597	1357.75
938.905	1348.48
939.213	1331.31
939.52	1336.5
939.827	1333.57
940.135	1318.65
940.442	1322.27
940.749	1316.84
941.056	1331.31
941.363	1315.26
941.67	1296.05
941.977	1321.14
942.284	1281.36
942.591	1284.75
942.898	1267.35
943.205	1284.3
943.511	1280.46
943.818	1278.43
944.125	1284.08
944.431	1259.9
944.738	1291.99
945.044	1264.87
945.35	1275.94
945.657	1248.15
945.963	1250.86
946.269	1235.72
946.575	1260.12
946.881	1250.18
947.187	1186.23
947.493	1218.99
947.799	1225.32
948.105	1224.19
948.41	1232.1
948.716	1226.9
949.022	1206.79
949.327	1219.45
949.633	1206.34
949.938	1207.02
950.244	1198.88
950.549	1183.97
950.854	1185.77
951.16	1182.61
951.465	1171.99
951.77	1174.02
952.075	1159.11
952.38	1141.26
952.685	1164.76
952.99	1140.8
953.294	1147.36
953.599	1145.55
953.904	1132.44
954.209	1146.68
954.513	1137.64
954.818	1134.48
955.122	1154.36
955.426	1131.99
955.731	1132.89
956.035	1094.7
956.339	1126.57
956.643	1133.35
956.948	1112.56
957.252	1122.5
957.556	1110.52
957.86	1063.52
958.163	1089.96
958.467	1064.42
958.771	1074.82
959.075	1111.43
959.378	1090.41
959.682	1093.12
959.985	1047.02
960.289	1065.1
960.592	1066.91
960.896	1065.1
961.199	1044.31
961.502	1072.33
961.805	1062.16
962.108	1041.14
962.411	1034.37
962.714	1052.67
963.017	1020.58
963.32	1038.21
963.623	1035.72
963.926	1032.78
964.228	1023.07
964.531	1028.49
964.833	1017.42
965.136	1010.64
965.438	1011.99
965.741	1024.87
966.043	1016.74
966.345	1012.67
966.648	1004.54
966.95	991.2
967.252	975.84
967.554	966.8
967.856	999.79
968.158	979.9
968.46	957.98
968.761	962.73
969.063	981.71
969.365	962.73
969.666	953.01
969.968	940.81
970.269	959.79
970.571	992.56
970.872	926.35
971.174	913.92
971.475	964.99
971.776	925.44
972.077	930.87
972.378	953.01
972.679	916.4
972.98	934.03
973.281	943.75
973.582	916.85
973.883	945.33
974.183	913.24
974.484	946.01
974.785	912.56
975.085	912.79
975.386	909.4
975.686	932
975.986	906.46
976.287	908.27
976.587	898.32
976.887	891.54
977.187	896.06
977.487	906.23
977.787	863.07
978.087	890.41
978.387	884.54
978.687	889.74
978.987	878.89
979.286	851.09
979.586	874.6
979.885	858.55
980.185	875.95
980.484	850.64
980.784	884.76
981.083	867.59
981.382	861.71
981.682	838.44
981.981	853.35
982.28	862.84
982.579	834.82
982.878	842.28
983.177	837.76
983.475	834.82
983.774	836.18
984.073	828.72
984.372	814.03
984.67	822.85
984.969	807.25
985.267	841.15
985.566	809.29
985.864	804.09
986.162	787.59
986.461	810.42
986.759	792.34
987.057	784.65
987.355	813.58
987.653	807.03
987.951	803.41
988.249	797.99
988.547	790.3
988.844	788.5
989.142	793.69
989.44	778.55
989.737	764.99
990.035	783.3
990.332	783.07
990.63	769.29
990.927	784.2
991.224	764.99
991.521	777.2
991.819	770.64
992.116	767.93
992.413	752.11
992.71	747.37
993.006	741.49
993.303	750.76
993.6	718.44
993.897	735.84
994.193	736.52
994.49	761.38
994.787	722.96
995.083	760.25
995.379	724.54
995.676	717.09
995.972	743.53
996.268	723.19
996.565	713.24
996.861	706.46
997.157	731.55
997.453	716.41
997.749	719.12
998.044	711.21
998.34	702.85
998.636	692.68
998.932	699.46
999.227	698.1
999.523	675.05
999.818	668.5
1000.114	681.15
1000.409	697.65
1000.704	688.61
1001	685.22
1001.295	681.83
1001.59	683.19
1001.885	713.47
1002.18	681.61
1002.475	693.81
1002.77	684.32
1003.065	680.02
1003.359	686.13
1003.654	666.47
1003.949	674.83
1004.243	666.24
1004.538	656.75
1004.832	635.51
1005.127	653.36
1005.421	647.71
1005.715	651.55
1006.009	657.65
1006.304	666.47
1006.598	637.54
1006.892	653.58
1007.186	647.48
1007.48	650.42
1007.773	663.08
1008.067	634.6
1008.361	624.43
1008.655	641.16
1008.948	620.37
1009.242	638.9
1009.535	625.79
1009.829	620.14
1010.122	631.21
1010.415	636.18
1010.708	616.52
1011.001	599.57
1011.295	603.42
1011.588	600.03
1011.881	603.42
1012.173	594.6
1012.466	595.96
1012.759	595.51
1013.052	614.26
1013.344	583.98
1013.637	601.16
1013.93	606.81
1014.222	588.95
1014.514	607.26
1014.807	602.29
1015.099	583.3
1015.391	584.66
1015.683	579.91
1015.976	564.1
1016.268	569.29
1016.56	583.53
1016.851	602.51
1017.143	560.48
1017.435	567.26
1017.727	561.61
1018.018	548.5
1018.31	575.62
1018.602	557.09
1018.893	561.38
1019.185	539.01
1019.476	550.76
1019.767	555.73
1020.058	536.3
1020.35	546.24
1020.641	524.32
1020.932	514.15
1021.223	542.85
1021.514	543.53
1021.804	538.79
1022.095	525.9
1022.386	525.45
1022.677	544.21
1022.967	522.51
1023.258	521.61
1023.548	530.42
1023.839	534.72
1024.129	557.54
1024.419	541.72
1024.709	498.79
1025	512.57
1025.29	527.71
1025.58	518.45
1025.87	511.22
1026.16	513.7
1026.449	515.74
1026.739	496.3
1027.029	501.05
1027.319	489.07
1027.608	494.72
1027.898	515.06
1028.187	497.43
1028.477	522.29
1028.766	480.03
1029.055	491.33
1029.344	489.3
1029.634	490.65
1029.923	500.59
1030.212	499.92
1030.501	486.58
1030.79	495.85
1031.078	481.16
1031.367	486.58
1031.656	480.93
1031.945	507.37
1032.233	486.36
1032.522	490.42
1032.81	474.15
1033.099	468.73
1033.387	451.1
1033.675	483.65
1033.963	482.97
1034.251	459.69
1034.54	466.24
1034.828	466.47
1035.116	465.34
1035.403	471.67
1035.691	455.62
1035.979	453.59
1036.267	455.85
1036.554	454.49
1036.842	470.54
1037.129	449.52
1037.417	452.23
1037.704	450.65
1037.992	447.49
1038.279	452.91
1038.566	460.82
1038.853	460.82
1039.14	460.82
