Data from carpet_green_FLMS001491_00091.txt Node
Date: Wed Feb 08 10:36:07 GMT 2017
User: dcchb
Spectrometer: FLMS00149
Trigger mode: 0
Integration Time (sec): 2.000000E-2
Scans to average: 10
Electric dark correction enabled: true
Nonlinearity correction enabled: false
Boxcar width: 0
XAxis mode: Wavelengths
Number of Pixels in Spectrum: 2048
>>>>>Begin Spectral Data<<<<<
341.393	-3.14
341.776	-3.14
342.16	-3.14
342.543	-37.03
342.927	-40.42
343.31	-46.52
343.693	-70.03
344.077	-43.13
344.46	-56.24
344.843	-42.46
345.226	-33.19
345.61	-40.87
345.993	-32.97
346.376	-6.3
346.759	-1.78
347.142	20.82
347.525	19.46
347.908	45.9
348.291	87.26
348.674	102.17
349.057	97.88
349.44	121.61
349.823	134.04
350.206	169.74
350.588	190.08
350.971	169.06
351.354	190.76
351.737	194.15
352.119	213.81
352.502	234.6
352.884	247.03
353.267	245.45
353.65	274.37
354.032	264.43
354.414	278.89
354.797	290.87
355.179	293.13
355.562	291.55
355.944	298.33
356.326	315.73
356.709	321.83
357.091	306.91
357.473	320.92
357.855	296.97
358.238	338.32
358.62	336.29
359.002	306.69
359.384	319.34
359.766	314.82
360.148	320.47
360.53	294.71
360.912	307.36
361.294	303.3
361.676	301.49
362.057	306.01
362.439	320.25
362.821	285.22
363.203	296.29
363.584	293.58
363.966	280.7
364.348	294.94
364.729	306.46
365.111	302.39
365.493	298.33
365.874	308.04
366.256	268.95
366.637	267.82
367.019	292.45
367.4	279.12
367.781	298.78
368.163	278.21
368.544	270.53
368.925	285.9
369.306	285.9
369.688	286.57
370.069	296.97
370.45	260.81
370.831	271.89
371.212	263.98
371.593	280.47
371.974	272.11
372.355	275.28
372.736	296.07
373.117	290.42
373.498	274.82
373.879	293.58
374.26	271.89
374.641	280.25
375.021	286.35
375.402	267.82
375.783	280.02
376.163	275.05
376.544	284.99
376.925	271.66
377.305	287.7
377.686	280.25
378.066	301.72
378.447	265.56
378.827	282.73
379.208	290.42
379.588	289.74
379.968	292.68
380.349	296.29
380.729	292.9
381.109	291.77
381.489	296.29
381.87	276.18
382.25	305.78
382.63	273.92
383.01	301.94
383.39	286.12
383.77	296.52
384.15	305.78
384.53	290.64
384.91	307.82
385.29	309.85
385.67	316.4
386.049	309.4
386.429	302.17
386.809	287.48
387.189	300.81
387.568	277.99
387.948	300.36
388.328	309.17
388.707	310.98
389.087	296.07
389.466	317.76
389.846	319.12
390.225	294.71
390.605	285.67
390.984	289.51
391.363	300.13
391.743	300.36
392.122	291.09
392.501	301.72
392.881	302.85
393.26	281.6
393.639	318.66
394.018	296.07
394.397	282.28
394.776	302.85
395.155	304.65
395.534	299.23
395.913	327.93
396.292	318.44
396.671	315.27
397.05	309.62
397.429	323.86
397.808	303.3
398.186	310.53
398.565	329.96
398.944	299.23
399.323	314.82
399.701	306.91
400.08	329.74
400.458	289.96
400.837	293.58
401.215	309.4
401.594	311.88
401.972	331.09
402.351	319.57
402.729	322.96
403.107	304.2
403.486	318.21
403.864	329.74
404.242	336.52
404.62	317.53
404.999	313.92
405.377	322.05
405.755	312.79
406.133	316.18
406.511	324.54
406.889	340.58
407.267	328.61
407.645	329.29
408.023	327.7
408.401	358.21
408.779	328.16
409.156	316.63
409.534	320.92
409.912	341.04
410.29	330.87
410.667	344.2
411.045	342.84
411.422	325.22
411.8	341.26
412.178	325.9
412.555	343.3
412.933	342.84
413.31	331.32
413.687	333.58
414.065	354.14
414.442	339
414.819	346.91
415.197	330.19
415.574	357.76
415.951	354.14
416.328	348.72
416.705	353.69
417.082	335.16
417.46	343.75
417.837	346.01
418.214	331.54
418.591	359.57
418.967	364.09
419.344	343.52
419.721	368.61
420.098	346.01
420.475	369.06
420.852	368.83
421.228	335.61
421.605	357.98
421.982	364.09
422.358	369.74
422.735	339
423.111	354.14
423.488	366.57
423.864	354.14
424.241	357.53
424.617	376.52
424.994	358.44
425.37	371.54
425.746	356.63
426.123	348.49
426.499	393.69
426.875	375.16
427.251	370.19
427.627	377.19
428.003	381.49
428.379	380.13
428.756	357.76
429.132	365.44
429.507	364.76
429.883	407.02
430.259	397.98
430.635	393.01
431.011	393.69
431.387	392.79
431.763	391.43
432.138	405.22
432.514	385.33
432.89	392.33
433.265	406.57
433.641	386.01
434.016	389.62
434.392	408.61
434.767	387.81
435.143	406.8
435.518	418.55
435.894	404.31
436.269	413.58
436.644	419.9
437.02	405.89
437.395	423.75
437.77	425.78
438.145	415.38
438.52	422.62
438.895	434.14
439.271	435.95
439.646	392.56
440.021	444.08
440.395	411.09
440.77	426.01
441.145	417.19
441.52	449.28
441.895	424.2
442.27	435.27
442.645	431.43
443.019	441.6
443.394	453.8
443.769	443.86
444.143	439.11
444.518	457.42
444.892	433.46
445.267	453.58
445.641	477.98
446.016	460.58
446.39	464.65
446.764	458.55
447.139	442.73
447.513	468.49
447.887	463.52
448.262	455.16
448.636	466
449.01	473.24
449.384	452.67
449.758	477.08
450.132	470.98
450.506	448.83
450.88	488.83
451.254	482.5
451.628	466.46
452.002	472.56
452.376	490.18
452.75	476.85
453.123	487.25
453.497	493.12
453.871	482.05
454.244	503.07
454.618	501.48
454.992	500.35
455.365	522.73
455.739	496.06
456.112	505.33
456.486	507.81
456.859	518.21
457.232	533.12
457.606	523.18
457.979	525.89
458.352	536.96
458.725	546.68
459.099	533.35
459.472	538.55
459.845	546.91
460.218	533.8
460.591	554.59
460.964	541.03
461.337	554.82
461.71	567.92
462.083	557.53
462.456	547.81
462.829	582.84
463.201	546.23
463.574	598.2
463.947	593.46
464.32	593.91
464.692	588.49
465.065	614.25
465.438	598.2
465.81	613.8
466.183	601.14
466.555	605.44
466.928	624.19
467.3	652.44
467.672	651.99
468.045	661.03
468.417	662.61
468.789	662.38
469.161	650.86
469.534	670.52
469.906	634.81
470.278	661.93
470.65	669.16
471.022	663.97
471.394	674.81
471.766	657.41
472.138	701.25
472.51	684.08
472.882	701.7
473.253	730.4
473.625	729.27
473.997	723.17
474.369	757.52
474.74	758.88
475.112	755.71
475.484	781.25
475.855	786.45
476.227	782.15
476.598	831.87
476.97	800.91
477.341	783.51
477.713	818.31
478.084	804.53
478.455	829.61
478.827	848.82
479.198	872.1
479.569	880.68
479.94	877.75
480.311	880.23
480.682	926.78
481.053	916.61
481.424	910.51
481.795	942.83
482.166	944.41
482.537	941.02
482.908	966.56
483.279	999.78
483.65	995.48
484.021	1006.1
484.391	1021.24
484.762	1007.01
485.133	1022.83
485.503	1032.77
485.874	1065.31
486.244	1063.96
486.615	1086.1
486.985	1085.42
487.356	1112.09
487.726	1118.64
488.097	1130.85
488.467	1131.75
488.837	1158.87
489.207	1153.44
489.578	1208.58
489.948	1193.9
490.318	1180.79
490.688	1207.45
491.058	1200.67
491.428	1272.54
491.798	1242.26
492.168	1278.86
492.538	1259.43
492.908	1256.27
493.278	1289.03
493.648	1305.98
494.017	1317.06
494.387	1335.13
494.757	1322.93
495.126	1323.61
495.496	1357.96
495.866	1364.51
496.235	1367.9
496.605	1379.65
496.974	1411.06
497.344	1395.25
497.713	1411.52
498.082	1423.04
498.452	1430.73
498.821	1429.82
499.19	1447.22
499.559	1464.85
499.928	1475.7
500.298	1478.41
500.667	1480.67
501.036	1497.84
501.405	1499.88
501.774	1478.41
502.143	1503.49
502.512	1501.91
502.88	1539.65
503.249	1476.83
503.618	1522.93
503.987	1540.78
504.356	1546.65
504.724	1553.43
505.093	1550.27
505.462	1573.55
505.83	1589.36
506.199	1570.38
506.567	1592.53
506.936	1594.79
507.304	1627.33
507.672	1625.07
508.041	1636.37
508.409	1607.67
508.777	1647.89
509.145	1659.65
509.514	1642.24
509.882	1659.19
510.25	1649.02
510.618	1644.05
510.986	1680.21
511.354	1684.5
511.722	1680.21
512.09	1722.24
512.458	1737.61
512.826	1738.97
513.193	1726.54
513.561	1742.13
513.929	1767.89
514.297	1784.16
514.664	1773.09
515.032	1779.42
515.4	1780.32
515.767	1773.99
516.135	1797.95
516.502	1789.13
516.869	1811.28
517.237	1816.25
517.604	1791.85
517.972	1797.04
518.339	1841.11
518.706	1820.55
519.073	1857.38
519.44	1873.2
519.808	1871.17
520.175	1854.44
520.542	1870.49
520.909	1889.24
521.276	1903.48
521.643	1896.02
522.009	1918.62
522.376	1935.12
522.743	1926.98
523.11	1935.12
523.477	1943.25
523.843	1980.54
524.21	1961.11
524.577	1992.97
524.943	1985.29
525.31	2010.6
525.676	2012.63
526.043	2033.65
526.409	2041.56
526.776	2026.42
527.142	2030.48
527.508	2054.66
527.874	2091.72
528.241	2061.22
528.607	2075.91
528.973	2063.25
529.339	2115
529.705	2086.53
530.071	2073.19
530.437	2071.84
530.803	2115.45
531.169	2115.45
531.535	2101.22
531.901	2108.22
532.267	2115.45
532.632	2159.07
532.998	2150.71
533.364	2150.71
533.73	2129.92
534.095	2161.78
534.461	2162.01
534.826	2180.54
535.192	2175.79
535.557	2147.77
535.923	2208.56
536.288	2175.34
536.653	2196.58
537.019	2173.53
537.384	2194.32
537.749	2186.41
538.114	2193.42
538.479	2177.82
538.845	2191.61
539.21	2208.56
539.575	2202.46
539.94	2203.81
540.305	2225.51
540.67	2199.29
541.034	2216.92
541.399	2215.56
541.764	2212.63
542.129	2246.52
542.494	2195.22
542.858	2217.37
543.223	2185.73
543.587	2236.13
543.952	2248.56
544.316	2246.3
544.681	2230.03
545.045	2242.91
545.41	2268.9
545.774	2260.99
546.138	2218.73
546.503	2262.79
546.867	2263.25
547.231	2241.55
547.595	2271.38
547.959	2270.25
548.324	2284.94
548.688	2256.69
549.052	2264.38
549.416	2250.82
549.779	2267.31
550.143	2274.54
550.507	2267.54
550.871	2294.88
551.235	2263.7
551.599	2305.28
551.962	2281.55
552.326	2261.21
552.689	2305.28
553.053	2303.92
553.417	2301.44
553.78	2337.37
554.143	2303.47
554.507	2301.21
554.87	2299.18
555.234	2334.66
555.597	2324.03
555.96	2337.82
556.323	2340.31
556.686	2303.02
557.05	2332.62
557.413	2335.56
557.776	2313.87
558.139	2351.38
558.502	2371.49
558.865	2344.83
559.228	2342.11
559.59	2372.62
559.953	2375.33
560.316	2384.37
560.679	2370.59
561.041	2382.56
561.404	2390.47
561.767	2421.66
562.129	2398.61
562.492	2419.17
562.854	2421.43
563.217	2447.42
563.579	2402.9
563.941	2437.25
564.304	2454.43
564.666	2463.47
565.028	2449.91
565.39	2458.04
565.753	2465.95
566.115	2481.54
566.477	2476.57
566.839	2456.23
567.201	2456.23
567.563	2462.11
567.925	2505.5
568.287	2466.63
568.648	2496.01
569.01	2475.9
569.372	2509.57
569.734	2518.83
570.095	2493.75
570.457	2497.36
570.819	2511.83
571.18	2494.43
571.542	2531.04
571.903	2548.66
572.265	2563.8
572.626	2533.29
572.987	2533.29
573.349	2517.02
573.71	2526.74
574.071	2545.5
574.432	2536.91
574.794	2530.36
575.155	2543.24
575.516	2578.49
575.877	2573.97
576.238	2533.75
576.599	2552.28
576.96	2523.13
577.32	2556.8
577.681	2512.73
578.042	2547.08
578.403	2568.55
578.763	2543.92
579.124	2534.88
579.485	2555.67
579.845	2555.22
580.206	2541.2
580.566	2535.1
580.927	2526.52
581.287	2527.19
581.648	2514.99
582.008	2561.77
582.368	2502.11
582.728	2531.94
583.089	2517.48
583.449	2506.63
583.809	2480.64
584.169	2489.45
584.529	2505.73
584.889	2503.69
585.249	2535.1
585.609	2500.08
585.969	2501.21
586.329	2492.17
586.688	2502.11
587.048	2497.59
587.408	2465.27
587.768	2470.92
588.127	2466.4
588.487	2459.4
588.846	2491.49
589.206	2438.83
589.565	2460.3
589.925	2462.79
590.284	2455.78
590.643	2476.57
591.003	2479.96
591.362	2489.45
591.721	2452.17
592.08	2467.31
592.44	2459.62
592.799	2492.17
593.158	2458.27
593.517	2453.52
593.876	2457.59
594.235	2475.44
594.593	2440.87
594.952	2455.56
595.311	2413.75
595.67	2448.33
596.029	2456.01
596.387	2482.22
596.746	2482.45
597.104	2462.34
597.463	2454.2
597.822	2460.3
598.18	2483.8
598.538	2493.97
598.897	2468.66
599.255	2477.03
599.613	2474.99
599.972	2457.36
600.33	2455.1
600.688	2476.12
601.046	2470.47
601.404	2454.43
601.762	2467.08
602.12	2516.12
602.478	2489.45
602.836	2497.82
603.194	2501.43
603.552	2486.06
603.91	2499.4
604.268	2478.83
604.625	2486.52
604.983	2470.02
605.341	2489.91
605.698	2489.91
606.056	2503.69
606.413	2527.42
606.771	2505.5
607.128	2524.71
607.485	2507.53
607.843	2532.39
608.2	2555.67
608.557	2568.32
608.914	2550.92
609.272	2540.3
609.629	2539.17
609.986	2539.17
610.343	2524.48
610.7	2603.8
611.057	2529
611.414	2544.37
611.771	2515.89
612.127	2561.77
612.484	2554.99
612.841	2606.51
613.198	2550.7
613.554	2551.6
613.911	2562.45
614.267	2564.93
614.624	2566.06
614.98	2579.17
615.337	2580.75
615.693	2607.19
616.05	2572.84
616.406	2591.82
616.762	2617.36
617.118	2609.68
617.475	2616.23
617.831	2563.12
618.187	2611.03
618.543	2568.55
618.899	2591.37
619.255	2606.97
619.611	2579.17
619.967	2608.55
620.323	2596.34
620.678	2593.63
621.034	2585.5
621.39	2572.84
621.746	2572.39
622.101	2631.6
622.457	2601.54
622.812	2608.77
623.168	2611.49
623.523	2604.25
623.879	2618.26
624.234	2608.55
624.589	2599.96
624.945	2622.11
625.3	2633.63
625.655	2584.37
626.01	2614.2
626.365	2629.79
626.72	2614.87
627.075	2588.89
627.43	2604.03
627.785	2551.37
628.14	2567.42
628.495	2587.98
628.85	2593.86
629.205	2589.34
629.559	2580.3
629.914	2571.26
630.269	2589.56
630.623	2602.22
630.978	2594.08
631.332	2575.33
631.687	2558.15
632.041	2553.86
632.396	2588.66
632.75	2613.52
633.104	2576.01
633.459	2574.2
633.813	2585.95
634.167	2548.89
634.521	2563.8
634.875	2563.58
635.229	2537.81
635.583	2577.81
635.937	2527.19
636.291	2556.57
636.645	2577.59
636.999	2531.71
637.352	2545.05
637.706	2559.96
638.06	2548.44
638.413	2571.49
638.767	2552.5
639.121	2554.31
639.474	2549.34
639.828	2530.13
640.181	2538.04
640.534	2537.59
640.888	2554.54
641.241	2533.75
641.594	2554.99
641.947	2566.74
642.301	2552.28
642.654	2530.81
643.007	2524.48
643.36	2580.75
643.713	2538.94
644.066	2582.33
644.419	2543.46
644.771	2548.21
645.124	2543.92
645.477	2522
645.83	2534.2
646.182	2512.28
646.535	2502.79
646.888	2525.16
647.24	2502.56
647.593	2517.25
647.945	2533.75
648.298	2507.53
648.65	2524.71
649.002	2522.67
649.355	2525.84
649.707	2508.44
650.059	2550.02
650.411	2585.5
650.763	2586.4
651.115	2631.82
651.467	2640.41
651.819	2644.93
652.171	2653.74
652.523	2654.2
652.875	2619.17
653.227	2647.42
653.578	2675.66
653.93	2705.49
654.282	2680.86
654.633	2680.18
654.985	2701.65
655.337	2733.97
655.688	2679.28
656.039	2716.79
656.391	2726.51
656.742	2713.86
657.094	2754.08
657.445	2759.73
657.796	2754.98
658.147	2766.51
658.498	2770.35
658.849	2796.79
659.2	2837.69
659.551	2833.63
659.902	2858.94
660.253	2827.3
660.604	2851.03
660.955	2878.6
661.306	2855.77
661.656	2879.5
662.007	2930.12
662.358	2931.02
662.708	2905.49
663.059	2943.91
663.409	2906.62
663.76	2960.18
664.11	2976
664.461	2962.89
664.811	3030.23
665.161	3033.39
665.511	3048.08
665.862	3055.54
666.212	3074.52
666.562	3073.17
666.912	3121.98
667.262	3109.55
667.612	3162.66
667.962	3147.52
668.312	3142.32
668.662	3194.29
669.011	3229.77
669.361	3254.18
669.711	3262.32
670.06	3274.29
670.41	3268.42
670.76	3300.05
671.109	3312.94
671.459	3332.37
671.808	3374.85
672.157	3342.09
672.507	3378.47
672.856	3372.14
673.205	3432.48
673.554	3480.16
673.904	3455.3
674.253	3481.29
674.602	3498.24
674.951	3459.15
675.3	3462.08
675.649	3557.22
675.998	3578.47
676.346	3595.41
676.695	3609.42
677.044	3639.48
677.393	3653.94
677.741	3750.66
678.09	3736.2
678.438	3743.88
678.787	3737.56
679.135	3764.22
679.484	3748.86
679.832	3818.46
680.181	3831.34
680.529	3902.75
680.877	3877.89
681.225	3871.11
681.573	3966.03
681.922	3933.03
682.27	3927.16
682.618	3961.73
682.966	4016.42
683.314	4042.18
683.661	4061.39
684.009	4098
684.357	4108.17
684.705	4112.91
685.053	4134.83
685.4	4149.3
685.748	4185.23
686.095	4217.77
686.443	4192.91
686.79	4213.25
687.138	4261.61
687.485	4324.43
687.832	4276.75
688.18	4328.73
688.527	4325.11
688.874	4347.48
689.221	4405.34
689.568	4405.79
689.915	4398.56
690.262	4432.23
690.609	4450.31
690.956	4496.86
691.303	4484.2
691.65	4531.66
691.997	4573.92
692.344	4560.36
692.69	4543.41
693.037	4601.94
693.383	4562.62
693.73	4635.61
694.077	4648.27
694.423	4641.26
694.769	4690.07
695.116	4684.2
695.462	4743.63
695.808	4780.69
696.155	4766.68
696.501	4753.12
696.847	4778.43
697.193	4829.96
697.539	4827.47
697.885	4818.66
698.231	4795.61
698.577	4845.32
698.923	4885.78
699.269	4823.4
699.614	4877.87
699.96	4962.84
700.306	4969.84
700.651	4954.93
700.997	4945.43
701.342	5010.97
701.688	5004.87
702.033	5011.42
702.379	5056.84
702.724	5012.1
703.069	5074.92
703.415	5012.55
703.76	5097.97
704.105	5127.58
704.45	5166.45
704.795	5092.32
705.14	5162.6
705.485	5188.14
705.83	5170.97
706.175	5217.74
706.52	5235.37
706.865	5214.58
707.209	5151.98
707.554	5220.91
707.899	5217.52
708.243	5203.73
708.588	5225.43
708.932	5236.95
709.277	5250.74
709.621	5306.56
709.966	5285.09
710.31	5245.54
710.654	5250.29
710.998	5321.92
711.342	5323.73
711.687	5341.58
712.031	5325.31
712.375	5361.02
712.719	5339.77
713.063	5350.4
713.407	5406.44
713.75	5353.11
714.094	5424.29
714.438	5425.2
714.782	5445.99
715.125	5420
715.469	5399.89
715.812	5400.79
716.156	5438.98
716.499	5430.85
716.843	5473.33
717.186	5452.77
717.53	5480.34
717.873	5513.78
718.216	5448.25
718.559	5456.83
718.902	5485.99
719.246	5473.33
719.589	5498.41
719.932	5523.27
720.275	5499.09
720.617	5511.97
720.96	5519.21
721.303	5502.03
721.646	5542.71
721.989	5534.12
722.331	5516.04
722.674	5490.28
723.016	5555.14
723.359	5550.62
723.701	5535.25
724.044	5605.08
724.386	5563.5
724.729	5545.42
725.071	5533.22
725.413	5572.09
725.755	5498.64
726.097	5555.14
726.439	5546.32
726.782	5522.82
727.124	5603.95
727.465	5545.42
727.807	5563.27
728.149	5609.37
728.491	5551.52
728.833	5569.37
729.175	5534.35
729.516	5600.78
729.858	5528.47
730.199	5586.77
730.541	5557.62
730.882	5550.39
731.224	5575.7
731.565	5540
731.906	5535.93
732.248	5595.14
732.589	5564.63
732.93	5561.46
733.271	5550.39
733.612	5581.58
733.953	5535.7
734.294	5515.59
734.635	5536.15
734.976	5534.8
735.317	5537.28
735.658	5524.85
735.999	5492.99
736.339	5526.89
736.68	5520.34
737.021	5537.51
737.361	5467.23
737.702	5544.74
738.042	5518.3
738.383	5482.6
738.723	5539.54
739.063	5498.19
739.404	5514.91
739.744	5484.63
740.084	5469.49
740.424	5494.35
740.764	5467.91
741.104	5459.55
741.444	5466.1
741.784	5414.58
742.124	5464.97
742.464	5443.5
742.804	5453.44
743.143	5475.59
743.483	5448.25
743.823	5435.82
744.162	5454.35
744.502	5456.38
744.841	5405.54
745.181	5415.48
745.52	5433.33
745.86	5447.57
746.199	5362.83
746.538	5418.87
746.877	5452.31
747.216	5396.27
747.556	5422.03
747.895	5412.09
748.234	5351.3
748.573	5377.51
748.911	5364.18
749.25	5335.48
749.589	5318.31
749.928	5337.29
750.267	5362.6
750.605	5309.04
750.944	5316.27
751.283	5270.85
751.621	5309.27
751.96	5281.7
752.298	5272.21
752.636	5289.83
752.975	5212.55
753.313	5242.83
753.651	5276.95
753.989	5231.98
754.327	5212.32
754.666	5209.38
755.004	5188.14
755.342	5197.63
755.679	5211.42
756.017	5134.58
756.355	5151.53
756.693	5173.68
757.031	5179.1
757.368	5138.65
757.706	5153.34
758.044	5108.37
758.381	5073.57
758.719	5079.22
759.056	5089.84
759.394	5066.79
759.731	5061.59
760.068	5094.58
760.405	5006.9
760.743	5020.01
761.08	5060.46
761.417	5035.38
761.754	4979.11
762.091	4970.07
762.428	4921.03
762.765	4958.32
763.102	4953.34
763.438	4953.34
763.775	4864.99
764.112	4886
764.449	4940.24
764.785	4938.43
765.122	4822.95
765.458	4871.09
765.795	4872.22
766.131	4815.27
766.467	4813.46
766.804	4769.62
767.14	4767.81
767.476	4760.36
767.812	4777.98
768.148	4757.42
768.485	4712.45
768.821	4686.91
769.157	4633.35
769.492	4731.66
769.828	4651.21
770.164	4653.47
770.5	4635.39
770.836	4613.92
771.171	4618.89
771.507	4624.54
771.842	4613.69
772.178	4583.64
772.513	4539.8
772.849	4561.26
773.184	4519.46
773.519	4566.24
773.855	4478.78
774.19	4484.43
774.525	4487.59
774.86	4455.73
775.195	4420.03
775.53	4433.36
775.865	4416.18
776.2	4393.81
776.535	4363.98
776.87	4388.39
777.205	4373.7
777.539	4354.94
777.874	4347.03
778.209	4293.47
778.543	4315.17
778.878	4272.46
779.212	4246.47
779.547	4241.27
779.881	4282.18
780.215	4268.84
780.55	4274.27
780.884	4208.51
781.218	4195.85
781.552	4211.67
781.886	4110.2
782.22	4160.37
782.554	4179.13
782.888	4104.78
783.222	4091.9
783.556	4130.09
783.889	4095.06
784.223	4076.53
784.557	4083.31
784.89	4038.34
785.224	4010.09
785.557	4036.76
785.891	3979.13
786.224	3994.95
786.558	4004.44
786.891	3978
787.224	3933.26
787.557	3903.88
787.891	3926.25
788.224	3895.97
788.557	3888.51
788.89	3926.48
789.223	3916.54
789.556	3879.47
789.888	3862.53
790.221	3858.46
790.554	3826.14
790.887	3818.91
791.219	3824.33
791.552	3809.65
791.884	3812.13
792.217	3813.94
792.549	3747.27
792.882	3716.99
793.214	3707.5
793.546	3706.82
793.879	3703.66
794.211	3659.37
794.543	3714.51
794.875	3703.66
795.207	3708.18
795.539	3667.05
795.871	3648.29
796.203	3658.92
796.535	3648.52
796.867	3627.96
797.198	3610.55
797.53	3597.9
797.862	3627.05
798.193	3592.93
798.525	3561.74
798.856	3582.08
799.188	3552.93
799.519	3547.05
799.85	3514.06
800.182	3511.57
800.513	3554.51
800.844	3464.12
801.175	3507.05
801.506	3526.94
801.837	3487.85
802.168	3464.8
802.499	3455.3
802.83	3439.03
803.161	3429.32
803.491	3402.88
803.822	3419.6
804.153	3403.33
804.483	3396.1
804.814	3398.36
805.145	3398.81
805.475	3350.9
805.805	3377.57
806.136	3333.5
806.466	3371.92
806.796	3358.81
807.126	3355.65
807.457	3336.21
807.787	3328.08
808.117	3317.23
808.447	3295.31
808.777	3339.15
809.107	3300.51
809.436	3283.33
809.766	3249.89
810.096	3263.22
810.426	3280.17
810.755	3251.47
811.085	3229.77
811.414	3264.8
811.744	3207.18
812.073	3231.58
812.403	3174.63
812.732	3175.54
813.061	3196.78
813.39	3192.03
813.719	3150.45
814.049	3222.32
814.378	3198.59
814.707	3159.72
815.036	3169.66
815.365	3167.85
815.693	3116.56
816.022	3099.38
816.351	3119.04
816.68	3093.05
817.008	3102.55
817.337	3075.88
817.665	3073.85
817.994	3104.81
818.322	3063.9
818.651	3057.57
818.979	3072.49
819.307	3050.8
819.636	3059.16
819.964	3015.09
820.292	3062.09
820.62	3067.29
820.948	3050.57
821.276	3040.17
821.604	3070.46
821.932	3049.21
822.259	3062.77
822.587	3059.38
822.915	3021.64
823.243	3047.41
823.57	3026.84
823.898	3041.76
824.225	3018.71
824.553	3019.84
824.88	3014.86
825.207	2997.92
825.535	3011.7
825.862	3055.77
826.189	3012.15
826.516	3016.9
826.843	3020.74
827.17	3026.84
827.497	3028.2
827.824	3033.62
828.151	3044.24
828.478	3043.79
828.805	3016.45
829.131	3019.16
829.458	2991.14
829.785	2966.05
830.111	3009.67
830.438	3058.93
830.764	2992.04
831.09	2999.5
831.417	2981.87
831.743	2993.62
832.069	2999.95
832.395	2989.33
832.722	3005.6
833.048	2989.55
833.374	2994.98
833.7	3011.25
834.026	3004.47
834.351	3027.97
834.677	2994.3
835.003	2969.67
835.329	2980.97
835.654	2945.71
835.98	2991.14
836.306	2978.26
836.631	2991.36
836.956	2971.48
837.282	2977.58
837.607	2950.46
837.932	2982.77
838.258	2900.06
838.583	2971.93
838.908	2913.17
839.233	2926.96
839.558	2900.06
839.883	2910.46
840.208	2907.97
840.533	2919.5
840.858	2914.53
841.182	2875.88
841.507	2901.19
841.832	2926.28
842.156	2879.95
842.481	2900.74
842.805	2904.58
843.13	2846.28
843.454	2914.75
843.778	2889.9
844.103	2853.51
844.427	2867.07
844.751	2872.04
845.075	2869.56
845.399	2808.32
845.723	2794.76
846.047	2800.41
846.371	2780.75
846.695	2767.41
847.019	2762.89
847.343	2797.24
847.666	2757.47
847.99	2755.21
848.313	2719.5
848.637	2757.24
848.96	2706.4
849.284	2697.36
849.607	2715.89
849.931	2701.88
850.254	2675.89
850.577	2684.7
850.9	2656
851.223	2648.55
851.546	2646.96
851.869	2620.75
852.192	2624.82
852.515	2610.58
852.838	2576.23
853.161	2622.33
853.483	2615.55
853.806	2567.87
854.129	2608.77
854.451	2561.54
854.774	2576.23
855.096	2533.29
855.419	2505.73
855.741	2542.56
856.063	2560.86
856.385	2506.63
856.708	2504.6
857.03	2511.6
857.352	2526.29
857.674	2512.05
857.996	2480.64
858.318	2499.62
858.64	2511.37
858.961	2501.21
859.283	2468.89
859.605	2462.11
859.926	2475.67
860.248	2454.88
860.57	2467.31
860.891	2447.2
861.212	2475.44
861.534	2438.61
861.855	2440.87
862.176	2434.31
862.498	2410.13
862.819	2470.25
863.14	2403.58
863.461	2452.39
863.782	2402.68
864.103	2386.41
864.424	2404.26
864.745	2409.23
865.065	2397.03
865.386	2379.63
865.707	2385.73
866.027	2387.54
866.348	2394.09
866.668	2385.05
866.989	2333.75
867.309	2391.83
867.63	2350.47
867.95	2340.76
868.27	2347.76
868.59	2365.84
868.91	2351.15
869.23	2361.55
869.55	2351.6
869.87	2357.93
870.19	2334.88
870.51	2359.51
870.83	2353.64
871.15	2362.45
871.469	2310.7
871.789	2318.84
872.109	2321.55
872.428	2325.62
872.748	2326.75
873.067	2319.06
873.386	2307.31
873.706	2308.89
874.025	2295.56
874.344	2321.78
874.663	2315.22
874.982	2301.21
875.301	2289.91
875.62	2282.91
875.939	2275.67
876.258	2301.21
876.577	2309.35
876.896	2217.82
877.214	2243.59
877.533	2254.21
877.852	2273.64
878.17	2230.93
878.489	2260.76
878.807	2260.76
879.125	2241.55
879.444	2244.94
879.762	2217.6
880.08	2239.74
880.398	2216.69
880.716	2233.87
881.034	2253.98
881.352	2238.61
881.67	2249.01
881.988	2210.82
882.306	2228.9
882.624	2249.69
882.941	2215.34
883.259	2170.82
883.577	2182.8
883.894	2216.47
884.212	2212.17
884.529	2203.36
884.846	2153.87
885.164	2185.28
885.481	2180.99
885.798	2180.54
886.115	2181.89
886.432	2158.16
886.75	2179.63
887.067	2144.15
887.383	2129.46
887.7	2174.43
888.017	2124.49
888.334	2120.88
888.651	2137.15
888.967	2120.88
889.284	2125.85
889.6	2119.97
889.917	2088.56
890.233	2128.11
890.55	2082.69
890.866	2100.99
891.182	2131.72
891.498	2091.5
891.815	2049.01
892.131	2081.56
892.447	2074.78
892.763	2065.96
893.079	2059.41
893.395	2027.32
893.71	2062.35
894.026	2023.25
894.342	2032.29
894.657	2019.64
894.973	2022.8
895.289	2034.78
895.604	2029.58
895.92	1995
896.235	1984.16
896.55	2004.95
896.865	1985.29
897.181	1995.91
897.496	1984.38
897.811	1990.26
898.126	1977.83
898.441	1983.48
898.756	1959.3
899.071	1970.15
899.386	1984.16
899.7	1952.29
900.015	1900.09
900.33	1917.72
900.644	1930.82
900.959	1908.68
901.273	1912.75
901.588	1888.11
901.902	1880.2
902.216	1906.19
902.531	1869.81
902.845	1883.14
903.159	1850.38
903.473	1888.11
903.787	1890.83
904.101	1835.91
904.415	1874.56
904.729	1853.54
905.042	1844.5
905.356	1835.01
905.67	1856.93
905.984	1844.95
906.297	1845.18
906.611	1836.59
906.924	1814.67
907.237	1778.51
907.551	1821.68
907.864	1791.62
908.177	1780.77
908.491	1785.52
908.804	1756.82
909.117	1761.11
909.43	1750.26
909.743	1760.21
910.056	1752.52
910.368	1742.58
910.681	1724.73
910.994	1730.15
911.307	1731.96
911.619	1705.07
911.932	1726.54
912.244	1744.39
912.557	1701.9
912.869	1719.76
913.181	1732.64
913.494	1708.46
913.806	1637.05
914.118	1653.09
914.43	1654.67
914.742	1675.92
915.054	1664.17
915.366	1670.49
915.678	1666.88
915.99	1648.12
916.302	1657.39
916.613	1630.04
916.925	1616.71
917.236	1624.39
917.548	1601.57
917.859	1588.01
918.171	1621.45
918.482	1595.69
918.794	1604.51
919.105	1598.4
919.416	1592.75
919.727	1562.93
920.038	1584.17
920.349	1546.43
920.66	1566.99
920.971	1567.9
921.282	1576.48
921.593	1530.84
921.903	1535.13
922.214	1555.69
922.525	1521.34
922.835	1539.2
923.146	1519.54
923.456	1507.11
923.767	1509.37
924.077	1518.63
924.387	1498.29
924.697	1478.63
925.008	1489.48
925.318	1516.37
925.628	1486.32
925.938	1477.96
926.248	1466.88
926.558	1477.5
926.867	1479.09
927.177	1426.66
927.487	1439.99
927.796	1441.35
928.106	1423.49
928.416	1479.31
928.725	1440.67
929.034	1419.2
929.344	1430.95
929.653	1435.92
929.962	1375.81
930.271	1415.36
930.581	1376.26
930.89	1359.54
931.199	1389.6
931.508	1390.27
931.817	1390.5
932.125	1363.16
932.434	1363.61
932.743	1371.07
933.051	1360.22
933.36	1334.46
933.669	1352.08
933.977	1339.65
934.286	1353.66
934.594	1354.34
934.902	1337.85
935.21	1337.39
935.519	1312.76
935.827	1339.88
936.135	1315.7
936.443	1319.09
936.751	1324.74
937.059	1281.12
937.367	1326.55
937.674	1336.94
937.982	1323.84
938.29	1271.41
938.597	1280.22
938.905	1299.66
939.213	1306.21
939.52	1272.31
939.827	1284.74
940.135	1260.79
940.442	1270.05
940.749	1252.65
941.056	1270.28
941.363	1255.59
941.67	1245.65
941.977	1240.22
942.284	1262.82
942.591	1252.2
942.898	1232.09
943.205	1203.61
943.511	1221.01
943.818	1244.97
944.125	1192.99
944.431	1214.91
944.738	1230.05
945.044	1222.59
945.35	1203.39
945.657	1177.17
945.963	1160.22
946.269	1155.48
946.575	1202.26
946.881	1166.78
947.187	1169.26
947.493	1139.43
947.799	1161.58
948.105	1157.51
948.41	1144.63
948.716	1160.45
949.022	1143.5
949.327	1139.66
949.633	1139.89
949.938	1132.2
950.244	1129.94
950.549	1151.86
950.854	1145.99
951.16	1098.98
951.465	1142.15
951.77	1105.31
952.075	1118.87
952.38	1133.56
952.685	1105.54
952.99	1098.76
953.294	1096.72
953.599	1064.63
953.904	1096.27
954.209	1069.38
954.513	1074.12
954.818	1073.9
955.122	1057.4
955.426	1047.01
955.731	1054.46
956.035	1057.18
956.339	1052.88
956.643	1045.88
956.948	1051.98
957.252	1062.37
957.556	1053.79
957.86	1036.16
958.163	1051.98
958.467	1040.9
958.771	1053.56
959.075	1046.78
959.378	1029.83
959.682	1038.87
959.985	981.02
960.289	1020.79
960.592	997.29
960.896	1013.11
961.199	1022.83
961.502	1019.44
961.805	989.15
962.108	1001.13
962.411	992.54
962.714	982.38
963.017	1012.43
963.32	1000.23
963.623	968.82
963.926	998.42
964.228	986.89
964.531	948.7
964.833	952.77
965.136	954.35
965.438	929.5
965.741	947.57
966.043	954.35
966.345	965.2
966.648	937.18
966.95	938.31
967.252	955.48
967.554	957.29
967.856	917.29
968.158	931.98
968.46	916.61
968.761	923.85
969.063	930.4
969.365	907.58
969.666	941.47
969.968	911.64
970.269	915.26
970.571	908.93
970.872	888.82
971.174	905.09
971.475	917.52
971.776	929.27
972.077	897.86
972.378	914.13
972.679	926.11
972.98	903.96
973.281	879.1
973.582	879.33
973.883	875.71
974.183	875.71
974.484	868.03
974.785	857.41
975.085	867.35
975.386	882.04
975.686	862.15
975.986	861.47
976.287	877.75
976.587	840.01
976.887	847.46
977.187	850.18
977.487	849.95
977.787	849.5
978.087	853.79
978.387	849.95
978.687	827.58
978.987	876.62
979.286	834.81
979.586	857.18
979.885	844.07
980.185	838.65
980.484	837.29
980.784	823.74
981.083	823.06
981.382	816.96
981.682	820.57
981.981	815.83
982.28	805.66
982.579	836.16
982.878	823.28
983.177	820.35
983.475	813.57
983.774	787.8
984.073	783.28
984.372	799.78
984.67	787.35
984.969	780.12
985.267	792.1
985.566	793.45
985.864	785.32
986.162	774.92
986.461	775.15
986.759	763.17
987.057	772.44
987.355	767.01
987.653	755.49
987.951	747.58
988.249	745.32
988.547	772.89
988.844	755.26
989.142	777.63
989.44	753.23
989.737	751.87
990.035	737.18
990.332	725.21
990.63	747.58
990.927	712.55
991.224	742.61
991.521	727.24
991.819	756.17
992.116	729.27
992.413	720.24
992.71	736.28
993.006	708.94
993.303	753.91
993.6	746
993.897	721.37
994.193	704.19
994.49	728.14
994.787	720.01
995.083	728.37
995.379	720.46
995.676	699.44
995.972	703.96
996.268	718.88
996.565	714.81
996.861	701.48
997.157	698.09
997.453	699.9
997.749	707.58
998.044	679.78
998.34	666
998.636	705.32
998.932	676.39
999.227	671.2
999.523	666.68
999.818	698.54
1000.114	655.6
1000.409	680.46
1000.704	697.86
1001	693.57
1001.295	650.86
1001.59	675.94
1001.885	667.13
1002.18	657.86
1002.475	670.75
1002.77	642.05
1003.065	672.1
1003.359	641.14
1003.654	634.14
1003.949	637.75
1004.243	645.66
1004.538	656.51
1004.832	645.89
1005.127	622.38
1005.421	608.6
1005.715	635.27
1006.009	617.64
1006.304	630.52
1006.598	627.58
1006.892	623.51
1007.186	623.97
1007.48	611.54
1007.773	600.46
1008.067	615.83
1008.361	624.42
1008.655	604.08
1008.948	621.25
1009.242	591.43
1009.535	635.27
1009.829	603.18
1010.122	614.48
1010.415	603.4
1010.708	589.84
1011.001	577.87
1011.295	601.59
1011.588	590.97
1011.881	589.84
1012.173	587.36
1012.466	580.13
1012.759	587.36
1013.052	565.89
1013.344	585.32
1013.637	587.36
1013.93	583.29
1014.222	580.8
1014.514	559.56
1014.807	574.7
1015.099	557.3
1015.391	580.8
1015.683	551.88
1015.976	555.04
1016.268	563.18
1016.56	574.48
1016.851	577.87
1017.143	553.91
1017.435	555.49
1017.727	575.83
1018.018	551.2
1018.31	541.71
1018.602	554.36
1018.893	526.57
1019.185	559.34
1019.476	532.22
1019.767	550.3
1020.058	554.59
1020.35	510.07
1020.641	536.06
1020.932	516.4
1021.223	532.44
1021.514	541.48
1021.804	527.02
1022.095	527.25
1022.386	527.92
1022.677	532.44
1022.967	527.02
1023.258	515.95
1023.548	498.77
1023.839	531.09
1024.129	528.6
1024.419	524.76
1024.709	507.36
1025	524.99
1025.29	499.22
1025.58	501.71
1025.87	478.66
1026.16	497.42
1026.449	473.46
1026.739	496.29
1027.029	489.28
1027.319	498.32
1027.608	486.57
1027.898	503.97
1028.187	487.93
1028.477	487.02
1028.766	500.35
1029.055	503.97
1029.344	489.28
1029.634	475.72
1029.923	491.09
1030.212	471.88
1030.501	501.71
1030.79	469.85
1031.078	488.83
1031.367	466.46
1031.656	488.83
1031.945	474.37
1032.233	458.1
1032.522	467.36
1032.81	454.93
1033.099	467.81
1033.387	456.06
1033.675	454.71
1033.963	457.64
1034.251	465.33
1034.54	453.35
1034.828	451.99
1035.116	453.8
1035.403	471.65
1035.691	451.99
1035.979	468.04
1036.267	457.19
1036.554	427.36
1036.842	436.85
1037.129	439.79
1037.417	447.25
1037.704	427.14
1037.992	419.9
1038.279	442.05
1038.566	444.99
1038.853	444.99
1039.14	444.99
