Data from carpet_green_FLMS001491_00093.txt Node
Date: Wed Feb 08 10:36:07 GMT 2017
User: dcchb
Spectrometer: FLMS00149
Trigger mode: 0
Integration Time (sec): 2.000000E-2
Scans to average: 10
Electric dark correction enabled: true
Nonlinearity correction enabled: false
Boxcar width: 0
XAxis mode: Wavelengths
Number of Pixels in Spectrum: 2048
>>>>>Begin Spectral Data<<<<<
341.393	-13.46
341.776	-13.46
342.16	-13.46
342.543	-48.04
342.927	-49.39
343.31	-72.22
343.693	-49.17
344.077	-76.28
344.46	-71.99
344.843	-28.37
345.226	-50.75
345.61	-31.31
345.993	-18.43
346.376	5.3
346.759	26.09
347.142	29.25
347.525	56.14
347.908	52.07
348.291	73.09
348.674	76.03
349.057	80.55
349.44	123.26
349.823	149.25
350.206	156.25
350.588	164.39
350.971	194.22
351.354	206.65
351.737	227.44
352.119	213.2
352.502	226.76
352.884	248
353.267	257.72
353.65	260.21
354.032	273.09
354.414	291.62
354.797	278.51
355.179	294.33
355.562	287.32
355.944	299.53
356.326	321.67
356.709	311.5
357.091	323.71
357.473	302.92
357.855	295.68
358.238	294.33
358.62	329.36
359.002	291.16
359.384	321.22
359.766	313.08
360.148	299.07
360.53	298.85
360.912	308.11
361.294	317.15
361.676	300.88
362.057	288.9
362.439	295.46
362.821	297.94
363.203	298.62
363.584	311.05
363.966	300.43
364.348	288.23
364.729	294.55
365.111	285.97
365.493	295.46
365.874	257.49
366.256	287.1
366.637	294.78
367.019	281.45
367.4	303.82
367.781	294.1
368.163	274.89
368.544	285.97
368.925	297.27
369.306	283.03
369.688	273.54
370.069	254.33
370.45	278.74
370.831	291.62
371.212	276.02
371.593	264.72
371.974	269.24
372.355	267.44
372.736	273.09
373.117	266.53
373.498	267.66
373.879	281.67
374.26	278.96
374.641	285.06
375.021	282.8
375.402	281.22
375.783	270.37
376.163	287.32
376.544	295.01
376.925	295.46
377.305	287.1
377.686	273.99
378.066	294.55
378.447	290.71
378.827	309.47
379.208	283.93
379.588	286.65
379.968	283.03
380.349	285.97
380.729	288
381.109	297.27
381.489	304.27
381.87	293.65
382.25	308.34
382.63	285.06
383.01	284.61
383.39	309.02
383.77	287.1
384.15	303.59
384.53	294.78
384.91	281.45
385.29	284.61
385.67	303.14
386.049	319.86
386.429	307.44
386.809	300.66
387.189	297.72
387.568	289.58
387.948	311.05
388.328	331.16
388.707	313.54
389.087	295.68
389.466	318.96
389.846	303.59
390.225	326.19
390.605	284.16
390.984	299.98
391.363	286.65
391.743	286.87
392.122	307.21
392.501	300.66
392.881	306.76
393.26	321.22
393.639	294.33
394.018	303.14
394.397	325.51
394.776	322.12
395.155	328.9
395.534	326.87
395.913	304.05
396.292	306.98
396.671	347.66
397.05	334.1
397.429	316.47
397.808	305.18
398.186	307.89
398.565	327.1
398.944	311.5
399.323	324.16
399.701	320.77
400.08	320.09
400.458	318.28
400.837	327.77
401.215	311.05
401.594	314.67
401.972	322.8
402.351	334.55
402.729	337.94
403.107	341.56
403.486	321.9
403.864	325.06
404.242	339.98
404.62	330.26
404.999	335.01
405.377	314.89
405.755	311.05
406.133	316.02
406.511	322.35
406.889	325.74
407.267	314.21
407.645	326.42
408.023	333.2
408.401	341.78
408.779	342.69
409.156	349.69
409.534	320.09
409.912	339.52
410.29	337.27
410.667	322.35
411.045	335.23
411.422	336.59
411.8	323.71
412.178	333.42
412.555	354.67
412.933	330.26
413.31	349.02
413.687	332.97
414.065	347.43
414.442	335.91
414.819	338.4
415.197	332.07
415.574	342.69
415.951	339.07
416.328	352.86
416.705	339.98
417.082	375.23
417.46	352.86
417.837	342.24
418.214	357.6
418.591	347.43
418.967	356.25
419.344	363.71
419.721	361.45
420.098	367.09
420.475	349.02
420.852	360.77
421.228	365.96
421.605	368.68
421.982	354.44
422.358	355.34
422.735	363.03
423.111	361.67
423.488	354.44
423.864	364.84
424.241	356.02
424.617	380.65
424.994	368.45
425.37	368.45
425.746	375.68
426.123	370.26
426.499	364.84
426.875	372.52
427.251	358.51
427.627	404.38
428.003	363.48
428.379	374.78
428.756	376.81
429.132	370.48
429.507	380.88
429.883	371.39
430.259	377.94
430.635	382.69
431.011	410.26
431.387	383.82
431.763	377.94
432.138	388.34
432.514	396.25
432.89	396.47
433.265	422.69
433.641	412.52
434.016	409.58
434.392	399.18
434.767	406.42
435.143	416.36
435.518	423.14
435.894	408.45
436.269	428.56
436.644	436.7
437.02	430.37
437.395	437.83
437.77	422.46
438.145	423.59
438.52	419.3
438.895	429.47
439.271	404.16
439.646	417.72
440.021	434.66
440.395	405.29
440.77	422.91
441.145	420.43
441.52	443.48
441.895	440.77
442.27	443.48
442.645	448
443.019	445.96
443.394	429.47
443.769	460.65
444.143	436.47
444.518	432.18
444.892	464.72
445.267	447.32
445.641	437.38
446.016	458.62
446.39	471.05
446.764	470.14
447.139	454.55
447.513	446.64
447.887	457.71
448.262	435.57
448.636	458.17
449.01	471.27
449.384	463.59
449.758	457.71
450.132	479.41
450.506	476.47
450.88	466.53
451.254	478.5
451.628	469.24
452.002	462.91
452.376	488.67
452.75	466.53
453.123	487.32
453.497	499.07
453.871	502.46
454.244	513.31
454.618	502.01
454.992	500.2
455.365	520.76
455.739	509.46
456.112	523.7
456.486	523.47
456.859	533.64
457.232	537.03
457.606	513.08
457.979	503.59
458.352	535.23
458.725	529.58
459.099	536.81
459.472	541.1
459.845	556.47
460.218	547.43
460.591	542.68
460.964	559.63
461.337	540.2
461.71	566.86
462.083	578.39
462.456	581.1
462.829	577.48
463.201	589.91
463.574	566.64
463.947	570.71
464.32	578.61
464.692	621.55
465.065	597.37
465.438	612.29
465.81	587.2
466.183	619.52
466.555	616.13
466.928	624.49
467.3	634.88
467.672	640.99
468.045	636.24
468.417	637.14
468.789	649.8
469.161	640.53
469.534	672.17
469.906	653.42
470.278	665.62
470.65	686.86
471.022	695.45
471.394	692.74
471.766	711.94
472.138	711.04
472.51	719.18
472.882	732.96
473.253	732.73
473.625	732.51
473.997	755.79
474.369	755.33
474.74	764.6
475.112	770.02
475.484	770.7
475.855	782.9
476.227	789.23
476.598	805.05
476.97	816.12
477.341	822.45
477.713	824.26
478.084	828.1
478.455	838.72
478.827	865.39
479.198	862
479.569	854.31
479.94	889.79
480.311	897.02
480.682	898.83
481.053	926.4
481.424	950.13
481.795	942.22
482.166	963.46
482.537	945.61
482.908	975.89
483.279	984.71
483.65	1011.6
484.021	1017.7
484.391	1015.44
484.762	1056.34
485.133	1018.15
485.503	1026.29
485.874	1052.05
486.244	1052.05
486.615	1093.4
486.985	1112.39
487.356	1111.93
487.726	1149.22
488.097	1162.1
488.467	1129.33
488.837	1188.09
489.207	1163.01
489.578	1175.89
489.948	1198.26
490.318	1215.43
490.688	1231.7
491.058	1254.98
491.428	1266.05
491.798	1257.92
492.168	1299.27
492.538	1276.9
492.908	1323.91
493.278	1324.36
493.648	1313.96
494.017	1340.4
494.387	1321.19
494.757	1324.13
495.126	1360.74
495.496	1377.46
495.866	1361.64
496.235	1392.6
496.605	1402.32
496.974	1406.16
497.344	1421.53
497.713	1398.93
498.082	1426.73
498.452	1415.2
498.821	1449.78
499.19	1445.71
499.559	1473.51
499.928	1495.65
500.298	1484.35
500.667	1507.4
501.036	1486.16
501.405	1486.84
501.774	1489.33
502.143	1516.22
502.512	1531.81
502.88	1523.45
503.249	1520.96
503.618	1542.43
503.987	1534.52
504.356	1552.83
504.724	1588.76
505.093	1611.58
505.462	1572.03
505.83	1601.64
506.199	1621.98
506.567	1602.32
506.936	1614.29
507.304	1643.45
507.672	1636.21
508.041	1641.41
508.409	1622.43
508.777	1669.21
509.145	1665.59
509.514	1685.7
509.882	1666.5
510.25	1698.36
510.618	1713.27
510.986	1682.09
511.354	1701.07
511.722	1732.71
512.09	1714.63
512.458	1755.31
512.826	1751.24
513.193	1769.32
513.561	1739.04
513.929	1749.43
514.297	1785.36
514.664	1810.67
515.032	1815.19
515.4	1799.6
515.767	1807.96
516.135	1796.66
516.502	1791.92
516.869	1835.08
517.237	1810.45
517.604	1820.16
517.972	1845.47
518.339	1844.8
518.706	1842.76
519.073	1880.95
519.44	1852.71
519.808	1876.21
520.175	1914.17
520.542	1919.6
520.909	1898.35
521.276	1892.03
521.643	1905.13
522.009	1910.56
522.376	1923.89
522.743	1951.46
523.11	1970.89
523.477	1981.29
523.843	1981.06
524.21	1967.5
524.577	2014.96
524.943	1993.72
525.31	2011.12
525.676	2028.29
526.043	2074.62
526.409	2051.57
526.776	2077.33
527.142	2057.67
527.508	2102.42
527.874	2083.66
528.241	2073.04
528.607	2092.7
528.973	2123.43
529.339	2112.13
529.705	2107.16
530.071	2147.84
530.437	2105.58
530.803	2135.86
531.169	2141.29
531.535	2148.74
531.901	2161.62
532.267	2164.79
532.632	2173.83
532.998	2132.92
533.364	2193.71
533.73	2171.12
534.095	2202.98
534.461	2215.41
534.826	2174.73
535.192	2221.74
535.557	2223.09
535.923	2204.79
536.288	2194.84
536.653	2222.19
537.019	2226.48
537.384	2197.33
537.749	2195.75
538.114	2194.39
538.479	2212.7
538.845	2220.83
539.21	2198.23
539.575	2237.55
539.94	2197.56
540.305	2226.93
540.67	2210.44
541.034	2201.85
541.399	2232.36
541.764	2212.02
542.129	2211.57
542.494	2276.2
542.858	2297.44
543.223	2219.93
543.587	2289.3
543.952	2268.29
544.316	2257.89
544.681	2250.44
545.045	2243.66
545.41	2290.43
545.774	2300.38
546.138	2301.06
546.503	2274.39
546.867	2258.8
547.231	2281.39
547.595	2262.64
547.959	2265.58
548.324	2285.91
548.688	2268.51
549.052	2277.33
549.416	2291.56
549.779	2283.2
550.143	2290.89
550.507	2298.8
550.871	2345.35
551.235	2321.62
551.599	2330.43
551.962	2334.27
552.326	2325.91
552.689	2295.63
553.053	2321.17
553.417	2294.28
553.78	2358.23
554.143	2320.49
554.507	2333.37
554.87	2328.17
555.234	2354.61
555.597	2339.47
555.96	2397.32
556.323	2373.82
556.686	2344.9
557.05	2381.51
557.413	2369.53
557.776	2392.58
558.139	2400.49
558.502	2370.66
558.865	2383.09
559.228	2382.86
559.59	2374.73
559.953	2386.7
560.316	2435.97
560.679	2428.06
561.041	2412.24
561.404	2436.64
561.767	2441.84
562.129	2419.24
562.492	2450.88
562.854	2462.63
563.217	2428.74
563.579	2444.1
563.941	2472.8
564.304	2465.34
564.666	2492.24
565.028	2447.94
565.39	2487.04
565.753	2506.02
566.115	2489.07
566.477	2501.5
566.839	2521.16
567.201	2518
567.563	2472.35
567.925	2546.92
568.287	2551.67
568.648	2532.01
569.01	2548.96
569.372	2540.82
569.734	2521.84
570.095	2556.19
570.457	2562.52
570.819	2555.06
571.18	2556.87
571.542	2566.36
571.903	2581.5
572.265	2568.17
572.626	2567.49
572.987	2546.92
573.349	2540.15
573.71	2584.66
574.071	2568.62
574.432	2584.89
574.794	2553.03
575.155	2577.66
575.516	2524.55
575.877	2567.26
576.238	2563.42
576.599	2560.94
576.96	2556.64
577.32	2563.65
577.681	2577.43
578.042	2550.99
578.403	2593.48
578.763	2545.34
579.124	2590.54
579.485	2593.7
579.845	2562.07
580.206	2549.64
580.566	2576.08
580.927	2539.47
581.287	2547.83
581.648	2555.06
582.008	2560.03
582.368	2548.73
582.728	2535.17
583.089	2501.28
583.449	2547.15
583.809	2552.57
584.169	2554.83
584.529	2539.47
584.889	2528.62
585.249	2476.19
585.609	2529.98
585.969	2542.18
586.329	2524.33
586.688	2492.24
587.048	2541.73
587.408	2483.42
587.768	2507.15
588.127	2519.13
588.487	2512.58
588.846	2511.67
589.206	2483.2
589.565	2483.88
589.925	2529.07
590.284	2475.06
590.643	2509.41
591.003	2478.68
591.362	2496.53
591.721	2486.14
592.08	2482.52
592.44	2507.15
592.799	2522.52
593.158	2471.45
593.517	2471.9
593.876	2493.14
594.235	2511.45
594.593	2486.59
594.952	2520.71
595.311	2494.72
595.67	2482.75
596.029	2463.76
596.387	2493.37
596.746	2493.59
597.104	2512.35
597.463	2461.73
597.822	2505.57
598.18	2518.45
598.538	2489.75
598.897	2515.51
599.255	2476.19
599.613	2533.59
599.972	2482.97
600.33	2508.28
600.688	2509.19
601.046	2519.13
601.404	2536.53
601.762	2510.32
602.12	2543.08
602.478	2549.41
602.836	2509.86
603.194	2489.07
603.552	2564.33
603.91	2507.15
604.268	2533.37
604.625	2535.17
604.983	2496.08
605.341	2518
605.698	2549.86
606.056	2522.74
606.413	2508.51
606.771	2531.56
607.128	2534.95
607.485	2542.86
607.843	2509.86
608.2	2533.37
608.557	2568.17
608.914	2549.18
609.272	2568.39
609.629	2560.71
609.986	2592.57
610.343	2586.47
610.7	2588.05
611.057	2606.81
611.414	2570.43
611.771	2597.54
612.127	2614.72
612.484	2581.5
612.841	2591.9
613.198	2585.79
613.554	2576.53
613.911	2581.27
614.267	2577.21
614.624	2599.13
614.98	2539.69
615.337	2611.1
615.693	2621.5
616.05	2604.1
616.406	2609.75
616.762	2589.86
617.118	2624.89
617.475	2624.44
617.831	2617.43
618.187	2627.83
618.543	2593.25
618.899	2658.79
619.255	2605.91
619.611	2629.18
619.967	2642.06
620.323	2629.41
620.678	2620.37
621.034	2634.15
621.39	2592.57
621.746	2596.41
622.101	2660.37
622.457	2624.66
622.812	2622.4
623.168	2674.83
623.523	2637.54
623.879	2657.43
624.234	2642.29
624.589	2619.24
624.945	2638.22
625.3	2648.84
625.655	2610.2
626.01	2633.02
626.365	2623.31
626.72	2624.89
627.075	2634.83
627.43	2619.92
627.785	2626.02
628.14	2596.19
628.495	2625.79
628.85	2579.24
629.205	2633.48
629.559	2663.53
629.914	2597.54
630.269	2611.1
630.623	2576.08
630.978	2627.83
631.332	2625.34
631.687	2647.03
632.041	2549.64
632.396	2582.4
632.75	2610.43
633.104	2621.27
633.459	2562.74
633.813	2584.21
634.167	2595.51
634.521	2587.83
634.875	2593.48
635.229	2590.09
635.583	2571.1
635.937	2623.53
636.291	2572.23
636.645	2582.4
636.999	2599.58
637.352	2575.17
637.706	2575.62
638.06	2543.53
638.413	2575.17
638.767	2584.44
639.121	2577.88
639.474	2526.13
639.828	2595.74
640.181	2622.85
640.534	2557.32
640.888	2602.29
641.241	2577.88
641.594	2579.47
641.947	2623.31
642.301	2584.21
642.654	2563.87
643.007	2566.36
643.36	2653.14
643.713	2590.09
644.066	2609.97
644.419	2575.85
644.771	2600.71
645.124	2573.36
645.477	2559.13
645.83	2551.9
646.182	2508.06
646.535	2545.34
646.888	2554.61
647.24	2543.53
647.593	2567.26
647.945	2546.7
648.298	2542.86
648.65	2528.62
649.002	2568.84
649.355	2581.27
649.707	2539.92
650.059	2612.91
650.411	2650.2
650.763	2629.63
651.115	2685
651.467	2663.08
651.819	2668.73
652.171	2695.62
652.523	2658.79
652.875	2689.75
653.227	2690.65
653.578	2692.01
653.93	2719.35
654.282	2703.98
654.633	2718.67
654.985	2732.91
655.337	2753.7
655.688	2715.73
656.039	2746.47
656.391	2750.54
656.742	2770.65
657.094	2792.79
657.445	2822.17
657.796	2791.21
658.147	2803.41
658.498	2823.3
658.849	2830.53
659.2	2818.33
659.551	2863.53
659.902	2856.75
660.253	2913.69
660.604	2894.71
660.955	2895.84
661.306	2912.79
661.656	2939.46
662.007	2977.87
662.358	2950.53
662.708	2973.13
663.059	2974.48
663.409	2982.85
663.76	3023.75
664.11	3017.87
664.461	3053.8
664.811	3055.16
665.161	3017.19
665.511	3049.74
665.862	3089.51
666.212	3114.37
666.562	3139
666.912	3151.2
667.262	3170.19
667.612	3123.63
667.962	3173.35
668.312	3206.34
668.662	3216.06
669.011	3241.6
669.361	3275.49
669.711	3271.2
670.06	3298.32
670.41	3296.06
670.76	3327.24
671.109	3354.81
671.459	3374.02
671.808	3373.57
672.157	3411.99
672.507	3409.5
672.856	3475.49
673.205	3454.47
673.554	3479.78
673.904	3476.17
674.253	3511.19
674.602	3503.96
674.951	3508.48
675.3	3498.76
675.649	3603.17
675.998	3586.45
676.346	3605.65
676.695	3650.62
677.044	3681.36
677.393	3688.14
677.741	3763.84
678.09	3732.66
678.438	3742.37
678.787	3772.2
679.135	3832.09
679.484	3819.89
679.832	3862.82
680.181	3850.17
680.529	3887.23
680.877	3917.28
681.225	3928.36
681.573	3955.48
681.922	3946.44
682.27	3985.76
682.618	4002.93
682.966	4027.34
683.314	4075.7
683.661	4088.35
684.009	4133.1
684.357	4117.5
684.705	4159.09
685.053	4153.89
685.4	4237.05
685.748	4195.47
686.095	4241.34
686.443	4272.75
686.79	4303.26
687.138	4303.94
687.485	4344.62
687.832	4320.89
688.18	4365.18
688.527	4323.83
688.874	4389.59
689.221	4419.87
689.568	4406.99
689.915	4470.49
690.262	4491.28
690.609	4493.54
690.956	4511.17
691.303	4553.2
691.65	4526.99
691.997	4556.59
692.344	4595.46
692.69	4584.84
693.037	4661.9
693.383	4629.36
693.73	4671.39
694.077	4692.4
694.423	4704.83
694.769	4707.09
695.116	4757.94
695.462	4748.9
695.808	4754.1
696.155	4819.41
696.501	4794.55
696.847	4776.47
697.193	4853.3
697.539	4848.33
697.885	4835.23
698.231	4881.1
698.577	4889.01
698.923	4903.47
699.269	4907.09
699.614	4883.81
699.96	4932.62
700.306	4995.22
700.651	4922.46
700.997	5073.41
701.342	5021.66
701.688	5066.86
702.033	5039.97
702.379	5128.1
702.724	5036.8
703.069	5127.42
703.415	5055.33
703.76	5123.13
704.105	5075.22
704.45	5058.27
704.795	5067.08
705.14	5150.25
705.485	5173.3
705.83	5185.73
706.175	5191.37
706.52	5225.72
706.865	5220.07
707.209	5251.26
707.554	5233.18
707.899	5293.07
708.243	5266.63
708.588	5222.33
708.932	5264.37
709.277	5304.59
709.621	5301.2
709.966	5257.59
710.31	5302.78
710.654	5256.68
710.998	5305.27
711.342	5332.39
711.687	5353.86
712.031	5343.46
712.375	5348.66
712.719	5400.63
713.063	5373.74
713.407	5392.27
713.75	5380.3
714.094	5438.15
714.438	5392.5
714.782	5409.9
715.125	5413.97
715.469	5401.76
715.812	5400.63
716.156	5433.63
716.499	5451.93
716.843	5481.54
717.186	5452.38
717.53	5477.47
717.873	5502.33
718.216	5534.64
718.559	5485.83
718.902	5444.7
719.246	5509.56
719.589	5488.54
719.932	5449
720.275	5531.03
720.617	5532.61
720.96	5529.67
721.303	5520.41
721.646	5520.18
721.989	5517.47
722.331	5559.5
722.674	5556.34
723.016	5509.33
723.359	5504.81
723.701	5545.49
724.044	5566.96
724.386	5513.63
724.729	5579.84
725.071	5571.25
725.413	5543.46
725.755	5528.09
726.097	5540.52
726.439	5549.11
726.782	5498.94
727.124	5557.47
727.465	5551.37
727.807	5528.77
728.149	5563.57
728.491	5554.53
728.833	5556.34
729.175	5534.19
729.516	5527.19
729.858	5554.08
730.199	5588.2
730.541	5544.81
730.882	5536.22
731.224	5538.94
731.565	5593.85
731.906	5528.77
732.248	5583.23
732.589	5493.97
732.93	5523.12
733.271	5537.81
733.612	5529.9
733.953	5537.35
734.294	5554.53
734.635	5572.16
734.976	5545.26
735.317	5566.05
735.658	5524.25
735.999	5552.04
736.339	5571.48
736.68	5551.14
737.021	5530.57
737.361	5527.64
737.702	5552.72
738.042	5490.12
738.383	5501.65
738.723	5535.32
739.063	5544.13
739.404	5504.36
739.744	5463.91
740.084	5498.71
740.424	5488.99
740.764	5421.65
741.104	5535.55
741.444	5493.97
741.784	5495.1
742.124	5506.17
742.464	5470.01
742.804	5439.28
743.143	5428.2
743.483	5456.68
743.823	5443.12
744.162	5442.44
744.502	5443.8
744.841	5466.17
745.181	5482.67
745.52	5447.41
745.86	5418.04
746.199	5433.4
746.538	5389.56
746.877	5406.51
747.216	5415.55
747.556	5439.28
747.895	5434.53
748.234	5419.84
748.573	5351.14
748.911	5399.28
749.25	5367.42
749.589	5383.46
749.928	5355.89
750.267	5348.88
750.605	5355.66
750.944	5346.17
751.283	5257.14
751.621	5337.59
751.96	5247.64
752.298	5246.51
752.636	5293.07
752.975	5233.41
753.313	5252.16
753.651	5206.74
753.989	5201.32
754.327	5239.06
754.666	5226.4
755.004	5228.89
755.342	5208.1
755.679	5213.75
756.017	5179.62
756.355	5192.28
756.693	5157.03
757.031	5173.07
757.368	5158.38
757.706	5098.27
758.044	5112.96
758.381	5156.8
758.719	5104.6
759.056	5120.87
759.394	5110.47
759.731	5022.57
760.068	5073.64
760.405	5045.62
760.743	4990.93
761.08	5063.02
761.417	5019.18
761.754	4965.39
762.091	4990.02
762.428	4936.47
762.765	4899.18
763.102	4975.34
763.438	4931.04
763.775	4905.73
764.112	4895.11
764.449	4910.03
764.785	4951.83
765.122	4860.99
765.458	4835.23
765.795	4842.23
766.131	4815.79
766.467	4839.07
766.804	4827.77
767.14	4816.47
767.476	4766.75
767.812	4748.22
768.148	4834.77
768.485	4707.55
768.821	4749.58
769.157	4712.52
769.492	4666.87
769.828	4687.43
770.164	4642.91
770.5	4618.51
770.836	4675.68
771.171	4598.62
771.507	4622.12
771.842	4537.15
772.178	4573.54
772.513	4600.43
772.849	4581.9
773.184	4556.14
773.519	4488.57
773.855	4501
774.19	4498.06
774.525	4502.35
774.86	4477.27
775.195	4503.94
775.53	4460.32
775.865	4405.41
776.2	4420.77
776.535	4345.97
776.87	4377.84
777.205	4366.31
777.539	4318.18
777.874	4342.13
778.209	4339.87
778.543	4315.92
778.878	4259.42
779.212	4276.37
779.547	4251.06
779.881	4271.17
780.215	4235.92
780.55	4211.29
780.884	4168.8
781.218	4247.67
781.552	4204.06
781.886	4127.22
782.22	4170.16
782.554	4164.96
782.888	4099.43
783.222	4084.96
783.556	4095.81
783.889	4084.51
784.223	4025.76
784.557	4082.48
784.89	4043.61
785.224	4080.9
785.557	4014.23
785.891	4024.85
786.224	3950.28
786.558	3989.37
786.891	3949.6
787.224	3956.61
787.557	3942.82
787.891	3909.15
788.224	3929.71
788.557	3894.23
788.89	3891.97
789.223	3896.95
789.556	3853.33
789.888	3848.36
790.221	3848.81
790.554	3852.88
790.887	3834.57
791.219	3825.08
791.552	3791.19
791.884	3790.06
792.217	3781.47
792.549	3762.71
792.882	3774.91
793.214	3715.93
793.546	3713.9
793.879	3713.45
794.211	3696.05
794.543	3690.85
794.875	3713
795.207	3710.96
795.539	3663.96
795.871	3722.26
796.203	3709.83
796.535	3649.95
796.867	3580.8
797.198	3606.11
797.53	3619.66
797.862	3584.64
798.193	3554.13
798.525	3590.29
798.856	3564.98
799.188	3559.1
799.519	3554.13
799.85	3507.35
800.182	3512.1
800.513	3480.23
800.844	3508.71
801.175	3478.88
801.506	3501.48
801.837	3497.86
802.168	3444.53
802.499	3466.67
802.83	3434.81
803.161	3412.21
803.491	3458.31
803.822	3408.37
804.153	3420.57
804.483	3383.29
804.814	3381.25
805.145	3396.85
805.475	3386.68
805.805	3346.45
806.136	3363.4
806.466	3367.24
806.796	3345.55
807.126	3325.44
807.457	3354.13
807.787	3331.76
808.117	3310.29
808.447	3317.3
808.777	3275.04
809.107	3264.19
809.436	3308.94
809.766	3270.52
810.096	3291.09
810.426	3285.66
810.755	3288.83
811.085	3266.68
811.414	3181.71
811.744	3201.37
812.073	3226.23
812.403	3199.34
812.732	3169.96
813.061	3215.83
813.39	3174.7
813.719	3146.68
814.049	3165.67
814.378	3173.35
814.707	3197.3
815.036	3141.03
815.365	3099
815.693	3117.08
816.022	3136.06
816.351	3132.22
816.68	3069.17
817.008	3141.71
817.337	3122.95
817.665	3075.05
817.994	3066.91
818.322	3087.48
818.651	3062.62
818.979	3044.76
819.307	3067.81
819.636	3022.84
819.964	3023.07
820.292	3048.61
820.62	3049.28
820.948	3039.34
821.276	3045.44
821.604	3038.66
821.932	3052.22
822.259	3035.27
822.587	3047.48
822.915	3034.82
823.243	3063.97
823.57	3032.56
823.898	3046.8
824.225	3020.36
824.553	3047.02
824.88	3030.53
825.207	3046.12
825.535	3033.47
825.862	3025.33
826.189	3072.11
826.516	3030.75
826.843	3009.29
827.17	3030.98
827.497	3001.38
827.824	3041.6
828.151	3023.75
828.478	3007.03
828.805	3043.86
829.131	3033.47
829.458	2991.88
829.785	3027.59
830.111	3018.55
830.438	3030.3
830.764	3034.6
831.09	2991.88
831.417	3007.7
831.743	3016.06
832.069	3005.22
832.395	2976.29
832.722	2991.66
833.048	2983.75
833.374	3006.35
833.7	3001.6
834.026	3002.28
834.351	3024.2
834.677	2983.07
835.003	3004.99
835.329	2959.57
835.654	2967.03
835.98	2977.65
836.306	2973.81
836.631	2960.25
836.956	2948.27
837.282	2935.61
837.607	2956.86
837.932	2941.72
838.258	2960.92
838.583	2944.2
838.908	2939.23
839.233	2923.64
839.558	2940.36
839.883	2937.42
840.208	2916.86
840.533	2930.87
840.858	2925.22
841.182	2939.23
841.507	2899.68
841.832	2894.03
842.156	2883.64
842.481	2936.52
842.805	2843.64
843.13	2864.43
843.454	2883.41
843.778	2868.72
844.103	2880.02
844.427	2846.8
844.751	2852.23
845.075	2848.61
845.399	2873.7
845.723	2783.3
846.047	2842.28
846.371	2798.9
846.695	2840.93
847.019	2817.65
847.343	2742.17
847.666	2734.94
847.99	2758.9
848.313	2750.99
848.637	2737.65
848.96	2728.16
849.284	2736.75
849.607	2700.37
849.931	2694.94
850.254	2668.73
850.577	2696.3
850.9	2639.8
851.223	2648.84
851.546	2640.93
851.869	2660.14
852.192	2647.94
852.515	2620.82
852.838	2615.4
853.161	2605.68
853.483	2608.62
853.806	2584.21
854.129	2609.52
854.451	2565.68
854.774	2588.28
855.096	2587.15
855.419	2541.27
855.741	2564.1
856.063	2547.83
856.385	2554.38
856.708	2539.02
857.03	2522.29
857.352	2517.32
857.674	2480.94
857.996	2509.41
858.318	2503.08
858.64	2489.3
858.961	2502.63
859.283	2484.1
859.605	2469.41
859.926	2481.39
860.248	2469.86
860.57	2459.7
860.891	2489.98
861.212	2451.79
861.534	2456.08
861.855	2452.46
862.176	2455.4
862.498	2383.31
862.819	2435.97
863.14	2410.88
863.461	2391
863.782	2385.35
864.103	2423.31
864.424	2380.15
864.745	2415.63
865.065	2401.62
865.386	2397.55
865.707	2407.04
866.027	2369.75
866.348	2377.89
866.668	2372.47
866.989	2368.85
867.309	2367.72
867.63	2390.32
867.95	2370.66
868.27	2332.69
868.59	2370.21
868.91	2366.14
869.23	2331.79
869.55	2329.08
869.87	2341.51
870.19	2345.57
870.51	2339.02
870.83	2343.54
871.15	2334.27
871.469	2348.96
871.789	2355.29
872.109	2343.99
872.428	2320.26
872.748	2335.4
873.067	2331.56
873.386	2335.63
873.706	2297.21
874.025	2307.83
874.344	2311.68
874.663	2302.64
874.982	2287.95
875.301	2295.41
875.62	2270.55
875.939	2263.09
876.258	2300.6
876.577	2246.37
876.896	2239.36
877.214	2280.49
877.533	2301.51
877.852	2269.19
878.17	2230.1
878.489	2251.79
878.807	2254.05
879.125	2242.53
879.444	2283.65
879.762	2240.94
880.08	2231.23
880.398	2242.3
880.716	2229.87
881.034	2264.67
881.352	2231.9
881.67	2226.48
881.988	2259.93
882.306	2231
882.624	2205.24
882.941	2215.18
883.259	2209.08
883.577	2222.64
883.894	2198.69
884.212	2182.87
884.529	2183.54
884.846	2166.82
885.164	2195.52
885.481	2178.57
885.798	2149.42
886.115	2156.2
886.432	2163.88
886.75	2124.79
887.067	2146.94
887.383	2158.46
887.7	2131.34
888.017	2140.61
888.334	2127.95
888.651	2137.22
888.967	2090.67
889.284	2103.55
889.6	2108.52
889.917	2127.95
890.233	2105.13
890.55	2120.95
890.866	2076.2
891.182	2099.48
891.498	2079.37
891.815	2073.49
892.131	2065.13
892.447	2072.36
892.763	2049.54
893.079	2062.42
893.395	2030.55
893.71	2045.47
894.026	2050.44
894.342	2041.18
894.657	2026.49
894.973	2007.28
895.289	2037.79
895.604	2043.43
895.92	2030.55
896.235	1993.72
896.55	2002.08
896.865	2023.77
897.181	1981.74
897.496	2013.83
897.811	1987.62
898.126	1989.88
898.441	1994.17
898.756	1937.22
899.071	1967.05
899.386	1951.01
899.7	1953.95
900.015	1928.18
900.33	1912.59
900.644	1914.62
900.959	1912.59
901.273	1911.24
901.588	1921.86
901.902	1902.65
902.216	1910.78
902.531	1885.47
902.845	1895.42
903.159	1865.59
903.473	1853.84
903.787	1875.3
904.101	1837.56
904.415	1858.13
904.729	1831.46
905.042	1849.99
905.356	1872.37
905.67	1830.33
905.984	1844.8
906.297	1846.6
906.611	1815.19
906.924	1807.06
907.237	1801.63
907.551	1811.58
907.864	1769.32
908.177	1783.1
908.491	1818.81
908.804	1792.14
909.117	1779.94
909.43	1784.23
909.743	1732.03
910.056	1727.96
910.368	1722.54
910.681	1774.29
910.994	1726.61
911.307	1713.73
911.619	1718.92
911.932	1726.83
912.244	1712.82
912.557	1715.99
912.869	1721.41
913.181	1717.12
913.494	1689.32
913.806	1664.91
914.118	1682.99
914.43	1684.57
914.742	1643.67
915.054	1653.39
915.366	1638.93
915.678	1644.12
915.99	1636.67
916.302	1624.24
916.613	1622.2
916.925	1645.25
917.236	1627.85
917.548	1580.85
917.859	1613.16
918.171	1613.84
918.482	1599.83
918.794	1606.16
919.105	1597.35
919.416	1554.18
919.727	1575.2
920.038	1583.56
920.349	1562.54
920.66	1557.12
920.971	1585.82
921.282	1570.45
921.593	1546.72
921.903	1556.44
922.214	1523.67
922.525	1537.69
922.835	1517.35
923.146	1514.86
923.456	1506.27
923.767	1500.17
924.077	1500.17
924.387	1530.23
924.697	1498.36
925.008	1502.43
925.318	1509.21
925.628	1490
925.938	1468.76
926.248	1485.71
926.558	1476.44
926.867	1493.62
927.177	1466.95
927.487	1459.5
927.796	1454.98
928.106	1470.12
928.416	1456.78
928.725	1451.81
929.034	1435.77
929.344	1438.71
929.653	1427.63
929.962	1384.24
930.271	1409.1
930.581	1383.11
930.89	1416.78
931.199	1377.69
931.508	1384.02
931.817	1409.78
932.125	1413.17
932.434	1348.99
932.743	1356.67
933.051	1385.37
933.36	1378.59
933.669	1363.23
933.977	1332.72
934.286	1341.76
934.594	1349.44
934.902	1333.85
935.21	1309.89
935.519	1352.83
935.827	1322.1
936.135	1299.05
936.443	1338.14
936.751	1314.87
937.059	1307.41
937.367	1303.34
937.674	1291.36
937.982	1310.57
938.29	1268.77
938.597	1295.66
938.905	1287.52
939.213	1264.47
939.52	1270.8
939.827	1285.26
940.135	1245.04
940.442	1255.89
940.749	1260.4
941.056	1273.06
941.363	1239.16
941.67	1266.28
941.977	1240.97
942.284	1245.94
942.591	1237.58
942.898	1256.11
943.205	1207.07
943.511	1229.45
943.818	1203.91
944.125	1198.26
944.431	1192.38
944.738	1215.43
945.044	1192.16
945.35	1181.31
945.657	1200.07
945.963	1223.34
946.269	1193.29
946.575	1184.7
946.881	1179.73
947.187	1160.29
947.493	1160.75
947.799	1157.13
948.105	1155.77
948.41	1149.45
948.716	1141.76
949.022	1150.8
949.327	1156
949.633	1141.54
949.938	1131.37
950.244	1149
950.549	1136.57
950.854	1113.97
951.16	1138.15
951.465	1101.76
951.77	1143.35
952.075	1118.94
952.38	1099.28
952.685	1123.69
952.99	1089.56
953.294	1081.2
953.599	1088.66
953.904	1101.09
954.209	1070.35
954.513	1071.26
954.818	1076.23
955.122	1085.72
955.426	1075.32
955.731	1066.29
956.035	1042.56
956.339	1060.18
956.643	1034.65
956.948	1047.98
957.252	1055.89
957.556	1067.87
957.86	1059.51
958.163	1021.99
958.467	1038.72
958.771	1039.39
959.075	1036.23
959.378	1031.71
959.682	1015.67
959.985	1020.64
960.289	1001.88
960.592	1001.43
960.896	1025.16
961.199	1002.78
961.502	1002.56
961.805	994.42
962.108	1016.57
962.411	987.64
962.714	993.75
963.017	996
963.32	986.74
963.623	972.73
963.926	984.25
964.228	969.34
964.531	993.75
964.833	983.12
965.136	961.2
965.438	949.45
965.741	967.53
966.043	957.59
966.345	963.01
966.648	938.15
966.95	938.83
967.252	936.8
967.554	946.97
967.856	924.37
968.158	934.99
968.46	939.28
968.761	928.21
969.063	937.02
969.365	902
969.666	929.57
969.968	915.33
970.269	907.87
970.571	909.91
970.872	909.23
971.174	905.61
971.475	902.45
971.776	916.68
972.077	918.49
972.378	899.28
972.679	920.3
972.98	876.46
973.281	884.14
973.582	883.92
973.883	857.03
974.183	902.9
974.484	907.65
974.785	885.05
975.085	880.08
975.386	886.18
975.686	882.11
975.986	864.03
976.287	881.43
976.587	870.58
976.887	853.41
977.187	867.19
977.487	869.91
977.787	817.7
978.087	870.36
978.387	830.13
978.687	852.73
978.987	832.62
979.286	836.69
979.586	852.05
979.885	821.55
980.185	822
980.484	826.29
980.784	825.16
981.083	863.58
981.382	823.13
981.682	822.9
981.981	816.12
982.28	821.55
982.579	826.52
982.878	802.11
983.177	802.56
983.475	799.4
983.774	822.45
984.073	806.63
984.372	792.39
984.67	811.38
984.969	787.87
985.267	764.6
985.566	768.21
985.864	785.84
986.162	773.64
986.461	771.83
986.759	765.95
987.057	768.44
987.355	789.23
987.653	781.55
987.951	784.26
988.249	763.02
988.547	760.76
988.844	754.2
989.142	757.14
989.44	753.53
989.737	755.79
990.035	761.21
990.332	745.39
990.63	749.91
990.927	739.29
991.224	737.48
991.521	751.49
991.819	716.24
992.116	742.45
992.413	722.11
992.71	739.97
993.006	717.82
993.303	701.55
993.6	741.55
993.897	718.95
994.193	699.52
994.49	718.27
994.787	715.11
995.083	720.98
995.379	702.68
995.676	710.14
995.972	706.97
996.268	712.17
996.565	695.67
996.861	695.67
997.157	703.36
997.453	693.64
997.749	697.26
998.044	701.78
998.34	685.73
998.636	712.4
998.932	691.61
999.227	666.07
999.523	702.68
999.818	662.45
1000.114	682.34
1000.409	638.05
1000.704	690.02
1001	681.89
1001.295	677.37
1001.59	684.15
1001.885	653.42
1002.18	682.11
1002.475	680.31
1002.77	671.72
1003.065	656.8
1003.359	653.64
1003.654	643.92
1003.949	661.55
1004.243	666.97
1004.538	641.21
1004.832	642.57
1005.127	643.92
1005.421	629.01
1005.715	627.65
1006.009	661.1
1006.304	643.47
1006.598	626.98
1006.892	622.46
1007.186	627.43
1007.48	606.18
1007.773	627.88
1008.067	606.64
1008.361	613.42
1008.655	609.12
1008.948	613.19
1009.242	619.07
1009.535	599.86
1009.829	626.52
1010.122	616.35
1010.415	608.67
1010.708	605.51
1011.001	581.78
1011.295	597.6
1011.588	575.9
1011.881	599.86
1012.173	582.23
1012.466	573.19
1012.759	598.95
1013.052	572.06
1013.344	595.11
1013.637	578.84
1013.93	591.72
1014.222	589.01
1014.514	564.6
1014.807	570.48
1015.099	583.36
1015.391	553.98
1015.683	570.25
1015.976	573.42
1016.268	556.69
1016.56	568.67
1016.851	557.6
1017.143	565.73
1017.435	559.86
1017.727	560.76
1018.018	541.33
1018.31	529.8
1018.602	548.33
1018.893	548.79
1019.185	522.57
1019.476	544.49
1019.767	537.26
1020.058	538.62
1020.35	550.82
1020.641	536.81
1020.932	535.45
1021.223	520.76
1021.514	518.28
1021.804	532.29
1022.095	542.68
1022.386	520.31
1022.677	531.61
1022.967	510.14
1023.258	529.35
1023.548	499.97
1023.839	518.73
1024.129	513.98
1024.419	520.31
1024.709	517.83
1025	510.59
1025.29	523.25
1025.58	495.45
1025.87	508.33
1026.16	501.1
1026.449	524.15
1026.739	523.02
1027.029	503.59
1027.319	489.13
1027.608	481.67
1027.898	492.29
1028.187	467.88
1028.477	491.16
1028.766	486.64
1029.055	477.6
1029.344	498.16
1029.634	487.77
1029.923	491.39
1030.212	470.59
1030.501	484.15
1030.79	471.05
1031.078	461.56
1031.367	481.67
1031.656	490.26
1031.945	471.72
1032.233	487.77
1032.522	438.96
1032.81	470.82
1033.099	456.81
1033.387	443.25
1033.675	454.1
1033.963	445.96
1034.251	480.99
1034.54	460.2
1034.828	458.84
1035.116	450.93
1035.403	422.01
1035.691	432.4
1035.979	455.45
1036.267	442.8
1036.554	427.21
1036.842	438.51
1037.129	470.14
1037.417	452.97
1037.704	431.95
1037.992	455.45
1038.279	431.5
1038.566	419.75
1038.853	419.75
1039.14	419.75
