Data from carpet_green_FLMS001491_00036.txt Node
Date: Wed Feb 08 10:35:17 GMT 2017
User: dcchb
Spectrometer: FLMS00149
Trigger mode: 0
Integration Time (sec): 2.000000E-2
Scans to average: 10
Electric dark correction enabled: true
Nonlinearity correction enabled: false
Boxcar width: 0
XAxis mode: Wavelengths
Number of Pixels in Spectrum: 2048
>>>>>Begin Spectral Data<<<<<
341.393	-21.07
341.776	-21.07
342.16	-21.07
342.543	-68.98
342.927	-51.35
343.31	-63.33
343.693	-72.14
344.077	-81.64
344.46	-66.04
344.843	-50.45
345.226	-40.51
345.61	-3.45
345.993	-30.11
346.376	-4.8
346.759	2.2
347.142	36.78
347.525	36.33
347.908	61.64
348.291	82.2
348.674	86.95
349.057	106.38
349.44	146.38
349.823	147.28
350.206	167.4
350.588	169.43
350.971	178.02
351.354	171.01
351.737	224.8
352.119	208.75
352.502	232.25
352.884	253.95
353.267	248.52
353.65	286.94
354.032	275.87
354.414	271.12
354.797	287.85
355.179	288.52
355.562	285.59
355.944	291.01
356.326	316.55
356.709	304.79
357.091	310.44
357.473	308.18
357.855	322.19
358.238	308.86
358.62	315.42
359.002	314.51
359.384	333.49
359.766	313.61
360.148	305.7
360.53	321.74
360.912	320.61
361.294	320.16
361.676	292.37
362.057	310.44
362.439	302.53
362.821	297.34
363.203	294.17
363.584	292.37
363.966	302.76
364.348	299.14
364.729	301.4
365.111	290.78
365.493	281.07
365.874	284.46
366.256	305.7
366.637	307.96
367.019	285.59
367.4	278.35
367.781	292.59
368.163	284.23
368.544	280.84
368.925	297.34
369.306	288.52
369.688	273.38
370.069	278.81
370.45	289.43
370.831	286.94
371.212	303.66
371.593	270.67
371.974	291.69
372.355	295.08
372.736	282.87
373.117	277.45
373.498	276.32
373.879	285.59
374.26	271.8
374.641	271.57
375.021	271.35
375.402	296.66
375.783	277.22
376.163	281.97
376.544	286.49
376.925	289.43
377.305	293.95
377.686	272.7
378.066	290.78
378.447	293.72
378.827	285.59
379.208	302.76
379.588	289.2
379.968	307.05
380.349	309.31
380.729	297.79
381.109	286.94
381.489	286.72
381.87	299.82
382.25	297.79
382.63	289.43
383.01	312.03
383.39	308.86
383.77	307.28
384.15	311.12
384.53	291.24
384.91	300.27
385.29	270.22
385.67	298.47
386.049	307.05
386.429	300.05
386.809	304.79
387.189	301.18
387.568	293.04
387.948	316.77
388.328	294.4
388.707	301.18
389.087	291.46
389.466	310.67
389.846	311.8
390.225	300.27
390.605	314.06
390.984	306.83
391.363	321.29
391.743	300.73
392.122	321.52
392.501	310.44
392.881	301.86
393.26	294.4
393.639	300.27
394.018	295.08
394.397	291.46
394.776	337.11
395.155	302.76
395.534	306.38
395.913	317.45
396.292	330.1
396.671	305.92
397.05	320.39
397.429	317.22
397.808	308.64
398.186	302.99
398.565	324.68
398.944	320.61
399.323	291.91
399.701	328.75
400.08	306.6
400.458	317
400.837	324.91
401.215	322.42
401.594	302.76
401.972	319.26
402.351	311.8
402.729	328.3
403.107	312.93
403.486	286.94
403.864	307.28
404.242	324.23
404.62	339.6
404.999	328.52
405.377	317
405.755	320.61
406.133	322.19
406.511	343.21
406.889	312.93
407.267	339.14
407.645	321.52
408.023	318.13
408.401	313.61
408.779	324.68
409.156	316.09
409.534	350.22
409.912	311.57
410.29	314.74
410.667	342.31
411.045	315.64
411.422	329.43
411.8	332.14
412.178	323.32
412.555	340.27
412.933	325.58
413.31	327.17
413.687	335.75
414.065	338.01
414.442	322.19
414.819	331.69
415.197	332.14
415.574	318.81
415.951	341.18
416.328	336.43
416.705	326.94
417.082	336.21
417.46	351.35
417.837	331.23
418.214	332.14
418.591	326.26
418.967	346.38
419.344	336.66
419.721	352.25
420.098	339.14
420.475	338.92
420.852	358.35
421.228	347.73
421.605	360.39
421.982	351.57
422.358	363.55
422.735	361.06
423.111	364.68
423.488	325.36
423.864	349.09
424.241	369.2
424.617	335.98
424.994	387.28
425.37	334.4
425.746	360.16
426.123	347.73
426.499	371.01
426.875	357.67
427.251	357.67
427.627	342.99
428.003	357.67
428.379	364.23
428.756	366.49
429.132	352.7
429.507	358.35
429.883	353.15
430.259	365.13
430.635	361.06
431.011	367.17
431.387	367.84
431.763	354.06
432.138	360.39
432.514	369.2
432.89	373.94
433.265	368.52
433.641	352.93
434.016	362.19
434.392	382.08
434.767	356.09
435.143	367.62
435.518	380.95
435.894	381.4
436.269	380.5
436.644	384.79
437.02	401.29
437.395	380.5
437.77	372.36
438.145	388.86
438.52	387.96
438.895	392.7
439.271	398.58
439.646	382.76
440.021	387.5
440.395	390.89
440.77	408.07
441.145	392.7
441.52	400.84
441.895	396.77
442.27	384.57
442.645	377.79
443.019	403.55
443.394	404.45
443.769	392.02
444.143	386.83
444.518	390.67
444.892	399.71
445.267	377.79
445.641	383.66
446.016	402.42
446.39	407.39
446.764	402.42
447.139	405.81
447.513	415.98
447.887	412.36
448.262	412.36
448.636	384.57
449.01	399.03
449.384	426.82
449.758	416.66
450.132	449.65
450.506	422.08
450.88	418.01
451.254	428.41
451.628	421.18
452.002	393.38
452.376	427.95
452.75	407.39
453.123	432.47
453.497	428.86
453.871	461.17
454.244	421.18
454.618	425.02
454.992	425.92
455.365	433.15
455.739	428.86
456.112	439.71
456.486	437.22
456.859	428.63
457.232	439.93
457.606	458.69
457.979	434.73
458.352	438.8
458.725	448.97
459.099	452.81
459.472	454.62
459.845	465.47
460.218	444.45
460.591	461.4
460.964	453.04
461.337	474.73
461.71	482.19
462.083	455.98
462.456	480.38
462.829	467.95
463.201	466.82
463.574	452.14
463.947	486.03
464.32	496.43
464.692	503.43
465.065	483.32
465.438	495.98
465.81	484.68
466.183	488.29
466.555	512.25
466.928	504.56
467.3	522.87
467.672	512.92
468.045	498.69
468.417	507.73
468.789	537.78
469.161	522.19
469.534	511.57
469.906	521.51
470.278	538.01
470.65	543.88
471.022	531.68
471.394	527.39
471.766	552.92
472.138	548.18
472.51	553.83
472.882	567.84
473.253	559.93
473.625	565.8
473.997	561.06
474.369	566.71
474.74	561.74
475.112	595.18
475.484	586.37
475.855	612.13
476.227	593.37
476.598	608.52
476.97	615.97
477.341	613.71
477.713	607.16
478.084	639.47
478.455	636.76
478.827	645.12
479.198	625.24
479.569	657.33
479.94	669.76
480.311	669.98
480.682	704.33
481.053	681.06
481.424	683.77
481.795	700.26
482.166	686.48
482.537	723.09
482.908	702.3
483.279	730.09
483.65	712.02
484.021	739.59
484.391	739.81
484.762	763.77
485.133	774.84
485.503	764.22
485.874	781.84
486.244	792.24
486.615	801.73
486.985	805.35
487.356	825.01
487.726	793.37
488.097	835.85
488.467	822.07
488.837	828.4
489.207	869.98
489.578	866.59
489.948	873.14
490.318	862.29
490.688	861.84
491.058	876.08
491.428	864.78
491.798	883.31
492.168	904.55
492.538	906.36
492.908	923.54
493.278	904.33
493.648	919.69
494.017	938.68
494.387	963.76
494.757	940.03
495.126	944.55
495.496	931.67
495.866	942.97
496.235	967.83
496.605	1001.73
496.974	1007.6
497.344	997.66
497.713	1008.96
498.082	988.39
498.452	985.23
498.821	994.49
499.19	1018.45
499.559	1018.9
499.928	1050.54
500.298	1014.61
500.667	1031.78
501.036	1058.9
501.405	1008.5
501.774	1025.23
502.143	1062.74
502.512	1055.96
502.88	1045.34
503.249	1077.43
503.618	1064.32
503.987	1039.24
504.356	1070.42
504.724	1067.03
505.093	1073.81
505.462	1095.51
505.83	1064.77
506.199	1103.87
506.567	1116.52
506.936	1099.12
507.304	1097.09
507.672	1099.8
508.041	1129.41
508.409	1130.08
508.777	1115.62
509.145	1117.43
509.514	1141.83
509.882	1122.85
510.25	1113.81
510.618	1122.17
510.986	1138.67
511.354	1154.04
511.722	1151.78
512.09	1173.92
512.458	1168.95
512.826	1147.03
513.193	1192.45
513.561	1172.12
513.929	1185
514.297	1182.06
514.664	1204.66
515.032	1169.63
515.4	1199.46
515.767	1190.42
516.135	1204.88
516.502	1206.24
516.869	1224.32
517.237	1218.22
517.604	1172.34
517.972	1235.62
518.339	1227.03
518.706	1229.97
519.073	1227.93
519.44	1233.81
519.808	1256.18
520.175	1270.42
520.542	1262.74
520.909	1248.05
521.276	1241.49
521.643	1252.79
522.009	1261.38
522.376	1280.36
522.743	1277.2
523.11	1277.65
523.477	1282.85
523.843	1287.82
524.21	1310.19
524.577	1307.03
524.943	1332.79
525.31	1316.29
525.676	1296.18
526.043	1312
526.409	1302.28
526.776	1329.4
527.142	1340.93
527.508	1321.49
527.874	1335.05
528.241	1344.09
528.607	1329.63
528.973	1334.15
529.339	1346.35
529.705	1352.68
530.071	1345.67
530.437	1340.02
530.803	1350.87
531.169	1389.74
531.535	1375.05
531.901	1393.58
532.267	1352.22
532.632	1358.33
532.998	1383.64
533.364	1374.6
533.73	1382.96
534.095	1374.37
534.461	1400.13
534.826	1379.12
535.192	1393.81
535.557	1388.16
535.923	1390.42
536.288	1382.05
536.653	1408.27
537.019	1379.79
537.384	1402.84
537.749	1387.03
538.114	1355.61
538.479	1411.88
538.845	1415.05
539.21	1386.35
539.575	1404.88
539.94	1427.02
540.305	1414.6
540.67	1404.65
541.034	1399.23
541.399	1389.06
541.764	1423.41
542.129	1384.99
542.494	1411.21
542.858	1405.33
543.223	1415.05
543.587	1398.55
543.952	1402.39
544.316	1406.46
544.681	1385.44
545.045	1418.44
545.41	1393.81
545.774	1401.94
546.138	1413.92
546.503	1419.57
546.867	1412.79
547.231	1424.54
547.595	1431.09
547.959	1403.52
548.324	1406.23
548.688	1436.97
549.052	1433.35
549.416	1403.07
549.779	1446.01
550.143	1409.4
550.507	1424.09
550.871	1443.97
551.235	1427.93
551.599	1406.01
551.962	1419.34
552.326	1446.23
552.689	1462.5
553.053	1444.2
553.417	1450.3
553.78	1437.42
554.143	1443.52
554.507	1452.11
554.87	1452.11
555.234	1481.26
555.597	1460.92
555.96	1468.15
556.323	1472.67
556.686	1445.78
557.05	1449.4
557.413	1452.56
557.776	1483.29
558.139	1474.71
558.502	1482.62
558.865	1464.99
559.228	1482.84
559.59	1487.36
559.953	1473.13
560.316	1492.56
560.679	1483.29
561.041	1503.63
561.404	1523.07
561.767	1518.32
562.129	1526.01
562.492	1537.08
562.854	1516.06
563.217	1534.59
563.579	1526.46
563.941	1540.02
564.304	1534.37
564.666	1516.97
565.028	1538.66
565.39	1553.57
565.753	1524.42
566.115	1530.3
566.477	1544.54
566.839	1550.41
567.201	1564.65
567.563	1542.28
567.925	1537.98
568.287	1540.02
568.648	1550.64
569.01	1514.25
569.372	1557.64
569.734	1560.35
570.095	1537.3
570.457	1564.2
570.819	1580.47
571.18	1558.32
571.542	1570.3
571.903	1567.36
572.265	1592.44
572.626	1580.01
572.987	1547.47
573.349	1565.78
573.71	1562.61
574.071	1570.3
574.432	1560.58
574.794	1574.82
575.155	1575.04
575.516	1578.66
575.877	1571.2
576.238	1558.09
576.599	1563.07
576.96	1566.68
577.32	1555.61
577.681	1568.49
578.042	1553.35
578.403	1553.12
578.763	1587.02
579.124	1535.04
579.485	1559.9
579.845	1586.79
580.206	1547.25
580.566	1552.67
580.927	1532.56
581.287	1553.8
581.648	1534.59
582.008	1570.75
582.368	1557.64
582.728	1560.13
583.089	1545.89
583.449	1533.01
583.809	1545.67
584.169	1554.93
584.529	1539.56
584.889	1535.72
585.249	1513.35
585.609	1524.42
585.969	1525.1
586.329	1515.16
586.688	1515.38
587.048	1516.06
587.408	1542.5
587.768	1508.83
588.127	1502.73
588.487	1486.46
588.846	1520.36
589.206	1532.78
589.565	1519.45
589.925	1532.33
590.284	1491.2
590.643	1494.82
591.003	1476.51
591.362	1498.89
591.721	1482.84
592.08	1516.74
592.44	1494.37
592.799	1470.64
593.158	1527.59
593.517	1507.47
593.876	1498.89
594.235	1489.62
594.593	1484.2
594.952	1480.13
595.311	1495.72
595.67	1502.05
596.029	1508.38
596.387	1472.9
596.746	1503.41
597.104	1505.21
597.463	1498.21
597.822	1511.09
598.18	1481.49
598.538	1460.92
598.897	1471.32
599.255	1503.18
599.613	1505.67
599.972	1528.94
600.33	1475.61
600.688	1500.92
601.046	1518.1
601.404	1511.32
601.762	1484.42
602.12	1509.06
602.478	1500.7
602.836	1503.86
603.194	1507.93
603.552	1487.14
603.91	1478.55
604.268	1547.7
604.625	1504.08
604.983	1528.94
605.341	1504.54
605.698	1499.57
606.056	1509.28
606.413	1516.51
606.771	1538.89
607.128	1509.06
607.485	1530.75
607.843	1541.82
608.2	1529.85
608.557	1521.49
608.914	1508.6
609.272	1511.32
609.629	1543.63
609.986	1548.38
610.343	1540.92
610.7	1540.24
611.057	1534.59
611.414	1537.53
611.771	1514.03
612.127	1526.68
612.484	1553.57
612.841	1538.66
613.198	1544.99
613.554	1529.85
613.911	1545.89
614.267	1552.22
614.624	1547.93
614.98	1553.12
615.337	1576.63
615.693	1530.98
616.05	1532.11
616.406	1542.73
616.762	1525.55
617.118	1556.06
617.475	1532.56
617.831	1598.55
618.187	1580.24
618.543	1552.67
618.899	1563.97
619.255	1556.29
619.611	1547.93
619.967	1564.87
620.323	1569.39
620.678	1562.61
621.034	1568.94
621.39	1545.89
621.746	1557.42
622.101	1571.43
622.457	1567.81
622.812	1579.11
623.168	1567.36
623.523	1573.91
623.879	1545.44
624.234	1572.33
624.589	1553.8
624.945	1555.16
625.3	1559
625.655	1557.19
626.01	1570.75
626.365	1564.87
626.72	1595.61
627.075	1600.35
627.43	1544.08
627.785	1541.15
628.14	1570.52
628.495	1549.96
628.85	1568.72
629.205	1529.39
629.559	1565.78
629.914	1556.74
630.269	1553.12
630.623	1551.54
630.978	1522.62
631.332	1539.56
631.687	1544.54
632.041	1566.91
632.396	1536.85
632.75	1558.09
633.104	1562.16
633.459	1528.26
633.813	1554.48
634.167	1561.03
634.521	1547.02
634.875	1557.64
635.229	1534.37
635.583	1524.65
635.937	1551.54
636.291	1561.03
636.645	1543.86
636.999	1553.8
637.352	1551.09
637.706	1532.78
638.06	1525.55
638.413	1535.04
638.767	1537.3
639.121	1504.08
639.474	1504.76
639.828	1519
640.181	1495.5
640.534	1507.25
640.888	1515.16
641.241	1523.97
641.594	1518.1
641.947	1527.81
642.301	1527.36
642.654	1526.23
643.007	1516.74
643.36	1515.16
643.713	1541.37
644.066	1555.61
644.419	1540.47
644.771	1542.05
645.124	1515.84
645.477	1511.99
645.83	1491.2
646.182	1524.65
646.535	1523.07
646.888	1518.77
647.24	1499.11
647.593	1525.1
647.945	1532.11
648.298	1522.39
648.65	1518.77
649.002	1533.46
649.355	1562.84
649.707	1549.28
650.059	1555.38
650.411	1564.2
650.763	1561.26
651.115	1567.36
651.467	1582.05
651.819	1592.22
652.171	1608.49
652.523	1577.08
652.875	1591.77
653.227	1580.47
653.578	1608.26
653.93	1603.29
654.282	1613.23
654.633	1589.96
654.985	1644.42
655.337	1621.37
655.688	1643.52
656.039	1636.28
656.391	1646.45
656.742	1647.81
657.094	1637.64
657.445	1680.13
657.796	1643.52
658.147	1642.39
658.498	1659.79
658.849	1673.35
659.2	1690.97
659.551	1688.26
659.902	1670.41
660.253	1711.54
660.604	1708.37
660.955	1702.5
661.306	1733.23
661.656	1719.45
662.007	1724.42
662.358	1746.11
662.708	1743.63
663.059	1756.28
663.409	1762.38
663.76	1758.09
664.11	1780.01
664.461	1801.7
664.811	1801.93
665.161	1830.63
665.511	1857.75
665.862	1868.14
666.212	1854.36
666.562	1841.7
666.912	1894.36
667.262	1883.74
667.612	1891.19
667.962	1896.62
668.312	1894.81
668.662	1913.11
669.011	1949.72
669.361	1926.45
669.711	1953.56
670.06	1970.29
670.41	1972.55
670.76	2001.47
671.109	2020.23
671.459	2029.27
671.808	2028.59
672.157	2013.9
672.507	2047.8
672.856	2073.56
673.205	2084.86
673.554	2097.29
673.904	2116.27
674.253	2150.17
674.602	2134.58
674.951	2144.52
675.3	2118.98
675.649	2171.64
675.998	2189.49
676.346	2212.09
676.695	2227.46
677.044	2247.57
677.393	2275.36
677.741	2274.01
678.09	2269.71
678.438	2302.26
678.787	2327.34
679.135	2319.2
679.484	2325.31
679.832	2397.17
680.181	2376.83
680.529	2424.06
680.877	2444.17
681.225	2410.05
681.573	2477.39
681.922	2476.49
682.27	2501.8
682.618	2514
682.966	2553.1
683.314	2565.75
683.661	2593.55
684.009	2582.02
684.357	2594.45
684.705	2613.89
685.053	2627.67
685.4	2623.15
685.748	2645.3
686.095	2669.03
686.443	2676.03
686.79	2675.81
687.138	2753.32
687.485	2739.53
687.832	2737.72
688.18	2796.03
688.527	2773.2
688.874	2813.65
689.221	2865.4
689.568	2872.86
689.915	2858.17
690.262	2897.49
690.609	2900.43
690.956	2941.11
691.303	2938.17
691.65	2963.03
691.997	2966.87
692.344	2989.24
692.69	2978.4
693.037	3025.17
693.383	3018.4
693.73	3068.56
694.077	3062.91
694.423	3059.52
694.769	3093.87
695.116	3113.31
695.462	3145.17
695.808	3124.16
696.155	3191.05
696.501	3189.92
696.847	3190.14
697.193	3186.98
697.539	3259.29
697.885	3233.3
698.231	3208.45
698.577	3275.11
698.923	3322.79
699.269	3298.16
699.614	3328.67
699.96	3341.78
700.306	3366.63
700.651	3364.37
700.997	3361.89
701.342	3407.54
701.688	3417.48
702.033	3415.9
702.379	3459.74
702.724	3461.77
703.069	3501.55
703.415	3496.35
703.76	3482.79
704.105	3502.22
704.45	3512.17
704.795	3567.31
705.14	3571.6
705.485	3544.03
705.83	3557.59
706.175	3568.66
706.52	3635.55
706.865	3650.69
707.209	3629.45
707.554	3640.98
707.899	3671.49
708.243	3674.88
708.588	3690.47
708.932	3674.2
709.277	3692.28
709.621	3724.82
709.966	3771.82
710.31	3693.86
710.654	3711.71
710.998	3788.77
711.342	3790.8
711.687	3793.97
712.031	3777.92
712.375	3795.55
712.719	3810.24
713.063	3847.3
713.407	3864.02
713.75	3871.71
714.094	3890.24
714.438	3910.8
714.782	3887.52
715.125	3906.28
715.469	3909.45
715.812	3929.56
716.156	3899.28
716.499	3942.44
716.843	3991.03
717.186	3966.84
717.53	4015.21
717.873	4001.42
718.216	3993.06
718.559	4006.39
718.902	3968.43
719.246	3992.61
719.589	3994.87
719.932	3981.53
720.275	4048.2
720.617	4016.79
720.96	4027.63
721.303	4060.4
721.646	4073.06
721.989	4005.94
722.331	4092.94
722.674	4057.01
723.016	4095.2
723.359	4100.17
723.701	4116.22
724.044	4071.25
724.386	4096.56
724.729	4151.02
725.071	4138.59
725.413	4104.24
725.755	4163
726.097	4137.46
726.439	4123.22
726.782	4141.76
727.124	4164.58
727.465	4130.46
727.807	4143.11
728.149	4165.03
728.491	4188.76
728.833	4133.17
729.175	4184.92
729.516	4157.12
729.858	4170.23
730.199	4188.53
730.541	4166.84
730.882	4181.53
731.224	4193.73
731.565	4175.2
731.906	4191.02
732.248	4172.04
732.589	4172.94
732.93	4215.43
733.271	4172.72
733.612	4190.34
733.953	4217.23
734.294	4204.13
734.635	4218.59
734.976	4231.24
735.317	4211.36
735.658	4207.29
735.999	4189.66
736.339	4212.26
736.68	4216.33
737.021	4222.21
737.361	4226.73
737.702	4177.01
738.042	4241.41
738.383	4199.61
738.723	4209.78
739.063	4218.36
739.404	4261.53
739.744	4214.07
740.084	4219.49
740.424	4195.54
740.764	4219.27
741.104	4212.04
741.444	4178.36
741.784	4178.59
742.124	4193.51
742.464	4191.47
742.804	4218.59
743.143	4191.02
743.483	4192.38
743.823	4150.34
744.162	4139.95
744.502	4233.5
744.841	4123.68
745.181	4119.61
745.52	4186.73
745.86	4181.53
746.199	4164.13
746.538	4197.8
746.877	4182.88
747.216	4158.25
747.556	4160.96
747.895	4144.47
748.234	4146.95
748.573	4173.17
748.911	4146.28
749.25	4171.13
749.589	4097.46
749.928	4145.82
750.267	4111.25
750.605	4115.32
750.944	4128.2
751.283	4140.85
751.621	4131.81
751.96	4076.67
752.298	4078.48
752.636	4058.59
752.975	4063.34
753.313	4057.24
753.651	4083.68
753.989	4042.55
754.327	4013.4
754.666	3993.51
755.004	3983.34
755.342	3993.51
755.679	4014.75
756.017	3999.84
756.355	4045.03
756.693	3987.86
757.031	4016.79
757.368	3989.44
757.706	4005.04
758.044	3955.77
758.381	3924.36
758.719	3969.33
759.056	3962.55
759.394	3931.59
759.731	3910.8
760.068	3903.12
760.405	3917.81
760.743	3890.46
761.08	3895.21
761.417	3849.33
761.754	3862.89
762.091	3862.21
762.428	3869.22
762.765	3881.42
763.102	3818.15
763.438	3806.62
763.775	3792.39
764.112	3833.74
764.449	3812.95
764.785	3804.59
765.122	3775.66
765.458	3760.3
765.795	3739.51
766.131	3731.82
766.467	3752.16
766.804	3757.13
767.14	3773.63
767.476	3695.89
767.812	3705.83
768.148	3688.89
768.485	3651.15
768.821	3660.64
769.157	3607.98
769.492	3632.84
769.828	3659.96
770.164	3621.54
770.5	3626.74
770.836	3606.85
771.171	3584.48
771.507	3557.59
771.842	3594.43
772.178	3602.11
772.513	3559.85
772.849	3549
773.184	3522.56
773.519	3504.48
773.855	3519.85
774.19	3519.85
774.525	3520.53
774.86	3459.97
775.195	3450.02
775.53	3458.61
775.865	3447.08
776.2	3420.87
776.535	3412.28
776.87	3412.06
777.205	3397.14
777.539	3392.85
777.874	3387.2
778.209	3379.06
778.543	3382.45
778.878	3319.63
779.212	3336.58
779.547	3289.8
779.881	3341.78
780.215	3322.57
780.55	3336.35
780.884	3297.71
781.218	3262.91
781.552	3278.95
781.886	3271.04
782.22	3243.02
782.554	3228.11
782.888	3214.32
783.222	3202.35
783.556	3164.38
783.889	3182.91
784.223	3165.74
784.557	3150.82
784.89	3150.14
785.224	3150.14
785.557	3162.8
785.891	3145.62
786.224	3123.25
786.558	3162.8
786.891	3113.08
787.224	3090.03
787.557	3084.61
787.891	3095.91
788.224	3084.83
788.557	3069.24
788.89	3062.91
789.223	3079.64
789.556	3033.54
789.888	3042.8
790.221	3005.74
790.554	2978.4
790.887	3014.55
791.219	3003.93
791.552	3021.78
791.884	3017.27
792.217	2986.31
792.549	2937.95
792.882	2961
793.214	2932.75
793.546	2929.81
793.879	2949.02
794.211	2907.89
794.543	2924.84
794.875	2881.22
795.207	2923.26
795.539	2892.3
795.871	2907.89
796.203	2853.2
796.535	2877.83
796.867	2847.33
797.198	2862.92
797.53	2844.84
797.862	2813.88
798.193	2844.39
798.525	2799.87
798.856	2818.4
799.188	2814.33
799.519	2756.93
799.85	2744.96
800.182	2744.05
800.513	2751.74
800.844	2687.33
801.175	2762.58
801.506	2699.08
801.837	2752.41
802.168	2723.04
802.499	2699.08
802.83	2716.71
803.161	2699.99
803.491	2716.71
803.822	2716.26
804.153	2651.63
804.483	2672.64
804.814	2656.6
805.145	2644.85
805.475	2654.34
805.805	2641.46
806.136	2641.68
806.466	2618.86
806.796	2615.92
807.126	2644.62
807.457	2594.45
807.787	2607.11
808.117	2578.18
808.447	2600.1
808.777	2599.88
809.107	2566.2
809.436	2591.29
809.766	2579.31
810.096	2564.4
810.426	2550.84
810.755	2577.95
811.085	2558.97
811.414	2546.77
811.744	2529.82
812.073	2539.09
812.403	2543.15
812.732	2540.22
813.061	2527.56
813.39	2488.01
813.719	2514
814.049	2474.68
814.378	2514.91
814.707	2470.39
815.036	2495.02
815.365	2439.65
815.693	2448.47
816.022	2424.29
816.351	2467
816.68	2451.18
817.008	2468.81
817.337	2440.11
817.665	2449.37
817.994	2441.46
818.322	2419.31
818.651	2412.99
818.979	2402.37
819.307	2431.97
819.636	2406.21
819.964	2398.52
820.292	2409.15
820.62	2450.5
820.948	2410.28
821.276	2412.99
821.604	2393.33
821.932	2405.53
822.259	2390.84
822.587	2387.45
822.915	2365.31
823.243	2397.85
823.57	2363.05
823.898	2377.73
824.225	2390.62
824.553	2367.11
824.88	2381.35
825.207	2429.94
825.535	2397.17
825.862	2386.1
826.189	2404.63
826.516	2406.21
826.843	2371.41
827.17	2376.6
827.497	2357.17
827.824	2374.12
828.151	2407.11
828.478	2358.98
828.805	2403.72
829.131	2405.08
829.458	2388.13
829.785	2352.88
830.111	2351.52
830.438	2340.9
830.764	2362.37
831.09	2367.11
831.417	2353.78
831.743	2393.55
832.069	2386.77
832.395	2376.38
832.722	2344.97
833.048	2361.69
833.374	2376.83
833.7	2351.07
834.026	2364.4
834.351	2334.35
834.677	2377.06
835.003	2347.9
835.329	2316.04
835.654	2337.06
835.98	2329.15
836.306	2320.11
836.631	2350.84
836.956	2350.39
837.282	2376.6
837.607	2317.85
837.932	2332.09
838.258	2346.77
838.583	2316.94
838.908	2295.93
839.233	2331.41
839.558	2304.52
839.883	2324.63
840.208	2293.44
840.533	2316.27
840.858	2298.41
841.182	2311.75
841.507	2332.54
841.832	2269.94
842.156	2318.3
842.481	2291.63
842.805	2246.44
843.13	2270.39
843.454	2256.61
843.778	2276.72
844.103	2261.13
844.427	2257.06
844.751	2241.69
845.075	2228.81
845.399	2230.39
845.723	2239.43
846.047	2224.07
846.371	2213.67
846.695	2215.7
847.019	2210.73
847.343	2201.47
847.666	2207.8
847.99	2159.43
848.313	2152.43
848.637	2159.89
848.96	2157.63
849.284	2181.36
849.607	2178.19
849.931	2148.14
850.254	2130.96
850.577	2113.56
850.9	2079.89
851.223	2108.59
851.546	2088.93
851.869	2113.11
852.192	2097.74
852.515	2088.02
852.838	2082.15
853.161	2063.39
853.483	2082.6
853.806	2079.21
854.129	2050.29
854.451	2018.42
854.774	2052.09
855.096	2039.44
855.419	2030.85
855.741	2023.39
856.063	2001.25
856.385	2031.53
856.708	2011.42
857.03	1998.54
857.352	1996.5
857.674	2014.81
857.996	2005.77
858.318	1977.07
858.64	2008.7
858.961	1964.41
859.283	1979.1
859.605	1994.92
859.926	1964.86
860.248	2008.48
860.57	1960.57
860.891	1941.36
861.212	1949.72
861.534	1922.6
861.855	1951.98
862.176	1939.78
862.498	1937.29
862.819	1958.54
863.14	1924.64
863.461	1921.93
863.782	1914.24
864.103	1916.28
864.424	1948.59
864.745	1933.23
865.065	1878.31
865.386	1874.7
865.707	1931.87
866.027	1911.53
866.348	1900.68
866.668	1921.02
866.989	1902.72
867.309	1883.28
867.63	1878.31
867.95	1899.1
868.27	1880.57
868.59	1890.06
868.91	1862.27
869.23	1885.09
869.55	1875.83
869.87	1841.48
870.19	1863.62
870.51	1861.14
870.83	1900.91
871.15	1848.71
871.469	1850.29
871.789	1862.49
872.109	1857.97
872.428	1858.2
872.748	1860.69
873.067	1830.63
873.386	1810.74
873.706	1820.01
874.025	1831.08
874.344	1815.26
874.663	1837.86
874.982	1862.95
875.301	1818.65
875.62	1816.39
875.939	1807.58
876.258	1803.74
876.577	1792.66
876.896	1817.3
877.214	1809.39
877.533	1831.99
877.852	1797.64
878.17	1838.99
878.489	1784.76
878.807	1824.08
879.125	1813.91
879.444	1787.69
879.762	1773.91
880.08	1786.34
880.398	1792.89
880.716	1776.17
881.034	1787.02
881.352	1811.42
881.67	1780.01
881.988	1783.63
882.306	1776.39
882.624	1756.06
882.941	1771.87
883.259	1739.11
883.577	1720.35
883.894	1738.43
884.212	1739.78
884.529	1749.95
884.846	1718.09
885.164	1743.4
885.481	1735.72
885.798	1746.11
886.115	1713.12
886.432	1725.32
886.75	1729.16
887.067	1707.92
887.383	1714.93
887.7	1723.29
888.017	1716.73
888.334	1720.58
888.651	1702.27
888.967	1690.97
889.284	1725.32
889.6	1713.34
889.917	1669.05
890.233	1675.15
890.55	1651.88
890.866	1646.91
891.182	1662.05
891.498	1674.7
891.815	1661.82
892.131	1680.35
892.447	1660.24
892.763	1650.52
893.079	1654.14
893.395	1645.1
893.71	1605.1
894.026	1646.23
894.342	1613.46
894.657	1612.1
894.973	1614.59
895.289	1631.77
895.604	1617.3
895.92	1600.81
896.235	1579.79
896.55	1582.95
896.865	1617.3
897.181	1613.46
897.496	1604.87
897.811	1592.22
898.126	1578.66
898.441	1568.94
898.756	1561.03
899.071	1551.32
899.386	1597.64
899.7	1568.72
900.015	1550.19
900.33	1564.87
900.644	1528.72
900.959	1528.26
901.273	1543.86
901.588	1538.21
901.902	1518.1
902.216	1504.76
902.531	1508.83
902.845	1505.67
903.159	1503.18
903.473	1494.14
903.787	1522.39
904.101	1491.2
904.415	1482.62
904.729	1490.3
905.042	1510.86
905.356	1504.76
905.67	1473.35
905.984	1471.77
906.297	1473.58
906.611	1483.75
906.924	1488.94
907.237	1459.11
907.551	1469.51
907.864	1445.56
908.177	1452.33
908.491	1450.3
908.804	1438.32
909.117	1424.31
909.43	1392.45
909.743	1427.02
910.056	1416.18
910.368	1393.13
910.681	1408.27
910.994	1423.41
911.307	1395.84
911.619	1369.4
911.932	1397.19
912.244	1376.18
912.557	1384.09
912.869	1380.02
913.181	1391.09
913.494	1350.42
913.806	1347.7
914.118	1362.62
914.43	1368.72
914.742	1330.53
915.054	1349.06
915.366	1341.6
915.678	1355.84
915.99	1324.2
916.302	1313.81
916.613	1335.5
916.925	1324.2
917.236	1328.5
917.548	1307.25
917.859	1298.89
918.171	1310.19
918.482	1305.22
918.794	1279.01
919.105	1309.06
919.416	1266.12
919.727	1264.54
920.038	1275.39
920.349	1260.25
920.66	1281.49
920.971	1274.03
921.282	1256.18
921.593	1226.13
921.903	1256.86
922.214	1260.02
922.525	1232.91
922.835	1244.66
923.146	1221.83
923.456	1232
923.767	1233.36
924.077	1230.87
924.387	1227.71
924.697	1233.81
925.008	1214.15
925.318	1201.95
925.628	1222.96
925.938	1191.55
926.248	1207.37
926.558	1200.82
926.867	1206.01
927.177	1187.71
927.487	1180.7
927.796	1144.32
928.106	1156.07
928.416	1166.69
928.725	1150.2
929.034	1173.02
929.344	1168.27
929.653	1142.96
929.962	1129.63
930.271	1150.65
930.581	1140.25
930.89	1153.81
931.199	1152.68
931.508	1136.18
931.817	1145.22
932.125	1132.57
932.434	1120.37
932.743	1121.27
933.051	1106.81
933.36	1115.85
933.669	1075.17
933.977	1117.88
934.286	1109.74
934.594	1109.29
934.902	1093.7
935.21	1099.58
935.519	1075.17
935.827	1089.86
936.135	1081.72
936.443	1086.02
936.751	1081.05
937.059	1060.71
937.367	1044.89
937.674	1055.51
937.982	1071.33
938.29	1046.7
938.597	1064.77
938.905	1039.69
939.213	1032.23
939.52	1060.25
939.827	1039.01
940.135	1038.56
940.442	1025.45
940.749	1011.67
941.056	1013.48
941.363	1004.89
941.67	1041.95
941.977	1012.12
942.284	1034.27
942.591	1008.5
942.898	986.36
943.205	1007.83
943.511	985.91
943.818	992.69
944.125	1012.35
944.431	989.07
944.738	976.42
945.044	972.57
945.35	1002.18
945.657	966.7
945.963	964.89
946.269	980.26
946.575	986.81
946.881	956.3
947.187	954.04
947.493	970.09
947.799	948.85
948.105	982.29
948.41	937.77
948.716	968.05
949.022	964.89
949.327	944.55
949.633	917.89
949.938	923.54
950.244	911.11
950.549	920.15
950.854	949.52
951.16	939.13
951.465	933.25
951.77	927.83
952.075	926.02
952.38	931.67
952.685	898.9
952.99	912.69
953.294	901.84
953.599	895.74
953.904	907.04
954.209	884.89
954.513	907.72
954.818	892.35
955.122	894.16
955.426	908.17
955.731	906.36
956.035	902.07
956.339	893.93
956.643	890.99
956.948	852.35
957.252	884.89
957.556	857.1
957.86	868.62
958.163	893.03
958.467	861.84
958.771	852.35
959.075	868.85
959.378	818.45
959.682	845.8
959.985	840.6
960.289	854.16
960.592	854.84
960.896	842.18
961.199	822.75
961.502	835.4
961.805	819.13
962.108	839.7
962.411	823.88
962.714	821.39
963.017	837.21
963.32	836.53
963.623	815.74
963.926	807.61
964.228	789.08
964.531	784.1
964.833	811.22
965.136	787.95
965.438	809.41
965.741	797.44
966.043	807.15
966.345	815.06
966.648	812.35
966.95	806.25
967.252	792.69
967.554	813.26
967.856	789.75
968.158	796.31
968.46	791.79
968.761	807.83
969.063	797.89
969.365	774.16
969.666	770.77
969.968	777.32
970.269	799.24
970.571	790.21
970.872	784.1
971.174	758.34
971.475	771.9
971.776	791.11
972.077	781.84
972.378	767.15
972.679	772.58
972.98	765.8
973.281	749.75
973.582	749.3
973.883	780.26
974.183	731.22
974.484	746.82
974.785	752.47
975.085	746.36
975.386	735.29
975.686	735.52
975.986	731.68
976.287	735.74
976.587	720.6
976.887	718.34
977.187	728.51
977.487	730.77
977.787	728.74
978.087	722.41
978.387	710.21
978.687	709.08
978.987	732.81
979.286	722.18
979.586	697.1
979.885	684.45
980.185	700.26
980.484	703.65
980.784	700.04
981.083	691.22
981.382	712.02
981.682	700.26
981.981	683.09
982.28	703.43
982.579	691.22
982.878	690.55
983.177	693.26
983.475	691.68
983.774	687.38
984.073	678.57
984.372	684.22
984.67	688.51
984.969	706.59
985.267	695.74
985.566	664.33
985.864	682.19
986.162	667.72
986.461	664.78
986.759	659.59
987.057	658.23
987.355	646.93
987.653	657.55
987.951	673.15
988.249	646.03
988.547	671.11
988.844	629.08
989.142	653.94
989.44	653.26
989.737	660.94
990.035	637.67
990.332	653.49
990.63	630.66
990.927	644.22
991.224	642.41
991.521	620.49
991.819	642.86
992.116	638.8
992.413	625.92
992.71	623.66
993.006	626.37
993.303	608.74
993.6	633.6
993.897	612.58
994.193	595.41
994.49	627.72
994.787	604.22
995.083	621.4
995.379	615.75
995.676	628.85
995.972	619.81
996.268	625.69
996.565	603.32
996.861	608.52
997.157	609.64
997.453	600.38
997.749	592.7
998.044	584.11
998.34	604.22
998.636	613.71
998.932	578.01
999.227	588.63
999.523	589.08
999.818	573.49
1000.114	574.84
1000.409	613.49
1000.704	590.44
1001	580.72
1001.295	556.99
1001.59	575.07
1001.885	604.9
1002.18	594.96
1002.475	578.69
1002.77	558.57
1003.065	559.7
1003.359	558.57
1003.654	589.08
1003.949	573.71
1004.243	566.71
1004.538	558.8
1004.832	552.92
1005.127	571.91
1005.421	554.73
1005.715	545.24
1006.009	571.91
1006.304	547.73
1006.598	541.17
1006.892	552.7
1007.186	542.08
1007.48	540.49
1007.773	535.07
1008.067	519.7
1008.361	533.49
1008.655	533.26
1008.948	536.43
1009.242	534.39
1009.535	541.85
1009.829	545.24
1010.122	518.12
1010.415	528.29
1010.708	522.87
1011.001	521.51
1011.295	526.94
1011.588	523.09
1011.881	527.39
1012.173	536.88
1012.466	536.88
1012.759	517.22
1013.052	512.02
1013.344	528.07
1013.637	507.73
1013.93	488.29
1014.222	517.44
1014.514	530.33
1014.807	516.77
1015.099	504.34
1015.391	527.39
1015.683	509.76
1015.976	515.18
1016.268	514.05
1016.56	492.59
1016.851	522.42
1017.143	497.78
1017.435	499.14
1017.727	489.87
1018.018	471.12
1018.31	484.45
1018.602	482.64
1018.893	488.29
1019.185	497.33
1019.476	491.68
1019.767	493.26
1020.058	489.87
1020.35	509.08
1020.641	481.96
1020.932	473.6
1021.223	483.55
1021.514	487.16
1021.804	459.82
1022.095	470.67
1022.386	480.38
1022.677	471.12
1022.967	461.4
1023.258	472.25
1023.548	463.21
1023.839	472.93
1024.129	480.38
1024.419	464.56
1024.709	476.54
1025	477.67
1025.29	467.28
1025.58	469.31
1025.87	444.68
1026.16	455.98
1026.449	469.31
1026.739	464.34
1027.029	465.47
1027.319	460.5
1027.608	456.2
1027.898	439.03
1028.187	461.17
1028.477	455.3
1028.766	454.62
1029.055	455.52
1029.344	455.3
1029.634	445.58
1029.923	452.59
1030.212	443.55
1030.501	438.35
1030.79	431.12
1031.078	446.03
1031.367	463.21
1031.656	413.94
1031.945	451.01
1032.233	412.59
1032.522	433.38
1032.81	437.9
1033.099	436.32
1033.387	422.98
1033.675	404.23
1033.963	423.44
1034.251	426.37
1034.54	431.8
1034.828	424.34
1035.116	416.88
1035.403	404.68
1035.691	423.89
1035.979	428.41
1036.267	421.4
1036.554	419.37
1036.842	426.6
1037.129	424.57
1037.417	407.84
1037.704	413.49
1037.992	418.01
1038.279	446.94
1038.566	402.64
1038.853	402.64
1039.14	402.64
