Data from copper_heatsink_FLMS001491_007.txt Node
Date: Tue Feb 07 10:49:04 GMT 2017
User: dcchb
Spectrometer: FLMS00149
Trigger mode: 0
Integration Time (sec): 2.000000E-2
Scans to average: 10
Electric dark correction enabled: true
Nonlinearity correction enabled: false
Boxcar width: 0
XAxis mode: Wavelengths
Number of Pixels in Spectrum: 2048
>>>>>Begin Spectral Data<<<<<
341.393	-7.12
341.776	-7.12
342.16	-7.12
342.543	-73.11
342.927	-64.74
343.31	-62.48
343.693	-62.48
344.077	-67
344.46	-71.98
344.843	-57.96
345.226	-57.51
345.61	-22.26
345.993	-31.52
346.376	13.45
346.759	17.74
347.142	20.68
347.525	54.12
347.908	69.49
348.291	69.49
348.674	74.24
349.057	114.01
349.44	109.04
349.823	137.96
350.206	165.98
350.588	243.72
350.971	263.16
351.354	269.26
351.737	287.79
352.119	318.07
352.502	316.49
352.884	321.46
353.267	327.34
353.65	344.96
354.032	330.95
354.414	342.93
354.797	368.01
355.179	386.32
355.562	369.14
355.944	368.01
356.326	373.21
356.709	385.19
357.091	378.18
357.473	379.09
357.855	398.97
358.238	377.5
358.62	405.07
359.002	414.57
359.384	391.97
359.766	408.46
360.148	387.67
360.53	389.93
360.912	406.2
361.294	404.85
361.676	399.88
362.057	393.77
362.439	394.68
362.821	392.65
363.203	378.86
363.584	394.45
363.966	366.66
364.348	384.74
364.729	397.39
365.111	386.77
365.493	377.28
365.874	378.86
366.256	379.54
366.637	393.55
367.019	386.32
367.4	373.21
367.781	382.93
368.163	369.14
368.544	381.35
368.925	388.13
369.306	381.12
369.688	373.89
370.069	375.24
370.45	384.06
370.831	377.73
371.212	382.48
371.593	379.31
371.974	385.87
372.355	385.41
372.736	409.59
373.117	408.92
373.498	383.61
373.879	387.22
374.26	386.54
374.641	385.64
375.021	391.06
375.402	410.27
375.783	407.79
376.163	408.46
376.544	416.83
376.925	412.76
377.305	400.78
377.686	403.49
378.066	402.14
378.447	408.01
378.827	408.01
379.208	402.14
379.588	403.27
379.968	407.11
380.349	422.7
380.729	423.38
381.109	411.4
381.489	418.18
381.87	429.93
382.25	441.46
382.63	414.79
383.01	451.4
383.39	438.29
383.77	451.4
384.15	457.95
384.53	436.03
384.91	447.78
385.29	434
385.67	474.68
386.049	455.92
386.429	455.02
386.809	466.99
387.189	462.93
387.568	479.2
387.948	459.99
388.328	465.19
388.707	453.66
389.087	472.64
389.466	481.23
389.846	454.79
390.225	479.87
390.605	486.65
390.984	490.72
391.363	508.8
391.743	496.82
392.122	499.08
392.501	478.52
392.881	510.83
393.26	495.47
393.639	504.96
394.018	505.64
394.397	523.94
394.776	503.38
395.155	527.1
395.534	502.47
395.913	511.96
396.292	517.84
396.671	548.8
397.05	550.38
397.429	526.65
397.808	538.63
398.186	542.25
398.565	550.61
398.944	540.66
399.323	563.04
399.701	544.73
400.08	543.15
400.458	533.66
400.837	561
401.215	564.62
401.594	577.27
401.972	595.58
402.351	580.21
402.729	562.36
403.107	593.77
403.486	580.21
403.864	584.73
404.242	586.31
404.62	587.44
404.999	610.49
405.377	616.14
405.755	619.08
406.133	626.76
406.511	599.42
406.889	635.58
407.267	625.86
407.645	625.18
408.023	627.89
408.401	656.14
408.779	644.16
409.156	648.23
409.534	662.47
409.912	676.93
410.29	679.19
410.667	688.68
411.045	694.78
411.422	690.26
411.8	690.72
412.178	703.15
412.555	689.59
412.933	699.76
413.31	729.59
413.687	714.67
414.065	762.13
414.442	729.59
414.819	748.12
415.197	749.25
415.574	752.64
415.951	768
416.328	750.83
416.705	770.71
417.082	772.97
417.46	768
417.837	767.55
418.214	774.1
418.591	785.86
418.967	778.4
419.344	810.71
419.721	803.93
420.098	807.55
420.475	819.75
420.852	818.85
421.228	816.81
421.605	817.94
421.982	817.94
422.358	833.99
422.735	854.33
423.111	857.04
423.488	850.49
423.864	876.47
424.241	878.28
424.617	898.85
424.994	870.15
425.37	879.64
425.746	908.56
426.123	925.29
426.499	910.15
426.875	924.61
427.251	938.39
427.627	938.39
428.003	947.88
428.379	959.86
428.756	979.07
429.132	963.7
429.507	968.9
429.883	1003.93
430.259	1014.32
430.635	1008.9
431.011	1011.39
431.387	1029.46
431.763	1048.9
432.138	1059.97
432.514	1052.29
432.89	1033.31
433.265	1085.28
433.641	1083.93
434.016	1108.56
434.392	1111.04
434.767	1124.38
435.143	1130.25
435.518	1131.38
435.894	1173.19
436.269	1166.86
436.644	1181.78
437.02	1189.69
437.395	1185.17
437.77	1219.06
438.145	1229.91
438.52	1233.98
438.895	1236.01
439.271	1231.95
439.646	1248.22
440.021	1285.73
440.395	1243.24
440.77	1272.17
441.145	1271.72
441.52	1306.75
441.895	1289.57
442.27	1316.91
442.645	1322.56
443.019	1315.11
443.394	1322.56
443.769	1343.35
444.143	1339.74
444.518	1335.22
444.892	1348.55
445.267	1370.25
445.641	1381.55
446.016	1410.02
446.39	1372.28
446.764	1395.78
447.139	1374.77
447.513	1409.12
447.887	1410.47
448.262	1428.78
448.636	1418.83
449.01	1450.02
449.384	1450.02
449.758	1464.71
450.132	1471.03
450.506	1492.96
450.88	1470.36
451.254	1507.19
451.628	1507.19
452.002	1541.32
452.376	1551.03
452.75	1533.63
453.123	1545.16
453.497	1589.9
453.871	1579.51
454.244	1645.72
454.618	1626.06
454.992	1639.17
455.365	1670.58
455.739	1680.29
456.112	1693.85
456.486	1704.7
456.859	1726.4
457.232	1766.17
457.606	1747.41
457.979	1798.71
458.352	1811.36
458.725	1832.38
459.099	1823.12
459.472	1836.45
459.845	1889.55
460.218	1897.46
460.591	1932.72
460.964	1923.45
461.337	1965.94
461.71	1962.1
462.083	2000.29
462.456	1993.51
462.829	2016.78
463.201	2033.51
463.574	2043.45
463.947	2071.47
464.32	2118.48
464.692	2103.79
465.065	2174.07
465.438	2169.1
465.81	2149.44
466.183	2227.4
466.555	2263.1
466.928	2276.21
467.3	2298.81
467.672	2295.87
468.045	2354.18
468.417	2358.7
468.789	2389.65
469.161	2413.16
469.534	2461.74
469.906	2499.03
470.278	2507.62
470.65	2524.34
471.022	2588.97
471.394	2615.86
471.766	2642.53
472.138	2634.17
472.51	2697.44
472.882	2786.25
473.253	2801.85
473.625	2821.73
473.997	2865.12
474.369	2920.26
474.74	2930.66
475.112	2984.67
475.484	3029.19
475.855	3099.92
476.227	3083.65
476.598	3172.23
476.97	3210.2
477.341	3292
477.713	3309.86
478.084	3291.33
478.455	3399.35
478.827	3408.61
479.198	3524.99
479.569	3550.08
479.94	3622.39
480.311	3663.29
480.682	3755.72
481.053	3789.84
481.424	3844.08
481.795	3914.59
482.166	3945.55
482.537	3962.04
482.908	4008.14
483.279	4113.68
483.65	4163.62
484.021	4258.76
484.391	4272.99
484.762	4340.56
485.133	4336.27
485.503	4422.6
485.874	4537.17
486.244	4504.18
486.615	4620.33
486.985	4619.43
487.356	4754.79
487.726	4779.87
488.097	4871.4
488.467	4860.1
488.837	5003.82
489.207	4998.63
489.578	5083.82
489.948	5176.25
490.318	5229.58
490.688	5281.33
491.058	5304.38
491.428	5397.03
491.798	5434.55
492.168	5529.23
492.538	5557.26
492.908	5621.89
493.278	5679.74
493.648	5707.08
494.017	5830.92
494.387	5850.13
494.757	5907.08
495.126	5938.04
495.496	5920.64
495.866	6001.31
496.235	6031.82
496.605	6109.33
496.974	6193.62
497.344	6240.17
497.713	6225.94
498.082	6275.88
498.452	6353.39
498.821	6433.39
499.19	6401.98
499.559	6515.42
499.928	6519.72
500.298	6589.09
500.667	6629.32
501.036	6613.95
501.405	6717.68
501.774	6750.44
502.143	6785.7
502.512	6799.93
502.88	6884.68
503.249	6902.08
503.618	6945.47
503.987	6992.25
504.356	6994.51
504.724	7112.02
505.093	7153.15
505.462	7148.4
505.83	7177.78
506.199	7265.46
506.567	7417.55
506.936	7348.17
507.304	7424.55
507.672	7446.02
508.041	7557.88
508.409	7629.74
508.777	7662.74
509.145	7765.11
509.514	7688.27
509.882	7783.86
510.25	7867.48
510.618	7929.4
510.986	7930.3
511.354	8039
511.722	8145.89
512.09	8159.9
512.458	8176.4
512.826	8273.12
513.193	8307.69
513.561	8341.36
513.929	8360.8
514.297	8494.58
514.664	8599.89
515.032	8606.44
515.4	8696.38
515.767	8749.71
516.135	8791.29
516.502	8777.28
516.869	8952.87
517.237	8984.06
517.604	8985.87
517.972	9141.57
518.339	9193.77
518.706	9208.68
519.073	9322.81
519.44	9339.3
519.808	9423.59
520.175	9472.86
520.542	9620.2
520.909	9685.06
521.276	9701.1
521.643	9856.58
522.009	9987.65
522.376	10061.09
522.743	10017.93
523.11	10161.88
523.477	10278.94
523.843	10352.61
524.21	10442.32
524.577	10488.88
524.943	10620.17
525.31	10659.95
525.676	10792.37
526.043	10763.9
526.409	10878.02
526.776	11049.31
527.142	11050.67
527.508	11195.75
527.874	11253.83
528.241	11413.6
528.607	11375.41
528.973	11533.6
529.339	11583.09
529.705	11673.48
530.071	11802.97
530.437	11869.41
530.803	11938.78
531.169	11989.63
531.535	11979.01
531.901	12087.25
532.267	12170.41
532.632	12306.91
532.998	12376.28
533.364	12457.86
533.73	12502.61
534.095	12664.64
534.461	12732.21
534.826	12851.53
535.192	12851.07
535.557	12971.07
535.923	12996.16
536.288	13136.49
536.653	13190.95
537.019	13178.52
537.384	13285.64
537.749	13351.4
538.114	13384.17
538.479	13476.14
538.845	13569.93
539.21	13626.42
539.575	13757.27
539.94	13792.07
540.305	13954.55
540.67	13989.58
541.034	14042.46
541.399	14124.04
541.764	14203.58
542.129	14286.74
542.494	14383.92
542.858	14433.63
543.223	14548.21
543.587	14671.59
543.952	14728.77
544.316	14849.67
544.681	14778.71
545.045	15011.47
545.41	15077.68
545.774	15226.83
546.138	15202.88
546.503	15416.43
546.867	15370.78
547.231	15629.98
547.595	15761.51
547.959	15779.81
548.324	15823.43
548.688	15935.97
549.052	16023.19
549.416	16144.77
549.779	16210.53
550.143	16354.26
550.507	16479.23
550.871	16651.43
551.235	16793.57
551.599	16863.62
551.962	16915.83
552.326	17072.21
552.689	17306.78
553.053	17219.32
553.417	17420.45
553.78	17650.04
554.143	17712.42
554.507	17891.85
554.87	18040.09
555.234	18336.35
555.597	18295.45
555.96	18468.33
556.323	18606.18
556.686	18667.64
557.05	19008.2
557.413	19072.61
557.776	19271.7
558.139	19509.88
558.502	19534.06
558.865	19737.67
559.228	19998.23
559.59	20226.7
559.953	20303.76
560.316	20660.13
560.679	20736.52
561.041	20930.86
561.404	21199.33
561.767	21523.84
562.129	21659.2
562.492	21934.9
562.854	22129.7
563.217	22196.82
563.579	22455.12
563.941	22789.8
564.304	22906.63
564.666	23176.68
565.028	23341.65
565.39	23693.95
565.753	23943.66
566.115	24200.61
566.477	24329.42
566.839	24570.31
567.201	24960.13
567.563	25117.42
567.925	25537.29
568.287	25673.79
568.648	25796.95
569.01	26101.35
569.372	26438.29
569.734	26690.94
570.095	27016.58
570.457	27288.21
570.819	27553.06
571.18	27598.26
571.542	28026.49
571.903	28149.2
572.265	28553.26
572.626	28807.27
572.987	28961.16
573.349	29251.32
573.71	29520.24
574.071	29726.56
574.432	29970.85
574.794	30473.21
575.155	30643.15
575.516	30580.78
575.877	31053.08
576.238	31213.76
576.599	31522.22
576.96	31711.37
577.32	32024.36
577.681	32359.04
578.042	32586.83
578.403	32673.38
578.763	32961.28
579.124	33131.45
579.485	33416.86
579.845	33745.21
580.206	33754.25
580.566	34135.49
580.927	34457.74
581.287	34593.33
581.648	34702.7
582.008	35034.45
582.368	35100.66
582.728	35359.41
583.089	35420.65
583.449	35523.92
583.809	35860.86
584.169	36103.34
584.529	36230.57
584.889	36523.22
585.249	36520.96
585.609	36677.34
585.969	37059.03
586.329	36990.33
586.688	37412.24
587.048	37457.21
587.408	37613.14
587.768	37807.25
588.127	37945.33
588.487	38160.47
588.846	38485.65
589.206	38400.69
589.565	38685.2
589.925	38896.72
590.284	38891.52
590.643	39081.57
591.003	39368.8
591.362	39658.05
591.721	39667.54
592.08	39788.67
592.44	40018.27
592.799	40240.64
593.158	40287.87
593.517	40529.89
593.876	40473.4
594.235	40831.81
594.593	40867.29
594.952	41247.84
595.311	41180.5
595.67	41319.7
596.029	41760.82
596.387	41795.17
596.746	42001.27
597.104	41996.52
597.463	42088.5
597.822	42584.08
598.18	42557.19
598.538	42649.39
598.897	42943.39
599.255	42894.8
599.613	43522.36
599.972	43402.81
600.33	43684.39
600.688	43554.67
601.046	44052.51
601.404	44177.03
601.762	44252.06
602.12	44518.94
602.478	44744.47
602.836	44821.76
603.194	44770.69
603.552	45034.86
603.91	44955.32
604.268	45414.51
604.625	45314.63
604.983	45599.59
605.341	45457.9
605.698	45867.61
606.056	46188.5
606.413	46202.74
606.771	46489.29
607.128	46691.31
607.485	46634.14
607.843	46705.55
608.2	46938.99
608.557	47120.46
608.914	47324.29
609.272	47489.94
609.629	47735.81
609.986	47860.55
610.343	47858.06
610.7	48153.65
611.057	48361.78
611.414	48279.75
611.771	48578.5
612.127	48738.94
612.484	48762.67
612.841	49009.22
613.198	48988.66
613.554	48925.61
613.911	49358.36
614.267	49430.23
614.624	49566.49
614.98	49713.38
615.337	50124.67
615.693	50094.84
616.05	50120.38
616.406	50464.77
616.762	50302.07
617.118	50444.89
617.475	50501.16
617.831	50751.55
618.187	50897.08
618.543	50915.16
618.899	51221.37
619.255	51290.52
619.611	51219.56
619.967	51434.92
620.323	51561.92
620.678	51582.49
621.034	51602.15
621.39	51690.28
621.746	51758.98
622.101	52287.1
622.457	52059.31
622.812	52198.74
623.168	52253.43
623.523	52332.3
623.879	52561.67
624.234	52384.95
624.589	52575.23
624.945	52603.48
625.3	52773.64
625.655	52863.58
626.01	52930.47
626.365	53023.8
626.72	53030.81
627.075	53011.37
627.43	53084.59
627.785	53108.55
628.14	53312.84
628.495	53300.41
628.85	53344.7
629.205	53351.93
629.559	53397.81
629.914	53401.87
630.269	53478.71
630.623	53546.73
630.978	53546.05
631.332	53794.86
631.687	53801.18
632.041	53764.58
632.396	53883.67
632.75	53806.83
633.104	53924.57
633.459	53889.77
633.813	53863.78
634.167	53910.33
634.521	53936.32
634.875	54055.19
635.229	54139.03
635.583	53971.58
635.937	54037.56
636.291	54109.65
636.645	54153.04
636.999	54155.75
637.352	54350.1
637.706	54154.4
638.06	54285.01
638.413	54250.66
638.767	54274.84
639.121	54367.27
639.474	54359.36
639.828	54321.17
640.181	54459.92
640.534	54499.24
640.888	54438.46
641.241	54299.48
641.594	54514.84
641.947	54529.98
642.301	54484.1
642.654	54558
643.007	54673.93
643.36	54715.51
643.713	54706.02
644.066	54886.81
644.419	54647.94
644.771	54322.07
645.124	54033.95
645.477	54019.94
645.83	53970.67
646.182	53941.75
646.535	54049.09
646.888	54240.95
647.24	54158.01
647.593	54412.92
647.945	54406.82
648.298	54380.38
648.65	54336.54
649.002	54392.36
649.355	54446.82
649.707	54353.26
650.059	54431.9
650.411	54760.03
650.763	54799.8
651.115	55237.08
651.467	55264.42
651.819	55218.1
652.171	55134.26
652.523	55212.9
652.875	55188.72
653.227	55101.26
653.578	55373.35
653.93	55357.3
654.282	55264.42
654.633	55192.79
654.985	55361.14
655.337	55482.04
655.688	55488.37
656.039	55600.91
656.391	55353.23
656.742	55467.13
657.094	55474.81
657.445	55712.55
657.796	55688.82
658.147	55618.54
658.498	55670.97
658.849	55779.66
659.2	55657.86
659.551	55695.6
659.902	55836.16
660.253	55749.16
660.604	55811.07
660.955	55683.17
661.306	55817.85
661.656	55854.92
662.007	55958.42
662.358	55870.06
662.708	55910.73
663.059	55965.87
663.409	55785.31
663.76	56048.13
664.11	56152.76
664.461	56265.75
664.811	56131.07
665.161	56195.7
665.511	56127.22
665.862	56277.5
666.212	56264.4
666.562	56351.63
666.912	56366.09
667.262	56325.64
667.612	56390.49
667.962	56501.23
668.312	56377.16
668.662	56512.3
669.011	56553.65
669.361	56530.15
669.711	56574.9
670.06	56511.85
670.41	56573.77
670.76	56512.75
671.109	56754.55
671.459	56687.89
671.808	56670.49
672.157	56752.97
672.507	56652.41
672.856	56653.54
673.205	56699.87
673.554	56888.56
673.904	56772.86
674.253	56800.2
674.602	56779.19
674.951	56457.16
675.3	56439.31
675.649	56922.01
675.998	56909.35
676.346	56929.46
676.695	57072.96
677.044	56849.92
677.393	56919.52
677.741	57028.44
678.09	56862.57
678.438	56847.66
678.787	57001.1
679.135	57024.83
679.484	56794.1
679.832	56909.58
680.181	56823.25
680.529	56895.11
680.877	56900.99
681.225	56957.03
681.573	57138.5
681.922	56987.09
682.27	56921.55
682.618	57011.72
682.966	56941.21
683.314	57070.7
683.661	56999.97
684.009	56893.31
684.357	56902.12
684.705	56833.65
685.053	56930.59
685.4	57002.23
685.748	56860.54
686.095	56910.26
686.443	56908.22
686.79	56845.17
687.138	56819.64
687.485	56825.96
687.832	56798.17
688.18	56870.26
688.527	56733.99
688.874	56772.41
689.221	56741.9
689.568	56668.23
689.915	56644.27
690.262	56641.56
690.609	56525.41
690.956	56567.67
691.303	56571.28
691.65	56500.77
691.997	56508.91
692.344	56414.45
692.69	56386.2
693.037	56457.16
693.383	56278.18
693.73	56380.1
694.077	56309.59
694.423	56376.48
694.769	56204.06
695.116	56117.51
695.462	56090.39
695.808	56084.51
696.155	56203.61
696.501	55969.71
696.847	56000
697.193	55797.74
697.539	55963.61
697.885	55794.35
698.231	55772.66
698.577	55720
698.923	55824.86
699.269	55767.01
699.614	55565.21
699.96	55531.31
700.306	55568.14
700.651	55610.63
700.997	55583.96
701.342	55566.34
701.688	55466.9
702.033	55448.82
702.379	55437.98
702.724	55406.11
703.069	55476.62
703.415	55230.53
703.76	55235.95
704.105	55205.44
704.45	55108.27
704.795	55096.97
705.14	55022.17
705.485	55022.4
705.83	55010.42
706.175	54993.47
706.52	55010.87
706.865	54920.93
707.209	54916.41
707.554	54759.58
707.899	54934.26
708.243	54879.35
708.588	54851.78
708.932	54708.28
709.277	54675.29
709.621	54833.02
709.966	54564.55
710.31	54784.89
710.654	54388.06
710.998	54453.82
711.342	54502.41
711.687	54433.03
712.031	54454.95
712.375	54333.83
712.719	54456.76
713.063	54392.81
713.407	54420.15
713.75	54207.28
714.094	54347.38
714.438	54125.24
714.782	54349.19
715.125	54155.98
715.469	54300.83
715.812	53980.16
716.156	53944.46
716.499	54134.28
716.843	54130.44
717.186	53955.98
717.53	54149.65
717.873	54105.58
718.216	54013.38
718.559	53952.59
718.902	53811.58
719.246	53977.22
719.589	53885.02
719.932	53743.33
720.275	53755.76
720.617	53736.33
720.96	53744.69
721.303	53823.33
721.646	53743.11
721.989	53693.84
722.331	53710.34
722.674	53644.58
723.016	53663.56
723.359	53491.81
723.701	53739.26
724.044	53488.65
724.386	53422.21
724.729	53535.65
725.071	53525.49
725.413	53577.46
725.755	53615.43
726.097	53485.26
726.439	53221.54
726.782	53300.86
727.124	53464.24
727.465	53316.23
727.807	53370.01
728.149	53395.77
728.491	53237.58
728.833	53299.73
729.175	53133.63
729.516	53167.75
729.858	53075.78
730.199	53215.44
730.541	53229.45
730.882	53144.7
731.224	53267.64
731.565	53110.58
731.906	53212.27
732.248	53251.82
732.589	53124.82
732.93	52998.27
733.271	53043.01
733.612	53030.13
733.953	53056.57
734.294	53067.19
734.635	53034.88
734.976	53104.93
735.317	52931.6
735.658	52981.54
735.999	53026.97
736.339	52996.01
736.68	53078.04
737.021	52937.25
737.361	52859.97
737.702	52956.46
738.042	52911.94
738.383	52806.18
738.723	52849.12
739.063	52780.65
739.404	52868.1
739.744	52831.72
740.084	52652.51
740.424	52762.34
740.764	52617.49
741.104	52736.13
741.444	52614.77
741.784	52643.02
742.124	52668.78
742.464	52563.7
742.804	52537.49
743.143	52447.1
743.483	52492.07
743.823	52445.06
744.162	52419.3
744.502	52539.07
744.841	52368.91
745.181	52561.44
745.52	52477.83
745.86	52485.51
746.199	52424.27
746.538	52309.92
746.877	52380.66
747.216	52435.57
747.556	52337.04
747.895	52417.27
748.234	52307.44
748.573	52340.43
748.911	52255.69
749.25	52284.61
749.589	52098.18
749.928	52128.91
750.267	52220.89
750.605	52131.4
750.944	52002.14
751.283	52037.39
751.621	52118.29
751.96	51768.24
752.298	51865.19
752.636	51665.42
752.975	51599.89
753.313	51587.01
753.651	51713.78
753.989	51568.7
754.327	51610.51
754.666	51460.45
755.004	51469.49
755.342	51518.31
755.679	51483.73
756.017	51361.25
756.355	51350.4
756.693	51361.7
757.031	51421.59
757.368	51128.94
757.706	51061.37
758.044	51091.42
758.381	51154.7
758.719	50977.76
759.056	50897.31
759.394	50835.16
759.731	50712.45
760.068	50627.93
760.405	50480.37
760.743	50559.91
761.08	50532.57
761.417	50387.94
761.754	50352.69
762.091	50266.59
762.428	50251.22
762.765	50083.32
763.102	50307.72
763.438	49954.28
763.775	49778.01
764.112	49723.55
764.449	49979.59
764.785	49661.63
765.122	49557.45
765.458	49529.88
765.795	49487.17
766.131	49426.16
766.467	49260.51
766.804	49246.28
767.14	49138.71
767.476	49239.5
767.812	49020.29
768.148	49115.43
768.485	48808.77
768.821	48588.89
769.157	48697.36
769.492	48589.8
769.828	48414.89
770.164	48133.08
770.5	48223.93
770.836	48260.09
771.171	47945.74
771.507	47888.35
771.842	47591.63
772.178	47691.29
772.513	47496.04
772.849	47527.45
773.184	47222.37
773.519	47256.5
773.855	47076.84
774.19	47009.5
774.525	47022.61
774.86	47016.96
775.195	46822.84
775.53	46597.08
775.865	46492.9
776.2	46300.59
776.535	46150.76
776.87	46179.92
777.205	45788.29
777.539	45909.19
777.874	45873.48
778.209	45597.78
778.543	45567.5
778.878	45327.51
779.212	45465.58
779.547	45280.73
779.881	45374.29
780.215	45100.85
780.55	45098.81
780.884	44851.82
781.218	44921.42
781.552	44850.46
781.886	44589.45
782.22	44490.47
782.554	44410.7
782.888	44092.74
783.222	44038.05
783.556	43682.81
783.889	43793.99
784.223	43370.95
784.557	43365.07
784.89	43389.03
785.224	43228.81
785.557	43128.24
785.891	42947.68
786.224	42974.35
786.558	42998.08
786.891	42629.73
787.224	42500.92
787.557	42477.64
787.891	42615.26
788.224	42449.62
788.557	42380.47
788.89	42297.98
789.223	42200.36
789.556	42068.39
789.888	41941.16
790.221	41771.22
790.554	41566.93
790.887	41422.53
791.219	41466.59
791.552	41156.09
791.884	41175.53
792.217	41062.99
792.549	40847.63
792.882	40740.74
793.214	40589.55
793.546	40782.77
793.879	40525.15
794.211	40364.02
794.543	40517.24
794.875	40274.99
795.207	40410.35
795.539	40040.87
795.871	40095.78
796.203	39728.79
796.535	39504.39
796.867	39564.95
797.198	39499.87
797.53	39497.61
797.862	39355.69
798.193	39499.41
798.525	39080.22
798.856	39265.52
799.188	38812.88
799.519	38759.32
799.85	38783.5
800.182	38707.34
800.513	38623.05
800.844	38217.19
801.175	38513.45
801.506	38355.26
801.837	38225.32
802.168	38035.05
802.499	37974.03
802.83	37873.02
803.161	37907.59
803.491	37831.43
803.822	37882.96
804.153	37687.03
804.483	37414.95
804.814	37425.12
805.145	37235.29
805.475	37335.18
805.805	37179.47
806.136	37226.93
806.466	37172.47
806.796	37147.16
807.126	36779.48
807.457	36913.27
807.787	36977.45
808.117	36741.75
808.447	36525.25
808.777	36727.96
809.107	36396.9
809.436	36404.81
809.766	36395.77
810.096	36227.18
810.426	36091.37
810.755	36203.68
811.085	35966.17
811.414	36076
811.744	35814.09
812.073	35789.91
812.403	35650.02
812.732	35354.44
813.061	35498.16
813.39	35407.32
813.719	35403.93
814.049	35570.93
814.378	35509.69
814.707	35281.67
815.036	35165.52
815.365	35057.04
815.693	34747.45
816.022	34786.09
816.351	34825.86
816.68	34609.15
817.008	34744.51
817.337	34380.45
817.665	34570.73
817.994	34579.99
818.322	34578.41
818.651	34522.14
818.979	34288.48
819.307	34405.54
819.636	34294.13
819.964	34234.69
820.292	34206.9
820.62	34320.11
820.948	34218.2
821.276	34329.61
821.604	34311.3
821.932	34229.95
822.259	34364.86
822.587	34224.98
822.915	34133
823.243	34215.03
823.57	34263.84
823.898	34403.73
824.225	34262.26
824.553	34215.94
824.88	34142.49
825.207	34064.3
825.535	34145.2
825.862	34255.26
826.189	34110.85
826.516	34335.71
826.843	34439.21
827.17	34211.19
827.497	34350.17
827.824	34408.93
828.151	34440.11
828.478	34377.29
828.805	34514.23
829.131	34357.18
829.458	34328.7
829.785	34146.56
830.111	34328.02
830.438	34493.44
830.764	34397.4
831.09	34404.18
831.417	34192.89
831.743	34316.5
832.069	34378.87
832.395	34138.88
832.722	34389.04
833.048	34331.64
833.374	34405.08
833.7	34320.34
834.026	34359.44
834.351	34429.49
834.677	34329.15
835.003	34395.14
835.329	34351.98
835.654	34329.15
835.98	34199.89
836.306	34244.41
836.631	34064.53
836.956	34296.39
837.282	34357.4
837.607	34148.14
837.932	34085.54
838.258	33984.08
838.583	34040.8
838.908	33913.35
839.233	34020.01
839.558	33766.23
839.883	33811.88
840.208	33796.96
840.533	33627.7
840.858	33634.03
841.182	33752.22
841.507	33657.99
841.832	33638.78
842.156	33559.46
842.481	33486.92
842.805	33557.65
843.13	33402.17
843.454	33383.19
843.778	33306.13
844.103	33444.43
844.427	33226.36
844.751	33272.46
845.075	32971.22
845.399	32801.06
845.723	32663.89
846.047	32737.33
846.371	32557.68
846.695	32607.39
847.019	32296.44
847.343	32252.6
847.666	31999.95
847.99	32015.77
848.313	31993.85
848.637	31869.56
848.96	31806.06
849.284	31760.41
849.607	31439.06
849.931	31331.94
850.254	31149.58
850.577	30990.26
850.9	30836.14
851.223	30950.03
851.546	30755.91
851.869	30551.85
852.192	30604.96
852.515	30323.84
852.838	30252.2
853.161	30431.63
853.483	30284.74
853.806	30166.1
854.129	30060.57
854.451	30013.34
854.774	29912.55
855.096	29856.5
855.419	29754.58
855.741	29769.5
856.063	29484.99
856.385	29566.57
856.708	29375.84
857.03	29334.48
857.352	29271.43
857.674	29202.51
857.996	29225.11
858.318	28932.46
858.64	29043.19
858.961	28991.44
859.283	28938.79
859.605	28735.18
859.926	28709.87
860.248	28657.66
860.57	28418.57
860.891	28579.02
861.212	28474.84
861.534	28237.79
861.855	28414.73
862.176	28381.51
862.498	28308.3
862.819	28231.91
863.14	28137.68
863.461	28097.45
863.782	27925.71
864.103	28019.72
864.424	28024.23
864.745	28165.93
865.065	27957.8
865.386	27828.08
865.707	27883.9
866.027	27883.22
866.348	28090.67
866.668	27866.72
866.989	27736.33
867.309	27582.21
867.63	27672.83
867.95	27547.64
868.27	27568.88
868.59	27673.06
868.91	27458.6
869.23	27593.29
869.55	27330.92
869.87	27516.9
870.19	27435.55
870.51	27405.72
870.83	27329.34
871.15	27234.2
871.469	27152.39
871.789	27315.33
872.109	27376.12
872.428	27046.18
872.748	27127.54
873.067	27123.47
873.386	27099.97
873.706	27030.81
874.025	26854.1
874.344	26853.64
874.663	26991.95
874.982	26895.45
875.301	26802.8
875.62	26639.64
875.939	26646.64
876.258	26751.5
876.577	26497.5
876.896	26671.05
877.214	26566.19
877.533	26588.11
877.852	26451.85
878.17	26485.07
878.489	26527.55
878.807	26445.97
879.125	26341.12
879.444	26482.13
879.762	26354.45
880.08	26478.96
880.398	26327.56
880.716	26344.73
881.034	26234.9
881.352	26153.1
881.67	26110.16
881.988	26202.14
882.306	26196.71
882.624	26152.42
882.941	26048.92
883.259	25963.5
883.577	25803.5
883.894	25688.48
884.212	25828.13
884.529	25821.13
884.846	25791.07
885.164	25698.19
885.481	25506.79
885.798	25602.15
886.115	25449.16
886.432	25408.03
886.75	25201.94
887.067	25340.46
887.383	25201.71
887.7	25260.24
888.017	25100.47
888.334	25186.34
888.651	25038.55
888.967	25073.13
889.284	25011.21
889.6	24918.1
889.917	24753.36
890.233	24796.75
890.55	24615.06
890.866	24685.34
891.182	24508.17
891.498	24488.96
891.815	24416.65
892.131	24440.83
892.447	24309.3
892.763	24195.18
893.079	24228.18
893.395	24040.38
893.71	24146.6
894.026	24117.67
894.342	24032.7
894.657	23873.84
894.973	23834.97
895.289	23835.87
895.604	23635.88
895.92	23595.2
896.235	23418.48
896.55	23416.22
896.865	23389.1
897.181	23229.11
897.496	23296
897.811	23121.54
898.126	22992.28
898.441	23011.03
898.756	22935.78
899.071	22768.78
899.386	22754.09
899.7	22578.05
900.015	22486.08
900.33	22424.83
900.644	22344.61
900.959	22528.11
901.273	22424.38
901.588	22210.38
901.902	22254.22
902.216	22110.49
902.531	22159.3
902.845	21972.64
903.159	21850.61
903.473	21934.9
903.787	21666.89
904.101	21745.53
904.415	21728.81
904.729	21580.56
905.042	21438.65
905.356	21445.2
905.67	21355.48
905.984	21291.53
906.297	21353.45
906.611	21123.4
906.924	21037.98
907.237	20922.27
907.551	20986.91
907.864	20799.57
908.177	20784.2
908.491	20692
908.804	20642.28
909.117	20602.28
909.43	20448.84
909.743	20282.97
910.056	20288.85
910.368	20242.97
910.681	20017.89
910.994	19982.64
911.307	19967.95
911.619	19772.7
911.932	19861.29
912.244	19785.13
912.557	19663.32
912.869	19552.82
913.181	19487.51
913.494	19331.36
913.806	19232.15
914.118	19152.6
914.43	19141.76
914.742	19212.94
915.054	19078.71
915.366	18902.44
915.678	18843.91
915.99	18702.67
916.302	18589.91
916.613	18557.82
916.925	18560.3
917.236	18638.49
917.548	18478.95
917.859	18504.71
918.171	18268.33
918.482	18216.36
918.794	18196.47
919.105	18172.97
919.416	18025.85
919.727	17967.78
920.038	17902.24
920.349	17785.63
920.66	17802.81
920.971	17652.08
921.282	17598.07
921.593	17445.76
921.903	17301.58
922.214	17368.02
922.525	17273.56
922.835	17195.14
923.146	17080.57
923.456	17006.22
923.767	16905.43
924.077	16874.02
924.387	16657.53
924.697	16665.89
925.008	16640.13
925.318	16636.96
925.628	16593.12
925.938	16598.55
926.248	16438.78
926.558	16363.52
926.867	16312.45
927.177	16298.67
927.487	16159.24
927.796	16070.42
928.106	15998.34
928.416	15934.16
928.725	15920.37
929.034	15736.65
929.344	15844.22
929.653	15763.99
929.962	15663.88
930.271	15552.02
930.581	15576.65
930.89	15445.13
931.199	15273.16
931.508	15177.57
931.817	15184.12
932.125	15142.54
932.434	15042.88
932.743	14970.11
933.051	14910.23
933.36	14899.16
933.669	14815.99
933.977	14805.15
934.286	14780.29
934.594	14761.98
934.902	14591.14
935.21	14480.18
935.519	14485.16
935.827	14548.43
936.135	14343.69
936.443	14257.82
936.751	14188.21
937.059	14099.4
937.367	14094.88
937.674	14043.13
937.982	13988.45
938.29	13862.8
938.597	13856.7
938.905	13751.16
939.213	13666.65
939.52	13570.6
939.827	13596.59
940.135	13499.87
940.442	13483.6
940.749	13469.36
941.056	13457.39
941.363	13324.73
941.67	13267.79
941.977	13216.94
942.284	13235.7
942.591	13218.52
942.898	13009.49
943.205	13025.76
943.511	12869.38
943.818	12908.02
944.125	12715.48
944.431	12675.49
944.738	12738.99
945.044	12658.99
945.35	12659.89
945.657	12546.68
945.963	12513.68
946.269	12405.66
946.575	12445.44
946.881	12294.03
947.187	12207.48
947.493	12204.76
947.799	12187.82
948.105	12080.93
948.41	11983.98
948.716	12046.35
949.022	11926.58
949.327	11883.64
949.633	11791.89
949.938	11773.14
950.244	11768.17
950.549	11582.41
950.854	11576.98
951.16	11532.47
951.465	11429.87
951.77	11357.1
952.075	11323.43
952.38	11355.97
952.685	11400.72
952.99	11254.28
953.294	11198.91
953.599	11186.26
953.904	11067.62
954.209	11007.96
954.513	10961.18
954.818	10937.23
955.122	10829.43
955.426	10829.21
955.731	10767.51
956.035	10676.44
956.339	10665.14
956.643	10754.86
956.948	10634.18
957.252	10569.1
957.556	10514.19
957.86	10488.2
958.163	10453.85
958.467	10388.31
958.771	10372.5
959.075	10374.3
959.378	10164.14
959.682	10248.88
959.985	10193.52
960.289	10176.79
960.592	10094.76
960.896	10070.13
961.199	10024.71
961.502	10010.02
961.805	9913.07
962.108	9900.87
962.411	9784.94
962.714	9741.1
963.017	9688.45
963.32	9680.76
963.623	9664.72
963.926	9664.72
964.228	9613.19
964.531	9593.08
964.833	9537.94
965.136	9455.91
965.438	9461.56
965.741	9386.53
966.043	9343.6
966.345	9254.33
966.648	9262.69
966.95	9282.13
967.252	9062.93
967.554	9126.2
967.856	8971.4
968.158	8948.35
968.46	8936.15
968.761	8962.59
969.063	8858.19
969.365	8845.3
969.666	8766.89
969.968	8731.86
970.269	8695.48
970.571	8669.49
970.872	8691.18
971.174	8637.4
971.475	8530.28
971.776	8511.08
972.077	8502.94
972.378	8422.04
972.679	8431.76
972.98	8410.51
973.281	8293.23
973.582	8289.61
973.883	8244.64
974.183	8246.68
974.484	8213.91
974.785	8155.15
975.085	8163.29
975.386	8082.39
975.686	8054.82
975.986	7948.83
976.287	7980.02
976.587	7909.74
976.887	7863.64
977.187	7895.72
977.487	7862.96
977.787	7775.5
978.087	7782.96
978.387	7762.85
978.687	7680.14
978.987	7619.12
979.286	7534.15
979.586	7599.24
979.885	7575.51
980.185	7481.72
980.484	7371.67
980.784	7424.55
981.083	7373.25
981.382	7370.31
981.682	7358.34
981.981	7227.04
982.28	7226.59
982.579	7133.26
982.878	7177.1
983.177	7105.01
983.475	7114.73
983.774	7077.22
984.073	7056.88
984.372	6975.75
984.67	6960.16
984.969	6909.08
985.267	6897.56
985.566	6844.9
985.864	6815.75
986.162	6825.24
986.461	6747.28
986.759	6795.87
987.057	6711.57
987.355	6632.25
987.653	6582.54
987.951	6578.92
988.249	6539.38
988.547	6589.09
988.844	6521.98
989.142	6465.03
989.44	6381.19
989.737	6432.03
990.035	6448.76
990.332	6380.51
990.63	6390.68
990.927	6351.36
991.224	6266.16
991.521	6225.03
991.819	6213.28
992.116	6225.03
992.413	6214.86
992.71	6120.63
993.006	6089.9
993.303	6083.57
993.6	6073.4
993.897	6030.01
994.193	6032.5
994.49	5954.53
994.787	5937.36
995.083	5932.84
995.379	5866.17
995.676	5759.28
995.972	5813.75
996.268	5765.39
996.565	5724.26
996.861	5686.97
997.157	5641.77
997.453	5610.13
997.749	5611.26
998.044	5522.91
998.34	5535.56
998.636	5551.61
998.932	5489.91
999.227	5453.53
999.523	5431.83
999.818	5368.33
1000.114	5404.04
1000.409	5315.45
1000.704	5228
1001	5225.29
1001.295	5186.42
1001.59	5200.65
1001.885	5156.81
1002.18	5135.8
1002.475	5105.74
1002.77	5034.1
1003.065	5048.34
1003.359	5013.09
1003.654	5001.34
1003.949	4981.9
1004.243	4898.74
1004.538	4895.35
1004.832	4889.48
1005.127	4842.47
1005.421	4806.31
1005.715	4736.94
1006.009	4713.21
1006.304	4724.96
1006.598	4701.68
1006.892	4721.12
1007.186	4663.27
1007.48	4599.09
1007.773	4598.64
1008.067	4540.33
1008.361	4528.58
1008.655	4478.64
1008.948	4464.63
1009.242	4426.44
1009.535	4396.16
1009.829	4397.29
1010.122	4403.39
1010.415	4330.39
1010.708	4289.72
1011.001	4295.37
1011.295	4211.3
1011.588	4234.8
1011.881	4168.59
1012.173	4209.04
1012.466	4205.2
1012.759	4110.74
1013.052	4112.1
1013.344	4087.01
1013.637	4042.72
1013.93	4026.22
1014.222	4009.05
1014.514	3975.15
1014.807	3891.99
1015.099	3896.28
1015.391	3908.03
1015.683	3794.36
1015.976	3786.45
1016.268	3770.41
1016.56	3795.72
1016.851	3730.41
1017.143	3721.15
1017.435	3661.49
1017.727	3648.6
1018.018	3626.01
1018.31	3630.53
1018.602	3547.59
1018.893	3555.05
1019.185	3512.34
1019.476	3469.17
1019.767	3436.63
1020.058	3410.42
1020.35	3417.88
1020.641	3376.52
1020.932	3367.03
1021.223	3349.18
1021.514	3304.66
1021.804	3253.13
1022.095	3241.16
1022.386	3228.95
1022.677	3168.62
1022.967	3187.83
1023.258	3198.67
1023.548	3151.22
1023.839	3125.91
1024.129	3080.26
1024.419	3093.14
1024.709	3047.04
1025	3012.24
1025.29	2979.02
1025.58	2957.55
1025.87	2922.3
1026.16	2917.1
1026.449	2902.86
1026.739	2846.37
1027.029	2892.69
1027.319	2838.91
1027.608	2825.8
1027.898	2754.39
1028.187	2777.44
1028.477	2713.71
1028.766	2714.84
1029.055	2730.89
1029.344	2673.49
1029.634	2644.56
1029.923	2635.3
1030.212	2616.09
1030.501	2616.54
1030.79	2534.51
1031.078	2556.66
1031.367	2528.63
1031.656	2534.96
1031.945	2478.69
1032.233	2483.21
1032.522	2454.74
1032.81	2449.31
1033.099	2421.74
1033.387	2376.1
1033.675	2382.65
1033.963	2369.54
1034.251	2348.07
1034.54	2315.53
1034.828	2287.51
1035.116	2280.51
1035.403	2272.6
1035.691	2273.95
1035.979	2258.36
1036.267	2232.6
1036.554	2214.74
1036.842	2162.32
1037.129	2153.73
1037.417	2135.42
1037.704	2125.93
1037.992	2113.96
1038.279	2088.87
1038.566	2062.21
1038.853	2062.21
1039.14	2062.21
