Data from copper_heatsink_FLMS001491_062.txt Node
Date: Tue Feb 07 10:50:21 GMT 2017
User: dcchb
Spectrometer: FLMS00149
Trigger mode: 0
Integration Time (sec): 2.000000E-2
Scans to average: 10
Electric dark correction enabled: true
Nonlinearity correction enabled: false
Boxcar width: 0
XAxis mode: Wavelengths
Number of Pixels in Spectrum: 2048
>>>>>Begin Spectral Data<<<<<
341.393	-6.79
341.776	-6.79
342.16	-6.79
342.543	-79.33
342.927	-70.29
343.31	-76.4
343.693	-65.78
344.077	-57.41
344.46	-61.48
344.843	-44.98
345.226	-57.87
345.61	-29.62
345.993	-10.86
346.376	1.79
346.759	15.8
347.142	18.29
347.525	24.17
347.908	65.52
348.291	69.81
348.674	106.88
349.057	102.13
349.44	133.32
349.823	129.93
350.206	174.44
350.588	187.55
350.971	190.72
351.354	210.38
351.737	238.62
352.119	230.71
352.502	268.91
352.884	271.39
353.267	275.46
353.65	276.36
354.032	294.67
354.414	299.19
354.797	308.45
355.179	306.42
355.562	307.77
355.944	295.12
356.326	312.07
356.709	343.71
357.091	324.72
357.473	346.42
357.855	332.63
358.238	330.15
358.62	319.75
359.002	350.49
359.384	329.47
359.766	330.37
360.148	326.08
360.53	310.03
360.912	331.28
361.294	329.47
361.676	318.4
362.057	317.72
362.439	308.68
362.821	317.27
363.203	320.66
363.584	323.82
363.966	306.64
364.348	315.46
364.729	320.43
365.111	331.73
365.493	315.46
365.874	309.81
366.256	317.27
366.637	297.15
367.019	309.81
367.4	314.55
367.781	320.88
368.163	309.13
368.544	314.33
368.925	309.81
369.306	291.73
369.688	318.62
370.069	313.2
370.45	322.92
370.831	311.16
371.212	310.49
371.593	308.23
371.974	293.31
372.355	331.28
372.736	317.72
373.117	320.88
373.498	320.43
373.879	304.38
374.26	291.5
374.641	296.7
375.021	309.13
375.402	316.59
375.783	336.93
376.163	326.76
376.544	322.24
376.925	320.43
377.305	339.86
377.686	341.67
378.066	332.63
378.447	303.71
378.827	336.93
379.208	311.84
379.588	335.12
379.968	313.65
380.349	335.34
380.729	322.46
381.109	343.71
381.489	331.95
381.87	344.16
382.25	327.66
382.63	324.27
383.01	329.02
383.39	349.36
383.77	350.71
384.15	325.18
384.53	348.68
384.91	343.48
385.29	342.12
385.67	353.65
386.049	332.41
386.429	351.84
386.809	337.83
387.189	370.15
387.568	367.66
387.948	365.63
388.328	334.44
388.707	361.33
389.087	341.9
389.466	363.82
389.846	374.21
390.225	351.84
390.605	365.63
390.984	355.91
391.363	362.01
391.743	361.78
392.122	364.27
392.501	360.65
392.881	356.13
393.26	377.6
393.639	372.41
394.018	355.46
394.397	363.37
394.776	392.74
395.155	369.47
395.534	366.53
395.913	343.25
396.292	375.57
396.671	344.16
397.05	376.25
397.429	390.03
397.808	362.69
398.186	374.21
398.565	378.06
398.944	374.44
399.323	384.16
399.701	370.15
400.08	393.65
400.458	373.76
400.837	382.12
401.215	379.64
401.594	373.31
401.972	378.51
402.351	377.38
402.729	396.36
403.107	384.38
403.486	407.43
403.864	397.04
404.242	391.84
404.62	410.37
404.999	416.25
405.377	415.12
405.755	397.94
406.133	407.43
406.511	417.6
406.889	408.56
407.267	406.08
407.645	407.43
408.023	426.64
408.401	402.69
408.779	425.51
409.156	420.77
409.534	430.93
409.912	434.55
410.29	411.05
410.667	428.68
411.045	418.73
411.422	418.73
411.8	420.77
412.178	446.53
412.555	453.76
412.933	423.03
413.31	428.45
413.687	444.72
414.065	449.69
414.442	448.34
414.819	437.94
415.197	461.44
415.574	459.41
415.951	469.13
416.328	469.8
416.705	451.05
417.082	460.31
417.46	472.52
417.837	458.28
418.214	481.1
418.591	477.26
418.967	481.1
419.344	484.72
419.721	466.64
420.098	471.39
420.475	484.04
420.852	503.02
421.228	470.71
421.605	490.14
421.982	482.46
422.358	488.33
422.735	509.13
423.111	491.5
423.488	500.09
423.864	508.9
424.241	497.83
424.617	513.42
424.994	492.18
425.37	501.67
425.746	500.54
426.123	510.03
426.499	509.13
426.875	508
427.251	512.51
427.627	513.64
428.003	536.47
428.379	554.1
428.756	528.79
429.132	534.66
429.507	523.81
429.883	554.1
430.259	555.45
430.635	543.93
431.011	544.83
431.387	543.02
431.763	553.87
432.138	543.25
432.514	557.49
432.89	584.38
433.265	584.6
433.641	597.94
434.016	578.05
434.392	593.87
434.767	601.55
435.143	597.94
435.518	606.98
435.894	617.14
436.269	589.57
436.644	631.61
437.02	594.77
437.395	613.53
437.77	622.12
438.145	606.75
438.52	598.16
438.895	612.4
439.271	609.69
439.646	653.08
440.021	644.71
440.395	666.64
440.77	613.98
441.145	646.3
441.52	655.79
441.895	647.2
442.27	651.49
442.645	658.95
443.019	656.01
443.394	673.64
443.769	666.86
444.143	661.66
444.518	666.64
444.892	660.31
445.267	670.7
445.641	665.51
446.016	691.27
446.39	677.03
446.764	678.61
447.139	697.37
447.513	691.04
447.887	700.98
448.262	714.09
448.636	686.75
449.01	705.96
449.384	700.98
449.758	727.42
450.132	705.5
450.506	705.5
450.88	754.99
451.254	743.47
451.628	749.57
452.002	749.34
452.376	753.86
452.75	730.81
453.123	736.24
453.497	750.47
453.871	770.14
454.244	770.14
454.618	785.28
454.992	800.64
455.365	768.78
455.739	801.55
456.112	827.99
456.486	798.38
456.859	812.17
457.232	820.98
457.606	828.21
457.979	815.11
458.352	832.73
458.725	846.29
459.099	833.18
459.472	867.99
459.845	869.57
460.218	865.5
460.591	889.68
460.964	876.35
461.337	903.69
461.71	920.19
462.083	917.25
462.456	917.7
462.829	917.25
463.201	957.7
463.574	907.76
463.947	952.05
464.32	962.22
464.692	978.49
465.065	984.37
465.438	992.05
465.81	1001.77
466.183	1024.14
466.555	1032.05
466.928	997.7
467.3	1011.26
467.672	1050.13
468.045	1063.01
468.417	1046.74
468.789	1030.69
469.161	1093.52
469.534	1086.06
469.906	1096.91
470.278	1107.75
470.65	1107.08
471.022	1153.4
471.394	1168.77
471.766	1163.57
472.138	1181.65
472.51	1183.46
472.882	1176.45
473.253	1226.62
473.625	1231.82
473.997	1260.97
474.369	1253.06
474.74	1270.91
475.112	1300.97
475.484	1293.51
475.855	1310.46
476.227	1331.93
476.598	1382.55
476.97	1362.44
477.341	1382.1
477.713	1407.18
478.084	1435.88
478.455	1458.03
478.827	1474.75
479.198	1500.29
479.569	1488.99
479.94	1554.52
480.311	1584.58
480.682	1607.18
481.053	1617.12
481.424	1639.72
481.795	1617.8
482.166	1672.94
482.537	1708.87
482.908	1744.12
483.279	1744.12
483.65	1772.59
484.021	1792.93
484.391	1794.74
484.762	1799.49
485.133	1876.77
485.503	1888.07
485.874	1895.98
486.244	1938.92
486.615	1964
486.985	1983.66
487.356	2021.63
487.726	2032.93
488.097	2040.16
488.467	2088.97
488.837	2112.02
489.207	2164
489.578	2148.4
489.948	2185.24
490.318	2234.05
490.688	2244.22
491.058	2249.87
491.428	2284.67
491.798	2285.8
492.168	2348.17
492.538	2309.3
492.908	2363.31
493.278	2394.95
493.648	2403.99
494.017	2439.7
494.387	2465.46
494.757	2503.65
495.126	2507.26
495.496	2503.65
495.866	2542.29
496.235	2549.3
496.605	2584.1
496.974	2617.54
497.344	2633.36
497.713	2645.79
498.082	2655.51
498.452	2691.67
498.821	2712.91
499.19	2716.52
499.559	2762.17
499.928	2754.04
500.298	2770.53
500.667	2800.82
501.036	2818.44
501.405	2840.59
501.774	2859.12
502.143	2874.71
502.512	2874.71
502.88	2944.54
503.249	2899.8
503.618	2969.85
503.987	2929.63
504.356	2967.37
504.724	3034.26
505.093	3029.06
505.462	3053.24
505.83	3096.85
506.199	3109.73
506.567	3121.94
506.936	3150.19
507.304	3172.56
507.672	3189.28
508.041	3165.78
508.409	3245.55
508.777	3247.81
509.145	3293.01
509.514	3277.41
509.882	3319.9
510.25	3323.29
510.618	3380.24
510.986	3347.02
511.354	3388.37
511.722	3453.91
512.09	3466.34
512.458	3481.02
512.826	3456.62
513.193	3529.61
513.561	3530.51
513.929	3538.88
514.297	3596.28
514.664	3613.22
515.032	3626.33
515.4	3655.26
515.767	3676.95
516.135	3717.4
516.502	3714.24
516.869	3767.12
517.237	3781.13
517.604	3776.16
517.972	3854.35
518.339	3871.3
518.706	3829.94
519.073	3944.06
519.44	3942.71
519.808	3991.07
520.175	4005.53
520.542	4013.21
520.909	4076.94
521.276	4083.72
521.643	4145.87
522.009	4120.33
522.376	4187.45
522.743	4226.99
523.11	4290.04
523.477	4293.21
523.843	4374.33
524.21	4342.92
524.577	4398.06
524.943	4455.01
525.31	4446.65
525.676	4523.03
526.043	4518.96
526.409	4612.29
526.776	4647.77
527.142	4649.36
527.508	4678.05
527.874	4693.65
528.241	4744.04
528.607	4724.61
528.973	4797.37
529.339	4780.2
529.705	4816.58
530.071	4925.28
530.437	4935.45
530.803	4955.34
531.169	4992.85
531.535	5013.87
531.901	4992.17
532.267	5050.93
532.632	5069.46
532.998	5142.45
533.364	5156.01
533.73	5192.62
534.095	5265.38
534.461	5239.62
534.826	5287.76
535.192	5324.59
535.557	5354.42
535.923	5379.28
536.288	5395.55
536.653	5406.17
537.019	5454.76
537.384	5491.59
537.749	5528.43
538.114	5548.09
538.479	5496.34
538.845	5511.93
539.21	5603.45
539.575	5652.72
539.94	5636
540.305	5754.41
540.67	5714.86
541.034	5773.39
541.399	5832.15
541.764	5775.65
542.129	5857.68
542.494	5897.46
542.858	5911.69
543.223	5916.44
543.587	5971.13
543.952	5981.75
544.316	5981.98
544.681	6019.71
545.045	6038.92
545.41	6094.74
545.774	6142.2
546.138	6151.24
546.503	6197.34
546.867	6241.63
547.231	6299.48
547.595	6315.98
547.959	6349.65
548.324	6380.16
548.688	6430.1
549.052	6422.19
549.416	6473.71
549.779	6542.64
550.143	6549.42
550.507	6629.87
550.871	6695.18
551.235	6680.26
551.599	6779.69
551.962	6816.3
552.326	6800.94
552.689	6907.83
553.053	6920.03
553.417	6967.94
553.78	7071.66
554.143	7026.69
554.507	7147.14
554.87	7187.82
555.234	7234.37
555.597	7267.59
555.96	7265.56
556.323	7344.88
556.686	7341.26
557.05	7507.59
557.413	7613.12
557.776	7637.07
558.139	7733.57
558.502	7807.69
558.865	7865.99
559.228	7929.72
559.59	7987.57
559.953	8014.46
560.316	8149.6
560.679	8174.23
561.041	8289.49
561.404	8348.69
561.767	8381.69
562.129	8427.11
562.492	8539.42
562.854	8577.61
563.217	8733.77
563.579	8797.49
563.941	8863.26
564.304	8894.67
564.666	9009.24
565.028	9084.94
565.39	9211.04
565.753	9288.33
566.115	9407.87
566.477	9427.53
566.839	9511.15
567.201	9589.56
567.563	9728.32
567.925	9754.31
568.287	9885.38
568.648	9959.27
569.01	10040.85
569.372	10169.21
569.734	10096.67
570.095	10278.13
570.457	10410.33
570.819	10452.59
571.18	10615.3
571.542	10644
571.903	10829.76
572.265	10780.95
572.626	10952.01
572.987	10952.01
573.349	10982.97
573.71	11089.86
574.071	11236.75
574.432	11320.59
574.794	11456.18
575.155	11476.52
575.516	11587.93
575.877	11698.44
576.238	11676.97
576.599	11795.16
576.96	11783.4
577.32	11875.15
577.681	11995.83
578.042	12078.09
578.403	12180
578.763	12213
579.124	12333.9
579.485	12427.91
579.845	12452.99
580.206	12496.38
580.566	12572.31
580.927	12606.66
581.287	12721.23
581.648	12648.01
582.008	12794.9
582.368	12843.72
582.728	12913.54
583.089	12986.76
583.449	13046.42
583.809	13140.66
584.169	13236.25
584.529	13200.54
584.889	13311.95
585.249	13288.68
585.609	13283.93
585.969	13409.58
586.329	13462.23
586.688	13602.34
587.048	13579.06
587.408	13564.83
587.768	13615.67
588.127	13620.42
588.487	13662.45
588.846	13811.37
589.206	13765.05
589.565	13864.93
589.925	13993.74
590.284	13897.25
590.643	14007.75
591.003	14010.46
591.362	14076.9
591.721	14118.48
592.08	14098.82
592.44	14246.16
592.799	14261.98
593.158	14305.82
593.517	14322.77
593.876	14404.8
594.235	14352.83
594.593	14492.26
594.952	14500.17
595.311	14491.13
595.67	14600.28
596.029	14724.57
596.387	14727.96
596.746	14748.3
597.104	14784
597.463	14759.6
597.822	14827.17
598.18	14820.39
598.538	14943.55
598.897	15116.2
599.255	14946.94
599.613	15141.96
599.972	15162.07
600.33	15109.65
600.688	15115.07
601.046	15298.79
601.404	15420.15
601.762	15343.09
602.12	15401.84
602.478	15487.26
602.836	15468.28
603.194	15465.12
603.552	15453.36
603.91	15520.03
604.268	15598.9
604.625	15605.45
604.983	15758.22
605.341	15671.21
605.698	15747.37
606.056	15819.23
606.413	15915.27
606.771	15970.19
607.128	15969.06
607.485	15999.34
607.843	16043.41
608.2	16059.45
608.557	16300.12
608.914	16188.94
609.272	16235.27
609.629	16361.59
609.986	16400.23
610.343	16360.23
610.7	16498.31
611.057	16527.69
611.414	16588.25
611.771	16629.15
612.127	16691.3
612.484	16631.86
612.841	16732.43
613.198	16698.53
613.554	16725.2
613.911	16897.39
614.267	16825.53
614.624	16874.34
614.98	16968.13
615.337	17107.11
615.693	17049.26
616.05	17136.94
616.406	17233.43
616.762	17102.14
617.118	17166.31
617.475	17252.19
617.831	17329.7
618.187	17335.58
618.543	17269.59
618.899	17473.2
619.255	17513.65
619.611	17494.67
619.967	17632.29
620.323	17649.24
620.678	17570.15
621.034	17617.83
621.39	17638.84
621.746	17660.31
622.101	17805.39
622.457	17732.63
622.812	17845.39
623.168	17847.88
623.523	17920.19
623.879	17879.74
624.234	17764.49
624.589	17940.08
624.945	17881.78
625.3	17922.23
625.655	17922.68
626.01	17922.68
626.365	18118.83
626.72	18009
627.075	18053.97
627.43	18002.9
627.785	18089.68
628.14	18099.17
628.495	18087.87
628.85	18084.26
629.205	18146.18
629.559	18247.64
629.914	18212.16
630.269	18183.91
630.623	18148.66
630.978	18276.34
631.332	18308.88
631.687	18307.53
632.041	18312.72
632.396	18361.31
632.75	18263.91
633.104	18387.07
633.459	18215.55
633.813	18266.62
634.167	18258.26
634.521	18306.17
634.875	18300.97
635.229	18249
635.583	18131.03
635.937	18252.39
636.291	18206.29
636.645	18320.63
636.999	18229.79
637.352	18363.8
637.706	18225.27
638.06	18323.57
638.413	18328.77
638.767	18347.75
639.121	18393.63
639.474	18295.55
639.828	18293.29
640.181	18411.93
640.534	18415.77
640.888	18341.65
641.241	18285.15
641.594	18239.28
641.947	18375.32
642.301	18374.19
642.654	18314.76
643.007	18329.45
643.36	18401.31
643.713	18380.97
644.066	18444.25
644.419	18329.9
644.771	18149.79
645.124	17905.05
645.477	17907.09
645.83	17858.05
646.182	17881.55
646.535	17924.26
646.888	17942.34
647.24	17810.14
647.593	17994.54
647.945	18008.1
648.298	17899.4
648.65	17975.78
649.002	17838.16
649.355	17947.99
649.707	17797.94
650.059	17784.15
650.411	18131.26
650.763	18236.79
651.115	18399.28
651.467	18351.14
651.819	18378.49
652.171	18383.91
652.523	18379.16
652.875	18269.11
653.227	18277.92
653.578	18418.48
653.93	18305.27
654.282	18329.22
654.633	18245.38
654.985	18205.38
655.337	18354.31
655.688	18429.78
656.039	18421.65
656.391	18290.13
656.742	18396.11
657.094	18383.68
657.445	18456
657.796	18402.67
658.147	18448.77
658.498	18351.37
658.849	18409.22
659.2	18418.03
659.551	18317.24
659.902	18357.7
660.253	18345.04
660.604	18354.98
660.955	18341.2
661.306	18467.52
661.656	18448.99
662.007	18509.78
662.358	18474.3
662.708	18436.79
663.059	18592.04
663.409	18372.61
663.76	18515.66
664.11	18501.87
664.461	18616.45
664.811	18641.08
665.161	18659.16
665.511	18546.39
665.862	18727.86
666.212	18567.63
666.562	18626.39
666.912	18605.82
667.262	18551.81
667.612	18642.89
667.962	18686.5
668.312	18637.24
668.662	18870
669.011	18754.52
669.361	18656.9
669.711	18703
670.06	18693.96
670.41	18702.54
670.76	18718.36
671.109	18724.24
671.459	18753.39
671.808	18649.44
672.157	18769.66
672.507	18624.13
672.856	18668.65
673.205	18738.25
673.554	18755.42
673.904	18744.35
674.253	18799.27
674.602	18744.13
674.951	18487.86
675.3	18461.87
675.649	18764.69
675.998	18844.46
676.346	18926.04
676.695	18856.89
677.044	18762.88
677.393	18731.24
677.741	18785.71
678.09	18837.23
678.438	18800.62
678.787	18812.37
679.135	18813.95
679.484	18794.97
679.832	18744.8
680.181	18792.49
680.529	18851.47
680.877	18701.87
681.225	18808.98
681.573	18794.97
681.922	18750
682.27	18684.47
682.618	18679.72
682.966	18657.12
683.314	18634.07
683.661	18786.16
684.009	18541.65
684.357	18627.52
684.705	18602.43
685.053	18651.02
685.4	18564.92
685.748	18540.97
686.095	18526.05
686.443	18447.64
686.79	18452.83
687.138	18457.35
687.485	18595.66
687.832	18425.72
688.18	18559.27
688.527	18457.13
688.874	18491.25
689.221	18329.22
689.568	18380.07
689.915	18357.02
690.262	18419.61
690.609	18308.66
690.956	18258.04
691.303	18313.18
691.65	18233.18
691.997	18272.95
692.344	18150.47
692.69	18200.41
693.037	18191.6
693.383	17952.73
693.73	18055.56
694.077	18036.57
694.423	18020.53
694.769	18011.49
695.116	17916.8
695.462	17905.28
695.808	17879.29
696.155	17900.08
696.501	17807.2
696.847	17872.28
697.193	17688.11
697.539	17854.66
697.885	17701.89
698.231	17656.24
698.577	17692.85
698.923	17562.01
699.269	17526.53
699.614	17494.89
699.96	17468.23
700.306	17606.3
700.651	17474.1
700.997	17399.75
701.342	17454.44
701.688	17367.44
702.033	17285.63
702.379	17277.72
702.724	17194.34
703.069	17345.74
703.415	17111.4
703.76	17151.85
704.105	17108.01
704.45	17126.32
704.795	17081.34
705.14	16985.53
705.485	17048.35
705.83	16976.71
706.175	17004.96
706.52	16957.73
706.865	16959.31
707.209	16890.62
707.554	16748.47
707.899	16852.88
708.243	16807
708.588	16786.89
708.932	16701.69
709.277	16684.97
709.621	16693.78
709.966	16638.87
710.31	16744.18
710.654	16608.59
710.998	16551.19
711.342	16676.84
711.687	16695.37
712.031	16491.08
712.375	16536.73
712.719	16545.31
713.063	16512.55
713.407	16402.72
713.75	16398.88
714.094	16486.78
714.438	16357.07
714.782	16487.01
715.125	16292.21
715.469	16412.66
715.812	16206.34
716.156	16253.8
716.499	16296.51
716.843	16340.12
717.186	16168.83
717.53	16308.48
717.873	16250.18
718.216	16171.76
718.559	16110.52
718.902	16174.7
719.246	16177.87
719.589	16161.59
719.932	16059.9
720.275	16083.4
720.617	16095.38
720.96	15986.46
721.303	16101.03
721.646	16082.05
721.989	16007.02
722.331	16107.36
722.674	16044.76
723.016	15851.09
723.359	15998.89
723.701	16008.38
724.044	15864.65
724.386	15784.2
724.729	15855.16
725.071	15902.39
725.413	15839.34
725.755	15866.24
726.097	15796.41
726.439	15812.23
726.782	15746.46
727.124	15851.55
727.465	15786.92
727.807	15823.98
728.149	15735.62
728.491	15865.78
728.833	15784.2
729.175	15774.94
729.516	15767.71
729.858	15815.84
730.199	15707.6
730.541	15697.43
730.882	15663.08
731.224	15797.54
731.565	15705.11
731.906	15718.67
732.248	15700.59
732.589	15560.25
732.93	15592.57
733.271	15628.95
733.612	15650.2
733.953	15624.66
734.294	15562.74
734.635	15645
734.976	15673.02
735.317	15510.99
735.658	15484.32
735.999	15530.88
736.339	15432.12
736.68	15630.08
737.021	15475.96
737.361	15419.47
737.702	15513.48
738.042	15456.75
738.383	15379.69
738.723	15552.35
739.063	15428.51
739.404	15432.12
739.744	15397.1
740.084	15431.44
740.424	15417.21
740.764	15400.26
741.104	15485
741.444	15404.1
741.784	15284.1
742.124	15450.43
742.464	15414.04
742.804	15369.07
743.143	15348.73
743.483	15399.35
743.823	15338.79
744.162	15327.04
744.502	15305.35
744.841	15266.25
745.181	15303.76
745.52	15252.47
745.86	15254.5
746.199	15150.1
746.538	15160.27
746.877	15189.42
747.216	15224.9
747.556	15101.06
747.895	15085.01
748.234	15051.12
748.573	15078.01
748.911	15034.39
749.25	15103.09
749.589	14993.49
749.928	15047.95
750.267	15026.26
750.605	15043.88
750.944	14946.49
751.283	14878.46
751.621	14906.03
751.96	14909.65
752.298	14905.36
752.636	14891.8
752.975	14866.71
753.313	14849.54
753.651	14840.05
753.989	14825.58
754.327	14791.69
754.666	14747.62
755.004	14730.67
755.342	14782.2
755.679	14825.36
756.017	14729.32
756.355	14747.39
756.693	14729.32
757.031	14673.27
757.368	14567.51
757.706	14621.3
758.044	14579.49
758.381	14644.57
758.719	14587.85
759.056	14580.17
759.394	14443.9
759.731	14519.38
760.068	14431.24
760.405	14381.3
760.743	14322.32
761.08	14499.94
761.417	14330.68
761.754	14374.07
762.091	14239.61
762.428	14222.21
762.765	14237.13
763.102	14349.67
763.438	14210.01
763.775	14243
764.112	14093.63
764.449	14154.42
764.785	14042.78
765.122	14005.72
765.458	13977.92
765.795	13929.11
766.131	13998.04
766.467	13889.34
766.804	13799.62
767.14	13751.04
767.476	13737.03
767.812	13626.75
768.148	13696.12
768.485	13649.57
768.821	13630.59
769.157	13602.79
769.492	13437.15
769.828	13495.9
770.164	13507.2
770.5	13487.54
770.836	13499.97
771.171	13360.76
771.507	13361.44
771.842	13245.06
772.178	13284.38
772.513	13280.09
772.849	13235.8
773.184	13201.9
773.519	13190.37
773.855	13131.17
774.19	13148.57
774.525	13047.78
774.86	13016.82
775.195	12957.84
775.53	12982.24
775.865	12923.04
776.2	12850.27
776.535	12796.49
776.87	12704.06
777.205	12725.3
777.539	12646.43
777.874	12742.25
778.209	12641.69
778.543	12606.43
778.878	12591.52
779.212	12535.02
779.547	12492.99
779.881	12462.71
780.215	12400.11
780.55	12491.86
780.884	12434.01
781.218	12423.61
781.552	12360.56
781.886	12319.21
782.22	12225.88
782.554	12247.57
782.888	12072.21
783.222	12110.85
783.556	12088.93
783.889	12055.49
784.223	11955.83
784.557	11874.93
784.89	11929.84
785.224	11874.02
785.557	11806
785.891	11817.98
786.224	11897.98
786.558	11945.66
786.891	11754.03
787.224	11679
787.557	11730.3
787.891	11689.62
788.224	11708.15
788.557	11646.91
788.89	11574.82
789.223	11672.22
789.556	11507.48
789.888	11519.01
790.221	11501.15
790.554	11404.43
790.887	11423.19
791.219	11312.91
791.552	11334.6
791.884	11287.37
792.217	11320.59
792.549	11228.39
792.882	11181.16
793.214	11166.7
793.546	11160.6
793.879	11065.23
794.211	11034.27
794.543	11057.32
794.875	10966.93
795.207	11094.38
795.539	11057.32
795.871	11003.54
796.203	10966.7
796.535	10838.12
796.867	10845.35
797.198	10846.71
797.53	10876.08
797.862	10859.59
798.193	10843.32
798.525	10698.46
798.856	10753.6
799.188	10618.01
799.519	10643.55
799.85	10597.45
800.182	10547.73
800.513	10535.75
800.844	10501.63
801.175	10633.83
801.506	10558.13
801.837	10536.21
802.168	10514.06
802.499	10498.47
802.83	10394.51
803.161	10377.79
803.491	10345.93
803.822	10377.34
804.153	10347.51
804.483	10246.04
804.814	10227.29
805.145	10185.03
805.475	10183.22
805.805	10161.75
806.136	10102.32
806.466	10180.96
806.796	10138.02
807.126	10070.23
807.457	10053.05
807.787	10030
808.117	10063.68
808.447	10034.07
808.777	9998.82
809.107	10017.35
809.436	9940.29
809.766	9943.91
810.096	9908.88
810.426	9857.81
810.755	9913.4
811.085	9862.1
811.414	9916.79
811.744	9770.8
812.073	9729.22
812.403	9831.14
812.732	9775.32
813.061	9799.28
813.39	9690.35
813.719	9699.39
814.049	9795.43
814.378	9788.43
814.707	9675.89
815.036	9622.11
815.365	9616.46
815.693	9513.18
816.022	9597.7
816.351	9446.52
816.68	9454.65
817.008	9539.17
817.337	9409.23
817.665	9399.06
817.994	9460.98
818.322	9440.19
818.651	9391.83
818.979	9385.05
819.307	9398.83
819.636	9341.66
819.964	9304.37
820.292	9389.34
820.62	9418.95
820.948	9391.6
821.276	9429.79
821.604	9336.92
821.932	9411.04
822.259	9370.59
822.587	9402.22
822.915	9381.21
823.243	9388.89
823.57	9362.68
823.898	9374.65
824.225	9334.88
824.553	9337.14
824.88	9383.47
825.207	9386.18
825.535	9347.08
825.862	9411.04
826.189	9279.52
826.516	9366.07
826.843	9383.47
827.17	9354.32
827.497	9425.05
827.824	9432.28
828.151	9434.54
828.478	9410.81
828.805	9550.47
829.131	9405.16
829.458	9454.43
829.785	9441.09
830.111	9446.74
830.438	9500.75
830.764	9468.66
831.09	9543.24
831.417	9467.76
831.743	9478.61
832.069	9469.57
832.395	9478.61
832.722	9462.11
833.048	9472.51
833.374	9373.52
833.7	9401.55
834.026	9439.51
834.351	9413.52
834.677	9450.13
835.003	9408.78
835.329	9499.85
835.654	9464.14
835.98	9395.45
836.306	9437.25
836.631	9387.76
836.956	9420.08
837.282	9401.55
837.607	9371.94
837.932	9347.76
838.258	9343.02
838.583	9355.9
838.908	9353.19
839.233	9337.82
839.558	9332.4
839.883	9314.54
840.208	9301.44
840.533	9314.09
840.858	9311.15
841.182	9330.59
841.507	9322.23
841.832	9291.04
842.156	9240.19
842.481	9267.76
842.805	9247.43
843.13	9224.6
843.454	9199.74
843.778	9145.28
844.103	9172.17
844.427	9144.83
844.751	9114.1
845.075	9164.72
845.399	9174.89
845.723	9013.08
846.047	9091.5
846.371	9019.86
846.695	9026.87
847.019	8928.56
847.343	8922.69
847.666	8875.68
847.99	8873.88
848.313	8878.85
848.637	8788.23
848.96	8844.95
849.284	8822.58
849.607	8736.48
849.931	8703.94
850.254	8675.92
850.577	8522.7
850.9	8551.85
851.223	8562.25
851.546	8555.24
851.869	8462.81
852.192	8521.34
852.515	8537.61
852.838	8458.97
853.161	8492.19
853.483	8453.77
853.806	8416.49
854.129	8387.56
854.451	8294.68
854.774	8338.75
855.096	8285.64
855.419	8341.24
855.741	8262.82
856.063	8269.37
856.385	8245.64
856.708	8181.92
857.03	8133.33
857.352	8198.19
857.674	8136.95
857.996	8077.51
858.318	8069.38
858.64	8117.51
858.961	8125.65
859.283	8059.89
859.605	7974.24
859.926	8034.12
860.248	8023.73
860.57	7973.11
860.891	8031.19
861.212	7974.01
861.534	7962.04
861.855	7895.15
862.176	7914.35
862.498	7942.15
862.819	7945.31
863.14	7924.07
863.461	7877.29
863.782	7921.81
864.103	7872.1
864.424	7890.17
864.745	7820.8
865.065	7819.44
865.386	7743.74
865.707	7753.23
866.027	7785.54
866.348	7791.65
866.668	7750.97
866.989	7677.98
867.309	7645.66
867.63	7727.69
867.95	7732.66
868.27	7727.01
868.59	7658.09
868.91	7705.77
869.23	7673.23
869.55	7658.32
869.87	7714.36
870.19	7640.91
870.51	7660.35
870.83	7730.63
871.15	7628.03
871.469	7653.57
871.789	7635.04
872.109	7628.26
872.428	7597.75
872.748	7634.14
873.067	7639.78
873.386	7601.37
873.706	7601.37
874.025	7491.54
874.344	7477.98
874.663	7615.15
874.982	7522.73
875.301	7512.78
875.62	7491.54
875.939	7514.82
876.258	7483.86
876.577	7534.25
876.896	7495.61
877.214	7430.75
877.533	7434.37
877.852	7432.78
878.17	7437.53
878.489	7417.87
878.807	7439.34
879.125	7390.98
879.444	7415.84
879.762	7376.29
880.08	7430.3
880.398	7385.33
880.716	7413.58
881.034	7335.16
881.352	7364.09
881.67	7352.11
881.988	7307.14
882.306	7272.79
882.624	7291.55
882.941	7278.89
883.259	7246.12
883.577	7292.45
883.894	7206.12
884.212	7241.38
884.529	7270.08
884.846	7219.01
885.164	7211.32
885.481	7227.37
885.798	7184.43
886.115	7176.52
886.432	7159.57
886.75	7121.15
887.067	7144.43
887.383	7152.79
887.7	7186.24
888.017	7103.98
888.334	7051.78
888.651	7083.42
888.967	7032.8
889.284	7023.76
889.6	6941.95
889.917	6909.63
890.233	6974.49
890.55	6948.28
890.866	6928.39
891.182	6955.74
891.498	6967.49
891.815	6921.39
892.131	6883.42
892.447	6854.49
892.763	6816.98
893.079	6801.84
893.395	6814.95
893.71	6825.8
894.026	6790.09
894.342	6771.56
894.657	6755.74
894.973	6738.79
895.289	6756.87
895.604	6695.4
895.92	6655.63
896.235	6685.23
896.55	6561.85
896.865	6626.25
897.181	6595.29
897.496	6574.5
897.811	6556.65
898.126	6519.14
898.441	6489.31
898.756	6542.64
899.071	6513.49
899.386	6550.1
899.7	6481.85
900.015	6456.31
900.33	6451.34
900.644	6374.96
900.959	6424.9
901.273	6334.06
901.588	6317.33
901.902	6250.22
902.216	6288.18
902.531	6280.5
902.845	6302.42
903.159	6256.54
903.473	6165.25
903.787	6201.63
904.101	6153.27
904.415	6158.69
904.729	6106.72
905.042	6045.93
905.356	6099.26
905.67	6134.29
905.984	6067.62
906.297	6014.29
906.611	5966.38
906.924	5963.67
907.237	5969.09
907.551	5958.7
907.864	5944.69
908.177	5940.62
908.491	5790.12
908.804	5800.06
909.117	5739.5
909.43	5734.07
909.743	5727.29
910.056	5723.9
910.368	5760.06
910.681	5719.38
910.994	5707.86
911.307	5754.86
911.619	5718.93
911.932	5708.76
912.244	5662.21
912.557	5659.27
912.869	5619.95
913.181	5636.67
913.494	5577.69
913.806	5644.81
914.118	5579.73
914.43	5530.46
914.742	5529.11
915.054	5529.11
915.366	5479.39
915.678	5454.98
915.99	5409.34
916.302	5375.44
916.613	5370.01
916.925	5366.17
917.236	5326.4
917.548	5288.43
917.859	5298.83
918.171	5310.58
918.482	5246.63
918.794	5215.89
919.105	5247.08
919.416	5211.37
919.727	5193.07
920.038	5182.22
920.349	5165.95
920.66	5096.12
920.971	5144.48
921.282	5144.71
921.593	5036.01
921.903	5004.37
922.214	5086.63
922.525	5036.92
922.835	5020.19
923.146	4962.34
923.456	4986.3
923.767	4932.29
924.077	4910.59
924.387	4864.94
924.697	4914.43
925.008	4838.05
925.318	4798.96
925.628	4855.9
925.938	4789.92
926.248	4771.61
926.558	4726.19
926.867	4749.24
927.177	4747.43
927.487	4705.4
927.796	4701.33
928.106	4696.59
928.416	4648.23
928.725	4639.64
929.034	4648
929.344	4635.57
929.653	4620.2
929.962	4556.02
930.271	4575.46
930.581	4507.44
930.89	4546.31
931.199	4523.71
931.508	4475.35
931.817	4499.3
932.125	4477.38
932.434	4441.9
932.743	4413.43
933.051	4403.03
933.36	4348.12
933.669	4360.78
933.977	4387.67
934.286	4364.39
934.594	4388.8
934.902	4318.06
935.21	4323.04
935.519	4301.34
935.827	4322.58
936.135	4240.55
936.443	4208.46
936.751	4137.28
937.059	4139.76
937.367	4092.08
937.674	4148.58
937.982	4129.59
938.29	4098.64
938.597	4145.64
938.905	4079.43
939.213	4076.49
939.52	4044.4
939.827	4082.59
940.135	4016.15
940.442	4000.78
940.749	3990.62
941.056	3968.02
941.363	3968.02
941.67	3925.08
941.977	3956.49
942.284	3951.97
942.591	3906.55
942.898	3908.13
943.205	3896.38
943.511	3890.73
943.818	3860.45
944.125	3811.86
944.431	3800.34
944.738	3788.81
945.044	3765.31
945.35	3754.01
945.657	3742.94
945.963	3758.76
946.269	3722.6
946.575	3727.57
946.881	3707.46
947.187	3689.38
947.493	3650.06
947.799	3622.94
948.105	3585.88
948.41	3594.24
948.716	3617.07
949.022	3584.52
949.327	3605.99
949.633	3563.51
949.938	3537.75
950.244	3545.88
950.549	3564.64
950.854	3506.56
951.16	3519.22
951.465	3465.21
951.77	3444.19
952.075	3448.03
952.38	3433.57
952.685	3410.07
952.99	3406.45
953.294	3448.26
953.599	3406
953.904	3407.35
954.209	3387.47
954.513	3354.7
954.818	3323.97
955.122	3308.83
955.426	3266.57
955.731	3263.85
956.035	3256.62
956.339	3233.35
956.643	3260.01
956.948	3270.18
957.252	3220.69
957.556	3243.06
957.86	3194.25
958.163	3201.94
958.467	3162.61
958.771	3203.97
959.075	3154.48
959.378	3137.53
959.682	3166.23
959.985	3078.32
960.289	3097.98
960.592	3083.52
960.896	3090.98
961.199	3094.14
961.502	3111.32
961.805	3086.23
962.108	3035.16
962.411	3034.26
962.714	2990.64
963.017	2970.76
963.32	3032.67
963.623	2960.13
963.926	2956.07
964.228	2974.82
964.531	2930.76
964.833	2934.6
965.136	2905.45
965.438	2886.69
965.741	2895.95
966.043	2911.55
966.345	2885.33
966.648	2813.47
966.95	2855.05
967.252	2827.71
967.554	2806.01
967.856	2784.55
968.158	2781.38
968.46	2802.17
968.761	2761.04
969.063	2782.74
969.365	2776.86
969.666	2720.37
969.968	2737.09
970.269	2744.32
970.571	2709.52
970.872	2662.29
971.174	2706.58
971.475	2676.98
971.776	2718.56
972.077	2651.22
972.378	2641.72
972.679	2660.71
972.98	2606.25
973.281	2619.58
973.582	2599.92
973.883	2623.19
974.183	2576.64
974.484	2592.69
974.785	2563.08
975.085	2550.43
975.386	2567.83
975.686	2533.48
975.986	2507.72
976.287	2544.33
976.587	2492.8
976.887	2481.5
977.187	2473.82
977.487	2451.9
977.787	2441.05
978.087	2405.12
978.387	2451.9
978.687	2444.67
978.987	2402.86
979.286	2421.39
979.586	2408.96
979.885	2410.54
980.185	2382.75
980.484	2354.73
980.784	2381.62
981.083	2362.18
981.382	2344.11
981.682	2352.24
981.981	2300.26
982.28	2305.01
982.579	2262.98
982.878	2269.53
983.177	2269.53
983.475	2297.55
983.774	2232.47
984.073	2231.79
984.372	2220.04
984.67	2222.98
984.969	2218.91
985.267	2238.35
985.566	2250.55
985.864	2174.39
986.162	2196.31
986.461	2199.48
986.759	2211.45
987.057	2188.63
987.355	2166.93
987.653	2104.79
987.951	2152.7
988.249	2136.2
988.547	2176.43
988.844	2129.65
989.142	2139.14
989.44	2101.4
989.737	2096.65
990.035	2097.11
990.332	2082.42
990.63	2057.33
990.927	2046.03
991.224	2028.63
991.521	2032.93
991.819	2032.93
992.116	2014.62
992.413	1990.44
992.71	1984.79
993.006	1966.26
993.303	1982.98
993.6	1959.48
993.897	1954.96
994.193	1962.65
994.49	1961.97
994.787	1961.74
995.083	1913.16
995.379	1930.1
995.676	1904.57
995.972	1904.34
996.268	1921.97
996.565	1896.21
996.861	1884.46
997.157	1872.25
997.453	1851.91
997.749	1870.45
998.044	1849.65
998.34	1827.06
998.636	1821.63
998.932	1825.25
999.227	1806.49
999.523	1810.33
999.818	1761.75
1000.114	1768.3
1000.409	1756.55
1000.704	1745.25
1001	1738.7
1001.295	1742.54
1001.59	1712.94
1001.885	1717.45
1002.18	1712.48
1002.475	1728.75
1002.77	1742.54
1003.065	1669.55
1003.359	1668.42
1003.654	1687.4
1003.949	1658.02
1004.243	1682.88
1004.538	1654.41
1004.832	1637.23
1005.127	1632.26
1005.421	1616.89
1005.715	1626.61
1006.009	1614.18
1006.304	1626.61
1006.598	1591.36
1006.892	1585.25
1007.186	1558.81
1007.48	1580.51
1007.773	1567.63
1008.067	1565.59
1008.361	1532.83
1008.655	1533.5
1008.948	1506.61
1009.242	1547.06
1009.535	1517.01
1009.829	1505.48
1010.122	1520.17
1010.415	1489.66
1010.708	1446.5
1011.001	1471.36
1011.295	1446.5
1011.588	1436.11
1011.881	1450.57
1012.173	1441.76
1012.466	1444.69
1012.759	1413.73
1013.052	1413.51
1013.344	1391.81
1013.637	1402.21
1013.93	1400.4
1014.222	1393.17
1014.514	1413.96
1014.807	1382.1
1015.099	1387.52
1015.391	1352.27
1015.683	1334.19
1015.976	1343.23
1016.268	1355.88
1016.56	1302.1
1016.851	1318.82
1017.143	1305.26
1017.435	1270.69
1017.727	1291.25
1018.018	1284.25
1018.31	1243.12
1018.602	1261.42
1018.893	1256.68
1019.185	1243.79
1019.476	1233.4
1019.767	1244.02
1020.058	1221.2
1020.35	1204.25
1020.641	1198.82
1020.932	1171.25
1021.223	1179.62
1021.514	1178.26
1021.804	1192.27
1022.095	1157.7
1022.386	1170.8
1022.677	1167.19
1022.967	1141.42
1023.258	1131.48
1023.548	1148.66
1023.839	1115.89
1024.129	1122.44
1024.419	1095.1
1024.709	1117.47
1025	1086.74
1025.29	1090.8
1025.58	1081.99
1025.87	1060.07
1026.16	1080.86
1026.449	1069.11
1026.739	1053.52
1027.029	1033.86
1027.319	1057.13
1027.608	1019.62
1027.898	1050.35
1028.187	1026.85
1028.477	997.93
1028.766	1020.52
1029.055	1023.69
1029.344	1014.87
1029.634	1000.86
1029.923	997.25
1030.212	993.86
1030.501	973.29
1030.79	954.09
1031.078	954.09
1031.367	948.44
1031.656	970.81
1031.945	939.62
1032.233	941.2
1032.522	951.6
1032.81	952.73
1033.099	917.93
1033.387	930.81
1033.675	932.39
1033.963	909.11
1034.251	910.7
1034.54	899.62
1034.828	883.35
1035.116	897.36
1035.403	880.64
1035.691	878.15
1035.979	865.5
1036.267	849.68
1036.554	851.49
1036.842	852.62
1037.129	855.1
1037.417	849
1037.704	848.1
1037.992	845.84
1038.279	824.14
1038.566	815.11
1038.853	815.11
1039.14	815.11
