Data from copper_heatsink_FLMS001491_009.txt Node
Date: Tue Feb 07 10:49:04 GMT 2017
User: dcchb
Spectrometer: FLMS00149
Trigger mode: 0
Integration Time (sec): 2.000000E-2
Scans to average: 10
Electric dark correction enabled: true
Nonlinearity correction enabled: false
Boxcar width: 0
XAxis mode: Wavelengths
Number of Pixels in Spectrum: 2048
>>>>>Begin Spectral Data<<<<<
341.393	-29.86
341.776	-29.86
342.16	-29.86
342.543	-65.56
342.927	-71.44
343.31	-75.28
343.693	-64.21
344.077	-79.8
344.46	-56.52
344.843	-47.26
345.226	-36.64
345.61	-36.86
345.993	-9.97
346.376	10.14
346.759	19.18
347.142	24.38
347.525	15.79
347.908	64.6
348.291	68.9
348.674	102.79
349.057	100.76
349.44	115
349.823	131.72
350.206	157.03
350.588	246.07
350.971	253.98
351.354	238.16
351.737	273.86
352.119	295.56
352.502	293.52
352.884	326.52
353.267	322.9
353.65	343.24
354.032	351.83
354.414	329.68
354.797	357.7
355.179	363.8
355.562	368.78
355.944	386.63
356.326	364.03
356.709	385.27
357.091	379.4
357.473	395.89
357.855	395.89
358.238	385.05
358.62	368.1
359.002	377.81
359.384	383.46
359.766	387.98
360.148	385.72
360.53	394.09
360.912	400.19
361.294	385.27
361.676	366.74
362.057	363.35
362.439	404.48
362.821	372.84
363.203	377.81
363.584	389.79
363.966	377.14
364.348	378.72
364.729	393.41
365.111	388.89
365.493	371.04
365.874	378.04
366.256	392.5
366.637	361.77
367.019	384.37
367.4	377.81
367.781	386.18
368.163	360.19
368.544	387.98
368.925	358.61
369.306	384.59
369.688	382.33
370.069	387.98
370.45	378.04
370.831	379.4
371.212	366.74
371.593	382.33
371.974	379.4
372.355	388.89
372.736	378.72
373.117	390.92
373.498	388.21
373.879	383.24
374.26	380.07
374.641	375.56
375.021	376.23
375.402	407.64
375.783	412.84
376.163	394.99
376.544	420.53
376.925	406.97
377.305	397.25
377.686	413.07
378.066	427.31
378.447	402.22
378.827	389.79
379.208	405.16
379.588	414.42
379.968	410.13
380.349	437.02
380.729	389.57
381.109	418.04
381.489	420.53
381.87	406.51
382.25	427.53
382.63	430.69
383.01	423.01
383.39	423.69
383.77	426.18
384.15	437.25
384.53	424.59
384.91	439.51
385.29	426.63
385.67	455.55
386.049	419.17
386.429	455.55
386.809	458.72
387.189	462.11
387.568	467.3
387.948	466.4
388.328	460.52
388.707	438.6
389.087	474.54
389.466	460.75
389.846	486.06
390.225	476.57
390.605	478.6
390.984	477.02
391.363	477.47
391.743	486.06
392.122	494.42
392.501	493.74
392.881	510.69
393.26	515.44
393.639	516.34
394.018	514.99
394.397	523.35
394.776	517.02
395.155	510.69
395.534	526.06
395.913	520.64
396.292	507.08
396.671	520.41
397.05	530.35
397.429	541.88
397.808	536.68
398.186	540.07
398.565	538.04
398.944	547.08
399.323	565.83
399.701	541.88
400.08	548.88
400.458	570.58
400.837	559.51
401.215	570.58
401.594	562.89
401.972	564.48
402.351	578.26
402.729	598.6
403.107	576.45
403.486	582.33
403.864	593.85
404.242	616.9
404.62	578.94
404.999	590.01
405.377	605.38
405.755	612.84
406.133	609.67
406.511	623.91
406.889	593.18
407.267	614.19
407.645	622.78
408.023	635.66
408.401	648.54
408.779	639.73
409.156	635.89
409.534	650.8
409.912	656.23
410.29	676.11
410.667	681.99
411.045	709.56
411.422	689.45
411.8	683.34
412.178	717.47
412.555	711.59
412.933	701.65
413.31	712.95
413.687	718.82
414.065	711.37
414.442	710.69
414.819	719.5
415.197	721.08
415.574	767.41
415.951	750.46
416.328	764.7
416.705	762.44
417.082	765.83
417.46	775.32
417.837	773.28
418.214	759.5
418.591	789.1
418.967	782.32
419.344	830.23
419.721	789.78
420.098	836.11
420.475	802.89
420.852	826.16
421.228	841.76
421.605	849.67
421.982	837.01
422.358	857.58
422.735	821.65
423.111	868.42
423.488	854.86
423.864	859.84
424.241	853.51
424.617	871.59
424.994	860.06
425.37	906.16
425.746	925.82
426.123	900.29
426.499	900.74
426.875	924.02
427.251	918.37
427.627	931.25
428.003	924.02
428.379	955.88
428.756	956.1
429.132	974.18
429.507	979.16
429.883	970.57
430.259	1020.96
430.635	1010.11
431.011	1018.7
431.387	1071.81
431.763	1048.08
432.138	1028.42
432.514	1066.61
432.89	1064.8
433.265	1073.62
433.641	1084.91
434.016	1124.01
434.392	1125.37
434.767	1124.91
435.143	1127.17
435.518	1129.43
435.894	1145.03
436.269	1164.69
436.644	1161.98
437.02	1205.82
437.395	1166.49
437.77	1225.93
438.145	1183.67
438.52	1201.52
438.895	1233.61
439.271	1222.76
439.646	1234.52
440.021	1247.85
440.395	1257.57
440.77	1281.07
441.145	1269.54
441.52	1303.89
441.895	1283.33
442.27	1291.69
442.645	1317.68
443.019	1334.4
443.394	1331.91
443.769	1331.91
444.143	1320.39
444.518	1371.69
444.892	1321.52
445.267	1354.29
445.641	1356.77
446.016	1346.6
446.39	1382.99
446.764	1397.68
447.139	1389.77
447.513	1391.35
447.887	1404.68
448.262	1408.52
448.636	1411.46
449.01	1439.03
449.384	1439.93
449.758	1445.58
450.132	1476.09
450.506	1463.89
450.88	1493.49
451.254	1491.91
451.628	1527.62
452.002	1512.47
452.376	1570.1
452.75	1560.16
453.123	1546.15
453.497	1580.04
453.871	1568.74
454.244	1605.58
454.618	1615.07
454.992	1650.32
455.365	1639.02
455.739	1680.15
456.112	1690.55
456.486	1696.88
456.859	1731.23
457.232	1741.39
457.606	1738.46
457.979	1778.68
458.352	1752.24
458.725	1844.44
459.099	1817.78
459.472	1865.69
459.845	1861.17
460.218	1856.19
460.591	1915.4
460.964	1907.72
461.337	1951.78
461.71	1996.76
462.083	1972.35
462.456	2007.38
462.829	2009.64
463.201	2052.57
463.574	2057.77
463.947	2087.6
464.32	2121.5
464.692	2107.03
465.065	2124.21
465.438	2201.72
465.81	2187.94
466.183	2239.01
466.555	2257.99
466.928	2275.84
467.3	2275.84
467.672	2319.91
468.045	2378.67
468.417	2371.89
468.789	2391.77
469.161	2394.94
469.534	2490.53
469.906	2512.9
470.278	2515.16
470.65	2537.31
471.022	2594.93
471.394	2607.59
471.766	2614.82
472.138	2685.78
472.51	2707.02
472.882	2763.74
473.253	2757.87
473.625	2798.32
473.997	2882.61
474.369	2875.38
474.74	2894.13
475.112	2964.19
475.484	2993.57
475.855	3063.39
476.227	3094.35
476.598	3222.71
476.97	3207.57
477.341	3271.75
477.713	3287.34
478.084	3320.11
478.455	3383.84
478.827	3415.7
479.198	3471.74
479.569	3533.21
479.94	3630.84
480.311	3633.32
480.682	3727.33
481.053	3768.23
481.424	3821.57
481.795	3874.22
482.166	3913.09
482.537	3967.33
482.908	4052.75
483.279	4060.66
483.65	4152.86
484.021	4218.84
484.391	4293.64
484.762	4294.1
485.133	4377.71
485.503	4415.9
485.874	4493.41
486.244	4546.74
486.615	4639.85
486.985	4713.97
487.356	4803.69
487.726	4806.85
488.097	4890.69
488.467	4879.62
488.837	5006.17
489.207	5053.4
489.578	5109.22
489.948	5142.89
490.318	5225.37
490.688	5238.03
491.058	5341.75
491.428	5363.67
491.798	5414.74
492.168	5558.47
492.538	5515.53
492.908	5600.05
493.278	5700.84
493.648	5660.16
494.017	5760.72
494.387	5849.76
494.757	5869.42
495.126	5891.34
495.496	5939.02
495.866	5959.36
496.235	6059.47
496.605	6104.67
496.974	6185.57
497.344	6262.41
497.713	6199.13
498.082	6303.31
498.452	6350.31
498.821	6397.54
499.19	6371.33
499.559	6448.62
499.928	6552.12
500.298	6609.74
500.667	6676.41
501.036	6582.4
501.405	6675.5
501.774	6720.7
502.143	6785.1
502.512	6845.67
502.88	6905.55
503.249	6856.74
503.618	6931.99
503.987	6957.98
504.356	7027.13
504.724	7066.68
505.093	7106.45
505.462	7153.23
505.83	7262.15
506.199	7262.38
506.567	7360.46
506.936	7367.01
507.304	7441.81
507.672	7527.23
508.041	7534.24
508.409	7644.29
508.777	7618.3
509.145	7723.61
509.514	7730.16
509.882	7805.42
510.25	7862.59
510.618	7879.76
510.986	7902.59
511.354	8023.49
511.722	8095.58
512.09	8156.14
512.458	8172.41
512.826	8261.45
513.193	8293.31
513.561	8335.57
513.929	8413.99
514.297	8469.81
514.664	8579.86
515.032	8639.74
515.4	8711.61
515.767	8755.9
516.135	8825.95
516.502	8805.62
516.869	8922
517.237	8948.44
517.604	9042.45
517.972	9124.7
518.339	9231.59
518.706	9192.95
519.073	9340.74
519.44	9347.07
519.808	9484.24
520.175	9473.62
520.542	9615.31
520.909	9667.06
521.276	9698.93
521.643	9820.73
522.009	9829.09
522.376	9935.76
522.743	10051.91
523.11	10154.96
523.477	10272.24
523.843	10378.23
524.21	10359.47
524.577	10483.31
524.943	10521.5
525.31	10701.16
525.676	10733.7
526.043	10845.56
526.409	10869.97
526.776	11039.23
527.142	11083.07
527.508	11139.79
527.874	11266.79
528.241	11325.78
528.607	11414.13
528.973	11563.28
529.339	11535.26
529.705	11668.59
530.071	11748.59
530.437	11804.86
530.803	11972.76
531.169	12003.72
531.535	12088.92
531.901	12088.69
532.267	12215.02
532.632	12344.05
532.998	12333.66
533.364	12518.96
533.73	12554.67
534.095	12565.97
534.461	12737.94
534.826	12788.79
535.192	12870.82
535.557	12968.22
535.923	12986.97
536.288	13081.66
536.653	13168.89
537.019	13223.58
537.384	13262.22
537.749	13338.83
538.114	13393.07
538.479	13498.15
538.845	13566.62
539.21	13575.89
539.575	13699.72
539.94	13784.69
540.305	13897.69
540.67	14004.35
541.034	14054.29
541.399	14116.44
541.764	14235.98
542.129	14364.34
542.494	14410.67
542.858	14436.2
543.223	14531.34
543.587	14613.6
543.952	14706.7
544.316	14765.01
544.681	14828.51
545.045	14923.2
545.41	15074.6
545.774	15205.9
546.138	15248.84
546.503	15379.45
546.867	15335.61
547.231	15543.29
547.595	15671.88
547.959	15746.22
548.324	15806.11
548.688	15996.84
549.052	15926.11
549.416	16043.84
549.779	16144.41
550.143	16381.91
550.507	16438.86
550.871	16555.47
551.235	16747.78
551.599	16829.81
551.962	17026.19
552.326	17126.3
552.689	17172.18
553.053	17210.37
553.417	17414.2
553.78	17731.48
554.143	17682.9
554.507	17888.09
554.87	18013.06
555.234	18348.19
555.597	18319.49
555.96	18432.26
556.323	18725.13
556.686	18698.24
557.05	18998.79
557.413	19111.33
557.776	19315.4
558.139	19520.59
558.502	19640.59
558.865	19784.08
559.228	20033.57
559.59	20168.93
559.953	20421.36
560.316	20645.08
560.679	20801.01
561.041	21017.5
561.404	21166.42
561.767	21475.34
562.129	21566.64
562.492	22018.6
562.854	22031.93
563.217	22249.78
563.579	22448.42
563.941	22605.25
564.304	22855.87
564.666	23266.25
565.028	23430.99
565.39	23561.61
565.753	23926.8
566.115	24141.94
566.477	24451.31
566.839	24628.48
567.201	25020.78
567.563	25188.91
567.925	25405.86
568.287	25607.43
568.648	25768.11
569.01	26140.75
569.372	26494.42
569.734	26545.71
570.095	26881.98
570.457	27193.16
570.819	27500.04
571.18	27665.01
571.542	27935.51
571.903	28207.82
572.265	28557.41
572.626	28811.64
572.987	28901.81
573.349	29273.1
573.71	29576.82
574.071	29819.3
574.432	30013.42
574.794	30539.96
575.155	30580.18
575.516	30748.54
575.877	30968.65
576.238	31301.3
576.599	31644.56
576.96	31749.65
577.32	31935.63
577.681	32268.28
578.042	32473.24
578.403	32739.9
578.763	33009.95
579.124	33169.5
579.485	33397.74
579.845	33714.34
580.206	33844.73
580.566	34129.92
580.927	34248.34
581.287	34621.21
581.648	34716.8
582.008	34994.76
582.368	35068.43
582.728	35241.98
583.089	35351.13
583.449	35692.82
583.809	35766.94
584.169	35985.24
584.529	36137.1
584.889	36649.4
585.249	36536.19
585.609	36715.39
585.969	36906.12
586.329	37050.07
586.688	37278.99
587.048	37456.84
587.408	37554.46
587.768	37777.28
588.127	37997.62
588.487	37922.59
588.846	38358.51
589.206	38478.06
589.565	38639.18
589.925	38903.13
590.284	38888.67
590.643	39204.36
591.003	39484.36
591.362	39713.96
591.721	39750.11
592.08	39822.2
592.44	40139.93
592.799	40127.5
593.158	40275.07
593.517	40434.39
593.876	40497.44
594.235	40609.98
594.593	40975.62
594.952	41197.31
595.311	41231.43
595.67	41429.16
596.029	41783.96
596.387	41891.98
596.746	41972.65
597.104	42015.59
597.463	42301.01
597.822	42602.69
598.18	42504.84
598.538	42670.26
598.897	43017.6
599.255	42735.57
599.613	43480.18
599.972	43211.72
600.33	43640.63
600.688	43575.32
601.046	43888.99
601.404	44211.01
601.762	44116.1
602.12	44657.78
602.478	44607.39
602.836	44714.05
603.194	44630.21
603.552	45011.9
603.91	44880.15
604.268	45300.25
604.625	45208.95
604.983	45654.59
605.341	45531.43
605.698	45711.76
606.056	46225.42
606.413	46137.97
606.771	46493.21
607.128	46667.9
607.485	46560.1
607.843	46688.69
608.2	46894.78
608.557	47187.21
608.914	47303.81
609.272	47605.05
609.629	47770.24
609.986	47873.52
610.343	47867.19
610.7	48199.38
611.057	48164.13
611.414	48363.9
611.771	48545.81
612.127	48803.43
612.484	48821.29
612.841	49072.35
613.198	48920.95
613.554	48940.38
613.911	49359.58
614.267	49435.51
614.624	49605
614.98	49761.38
615.337	50029.39
615.693	50064.87
616.05	50169.95
616.406	50340.57
616.762	50357.07
617.118	50400.23
617.475	50428.48
617.831	50663.72
618.187	50845.19
618.543	50959.76
618.899	51206.31
619.255	51218.06
619.611	51253.09
619.967	51490.82
620.323	51609.01
620.678	51655.11
621.034	51590.93
621.39	51668.44
621.746	51746.18
622.101	52116.79
622.457	52027.76
622.812	52149.11
623.168	52299.16
623.523	52389.78
623.879	52538.25
624.234	52428.2
624.589	52657.8
624.945	52670.9
625.3	52695.76
625.655	52765.36
626.01	52825.93
626.365	52994.51
626.72	52974.62
627.075	53109.99
627.43	53143.89
627.785	53076.32
628.14	53314.28
628.495	53327.16
628.85	53261.17
629.205	53257.55
629.559	53449.19
629.914	53448.74
630.269	53530.77
630.623	53542.74
630.978	53534.16
631.332	53619.8
631.687	53739.12
632.041	53716.3
632.396	53875.17
632.75	53858.67
633.104	53886.46
633.459	53827.26
633.813	53801.49
634.167	53970.08
634.521	53990.42
634.875	54053.92
635.229	54043.97
635.583	53995.39
635.937	53975.5
636.291	54074.71
636.645	54134.59
636.999	54126.23
637.352	54271.54
637.706	54111.09
638.06	54333.23
638.413	54252.56
638.767	54380.01
639.121	54484.87
639.474	54344.98
639.828	54367.36
640.181	54428.37
640.534	54504.53
640.888	54401.03
641.241	54347.92
641.594	54467.01
641.947	54629.04
642.301	54526.9
642.654	54531.19
643.007	54612.55
643.36	54705.43
643.713	54710.17
644.066	54858.64
644.419	54558.99
644.771	54392.44
645.124	54073.8
645.477	54039.68
645.83	54022.51
646.182	53980.02
646.535	54047.82
646.888	54240.58
647.24	54187.7
647.593	54477.18
647.945	54426.56
648.298	54290.97
648.65	54350.41
649.002	54318.54
649.355	54415.26
649.707	54339.11
650.059	54464.98
650.411	54722.6
650.763	54805.99
651.115	55164.62
651.467	55153.32
651.819	55299.99
652.171	55195.36
652.523	55182.7
652.875	55219.08
653.227	55068.81
653.578	55376.82
653.93	55295.47
654.282	55141.57
654.633	55275.13
654.985	55358.29
655.337	55470.15
655.688	55504.28
656.039	55602.35
656.391	55331.17
656.742	55478.74
657.094	55498.63
657.445	55730.48
657.796	55612.52
658.147	55581.79
658.498	55570.94
658.849	55742.23
659.2	55673.08
659.551	55633.31
659.902	55723.7
660.253	55743.14
660.604	55827.2
660.955	55710.6
661.306	55882.12
661.656	55810.48
662.007	55875.11
662.358	55909.91
662.708	55882.8
663.059	55976.35
663.409	55794.21
663.76	56043.24
664.11	56106.29
664.461	56210.7
664.811	56164.6
665.161	56143.81
665.511	56148.55
665.862	56240.75
666.212	56323.91
666.562	56429.22
666.912	56344.25
667.262	56360.07
667.612	56423.8
667.962	56489.79
668.312	56388.55
668.662	56504.25
669.011	56536.11
669.361	56523.23
669.711	56509.22
670.06	56567.75
670.41	56548.54
670.76	56580.63
671.109	56732.04
671.459	56681.87
671.808	56664.02
672.157	56763.9
672.507	56612.04
672.856	56568.43
673.205	56697.46
673.554	56806.39
673.904	56727.75
674.253	56931.81
674.602	56798.48
674.951	56468.09
675.3	56347.42
675.649	56848.65
675.998	56887.52
676.346	56870.79
676.695	57081.63
677.044	56836.44
677.393	56932.26
677.741	56987.85
678.09	56941.3
678.438	56951.69
678.787	56951.02
679.135	56921.86
679.484	56899.49
679.832	56938.36
680.181	56806.84
680.529	56952.37
680.877	56838.7
681.225	56899.27
681.573	57053.61
681.922	56966.84
682.27	56906.27
682.618	56984.46
682.966	56898.81
683.314	57090.9
683.661	56949.43
684.009	56841.87
684.357	56770.68
684.705	56843.67
685.053	56964.8
685.4	56970.45
685.748	56795.31
686.095	56880.74
686.443	56859.27
686.79	56810.68
687.138	56873.73
687.485	56881.64
687.832	56748.99
688.18	56784.47
688.527	56764.81
688.874	56810.46
689.221	56759.61
689.568	56621.53
689.915	56618.82
690.262	56593.74
690.609	56586.28
690.956	56556.9
691.303	56606.17
691.65	56481.2
691.997	56470.58
692.344	56400.75
692.69	56361.88
693.037	56453.63
693.383	56293.18
693.73	56471.71
694.077	56291.82
694.423	56383.12
694.769	56215.22
695.116	56127.99
695.462	56144.26
695.808	56113.52
696.155	56148.78
696.501	55954.66
696.847	55937.48
697.193	55841.22
697.539	55937.48
697.885	55688
698.231	55678.06
698.577	55761.22
698.923	55778.17
699.269	55761.9
699.614	55589.02
699.96	55485.74
700.306	55565.52
700.651	55509.25
700.997	55521.68
701.342	55505.86
701.688	55468.8
702.033	55394.22
702.379	55449.14
702.724	55435.58
703.069	55600.54
703.415	55183.15
703.76	55206.66
704.105	55201.91
704.45	55132.31
704.795	55013.44
705.14	54936.38
705.485	55054.34
705.83	55015.93
706.175	55076.04
706.52	55004.85
706.865	54932.54
707.209	54883.05
707.554	54739.32
707.899	54853.44
708.243	54848.47
708.588	54815.48
708.932	54671.08
709.277	54704.3
709.621	54772.77
709.966	54571.87
710.31	54685.31
710.654	54362.61
710.998	54516.28
711.342	54476.05
711.687	54443.74
712.031	54425.89
712.375	54304.31
712.719	54380.24
713.063	54339.11
713.407	54436.73
713.75	54323.97
714.094	54313.8
714.438	54177.76
714.782	54272.44
715.125	54168.26
715.469	54271.54
715.812	54007.37
716.156	53958.55
716.499	54082.39
716.843	54210.98
717.186	53960.36
717.53	54142.05
717.873	54131.88
718.216	53970.3
718.559	53888.72
718.902	53778.9
719.246	53958.55
719.589	53867.48
719.932	53727.82
720.275	53710.42
720.617	53714.72
720.96	53768.95
721.303	53852.79
721.646	53863.41
721.989	53589.98
722.331	53733.7
722.674	53678.11
723.016	53674.27
723.359	53585.23
723.701	53667.26
724.044	53508.4
724.386	53393.6
724.729	53515.4
725.071	53614.83
725.413	53518.11
725.755	53502.29
726.097	53361.05
726.439	53186.37
726.782	53279.93
727.124	53516.3
727.465	53302.07
727.807	53339.59
728.149	53221.62
728.491	53257.78
728.833	53339.59
729.175	53137.11
729.516	53172.81
729.858	53180.27
730.199	53124.45
730.541	53123.77
730.882	53093.04
731.224	53298.01
731.565	53165.58
731.906	53173.26
732.248	53180.95
732.589	53064.11
732.93	52990.89
733.271	53091.01
733.612	53078.58
733.953	53100.95
734.294	53055.75
734.635	52992.7
734.976	53070.67
735.317	52879.49
735.658	53009.65
735.999	52976.21
736.339	52951.35
736.68	53076.54
737.021	52946.38
737.361	52803.33
737.702	52962.65
738.042	52924
738.383	52859.6
738.723	52872.25
739.063	52790.22
739.404	52825.02
739.744	52806.27
740.084	52724.24
740.424	52763.1
740.764	52646.27
741.104	52791.35
741.444	52571.92
741.784	52554.07
742.124	52660.73
742.464	52573.96
742.804	52508.42
743.143	52494.64
743.483	52465.48
743.823	52388.2
744.162	52413.06
744.502	52494.41
744.841	52359.5
745.181	52492.6
745.52	52465.26
745.86	52420.97
746.199	52452.38
746.538	52256.22
746.877	52350.46
747.216	52438.37
747.556	52312.72
747.895	52394.98
748.234	52242.21
748.573	52377.58
748.911	52185.72
749.25	52157.7
749.589	52090.81
749.928	52198.15
750.267	52197.02
750.605	52062.56
750.944	52100.3
751.283	51920.41
751.621	52058.94
751.96	51836.8
752.298	51756.13
752.636	51760.42
752.975	51664.38
753.313	51535.79
753.651	51690.36
753.989	51511.61
754.327	51500.54
754.666	51395.68
755.004	51461.22
755.342	51587.09
755.679	51425.96
756.017	51233.65
756.355	51400.65
756.693	51329.7
757.031	51493.08
757.368	51107.55
757.706	51008.8
758.044	51005.86
758.381	51097.16
758.719	50935.58
759.056	50919.76
759.394	50875.47
759.731	50658.3
760.068	50683.61
760.405	50498.3
760.743	50496.95
761.08	50510.28
761.417	50411.3
761.754	50363.85
762.091	50282.04
762.428	50217.63
762.765	50114.13
763.102	50224.64
763.438	49987.58
763.775	49855.16
764.112	49846.8
764.449	49943.97
764.785	49666.69
765.122	49524.09
765.458	49501.5
765.795	49524.55
766.131	49354.61
766.467	49320.03
766.804	49222.41
767.14	49155.97
767.476	49226.47
767.812	49026.71
768.148	49047.27
768.485	48769.54
768.821	48662.87
769.157	48578.36
769.492	48547.85
769.828	48343.79
770.164	48138.14
770.5	48108.99
770.836	48232.83
771.171	48010.91
771.507	47925.49
771.842	47702.45
772.178	47736.12
772.513	47611.83
772.849	47359.18
773.184	47205.74
773.519	47248.45
773.855	47096.36
774.19	46991.5
774.525	46988.34
774.86	46961.45
775.195	46772.08
775.53	46719.87
775.865	46442.14
776.2	46229.72
776.535	46140
776.87	46095.26
777.205	46050.74
777.539	45789.95
777.874	45878.99
778.209	45561.49
778.543	45557.42
778.878	45409.85
779.212	45444.43
779.547	45211.44
779.881	45399
780.215	45112.68
780.55	45067.49
780.884	44850.32
781.218	44925.57
781.552	44867.94
781.886	44451.46
782.22	44357.9
782.554	44405.36
782.888	44142.54
783.222	44014.63
783.556	43697.81
783.889	43703.23
784.223	43337.82
784.557	43396.34
784.89	43430.02
785.224	43218.95
785.557	43128.56
785.891	43090.14
786.224	42922.68
786.558	42992.29
786.891	42627.33
787.224	42500.1
787.557	42439.08
787.891	42464.17
788.224	42492.41
788.557	42435.47
788.89	42226.43
789.223	42218.75
789.556	41865.09
789.888	41805.2
790.221	41727.91
790.554	41366.79
790.887	41531.31
791.219	41238.21
791.552	41250.19
791.884	41198.89
792.217	40941.04
792.549	40881.61
792.882	40732.69
793.214	40661.05
793.546	40716.42
793.879	40545.12
794.211	40417.44
794.543	40559.36
794.875	40322.08
795.207	40277.78
795.539	40116.88
795.871	40032.37
796.203	39782.88
796.535	39581.98
796.867	39484.58
797.198	39438.93
797.53	39626.05
797.862	39242.56
798.193	39365.72
798.525	39024.71
798.856	39237.81
799.188	38696.58
799.519	38686.19
799.85	38568.22
800.182	38628.33
800.513	38742.23
800.844	38231.96
801.175	38488.45
801.506	38327.1
801.837	38091.4
802.168	38029.48
802.499	37911.29
802.83	37882.37
803.161	37838.98
803.491	37805.98
803.822	37891.18
804.153	37655.48
804.483	37587.68
804.814	37334.81
805.145	37328.03
805.475	37270.86
805.805	37126.91
806.136	37239.9
806.466	37154.48
806.796	37113.57
807.126	36943.86
807.457	36884.88
807.787	36886.69
808.117	36722.62
808.447	36509.52
808.777	36669.97
809.107	36448.73
809.436	36288.06
809.766	36305.01
810.096	36162.86
810.426	36183.65
810.755	36166.25
811.085	36143.43
811.414	36051.91
811.744	35776.21
812.073	35688.98
812.403	35623.67
812.732	35433.62
813.061	35560.62
813.39	35357.23
813.719	35390.91
814.049	35671.58
814.378	35390.68
814.707	35267.07
815.036	35170.57
815.365	34916.34
815.693	34742.34
816.022	34770.36
816.351	34687.87
816.68	34522.91
817.008	34818.72
817.337	34340.54
817.665	34372.85
817.994	34675.22
818.322	34611.49
818.651	34435.9
818.979	34134.22
819.307	34302.12
819.636	34273.19
819.964	34092.63
820.292	34216.47
820.62	34252.86
820.948	34119.07
821.276	34235.68
821.604	34180.32
821.932	34298.73
822.259	34246.08
822.587	34201.78
822.915	34119.3
823.243	34294.89
823.57	34183.25
823.898	34426.41
824.225	34126.53
824.553	34223.48
824.88	34282.01
825.207	34153.88
825.535	33929.25
825.862	34102.35
826.189	34181.22
826.516	34389.8
826.843	34293.76
827.17	34263.03
827.497	34241.56
827.824	34315.45
828.151	34395.23
828.478	34391.16
828.805	34479.74
829.131	34311.61
829.458	34405.39
829.785	34165.63
830.111	34394.1
830.438	34531.95
830.764	34362.91
831.09	34347.77
831.417	34101.45
831.743	34183.48
832.069	34271.39
832.395	34224.38
832.722	34397.71
833.048	34262.35
833.374	34496.01
833.7	34245.85
834.026	34236.59
834.351	34291.5
834.677	34346.19
835.003	34400.42
835.329	34393.87
835.654	34315
835.98	34279.97
836.306	34265.74
836.631	34096.48
836.956	34300.99
837.282	34272.29
837.607	34202.91
837.932	34029.13
838.258	34104.61
838.583	34084.27
838.908	33774.9
839.233	33985.07
839.558	33840.89
839.883	33648.35
840.208	33592.31
840.533	33673.66
840.858	33687.22
841.182	33676.37
841.507	33529.71
841.832	33543.04
842.156	33490.39
842.481	33385.99
842.805	33400.22
843.13	33431.64
843.454	33442.93
843.778	33376.04
844.103	33338.53
844.427	33203.84
844.751	33254.01
845.075	33020.8
845.399	32913.46
845.723	32784.87
846.047	32879.33
846.371	32489.29
846.695	32613.58
847.019	32329.07
847.343	32275.28
847.666	32111.67
847.99	32014.5
848.313	31977.89
848.637	31741.28
848.96	31854.95
849.284	31689.31
849.607	31407.06
849.931	31258.81
850.254	31110.11
850.577	31011.13
850.9	30922.32
851.223	30934.75
851.546	30732.72
851.869	30562.78
852.192	30719.62
852.515	30309.46
852.838	30274.88
853.161	30409.12
853.483	30235.33
853.806	30105.85
854.129	30201.44
854.451	30038.28
854.774	29957.38
855.096	29867.21
855.419	29798.96
855.741	29655.01
856.063	29474.45
856.385	29479.65
856.708	29449.37
857.03	29286.43
857.352	29263.16
857.674	29315.36
857.996	29135.7
858.318	28950.17
858.64	28933
858.961	28954.46
859.283	28916.73
859.605	28626.79
859.926	28824.07
860.248	28559.22
860.57	28628.37
860.891	28505.89
861.212	28427.02
861.534	28397.87
861.855	28341.15
862.176	28447.36
862.498	28266.57
862.819	28232
863.14	28021.38
863.461	28043.3
863.782	28090.08
864.103	27940.48
864.424	28063.41
864.745	28082.17
865.065	27880.59
865.386	27777.09
865.707	27769.64
866.027	27833.36
866.348	27842.86
866.668	27872.46
866.989	27727.38
867.309	27527.38
867.63	27705.68
867.95	27609.19
868.27	27589.08
868.59	27598.34
868.91	27557.44
869.23	27633.14
869.55	27483.32
869.87	27541.62
870.19	27332.36
870.51	27427.5
870.83	27326.71
871.15	27238.13
871.469	27196.32
871.789	27357.22
872.109	27297.56
872.428	27065.7
872.748	27189.09
873.067	27043.1
873.386	27053.5
873.706	27018.24
874.025	26837.01
874.344	26845.82
874.663	26895.08
874.982	26818.93
875.301	26769.66
875.62	26627.75
875.939	26626.39
876.258	26768.76
876.577	26531.93
876.896	26576.9
877.214	26539.61
877.533	26560.4
877.852	26423.91
878.17	26488.09
878.489	26562.21
878.807	26367.87
879.125	26392.72
879.444	26504.13
879.762	26424.59
880.08	26516.79
880.398	26392.95
880.716	26381.65
881.034	26186.4
881.352	26213.29
881.67	26062.79
881.988	26190.92
882.306	26165.84
882.624	26075.9
882.941	25943.24
883.259	25977.59
883.577	25948.22
883.894	25754.1
884.212	25733.53
884.529	25802.23
884.846	25694.89
885.164	25637.26
885.481	25521.56
885.798	25485.86
886.115	25328.12
886.432	25453.54
886.75	25261.91
887.067	25318.4
887.383	25167.67
887.7	25222.81
888.017	25149.14
888.334	25150.72
888.651	25048.13
888.967	25009.03
889.284	24933.1
889.6	25045.64
889.917	24722.94
890.233	24817.62
890.55	24630.51
890.866	24597.52
891.182	24496.05
891.498	24491.53
891.815	24439.1
892.131	24369.5
892.447	24304.87
892.763	24163.63
893.079	24211.76
893.395	24176.74
893.71	24067.36
894.026	24117.08
894.342	24069.17
894.657	23924.09
894.973	23811.1
895.289	23884.77
895.604	23728.39
895.92	23596.64
896.235	23469.41
896.55	23481.16
896.865	23383.31
897.181	23373.59
897.496	23354.16
897.811	23126.82
898.126	23061.29
898.441	22998.01
898.756	22921.63
899.071	22801.63
899.386	22708.08
899.7	22510.79
900.015	22440.96
900.33	22368.88
900.644	22428.76
900.959	22597.12
901.273	22375.88
901.588	22320.74
901.902	22164.36
902.216	22211.82
902.531	22121.42
902.845	22020.86
903.159	21924.37
903.473	21816.8
903.787	21715.11
904.101	21764.37
904.415	21684.83
904.729	21567.99
905.042	21470.59
905.356	21480.54
905.67	21377.94
905.984	21279.64
906.297	21260.66
906.611	21133.88
906.924	21065.63
907.237	21011.62
907.551	21029.7
907.864	20812.31
908.177	20818.63
908.491	20664.74
908.804	20585.87
909.117	20494.8
909.43	20386.78
909.743	20255.94
910.056	20253.9
910.368	20098.43
910.681	20110.4
910.994	20003.06
911.307	19859.34
911.619	19794.03
911.932	19888.26
912.244	19673.58
912.557	19729.4
912.869	19460.48
913.181	19447.82
913.494	19354.04
913.806	19168.06
914.118	19208.05
914.43	19120.6
914.742	19182.97
915.054	19036.76
915.366	18978.68
915.678	18831.12
915.99	18801.96
916.302	18682.42
916.613	18486.27
916.925	18628.18
917.236	18628.63
917.548	18413.95
917.859	18441.52
918.171	18270.68
918.482	18181.64
918.794	18143.22
919.105	18129.66
919.416	17964.25
919.727	17939.61
920.038	17908.88
920.349	17676.57
920.66	17704.36
920.971	17640.41
921.282	17512.05
921.593	17363.58
921.903	17336.92
922.214	17324.26
922.525	17246.75
922.835	17302.34
923.146	17084.04
923.456	16906.19
923.767	16951.16
924.077	16819.42
924.387	16743.49
924.697	16696.03
925.008	16677.95
925.318	16581.23
925.628	16655.8
925.938	16617.84
926.248	16340.79
926.558	16278.64
926.867	16367.68
927.177	16283.16
927.487	16179.21
927.796	16028.93
928.106	15948.48
928.416	15922.26
928.725	15956.84
929.034	15784.64
929.344	15802.72
929.653	15707.36
929.962	15603.86
930.271	15566.34
930.581	15461.71
930.89	15392.34
931.199	15239.35
931.508	15229.18
931.817	15204.54
932.125	15103.76
932.434	14981.72
932.743	14967.71
933.051	14819.47
933.36	14943.53
933.669	14863.08
933.977	14748.74
934.286	14693.37
934.594	14710.77
934.902	14495.18
935.21	14544.9
935.519	14509.19
935.827	14442.3
936.135	14317.56
936.443	14148.3
936.751	14188.98
937.059	14160.5
937.367	14066.27
937.674	14027.63
937.982	14049.55
938.29	13932.94
938.597	13865.6
938.905	13801.19
939.213	13691.59
939.52	13536.79
939.827	13603.68
940.135	13464.25
940.442	13493.18
940.749	13469.22
941.056	13517.58
941.363	13313.97
941.67	13370.02
941.977	13238.72
942.284	13202.34
942.591	13123.24
942.898	13097.48
943.205	12992.85
943.511	12845.96
943.818	12805.28
944.125	12789.47
944.431	12736.81
944.738	12724.38
945.044	12743.14
945.35	12592.41
945.657	12490.26
945.963	12496.82
946.269	12409.81
946.575	12375.69
946.881	12340.44
947.187	12269.71
947.493	12207.79
947.799	12158.75
948.105	12020.67
948.41	12094.79
948.716	12037.62
949.022	11889.38
949.327	11968.92
949.633	11848.02
949.938	11799.21
950.244	11729.61
950.549	11653.22
950.854	11554.92
951.16	11567.35
951.465	11443.29
951.77	11421.37
952.075	11344.53
952.38	11311.31
952.685	11358.32
952.99	11254.37
953.294	11258.66
953.599	11181.6
953.904	11108.83
954.209	10983.86
954.513	10885.11
954.818	10915.84
955.122	10845.34
955.426	10927.14
955.731	10785.45
956.035	10741.16
956.339	10755.17
956.643	10705.45
956.948	10573.93
957.252	10515.85
957.556	10526.93
957.86	10481.5
958.163	10488.51
958.467	10399.02
958.771	10405.12
959.075	10310.21
959.378	10267.5
959.682	10281.51
959.985	10149.08
960.289	10191.34
960.592	10123.55
960.896	10038.58
961.199	9974.4
961.502	9965.36
961.805	9877.45
962.108	9793.16
962.411	9768.08
962.714	9710.22
963.017	9624.8
963.32	9742.09
963.623	9664.8
963.926	9625.26
964.228	9545.03
964.531	9602.21
964.833	9556.56
965.136	9429.33
965.438	9405.37
965.741	9369.44
966.043	9324.47
966.345	9190.46
966.648	9251.03
966.95	9181.88
967.252	9081.54
967.554	9112.27
967.856	9063.24
968.158	8968.32
968.46	8917.48
968.761	8907.76
969.063	8922.45
969.365	8854.88
969.666	8755.67
969.968	8735.34
970.269	8663.47
970.571	8743.7
970.872	8696.24
971.174	8588.9
971.475	8572.85
971.776	8567.43
972.077	8479.07
972.378	8458.51
972.679	8429.13
972.98	8361.56
973.281	8327.44
973.582	8273.43
973.883	8214.9
974.183	8230.26
974.484	8143.26
974.785	8162.69
975.085	8058.97
975.386	8155.24
975.686	8018.52
975.986	7950.27
976.287	7934
976.587	7894
976.887	7864.4
977.187	7889.26
977.487	7856.71
977.787	7813.55
978.087	7733.55
978.387	7714.12
978.687	7644.52
978.987	7576.27
979.286	7577.17
979.586	7520.23
979.885	7560.45
980.185	7442.71
980.484	7404.75
980.784	7453.79
981.083	7340.8
981.382	7357.74
981.682	7340.34
981.981	7297.18
982.28	7222.83
982.579	7194.58
982.878	7174.25
983.177	7114.59
983.475	7112.1
983.774	7061.48
984.073	7018.77
984.372	6969.51
984.67	6946
984.969	6974.93
985.267	6940.81
985.566	6788.95
985.864	6859
986.162	6771.77
986.461	6763.18
986.759	6728.16
987.057	6658.55
987.355	6610.42
987.653	6561.38
987.951	6576.07
988.249	6524.09
988.547	6511.66
988.844	6523.87
989.142	6471.89
989.44	6464.43
989.737	6439.35
990.035	6412.68
990.332	6442.06
990.63	6323.87
990.927	6271.22
991.224	6258.11
991.521	6211.33
991.819	6221.96
992.116	6191.67
992.413	6140.15
992.71	6107.83
993.006	6132.69
993.303	6047.04
993.6	6013.15
993.897	5960.49
994.193	5989.42
994.49	5947.16
994.787	5951.45
995.083	5888.18
995.379	5903.32
995.676	5844.56
995.972	5848.18
996.268	5754.85
996.565	5729.99
996.861	5701.74
997.157	5652.48
997.453	5587.17
997.749	5609.77
998.044	5499.49
998.34	5523.44
998.636	5524.8
998.932	5520.5
999.227	5459.04
999.523	5428.3
999.818	5392.37
1000.114	5344.69
1000.409	5325.48
1000.704	5226.73
1001	5243.22
1001.295	5170.46
1001.59	5247.29
1001.885	5150.12
1002.18	5111.93
1002.475	5091.59
1002.77	5050.01
1003.065	4996.68
1003.359	4996.45
1003.654	4984.02
1003.949	4957.58
1004.243	4946.06
1004.538	4881.88
1004.832	4874.87
1005.127	4834.19
1005.421	4801.88
1005.715	4747.19
1006.009	4763.01
1006.304	4687.08
1006.598	4707.64
1006.892	4671.26
1007.186	4662.22
1007.48	4617.48
1007.773	4565.28
1008.067	4525.73
1008.361	4558.5
1008.655	4507.65
1008.948	4470.14
1009.242	4446.63
1009.535	4400.31
1009.829	4337.26
1010.122	4378.61
1010.415	4300.65
1010.708	4267.2
1011.001	4260.65
1011.295	4217.26
1011.588	4174.55
1011.881	4133.2
1012.173	4170.03
1012.466	4167.77
1012.759	4090.26
1013.052	4087.77
1013.344	4048.23
1013.637	4023.37
1013.93	3955.8
1014.222	4025.85
1014.514	3955.57
1014.807	3914.67
1015.099	3882.58
1015.391	3844.84
1015.683	3828.35
1015.976	3791.28
1016.268	3784.73
1016.56	3778.63
1016.851	3740.66
1017.143	3718.29
1017.435	3710.16
1017.727	3641.23
1018.018	3648.24
1018.31	3579.09
1018.602	3574.79
1018.893	3506.32
1019.185	3523.04
1019.476	3456.6
1019.767	3487.11
1020.058	3429.94
1020.35	3386.55
1020.641	3330.28
1020.932	3386.1
1021.223	3320.11
1021.514	3296.61
1021.804	3255.48
1022.095	3278.53
1022.386	3246.89
1022.677	3205.76
1022.967	3198.08
1023.258	3180
1023.548	3126.67
1023.839	3099.33
1024.129	3057.52
1024.419	3022.27
1024.709	3021.81
1025	3030.4
1025.29	3001.02
1025.58	2987.46
1025.87	2949.27
1026.16	2926.22
1026.449	2906.11
1026.739	2843.29
1027.029	2860.46
1027.319	2820.69
1027.608	2837.41
1027.898	2742.27
1028.187	2778.2
1028.477	2709.96
1028.766	2700.01
1029.055	2658.43
1029.344	2689.17
1029.634	2645.33
1029.923	2620.02
1030.212	2582.28
1030.501	2581.6
1030.79	2544.99
1031.078	2544.31
1031.367	2542.73
1031.656	2538.21
1031.945	2500.24
1032.233	2496.4
1032.522	2439.46
1032.81	2438.78
1033.099	2405.11
1033.387	2424.54
1033.675	2372.34
1033.963	2361.94
1034.251	2339.57
1034.54	2314.04
1034.828	2305
1035.116	2244.66
1035.403	2274.26
1035.691	2247.14
1035.979	2249.4
1036.267	2197.88
1036.554	2177.32
1036.842	2165.79
1037.129	2183.87
1037.417	2127.37
1037.704	2114.72
1037.992	2089.86
1038.279	2100.03
1038.566	2062.06
1038.853	2062.06
1039.14	2062.06
