Data from copper_heatsink_FLMS001491_064.txt Node
Date: Tue Feb 07 10:50:21 GMT 2017
User: dcchb
Spectrometer: FLMS00149
Trigger mode: 0
Integration Time (sec): 2.000000E-2
Scans to average: 10
Electric dark correction enabled: true
Nonlinearity correction enabled: false
Boxcar width: 0
XAxis mode: Wavelengths
Number of Pixels in Spectrum: 2048
>>>>>Begin Spectral Data<<<<<
341.393	2.37
341.776	2.37
342.16	2.37
342.543	-70.17
342.927	-81.47
343.31	-61.58
343.693	-70.85
344.077	-82.14
344.46	-59.32
344.843	-48.93
345.226	-12.77
345.61	-49.83
345.993	-31.52
346.376	-5.54
346.759	7.34
347.142	43.28
347.525	46.67
347.908	50.28
348.291	77.85
348.674	87.57
349.057	109.49
349.44	123.95
349.823	135.93
350.206	158.53
350.588	186.77
350.971	234.46
351.354	234.46
351.737	237.85
352.119	236.26
352.502	259.77
352.884	255.93
353.267	282.82
353.65	271.97
354.032	264.51
354.414	293.66
354.797	291.18
355.179	306.32
355.562	310.84
355.944	323.95
356.326	317.84
356.709	325.3
357.091	326.66
357.473	338.18
357.855	324.62
358.238	342.7
358.62	342.48
359.002	315.13
359.384	335.47
359.766	346.77
360.148	320.56
360.53	324.62
360.912	334.12
361.294	337.28
361.676	334.57
362.057	322.36
362.439	330.95
362.821	312.87
363.203	322.59
363.584	315.81
363.966	316.94
364.348	307.68
364.729	310.39
365.111	318.3
365.493	344.06
365.874	316.94
366.256	318.52
366.637	304.06
367.019	300.9
367.4	314.68
367.781	331.4
368.163	322.14
368.544	303.38
368.925	322.82
369.306	313.78
369.688	297.51
370.069	284.4
370.45	306.55
370.831	312.42
371.212	300.22
371.593	302.7
371.974	318.52
372.355	327.34
372.736	325.53
373.117	321.01
373.498	327.34
373.879	328.01
374.26	305.42
374.641	315.36
375.021	305.42
375.402	308.58
375.783	328.47
376.163	330.73
376.544	318.3
376.925	333.21
377.305	334.12
377.686	326.21
378.066	325.53
378.447	309.71
378.827	339.54
379.208	326.88
379.588	336.38
379.968	321.23
380.349	336.6
380.729	328.24
381.109	342.93
381.489	332.08
381.87	324.62
382.25	335.25
382.63	333.89
383.01	324.4
383.39	340.89
383.77	337.28
384.15	318.3
384.53	325.53
384.91	345.19
385.29	324.4
385.67	341.57
386.049	362.82
386.429	341.8
386.809	347.22
387.189	355.58
387.568	363.49
387.948	337.73
388.328	351.97
388.707	338.86
389.087	366.66
389.466	354
389.846	347.22
390.225	350.84
390.605	357.17
390.984	354.91
391.363	374.11
391.743	343.83
392.122	364.62
392.501	356.49
392.881	355.36
393.26	356.49
393.639	361.91
394.018	356.94
394.397	374.79
394.776	355.13
395.155	374.57
395.534	374.79
395.913	372.08
396.292	372.08
396.671	363.04
397.05	373.21
397.429	379.31
397.808	385.87
398.186	350.61
398.565	393.32
398.944	371.63
399.323	381.57
399.701	380.44
400.08	371.4
400.458	403.49
400.837	410.05
401.215	396.71
401.594	386.54
401.972	391.97
402.351	397.62
402.729	391.29
403.107	390.61
403.486	400.55
403.864	396.03
404.242	389.93
404.62	384.51
404.999	401.01
405.377	407.11
405.755	424.96
406.133	405.75
406.511	402.81
406.889	401.46
407.267	393.1
407.645	416.15
408.023	387.22
408.401	408.92
408.779	422.02
409.156	404.85
409.534	409.14
409.912	431.06
410.29	428.12
410.667	440.78
411.045	453.66
411.422	441.68
411.8	434.23
412.178	467.22
412.555	429.25
412.933	452.3
413.31	441.23
413.687	444.85
414.065	465.86
414.442	450.95
414.819	462.25
415.197	454.34
415.574	459.31
415.951	450.5
416.328	444.62
416.705	451.17
417.082	463.38
417.46	459.76
417.837	476.71
418.214	468.35
418.591	463.15
418.967	477.84
419.344	462.02
419.721	479.65
420.098	459.54
420.475	492.3
420.852	489.82
421.228	476.94
421.605	468.58
421.982	497.05
422.358	502.25
422.735	487.11
423.111	489.82
423.488	498.4
423.864	484.85
424.241	486.43
424.617	499.31
424.994	503.15
425.37	522.81
425.746	526.88
426.123	508.8
426.499	523.94
426.875	528.69
427.251	499.76
427.627	540.66
428.003	519.2
428.379	518.74
428.756	542.92
429.132	520.55
429.507	530.49
429.883	544.96
430.259	546.99
430.635	551.96
431.011	556.48
431.387	547.9
431.763	571.17
432.138	568.69
432.514	567.1
432.89	567.33
433.265	560.78
433.641	566.2
434.016	596.26
434.392	586.09
434.767	591.96
435.143	594
435.518	623.37
435.894	581.34
436.269	613.43
436.644	590.83
437.02	619.76
437.395	606.65
437.77	618.4
438.145	607.78
438.52	649.36
438.895	636.25
439.271	635.35
439.646	653.2
440.021	648.91
440.395	647.78
440.77	630.38
441.145	648.01
441.52	652.07
441.895	662.24
442.27	655.46
442.645	645.52
443.019	673.99
443.394	657.27
443.769	676.03
444.143	678.29
444.518	685.74
444.892	669.47
445.267	678.51
445.641	673.99
446.016	685.29
446.39	715.35
446.764	691.85
447.139	685.52
447.513	691.62
447.887	708.57
448.262	714.67
448.636	694.56
449.01	715.8
449.384	702.47
449.758	708.57
450.132	703.6
450.506	732.98
450.88	732.98
451.254	725.52
451.628	738.62
452.002	732.52
452.376	754.22
452.75	755.8
453.123	765.52
453.497	746.08
453.871	782.01
454.244	784.73
454.618	784.05
454.992	789.47
455.365	793.99
455.739	786.76
456.112	800.09
456.486	829.7
456.859	805.29
457.232	828.57
457.606	841.22
457.979	827.21
458.352	838.96
458.725	839.19
459.099	879.64
459.472	876.7
459.845	885.29
460.218	882.35
460.591	875.34
460.964	884.16
461.337	925.74
461.71	894.55
462.083	904.95
462.456	934.1
462.829	930.26
463.201	948.56
463.574	943.59
463.947	933.87
464.32	959.41
464.692	964.61
465.065	971.39
465.438	978.17
465.81	970.71
466.183	982.91
466.555	1022.91
466.928	1026.3
467.3	1045.06
467.672	1040.31
468.045	1051.84
468.417	1049.58
468.789	1059.97
469.161	1066.98
469.534	1090.25
469.906	1095.9
470.278	1110.59
470.65	1099.52
471.022	1139.52
471.394	1150.14
471.766	1140.87
472.138	1154.88
472.51	1172.06
472.882	1222.45
473.253	1222.23
473.625	1230.59
473.997	1269.46
474.369	1281.21
474.74	1313.52
475.112	1304.94
475.484	1274.43
475.855	1347.2
476.227	1335.9
476.598	1355.56
476.97	1385.61
477.341	1410.47
477.713	1419.28
478.084	1440.3
478.455	1480.53
478.827	1487.31
479.198	1520.3
479.569	1531.6
479.94	1541.54
480.311	1550.35
480.682	1588.09
481.053	1640.52
481.424	1641.65
481.795	1647.3
482.166	1680.97
482.537	1706.06
482.908	1719.62
483.279	1753.97
483.65	1752.84
484.021	1823.57
484.391	1793.29
484.762	1803.68
485.133	1874.41
485.503	1867.18
485.874	1918.25
486.244	1940.85
486.615	1959.38
486.985	1959.61
487.356	1995.09
487.726	2042.09
488.097	2064.24
488.467	2098.36
488.837	2118.48
489.207	2150.11
489.578	2160.06
489.948	2167.29
490.318	2205.03
490.688	2235.76
491.058	2229.66
491.428	2303.1
491.798	2332.03
492.168	2317.79
492.538	2319.15
492.908	2363.67
493.278	2407.96
493.648	2398.02
494.017	2438.69
494.387	2487.28
494.757	2475.08
495.126	2509.2
495.496	2547.39
495.866	2554.62
496.235	2476.21
496.605	2597.78
496.974	2605.69
497.344	2616.99
497.713	2642.53
498.082	2622.87
498.452	2678.23
498.821	2717.56
499.19	2713.26
499.559	2770.21
499.928	2784.67
500.298	2804.56
500.667	2794.84
501.036	2839.81
501.405	2842.3
501.774	2826.03
502.143	2880.49
502.512	2925.46
502.88	2910.54
503.249	2926.59
503.618	2928.85
503.987	2963.65
504.356	3044.1
504.724	3008.62
505.093	3018.34
505.462	3047.94
505.83	3049.52
506.199	3093.82
506.567	3150.99
506.936	3143.53
507.304	3126.81
507.672	3160.03
508.041	3193.93
508.409	3243.87
508.777	3229.63
509.145	3265.56
509.514	3282.96
509.882	3315.73
510.25	3351.89
510.618	3378.1
510.986	3384.88
511.354	3396.63
511.722	3445.22
512.09	3457.88
512.458	3438.67
512.826	3508.5
513.193	3515.95
513.561	3543.75
513.929	3560.02
514.297	3590.08
514.664	3653.8
515.032	3704.42
515.4	3674.14
515.767	3691.32
516.135	3759.79
516.502	3723.4
516.869	3829.16
517.237	3811.31
517.604	3800.92
517.972	3843.85
518.339	3891.08
518.706	3901.25
519.073	3868.03
519.44	3938.99
519.808	3992.1
520.175	3981.25
520.542	4067.35
520.909	4073.23
521.276	4096.5
521.643	4121.81
522.009	4161.81
522.376	4209.72
522.743	4258.31
523.11	4232.54
523.477	4250.4
523.843	4297.4
524.21	4350.06
524.577	4384.18
524.943	4424.86
525.31	4454.69
525.676	4543.04
526.043	4527.68
526.409	4536.26
526.776	4656.26
527.142	4622.14
527.508	4646.32
527.874	4670.27
528.241	4765.41
528.607	4732.19
528.973	4770.84
529.339	4795.47
529.705	4839.53
530.071	4900.32
530.437	4889.7
530.803	4953.2
531.169	4997.27
531.535	5036.82
531.901	5054.67
532.267	5044.05
532.632	5152.97
532.998	5134.89
533.364	5188.45
533.73	5164.95
534.095	5197.49
534.461	5263.03
534.826	5261.67
535.192	5318.84
535.557	5338.96
535.923	5421.89
536.288	5415.11
536.653	5453.08
537.019	5423.93
537.384	5524.71
537.749	5485.39
538.114	5553.19
538.479	5540.98
538.845	5578.95
539.21	5583.92
539.575	5629.57
539.94	5690.58
540.305	5701.88
540.67	5696.69
541.034	5710.02
541.399	5794.08
541.764	5811.71
542.129	5869.56
542.494	5847.19
542.858	5892.39
543.223	5922.9
543.587	5941.65
543.952	5991.14
544.316	6036.11
544.681	6009.22
545.045	6107.75
545.41	6146.17
545.774	6140.74
546.138	6167.63
546.503	6216.9
546.867	6225.03
547.231	6324.92
547.595	6289.67
547.959	6339.83
548.324	6292.38
548.688	6407.4
549.052	6479.49
549.416	6505.25
549.779	6547.51
550.143	6616.44
550.507	6678.58
550.871	6717
551.235	6659.82
551.599	6767.39
551.962	6857.56
552.326	6883.77
552.689	6914.51
553.053	6921.51
553.417	6980.04
553.78	7124.9
554.143	7083.54
554.507	7167.16
554.87	7165.35
555.234	7251
555.597	7259.58
555.96	7341.39
556.323	7429.52
556.686	7482.18
557.05	7608.95
557.413	7554.72
557.776	7654.15
558.139	7763.98
558.502	7726.24
558.865	7805.11
559.228	7898.21
559.59	7991.09
559.953	8026.12
560.316	8126.23
560.679	8187.24
561.041	8251.87
561.404	8352.89
561.767	8425.43
562.129	8474.69
562.492	8574.8
562.854	8591.3
563.217	8690.73
563.579	8774.35
563.941	8913.1
564.304	8930.95
564.666	9084.39
565.028	9137.05
565.39	9226.54
565.753	9348.34
566.115	9378.4
566.477	9479.41
566.839	9560.54
567.201	9650.93
567.563	9719.18
567.925	9824.49
568.287	9881.66
568.648	9881.44
569.01	10010.92
569.372	10172.73
569.734	10164.37
570.095	10316.23
570.457	10405.72
570.819	10476.67
571.18	10567.52
571.542	10650
571.903	10708.08
572.265	10814.07
572.626	10851.35
572.987	11056.32
573.349	11052.93
573.71	11138.35
574.071	11180.84
574.432	11277.33
574.794	11455.41
575.155	11532.92
575.516	11563.42
575.877	11597.55
576.238	11729.75
576.599	11798.67
576.96	11917.77
577.32	11915.28
577.681	12146.23
578.042	12056.97
578.403	12157.31
578.763	12307.59
579.124	12352.78
579.485	12456.51
579.845	12496.51
580.206	12525.66
580.566	12507.13
580.927	12628.71
581.287	12714.13
581.648	12795.26
582.008	12863.73
582.368	12872.77
582.728	12934.24
583.089	13011.3
583.449	13090.39
583.809	13064.85
584.169	13181.91
584.529	13191.4
584.889	13347.78
585.249	13296.26
585.609	13375.13
585.969	13514.79
586.329	13445.86
586.688	13553.2
587.048	13600.89
587.408	13609.7
587.768	13595.69
588.127	13705.29
588.487	13677.49
588.846	13903.25
589.206	13750.26
589.565	13875.23
589.925	13970.82
590.284	13857.38
590.643	13978.28
591.003	14062.34
591.362	14147.76
591.721	14156.58
592.08	14202
592.44	14241.32
592.799	14295.33
593.158	14289.91
593.517	14352.96
593.876	14390.47
594.235	14363.13
594.593	14488.77
594.952	14548.66
595.311	14535.55
595.67	14516.79
596.029	14669.11
596.387	14723.34
596.746	14733.96
597.104	14747.07
597.463	14783.23
597.822	14869.1
598.18	14910
598.538	14904.13
598.897	14971.24
599.255	14910.23
599.613	15130.79
599.972	15084.91
600.33	15203.78
600.688	15169.43
601.046	15255.08
601.404	15319.03
601.762	15326.49
602.12	15454.62
602.478	15502.3
602.836	15553.15
603.194	15421.4
603.552	15488.97
603.91	15494.62
604.268	15646.03
604.625	15675.41
604.983	15745.01
605.341	15655.52
605.698	15769.64
606.056	15896.42
606.413	15948.39
606.771	15905.23
607.128	16013.93
607.485	15906.36
607.843	15984.55
608.2	16107.49
608.557	16192.91
608.914	16186.13
609.272	16338.67
609.629	16347.48
609.986	16423.86
610.343	16384.99
610.7	16551.32
611.057	16493.01
611.414	16621.82
611.771	16512.9
612.127	16627.92
612.484	16650.3
612.841	16743.63
613.198	16723.29
613.554	16723.52
613.911	16890.52
614.267	16899.56
614.624	16896.84
614.98	16930.74
615.337	17094.35
615.693	17154.69
616.05	17105.2
616.406	17207.8
616.762	17104.3
617.118	17213.9
617.475	17209.15
617.831	17252.99
618.187	17357.17
618.543	17351.52
618.899	17508.35
619.255	17503.38
619.611	17501.12
619.967	17564.17
620.323	17634
620.678	17683.94
621.034	17479.43
621.39	17687.78
621.746	17566.2
622.101	17829.25
622.457	17718.74
622.812	17813.88
623.168	17867.67
623.523	17854.33
623.879	17969.36
624.234	17832.86
624.589	17942.01
624.945	18053.65
625.3	17949.92
625.655	17970.71
626.01	17938.17
626.365	18089.13
626.72	18004.61
627.075	18054.1
627.43	18089.58
627.785	18022.01
628.14	18156.02
628.495	18123.25
628.85	18151.27
629.205	18134.78
629.559	18198.73
629.914	18146.98
630.269	18166.19
630.623	18287.09
630.978	18224.27
631.332	18266.3
631.687	18373.87
632.041	18385.17
632.396	18337.71
632.75	18310.82
633.104	18303.36
633.459	18231.72
633.813	18196.92
634.167	18276.24
634.521	18242.35
634.875	18336.13
635.229	18367.09
635.583	18182.01
635.937	18296.81
636.291	18263.36
636.645	18341.78
636.999	18316.02
637.352	18384.26
637.706	18289.12
638.06	18439.63
638.413	18348.33
638.767	18296.13
639.121	18396.69
639.474	18387.88
639.828	18226.53
640.181	18281.21
640.534	18359.18
640.888	18326.41
641.241	18304.49
641.594	18345.39
641.947	18360.76
642.301	18276.02
642.654	18396.01
643.007	18356.69
643.36	18382.23
643.713	18321.89
644.066	18444.15
644.419	18387.65
644.771	18244.83
645.124	17987.66
645.477	17951.51
645.83	17855.24
646.182	17793.32
646.535	17921.22
646.888	17985.18
647.24	17928.91
647.593	17937.72
647.945	18009.81
648.298	17987.21
648.65	17929.13
649.002	17837.16
649.355	17920.77
649.707	17898.85
650.059	17858.63
650.411	18050.26
650.763	18115.79
651.115	18400.99
651.467	18328.67
651.819	18373.19
652.171	18387.88
652.523	18298.16
652.875	18336.35
653.227	18207.09
653.578	18399.18
653.93	18363.92
654.282	18305.62
654.633	18221.33
654.985	18404.15
655.337	18350.14
655.688	18382.23
656.039	18357.6
656.391	18282.57
656.742	18328.22
657.094	18470.14
657.445	18421.78
657.796	18461.32
658.147	18343.81
658.498	18469.23
658.849	18418.61
659.2	18438.05
659.551	18305.85
659.902	18487.76
660.253	18337.94
660.604	18482.11
660.955	18366.64
661.306	18496.58
661.656	18401.44
662.007	18489.12
662.358	18469.91
662.708	18491.83
663.059	18438.72
663.409	18388.33
663.76	18542.45
664.11	18549
664.461	18571.15
664.811	18600.75
665.161	18590.36
665.511	18574.31
665.862	18630.81
666.212	18697.02
666.562	18646.18
666.912	18658.38
667.262	18539.06
667.612	18616.12
667.962	18776.79
668.312	18717.36
668.662	18758.94
669.011	18687.98
669.361	18753.74
669.711	18686.18
670.06	18692.5
670.41	18696.12
670.76	18662.45
671.109	18728.43
671.459	18675.33
671.808	18683.01
672.157	18768.21
672.507	18704.71
672.856	18687.31
673.205	18760.3
673.554	18757.81
673.904	18733.63
674.253	18894.98
674.602	18761.2
674.951	18534.99
675.3	18473.98
675.649	18771.6
675.998	18774.08
676.346	18825.83
676.695	18912.38
677.044	18703.58
677.393	18786.06
677.741	18849.79
678.09	18844.59
678.438	18794.42
678.787	18897.47
679.135	18899.5
679.484	18789.45
679.832	18822.67
680.181	18760.3
680.529	18810.69
680.877	18806.62
681.225	18737.93
681.573	18838.71
681.922	18727.76
682.27	18676.01
682.618	18771.37
682.966	18689.57
683.314	18792.84
683.661	18767.98
684.009	18656.57
684.357	18614.09
684.705	18665.84
685.053	18608.89
685.4	18648.89
685.748	18529.34
686.095	18529.57
686.443	18488.89
686.79	18439.63
687.138	18493.64
687.485	18554.88
687.832	18472.4
688.18	18519.85
688.527	18442.34
688.874	18464.49
689.221	18371.16
689.568	18300.87
689.915	18400.53
690.262	18358.95
690.609	18354.66
690.956	18318.5
691.303	18312.17
691.65	18182.23
691.997	18233.08
692.344	18138.39
692.69	18135.46
693.037	18288.45
693.383	18089.13
693.73	18081.22
694.077	18082.8
694.423	18020.66
694.769	17905.86
695.116	17916.48
695.462	17979.08
695.808	17874.45
696.155	17970.71
696.501	17840.77
696.847	17831.96
697.193	17718.97
697.539	17788.35
697.885	17800.32
698.231	17634
698.577	17642.36
698.923	17589.93
699.269	17592.19
699.614	17445.08
699.96	17531.63
700.306	17575.92
700.651	17415.02
700.997	17359.2
701.342	17389.49
701.688	17473.1
702.033	17367.57
702.379	17380.45
702.724	17291.41
703.069	17270.17
703.415	17206.67
703.76	17125.09
704.105	17166.67
704.45	17206.44
704.795	17035.15
705.14	17026.56
705.485	17041.92
705.83	16948.37
706.175	17022.04
706.52	16931.87
706.865	16999.21
707.209	16897.07
707.554	16816.85
707.899	16841.25
708.243	16827.47
708.588	16891.65
708.932	16681.93
709.277	16728.03
709.621	16711.31
709.966	16649.17
710.31	16679
710.654	16571.65
710.998	16615.95
711.342	16625.66
711.687	16638.32
712.031	16596.96
712.375	16558.77
712.719	16584.99
713.063	16527.59
713.407	16527.14
713.75	16510.41
714.094	16496.63
714.438	16356.97
714.782	16438.32
715.125	16414.37
715.469	16399.91
715.812	16325.11
716.156	16268.39
716.499	16400.36
716.843	16313.81
717.186	16263.19
717.53	16239.01
717.873	16268.39
718.216	16156.07
718.559	16185.22
718.902	16159.24
719.246	16171.21
719.589	16177.31
719.932	16057.09
720.275	16030.43
720.617	16122.4
720.96	16092.8
721.303	16038.56
721.646	16050.99
721.989	15909.53
722.331	15997.21
722.674	15931.45
723.016	15950.88
723.359	15944.33
723.701	16063.87
724.044	15968.05
724.386	15770.09
724.729	15902.75
725.071	15871.33
725.413	15885.57
725.755	15869.07
726.097	15799.92
726.439	15725.58
726.782	15821.84
727.124	15919.47
727.465	15848.74
727.807	15821.84
728.149	15810.54
728.491	15797.66
728.833	15793.6
729.175	15766.48
729.516	15730.09
729.858	15654.16
730.199	15735.97
730.541	15697.1
730.882	15728.06
731.224	15828.85
731.565	15639.02
731.906	15700.27
732.248	15666.37
732.589	15662.07
732.93	15630.21
733.271	15615.75
733.612	15700.49
733.953	15718.12
734.294	15561.51
734.635	15515.41
734.976	15579.14
735.317	15528.29
735.658	15548.63
735.999	15531.91
736.339	15459.82
736.68	15524.9
737.021	15481.97
737.361	15428.18
737.702	15555.64
738.042	15494.85
738.383	15448.52
738.723	15499.14
739.063	15396.09
739.404	15420.5
739.744	15443.1
740.084	15378.24
740.424	15500.72
740.764	15422.98
741.104	15500.27
741.444	15255.98
741.784	15287.39
742.124	15390.67
742.464	15367.17
742.804	15406.94
743.143	15371.69
743.483	15455.75
743.823	15302.08
744.162	15334.17
744.502	15296.66
744.841	15260.73
745.181	15243.55
745.52	15216.66
745.86	15219.15
746.199	15203.33
746.538	15172.37
746.877	15210.11
747.216	15192.03
747.556	15110.9
747.895	15116.33
748.234	15029.55
748.573	15116.55
748.911	15059.38
749.25	15118.36
749.589	15061.64
749.928	15077.68
750.267	14995.2
750.605	14988.19
750.944	14985.93
751.283	14870.23
751.621	14977.8
751.96	14817.8
752.298	14863.23
752.636	14908.42
752.975	14845.82
753.313	14768.99
753.651	14819.61
753.989	14794.75
754.327	14852.15
754.666	14793.4
755.004	14829.55
755.342	14763.79
755.679	14766.96
756.017	14705.04
756.355	14783.45
756.693	14662.1
757.031	14666.17
757.368	14617.81
757.706	14605.6
758.044	14562.22
758.381	14554.76
758.719	14566.28
759.056	14546.17
759.394	14468.43
759.731	14423.01
760.068	14504.82
760.405	14397.93
760.743	14365.61
761.08	14386.4
761.417	14284.48
761.754	14350.47
762.091	14345.05
762.428	14249.68
762.765	14186.18
763.102	14267.99
763.438	14248.55
763.775	14214.65
764.112	14230.7
764.449	14200.42
764.785	14134.2
765.122	14059.4
765.458	13950.93
765.795	13943.02
766.131	13983.93
766.467	13867.09
766.804	13826.64
767.14	13721.33
767.476	13764.5
767.812	13690.6
768.148	13785.51
768.485	13651.73
768.821	13579.87
769.157	13613.99
769.492	13592.3
769.828	13535.12
770.164	13455.8
770.5	13470.72
770.836	13464.39
771.171	13399.08
771.507	13337.39
771.842	13344.62
772.178	13281.57
772.513	13305.98
772.849	13197.51
773.184	13229.14
773.519	13210.61
773.855	13115.47
774.19	13109.6
774.525	13006.32
774.86	13024.86
775.195	13035.25
775.53	12989.6
775.865	13035.02
776.2	12816.5
776.535	12718.65
776.87	12778.76
777.205	12671.42
777.539	12644.3
777.874	12721.13
778.209	12598.88
778.543	12583.96
778.878	12586.9
779.212	12540.8
779.547	12460.8
779.881	12439.79
780.215	12474.59
780.55	12504.64
780.884	12365.89
781.218	12406.34
781.552	12426.23
781.886	12275.5
782.22	12284.31
782.554	12171.32
782.888	12150.75
783.222	12100.36
783.556	12074.82
783.889	12106.24
784.223	12046.35
784.557	11920.25
784.89	11861.72
785.224	11888.39
785.557	11867.6
785.891	11809.75
786.224	11859.24
786.558	11855.85
786.891	11762.74
787.224	11771.78
787.557	11719.35
787.891	11592.58
788.224	11580.6
788.557	11608.85
788.89	11622.18
789.223	11708.28
789.556	11456.08
789.888	11460.6
790.221	11435.74
790.554	11413.6
790.887	11343.32
791.219	11368.63
791.552	11320.27
791.884	11271.23
792.217	11345.35
792.549	11268.29
792.882	11157.11
793.214	11151.46
793.546	11139.93
793.879	11121.18
794.211	11079.14
794.543	11126.37
794.875	11080.05
795.207	11048.18
795.539	10977.45
795.871	11029.65
796.203	10956.89
796.535	10902.2
796.867	10830.56
797.198	10832.6
797.53	10839.6
797.862	10831.92
798.193	10803.67
798.525	10687.06
798.856	10747.63
799.188	10675.31
799.519	10639.61
799.85	10580.63
800.182	10593.05
800.513	10578.37
800.844	10486.62
801.175	10523
801.506	10572.49
801.837	10505.6
802.168	10487.97
802.499	10473.74
802.83	10435.32
803.161	10427.18
803.491	10371.82
803.822	10414.08
804.153	10281.65
804.483	10206.4
804.814	10170.92
805.145	10202.33
805.475	10175.21
805.805	10104.48
806.136	10112.16
806.466	10231.71
806.796	10083.92
807.126	10044.82
807.457	10155.33
807.787	10109.9
808.117	10020.19
808.447	10022
808.777	10071.71
809.107	10041.43
809.436	9964.82
809.766	9938.61
810.096	9939.51
810.426	9939.51
810.755	9938.61
811.085	9898.16
811.414	9872.85
811.744	9798.73
812.073	9763.92
812.403	9741.55
812.732	9768.9
813.061	9758.5
813.39	9747.43
813.719	9774.77
814.049	9803.02
814.378	9786.97
814.707	9735.45
815.036	9713.08
815.365	9600.99
815.693	9532.52
816.022	9537.72
816.351	9496.36
816.68	9477.6
817.008	9531.84
817.337	9468.11
817.665	9429.02
817.994	9470.6
818.322	9484.84
818.651	9469.02
818.979	9405.74
819.307	9485.51
819.636	9358.29
819.964	9326.87
820.292	9358.96
820.62	9413.2
820.948	9418.17
821.276	9443.25
821.604	9301.79
821.932	9410.04
822.259	9421.33
822.587	9393.09
822.915	9386.98
823.243	9416.81
823.57	9402.58
823.898	9420.66
824.225	9346.76
824.553	9307.21
824.88	9342.92
825.207	9399.41
825.535	9335.46
825.862	9363.26
826.189	9326.65
826.516	9358.29
826.843	9392.86
827.17	9408
827.497	9413.2
827.824	9431.05
828.151	9447.1
828.478	9434.22
828.805	9460.88
829.131	9371.62
829.458	9454.1
829.785	9378.85
830.111	9494.55
830.438	9502.24
830.764	9522.12
831.09	9511.05
831.417	9451.62
831.743	9536.13
832.069	9445.29
832.395	9449.13
832.722	9483.93
833.048	9498.17
833.374	9422.24
833.7	9471.28
834.026	9431.5
834.351	9398.28
834.677	9410.71
835.003	9531.84
835.329	9485.74
835.654	9463.59
835.98	9405.97
836.306	9424.95
836.631	9337.72
836.956	9436.93
837.282	9398.74
837.607	9299.98
837.932	9386.98
838.258	9326.65
838.583	9388.34
838.908	9350.83
839.233	9356.48
839.558	9278.29
839.883	9307.21
840.208	9269.02
840.533	9305.86
840.858	9370.26
841.182	9328.46
841.507	9342.69
841.832	9287.55
842.156	9290.26
842.481	9280.09
842.805	9298.85
843.13	9238.51
843.454	9251.17
843.778	9219.08
844.103	9135.01
844.427	9202.13
844.751	9179.76
845.075	9131.85
845.399	9089.82
845.723	9075.35
846.047	9029.48
846.371	8988.35
846.695	8980.44
847.019	8946.09
847.343	8913.55
847.666	8844.17
847.99	8843.5
848.313	8827.68
848.637	8814.57
848.96	8815.25
849.284	8801.01
849.607	8687.12
849.931	8738.87
850.254	8610.28
850.577	8650.73
850.9	8585.42
851.223	8578.87
851.546	8504.07
851.869	8492.09
852.192	8535.48
852.515	8439.89
852.838	8454.58
853.161	8429.5
853.483	8426.78
853.806	8416.16
854.129	8302.95
854.451	8375.71
854.774	8331.42
855.096	8278.31
855.419	8334.81
855.741	8283.06
856.063	8246
856.385	8248.48
856.708	8137.3
857.03	8082.61
857.352	8122.84
857.674	8124.87
857.996	8094.59
858.318	8078.32
858.64	8086
858.961	8083.74
859.283	8111.09
859.605	8031.99
859.926	8054.14
860.248	8042.16
860.57	7994.48
860.891	7914.48
861.212	7895.05
861.534	7945.21
861.855	7906.12
862.176	7948.6
862.498	7934.59
862.819	7954.25
863.14	7914.26
863.461	7843.07
863.782	7873.58
864.103	7868.61
864.424	7815.5
864.745	7883.52
865.065	7799.46
865.386	7816.63
865.707	7716.07
866.027	7777.54
866.348	7776.86
866.668	7736.18
866.989	7757.88
867.309	7685.11
867.63	7686.24
867.95	7680.36
868.27	7749.74
868.59	7698.89
868.91	7731.21
869.23	7741.15
869.55	7719.46
869.87	7673.36
870.19	7669.52
870.51	7654.38
870.83	7677.88
871.15	7577.31
871.469	7612.57
871.789	7628.84
872.109	7572.34
872.428	7576.18
872.748	7608.27
873.067	7633.58
873.386	7651.44
873.706	7664.32
874.025	7601.95
874.344	7511.78
874.663	7556.3
874.982	7543.64
875.301	7561.04
875.62	7517.66
875.939	7526.92
876.258	7561.04
876.577	7486.24
876.896	7505.9
877.214	7486.24
877.533	7375.29
877.852	7447.6
878.17	7437.66
878.489	7455.96
878.807	7385
879.125	7410.09
879.444	7460.48
879.762	7372.35
880.08	7419.8
880.398	7339.81
880.716	7400.6
881.034	7388.85
881.352	7379.81
881.67	7370.77
881.988	7348.17
882.306	7300.26
882.624	7275.63
882.941	7290.32
883.259	7287.6
883.577	7210.54
883.894	7235.4
884.212	7294.16
884.529	7248.96
884.846	7215.74
885.164	7151.34
885.481	7267.49
885.798	7268.85
886.115	7213.93
886.432	7199.92
886.75	7165.12
887.067	7154.5
887.383	7142.52
887.7	7119.25
888.017	7109.76
888.334	7099.36
888.651	7107.27
888.967	7076.99
889.284	7042.19
889.6	7020.72
889.917	6926.48
890.233	6985.24
890.55	6979.82
890.866	7007.61
891.182	6969.65
891.498	6890.33
891.815	6932.59
892.131	6863.21
892.447	6849.2
892.763	6871.12
893.079	6834.96
893.395	6804.23
893.71	6881.51
894.026	6751.35
894.342	6824.34
894.657	6747.73
894.973	6761.97
895.289	6745.47
895.604	6698.02
895.92	6691.24
896.235	6599.94
896.55	6660.95
896.865	6662.08
897.181	6620.05
897.496	6601.3
897.811	6557.91
898.126	6493.28
898.441	6516.1
898.756	6545.93
899.071	6541.64
899.386	6517
899.7	6505.7
900.015	6476.55
900.33	6425.48
900.644	6448.31
900.959	6403.11
901.273	6362.66
901.588	6360.17
901.902	6304.35
902.216	6307.97
902.531	6263.9
902.845	6245.15
903.159	6200.63
903.473	6230.01
903.787	6213.06
904.101	6167.86
904.415	6176.67
904.729	6172.38
905.042	6117.24
905.356	6072.04
905.67	6063.46
905.984	6096.68
906.297	6043.8
906.611	6019.84
906.924	6024.36
907.237	5986.62
907.551	6001.76
907.864	5893.07
908.177	5883.35
908.491	5844.03
908.804	5845.61
909.117	5836.8
909.43	5813.75
909.743	5735.1
910.056	5775.1
910.368	5720.64
910.681	5738.27
910.994	5747.53
911.307	5686.29
911.619	5686.74
911.932	5655.56
912.244	5653.07
912.557	5639.29
912.869	5604.26
913.181	5634.54
913.494	5679.74
913.806	5620.76
914.118	5603.36
914.43	5548.44
914.742	5605.62
915.054	5514.32
915.366	5464.38
915.678	5406.98
915.99	5421.44
916.302	5423.7
916.613	5347.99
916.925	5351.61
917.236	5364.94
917.548	5313.87
917.859	5355.9
918.171	5256.92
918.482	5230.26
918.794	5251.27
919.105	5283.82
919.416	5233.87
919.727	5184.38
920.038	5176.93
920.349	5120.2
920.66	5077.27
920.971	5066.65
921.282	5114.78
921.593	5057.83
921.903	5014.22
922.214	5025.97
922.525	5028.91
922.835	4983.71
923.146	4960.89
923.456	4940.32
923.767	4918.18
924.077	4882.24
924.387	4906.42
924.697	4892.87
925.008	4845.64
925.318	4828.01
925.628	4839.08
925.938	4814.22
926.248	4755.24
926.558	4717.28
926.867	4689.48
927.177	4765.41
927.487	4673.89
927.796	4680.22
928.106	4710.05
928.416	4621.46
928.725	4618.3
929.034	4610.84
929.344	4625.08
929.653	4597.73
929.962	4541.01
930.271	4559.54
930.581	4519.77
930.89	4554.57
931.199	4513.44
931.508	4499.88
931.817	4498.07
932.125	4461.69
932.434	4437.96
932.743	4403.84
933.051	4371.07
933.36	4362.71
933.669	4378.75
933.977	4321.58
934.286	4386.89
934.594	4335.59
934.902	4338.3
935.21	4280.23
935.519	4291.53
935.827	4233
936.135	4222.83
936.443	4204.97
936.751	4206.78
937.059	4133.79
937.367	4121.81
937.674	4156.84
937.982	4137.41
938.29	4115.71
938.597	4108.48
938.905	4089.72
939.213	4068.25
939.52	4064.41
939.827	4050.85
940.135	4065.77
940.442	4026
940.749	3984.87
941.056	4003.85
941.363	3949.61
941.67	4004.98
941.977	3909.16
942.284	3946.9
942.591	3935.38
942.898	3874.81
943.205	3882.72
943.511	3842.72
943.818	3840.92
944.125	3860.35
944.431	3790.97
944.738	3762.27
945.044	3757.08
945.35	3758.21
945.657	3739.9
945.963	3742.84
946.269	3722.28
946.575	3727.47
946.881	3651.32
947.187	3726.12
947.493	3649.28
947.799	3633.92
948.105	3647.02
948.41	3595.72
948.716	3603.86
949.022	3608.61
949.327	3610.41
949.633	3584.2
949.938	3565.67
950.244	3539.91
950.549	3496.52
950.854	3502.17
951.16	3489.06
951.465	3515.05
951.77	3476.86
952.075	3461.94
952.38	3459.68
952.685	3409.06
952.99	3417.65
953.294	3409.06
953.599	3438.44
953.904	3373.36
954.209	3358.67
954.513	3363.41
954.818	3297.65
955.122	3273.02
955.426	3286.13
955.731	3258.33
956.035	3292.91
956.339	3260.82
956.643	3274.15
956.948	3240.25
957.252	3182.85
957.556	3220.59
957.86	3219.24
958.163	3208.16
958.467	3148.5
958.771	3190.09
959.075	3149.18
959.378	3112.35
959.682	3155.28
959.985	3101.5
960.289	3104.66
960.592	3122.29
960.896	3090.88
961.199	3080.71
961.502	3036.19
961.805	3100.82
962.108	3014.72
962.411	3035.51
962.714	3004.33
963.017	2985.35
963.32	2996.64
963.623	3015.85
963.926	2946.7
964.228	2953.03
964.531	2942.18
964.833	2905.35
965.136	2929.53
965.438	2901.51
965.741	2929.98
966.043	2870.09
966.345	2843.88
966.648	2846.82
966.95	2852.47
967.252	2833.48
967.554	2834.61
967.856	2807.72
968.158	2790.32
968.46	2786.03
968.761	2773.83
969.063	2759.59
969.365	2743.77
969.666	2725.92
969.968	2745.35
970.269	2722.08
970.571	2728.4
970.872	2683.21
971.174	2705.13
971.475	2684.56
971.776	2649.99
972.077	2626.94
972.378	2634.85
972.679	2620.38
972.98	2620.38
973.281	2634.17
973.582	2622.87
973.883	2622.87
974.183	2585.81
974.484	2579.03
974.785	2562.08
975.085	2562.08
975.386	2577.22
975.686	2502.65
975.986	2550.78
976.287	2533.38
976.587	2492.48
976.887	2463.78
977.187	2503.32
977.487	2459.48
977.787	2436.43
978.087	2451.57
978.387	2464
978.687	2446.15
978.987	2407.73
979.286	2400.28
979.586	2400.73
979.885	2396.21
980.185	2395.3
980.484	2370.9
980.784	2354.85
981.083	2329.09
981.382	2330.67
981.682	2307.17
981.981	2316.89
982.28	2312.59
982.579	2278.47
982.878	2297.91
983.177	2288.19
983.475	2271.92
983.774	2267.85
984.073	2223.78
984.372	2217.23
984.67	2234.4
984.969	2225.59
985.267	2202.77
985.566	2207.96
985.864	2221.07
986.162	2197.8
986.461	2197.34
986.759	2153.28
987.057	2167.74
987.355	2145.82
987.653	2170.23
987.951	2162.32
988.249	2158.47
988.547	2157.34
988.844	2130.23
989.142	2146.27
989.44	2118.93
989.737	2090
990.035	2087.06
990.332	2057.23
990.63	2084.35
990.927	2059.72
991.224	2044.8
991.521	2013.17
991.819	2014.07
992.116	1984.92
992.413	1989.21
992.71	1995.54
993.006	1985.82
993.303	1975.65
993.6	1979.04
993.897	1965.26
994.193	1958.25
994.49	1955.77
994.787	1953.96
995.083	1937.92
995.379	1944.92
995.676	1911.02
995.972	1917.35
996.268	1890.68
996.565	1879.84
996.861	1877.35
997.157	1893.17
997.453	1848.43
997.749	1807.3
998.044	1808.2
998.34	1822.44
998.636	1829.44
998.932	1800.74
999.227	1801.2
999.523	1787.18
999.818	1770.46
1000.114	1746.28
1000.409	1758.48
1000.704	1756.23
1001	1735.43
1001.295	1730.24
1001.59	1708.54
1001.885	1726.62
1002.18	1708.99
1002.475	1712.84
1002.77	1690.01
1003.065	1704.47
1003.359	1701.99
1003.654	1669
1003.949	1683.46
1004.243	1660.18
1004.538	1646.17
1004.832	1643.69
1005.127	1651.59
1005.421	1603.01
1005.715	1641.65
1006.009	1625.61
1006.304	1611.37
1006.598	1564.59
1006.892	1577.7
1007.186	1552.84
1007.48	1547.19
1007.773	1569.56
1008.067	1563.69
1008.361	1540.19
1008.655	1544.48
1008.948	1525.27
1009.242	1517.36
1009.535	1543.12
1009.829	1506.51
1010.122	1488.21
1010.415	1488.66
1010.708	1459.28
1011.001	1485.05
1011.295	1471.71
1011.588	1449.57
1011.881	1418.61
1012.173	1448.89
1012.466	1433.07
1012.759	1395.1
1013.052	1409.12
1013.344	1402.56
1013.637	1423.58
1013.93	1424.48
1014.222	1406.18
1014.514	1402.56
1014.807	1385.61
1015.099	1374.31
1015.391	1363.69
1015.683	1331.38
1015.976	1349.23
1016.268	1350.81
1016.56	1318.72
1016.851	1318.72
1017.143	1332.28
1017.435	1283.7
1017.727	1267.65
1018.018	1266.29
1018.31	1262.9
1018.602	1246.86
1018.893	1250.93
1019.185	1242.57
1019.476	1234.43
1019.767	1239.63
1020.058	1235.33
1020.35	1221.32
1020.641	1201.89
1020.932	1216.58
1021.223	1215.9
1021.514	1204.83
1021.804	1186.52
1022.095	1170.7
1022.386	1184.94
1022.677	1176.81
1022.967	1144.94
1023.258	1154.21
1023.548	1136.81
1023.839	1133.87
1024.129	1140.87
1024.419	1125.51
1024.709	1102.91
1025	1105.17
1025.29	1099.29
1025.58	1099.75
1025.87	1079.63
1026.16	1086.64
1026.449	1068.56
1026.739	1080.76
1027.029	1060.2
1027.319	1040.76
1027.608	1053.64
1027.898	1068.79
1028.187	1037.15
1028.477	1011.61
1028.766	1005.28
1029.055	1027.66
1029.344	1033.31
1029.634	1002.57
1029.923	973.42
1030.212	982.91
1030.501	971.16
1030.79	926.64
1031.078	992.86
1031.367	943.37
1031.656	928
1031.945	945.17
1032.233	945.85
1032.522	939.3
1032.81	947.88
1033.099	943.59
1033.387	926.87
1033.675	931.39
1033.963	912.18
1034.251	932.97
1034.54	895.46
1034.828	887.77
1035.116	875.34
1035.403	897.26
1035.691	880.09
1035.979	885.51
1036.267	862.92
1036.554	856.36
1036.842	861.79
1037.129	852.75
1037.417	846.64
1037.704	846.42
1037.992	828.11
1038.279	818.4
1038.566	809.36
1038.853	809.36
1039.14	809.36
