Data from copper_heatsink_FLMS001491_016.txt Node
Date: Tue Feb 07 10:49:18 GMT 2017
User: dcchb
Spectrometer: FLMS00149
Trigger mode: 0
Integration Time (sec): 2.000000E-2
Scans to average: 10
Electric dark correction enabled: true
Nonlinearity correction enabled: false
Boxcar width: 0
XAxis mode: Wavelengths
Number of Pixels in Spectrum: 2048
>>>>>Begin Spectral Data<<<<<
341.393	-20.41
341.776	-20.41
342.16	-20.41
342.543	-58.83
342.927	-66.28
343.31	-69
343.693	-72.84
344.077	-56.57
344.46	-66.74
344.843	-44.82
345.226	-27.19
345.61	-32.16
345.993	-14.99
346.376	6.48
346.759	15.07
347.142	11
347.525	41.74
347.908	56.2
348.291	48.74
348.674	95.07
349.057	109.98
349.44	128.06
349.823	144.33
350.206	154.73
350.588	205.57
350.971	223.43
351.354	242.18
351.737	267.49
352.119	274.5
352.502	291
352.884	304.33
353.267	291.22
353.65	314.72
354.032	315.4
354.414	310.2
354.797	322.63
355.179	327.15
355.562	348.39
355.944	343.65
356.326	365.34
356.709	337.1
357.091	356.3
357.473	354.04
357.855	346.59
358.238	348.62
358.62	343.2
359.002	362.86
359.384	365.34
359.766	370.99
360.148	347.26
360.53	372.57
360.912	368.51
361.294	338.45
361.676	349.98
362.057	354.72
362.439	362.41
362.821	356.3
363.203	366.02
363.584	343.65
363.966	337.55
364.348	345.23
364.729	334.84
365.111	356.76
365.493	345.91
365.874	362.63
366.256	344.1
366.637	358.56
367.019	355.85
367.4	353.59
367.781	356.76
368.163	355.63
368.544	324.89
368.925	344.55
369.306	333.48
369.688	343.88
370.069	363.08
370.45	352.01
370.831	359.02
371.212	332.35
371.593	324.67
371.974	322.63
372.355	331.67
372.736	326.93
373.117	343.42
373.498	357.43
373.879	390.43
374.26	342.97
374.641	330.09
375.021	354.5
375.402	353.14
375.783	365.8
376.163	368.06
376.544	343.88
376.925	374.16
377.305	338.23
377.686	367.15
378.066	373.48
378.447	362.18
378.827	374.38
379.208	340.71
379.588	341.84
379.968	360.6
380.349	350.2
380.729	343.88
381.109	344.1
381.489	372.12
381.87	372.57
382.25	356.98
382.63	368.51
383.01	375.06
383.39	363.76
383.77	383.65
384.15	377.09
384.53	369.41
384.91	372.8
385.29	390.43
385.67	404.66
386.049	416.64
386.429	385
386.809	381.61
387.189	379.81
387.568	400.37
387.948	396.08
388.328	392.69
388.707	392.46
389.087	382.29
389.466	389.52
389.846	410.77
390.225	402.63
390.605	397.66
390.984	406.47
391.363	402.18
391.743	388.39
392.122	420.71
392.501	422.07
392.881	409.41
393.26	407.83
393.639	416.64
394.018	416.87
394.397	388.39
394.776	430.43
395.155	412.35
395.534	434.27
395.913	408.73
396.292	437.21
396.671	439.69
397.05	437.43
397.429	450.54
397.808	417.32
398.186	449.18
398.565	435.85
398.944	441.73
399.323	427.94
399.701	426.36
400.08	464.1
400.458	439.69
400.837	460.71
401.215	441.5
401.594	429.75
401.972	434.04
402.351	460.48
402.729	444.89
403.107	459.58
403.486	461.16
403.864	471.78
404.242	462.06
404.62	466.13
404.999	481.05
405.377	493.93
405.755	473.59
406.133	463.65
406.511	468.84
406.889	473.59
407.267	481.95
407.645	476.53
408.023	497.77
408.401	509.29
408.779	485.57
409.156	483.76
409.534	496.87
409.912	498.22
410.29	508.16
410.667	519.46
411.045	519.69
411.422	517.88
411.8	535.51
412.178	535.06
412.555	516.53
412.933	524.89
413.31	527.37
413.687	543.64
414.065	522.4
414.442	562.17
414.819	529.63
415.197	550.65
415.574	578.9
415.951	552.46
416.328	555.4
416.705	540.48
417.082	558.33
417.46	557.88
417.837	544.55
418.214	589.07
418.591	565.56
418.967	578.22
419.344	569.41
419.721	579.8
420.098	571.67
420.475	580.03
420.852	581.38
421.228	591.55
421.605	614.38
421.982	589.97
422.358	605.56
422.735	604.89
423.111	617.99
423.488	616.86
423.864	613.92
424.241	615.51
424.617	624.55
424.994	628.84
425.37	607.6
425.746	617.77
426.123	612.57
426.499	639.23
426.875	648.27
427.251	632.68
427.627	648.95
428.003	636.3
428.379	676.07
428.756	659.8
429.132	681.49
429.507	682.62
429.883	706.13
430.259	684.88
430.635	688.05
431.011	696.18
431.387	706.13
431.763	712.45
432.138	710.19
432.514	708.61
432.89	743.64
433.265	735.96
433.641	742.96
434.016	738.67
434.392	754.03
434.767	744.54
435.143	775.05
435.518	756.52
435.894	752.9
436.269	776.41
436.644	782.96
437.02	779.34
437.395	806.01
437.77	812.56
438.145	780.93
438.52	794.48
438.895	805.56
439.271	808.72
439.646	796.52
440.021	820.92
440.395	829.96
440.77	835.61
441.145	816.86
441.52	840.81
441.895	846.69
442.27	853.01
442.645	879.68
443.019	864.54
443.394	871.77
443.769	865.9
444.143	874.48
444.518	882.84
444.892	894.37
445.267	870.41
445.641	904.76
446.016	884.43
446.39	926.01
446.764	903.41
447.139	908.83
447.513	914.71
447.887	919.68
448.262	919
448.636	944.31
449.01	929.62
449.384	935.72
449.758	958.32
450.132	950.41
450.506	973.24
450.88	964.2
451.254	957.19
451.628	948.61
452.002	990.19
452.376	978.21
452.75	1016.85
453.123	1029.73
453.497	994.03
453.871	1040.81
454.244	1060.92
454.618	1038.32
454.992	1074.93
455.365	1048.72
455.739	1084.42
456.112	1063.18
456.486	1079.22
456.859	1103.18
457.232	1098.88
457.606	1125.1
457.979	1134.59
458.352	1138.66
458.725	1151.31
459.099	1186.11
459.472	1187.92
459.845	1211.65
460.218	1221.14
460.591	1233.8
460.964	1246.68
461.337	1234.25
461.71	1261.59
462.083	1272.44
462.456	1262.95
462.829	1264.3
463.201	1311.53
463.574	1317.18
463.947	1361.48
464.32	1362.38
464.692	1368.93
465.065	1367.58
465.438	1389.05
465.81	1411.42
466.183	1438.54
466.555	1432.43
466.928	1475.37
467.3	1481.25
467.672	1465.88
468.045	1507.69
468.417	1518.99
468.789	1524.41
469.161	1551.98
469.534	1590.62
469.906	1587.68
470.278	1618.64
470.65	1645.54
471.022	1702.71
471.394	1680.79
471.766	1715.82
472.138	1726.66
472.51	1757.17
472.882	1821.8
473.253	1797.4
473.625	1836.94
473.997	1873.1
474.369	1862.25
474.74	1907.9
475.112	1912.65
475.484	1968.69
475.855	1991.06
476.227	2012.98
476.598	2083.94
476.97	2078.07
477.341	2147.9
477.713	2169.82
478.084	2170.49
478.455	2234.9
478.827	2264.73
479.198	2308.12
479.569	2310.83
479.94	2381.34
480.311	2411.84
480.682	2458.4
481.053	2532.74
481.424	2531.84
481.795	2599.64
482.166	2632.63
482.537	2665.17
482.908	2682.57
483.279	2747.43
483.65	2821.1
484.021	2917.14
484.391	2912.17
484.762	2911.72
485.133	2951.72
485.503	3018.16
485.874	3038.27
486.244	3110.81
486.615	3151.48
486.985	3201.88
487.356	3259.05
487.726	3267.41
488.097	3353.74
488.467	3371.14
488.837	3442.55
489.207	3464.92
489.578	3533.85
489.948	3600.29
490.318	3646.16
490.688	3613.17
491.058	3723.22
491.428	3745.59
491.798	3802.99
492.168	3852.71
492.538	3878.7
492.908	3952.37
493.278	4000.28
493.648	4002.54
494.017	4059.71
494.387	4105.81
494.757	4152.81
495.126	4206.6
495.496	4194.4
495.866	4248.86
496.235	4343.54
496.605	4390.1
496.974	4379.02
497.344	4416.31
497.713	4506.7
498.082	4541.5
498.452	4587.15
498.821	4595.97
499.19	4606.14
499.559	4636.87
499.928	4711.9
500.298	4793.02
500.667	4805.23
501.036	4849.07
501.405	4845.9
501.774	4894.94
502.143	4948.95
502.512	4982.4
502.88	5048.84
503.249	5030.98
503.618	5112.79
503.987	5144.65
504.356	5193.69
504.724	5235.27
505.093	5291.77
505.462	5285.89
505.83	5374.93
506.199	5364.31
506.567	5463.97
506.936	5489.05
507.304	5518.65
507.672	5555.26
508.041	5634.58
508.409	5705.99
508.777	5707.8
509.145	5718.65
509.514	5775.82
509.882	5779.66
510.25	5880.23
510.618	5900.57
510.986	5947.8
511.354	6072.99
511.722	6086.55
512.09	6183.5
512.458	6145.08
512.826	6249.93
513.193	6296.26
513.561	6279.31
513.929	6356.15
514.297	6488.35
514.664	6453.32
515.032	6560.21
515.4	6576.93
515.767	6639.08
516.135	6671.62
516.502	6670.49
516.869	6827.77
517.237	6878.17
517.604	6834.1
517.972	7011.95
518.339	7027.99
518.706	7105.05
519.073	7107.77
519.44	7224.15
519.808	7266.63
520.175	7316.35
520.542	7386.85
520.909	7451.94
521.276	7476.34
521.643	7577.36
522.009	7634.76
522.376	7721.08
522.743	7780.29
523.11	7812.61
523.477	7957.01
523.843	7991.81
524.21	8106.83
524.577	8162.65
524.943	8217.57
525.31	8252.14
525.676	8332.59
526.043	8435.41
526.409	8505.47
526.776	8579.59
527.142	8668.85
527.508	8680.15
527.874	8783.88
528.241	8804.67
528.607	8902.97
528.973	8992.46
529.339	9024.1
529.705	9157.2
530.071	9245.34
530.437	9284.21
530.803	9339.12
531.169	9455.95
531.535	9447.59
531.901	9534.82
532.267	9543.41
532.632	9699.79
532.998	9728.49
533.364	9757.41
533.73	9802.84
534.095	10005.77
534.461	9966.22
534.826	10100.45
535.192	10162.37
535.557	10250.06
535.923	10300
536.288	10292.09
536.653	10458.64
537.019	10374.35
537.384	10493.21
537.749	10613.89
538.114	10680.33
538.479	10700.21
538.845	10852.53
539.21	10800.78
539.575	10927.1
539.94	11016.36
540.305	11093.42
540.67	11078.28
541.034	11228.56
541.399	11230.82
541.764	11350.82
542.129	11453.64
542.494	11499.51
542.858	11565.73
543.223	11594.2
543.587	11665.39
543.952	11711.26
544.316	11891.82
544.681	11915.1
545.045	12011.36
545.41	12027.86
545.774	12152.83
546.138	12261.08
546.503	12376.78
546.867	12414.74
547.231	12560.96
547.595	12652.03
547.959	12693.38
548.324	12721.4
548.688	12800.95
549.052	12952.81
549.416	13044.33
549.779	13066.48
550.143	13222.86
550.507	13226.7
550.871	13457.2
551.235	13495.39
551.599	13744.43
551.962	13749.4
552.326	13843.63
552.689	14060.58
553.053	14039.56
553.417	14139.9
553.78	14374.47
554.143	14372.43
554.507	14559.77
554.87	14573.11
555.234	14924.73
555.597	14912.31
555.96	15014.22
556.323	15251.28
556.686	15270.04
557.05	15529.24
557.413	15627.54
557.776	15720.65
558.139	15943.01
558.502	15994.54
558.865	16158.15
559.228	16370.8
559.59	16526.05
559.953	16652.6
560.316	16871.8
560.679	16988.41
561.041	17183.43
561.404	17342.75
561.767	17578.68
562.129	17695.28
562.492	17938.21
562.854	17994.94
563.217	18172.78
563.579	18278.54
563.941	18542.94
564.304	18817.97
564.666	18995.59
565.028	19148.8
565.39	19263.15
565.753	19462.24
566.115	19714.67
566.477	19963.92
566.839	20007.31
567.201	20348.77
567.563	20445.27
567.925	20671.25
568.287	20826.95
568.648	20990.34
569.01	21259.03
569.372	21449.08
569.734	21528.63
570.095	21897.66
570.457	22008.84
570.819	22172.23
571.18	22371.32
571.542	22556.85
571.903	22727.92
572.265	22910.51
572.626	23136.04
572.987	23216.04
573.349	23500.55
573.71	23671.62
574.071	23870.26
574.432	24100.09
574.794	24284.26
575.155	24405.84
575.516	24457.37
575.877	24582.56
576.238	24819.84
576.599	25067.07
576.96	25013.51
577.32	25195.65
577.681	25379.83
578.042	25656.43
578.403	25702.3
578.763	25746.37
579.124	25994.5
579.485	26199.01
579.845	26415.05
580.206	26473.58
580.566	26561.04
580.927	26726.23
581.287	26900.01
581.648	26917.41
582.008	27126.45
582.368	27125.09
582.728	27328.48
583.089	27278.99
583.449	27371.41
583.809	27518.98
584.169	27656.83
584.529	27612.08
584.889	27935.01
585.249	27786.32
585.609	27943.83
585.969	28139.3
586.329	28074.45
586.688	28389.92
587.048	28386.3
587.408	28512.85
587.768	28585.84
588.127	28514.66
588.487	28647.54
588.846	28819.51
589.206	28835.78
589.565	28800.98
589.925	29007.98
590.284	29016.34
590.643	29171.59
591.003	29227.18
591.362	29412.26
591.721	29358.71
592.08	29506.72
592.44	29562.99
592.799	29665.59
593.158	29738.36
593.517	29761.18
593.876	29900.84
594.235	29855.42
594.593	30056.77
594.952	30293.82
595.311	30193.26
595.67	30359.81
596.029	30481.16
596.387	30461.73
596.746	30596.86
597.104	30500.37
597.463	30629.18
597.822	30792.11
598.18	30715.51
598.538	30759.57
598.897	30986.46
599.255	30871.21
599.613	31340.8
599.972	31266.45
600.33	31419.22
600.688	31305.55
601.046	31421.02
601.404	31711.19
601.762	31690.4
602.12	31757.06
602.478	31812.65
602.836	31905.53
603.194	31814.23
603.552	31935.36
603.91	31880.67
604.268	32227.1
604.625	31994.12
604.983	32307.33
605.341	32249.48
605.698	32593.65
606.056	32668.22
606.413	32654.44
606.771	32600.88
607.128	32874.55
607.485	32750.93
607.843	32746.19
608.2	33111.38
608.557	33078.61
608.914	33067.76
609.272	33484.47
609.629	33506.84
609.986	33631.14
610.343	33534.41
610.7	33791.81
611.057	33740.96
611.414	33674.52
611.771	33876.33
612.127	33967.4
612.484	34207.62
612.841	34259.59
613.198	34179.37
613.554	34196.09
613.911	34455.97
614.267	34536.65
614.624	34486.48
614.98	34595.18
615.337	35001.49
615.693	34818.45
616.05	34823.65
616.406	35177.54
616.762	34991.55
617.118	34967.6
617.475	35099.57
617.831	35330.07
618.187	35330.07
618.543	35392.9
618.899	35608.71
619.255	35621.82
619.611	35523.74
619.967	35794.47
620.323	35862.49
620.678	35903.84
621.034	35697.3
621.39	35932.09
621.746	35926.22
622.101	36395.81
622.457	36094.8
622.812	36231.97
623.168	36260.22
623.523	36377.28
623.879	36580.66
624.234	36286.88
624.589	36533.43
624.945	36578.4
625.3	36638.06
625.655	36455.24
626.01	36610.72
626.365	36752.18
626.72	36799.41
627.075	36873.54
627.43	36939.98
627.785	36809.58
628.14	36954.89
628.495	36813.65
628.85	36944.72
629.205	36797.38
629.559	36961.22
629.914	36881.67
630.269	36889.58
630.623	36901.56
630.978	36909.92
631.332	37069.01
631.687	37179.06
632.041	37031.95
632.396	37066.53
632.75	37024.72
633.104	37105.62
633.459	36877.38
633.813	37100.42
634.167	37007.77
634.521	37080.54
634.875	37092.74
635.229	37064.72
635.583	37058.84
635.937	37010.26
636.291	37063.36
636.645	37144.49
636.999	37026.3
637.352	37192.17
637.706	36881.22
638.06	37192.85
638.413	37029.24
638.767	37001.89
639.121	37110.14
639.474	36956.92
639.828	36959.64
640.181	37010.48
640.534	37074.21
640.888	36928.45
641.241	36859.98
641.594	37059.75
641.947	37088.22
642.301	36940.43
642.654	37006.64
643.007	37103.81
643.36	37121.89
643.713	37072.85
644.066	37153.53
644.419	36993.31
644.771	36632.19
645.124	36131.18
645.477	36101.58
645.83	35857.97
646.182	35946.1
646.535	36057.96
646.888	36203.05
647.24	36023.61
647.593	36411.18
647.945	36514.22
648.298	36309.94
648.65	36354.91
649.002	36206.66
649.355	36507.67
649.707	36132.31
650.059	36384.28
650.411	36591.96
650.763	36683.26
651.115	37177.71
651.467	37058.84
651.819	37367.31
652.171	37182.23
652.523	36928
652.875	36988.11
653.227	36815.01
653.578	37163.92
653.93	37085.06
654.282	36891.61
654.633	36927.77
654.985	37066.98
655.337	37088.67
655.688	37047.09
656.039	37260.42
656.391	36970.26
656.742	37081.44
657.094	37185.39
657.445	37249.57
657.796	37215.9
658.147	37216.13
658.498	37160.76
658.849	37267.65
659.2	37200.99
659.551	37218.39
659.902	37329.34
660.253	37150.59
660.604	37331.15
660.955	37085.96
661.306	37246.18
661.656	37269.01
662.007	37260.87
662.358	37120.76
662.708	37227.2
663.059	37184.71
663.409	36919.41
663.76	37314.43
664.11	37452.73
664.461	37554.42
664.811	37537.25
665.161	37536.34
665.511	37367.99
665.862	37489.79
666.212	37638.26
666.562	37569.11
666.912	37611.14
667.262	37467.42
667.612	37467.87
667.962	37596.68
668.312	37642.33
668.662	37744.47
669.011	37654.98
669.361	37554.2
669.711	37563.46
670.06	37555.1
670.41	37542.9
670.76	37589.9
671.109	37636
671.459	37747.41
671.808	37727.98
672.157	37844.13
672.507	37535.44
672.856	37731.59
673.205	37714.19
673.554	37783.12
673.904	37711.48
674.253	37765.04
674.602	37825.38
674.951	37328.44
675.3	37310.81
675.649	37745.15
675.998	37756.45
676.346	37808.88
676.695	37919.16
677.044	37678.71
677.393	37868.76
677.741	37828.77
678.09	37827.86
678.438	37724.59
678.787	37726.17
679.135	37828.99
679.484	37581.31
679.832	37692.05
680.181	37426.52
680.529	37572.95
680.877	37549.68
681.225	37656.11
681.573	37934.3
681.922	37576.79
682.27	37533.86
682.618	37665.38
682.966	37485.27
683.314	37556
683.661	37385.84
684.009	37337.03
684.357	37394.88
684.705	37270.59
685.053	37295.22
685.4	37335.22
685.748	37158.05
686.095	37220.87
686.443	37140.87
686.79	37213.41
687.138	37230.36
687.485	37094.1
687.832	37037.15
688.18	37141.55
688.527	36880.09
688.874	36968.22
689.221	37032.18
689.568	36833.09
689.915	36780.43
690.262	36874.21
690.609	36658.85
690.956	36662.24
691.303	36706.76
691.65	36621.11
691.997	36505.18
692.344	36270.39
692.69	36309.48
693.037	36384.28
693.383	36090.96
693.73	36309.94
694.077	36205.31
694.423	36207.79
694.769	36130.73
695.116	35959.66
695.462	35990.62
695.808	35985.42
696.155	35910.85
696.501	35749.95
696.847	35505.66
697.193	35463.63
697.539	35603.51
697.885	35343.18
698.231	35359
698.577	35373.01
698.923	35446.23
699.269	35169.17
699.614	34947.71
699.96	35179.12
700.306	35157.88
700.651	34987.48
700.997	35053.24
701.342	35039.23
701.688	35028.84
702.033	34806.7
702.379	34804.89
702.724	34653.48
703.069	34761.95
703.415	34496.2
703.76	34465.24
704.105	34534.16
704.45	34402.19
704.795	34201.52
705.14	34050.79
705.485	34233.15
705.83	34168.07
706.175	34289.88
706.52	34080.16
706.865	33912.94
707.209	33906.16
707.554	33900.73
707.899	33998.36
708.243	33766.95
708.588	33842.2
708.932	33577.8
709.277	33581.42
709.621	33693.05
709.966	33678.59
710.31	33514.08
710.654	33276.12
710.998	33317.7
711.342	33416.45
711.687	33369.22
712.031	33310.47
712.375	33127.65
712.719	33308.43
713.063	33161.77
713.407	33440.63
713.75	33192.5
714.094	33243.8
714.438	33002.9
714.782	33234.08
715.125	32998.16
715.469	33074.99
715.812	32841.33
716.156	32958.61
716.499	32864.6
716.843	32911.15
717.186	32825.96
717.53	33097.14
717.873	32875.22
718.216	32837.94
718.559	32769.69
718.902	32537.15
719.246	32792.51
719.589	32586.42
719.932	32566.53
720.275	32544.16
720.617	32517.27
720.96	32402.69
721.303	32451.51
721.646	32482.24
721.989	32316.37
722.331	32506.87
722.674	32230.49
723.016	32342.13
723.359	32360.43
723.701	32315.01
724.044	32176.71
724.386	32200.66
724.729	32260.78
725.071	32166.32
725.413	32203.38
725.755	32166.77
726.097	32112.53
726.439	31853.33
726.782	31910.95
727.124	32163.15
727.465	31893.55
727.807	32021.23
728.149	31815.36
728.491	31756.83
728.833	31881.35
729.175	31629.83
729.516	31813.56
729.858	31769.04
730.199	31763.84
730.541	31647.23
730.882	31674.8
731.224	31934.23
731.565	31680.23
731.906	31637.52
732.248	31795.03
732.589	31660.34
732.93	31559.1
733.271	31543.28
733.612	31487.24
733.953	31730.62
734.294	31774.24
734.635	31560.46
734.976	31637.74
735.317	31560.46
735.658	31366.79
735.999	31450.4
736.339	31663.73
736.68	31655.59
737.021	31464.41
737.361	31338.77
737.702	31508.25
738.042	31536.05
738.383	31396.17
738.723	31369.27
739.063	31304.64
739.404	31321.59
739.744	31363.85
740.084	31260.8
740.424	31306.68
740.764	31127.47
741.104	31422.15
741.444	31161.6
741.784	31162.27
742.124	31244.53
742.464	31154.82
742.804	31085.89
743.143	30844.32
743.483	31018.32
743.823	31069.85
744.162	30914.6
744.502	31137.42
744.841	30860.81
745.181	30988.27
745.52	31013.35
745.86	31040.24
746.199	30907.59
746.538	30949.4
746.877	30951.66
747.216	30927.25
747.556	30918.21
747.895	30910.08
748.234	30896.97
748.573	30744.21
748.911	30832.34
749.25	30723.42
749.589	30546.7
749.928	30733.81
750.267	30707.6
750.605	30747.6
750.944	30576.07
751.283	30635.51
751.621	30663.08
751.96	30492.69
752.298	30323.65
752.636	30377.21
752.975	30190.77
753.313	30002.98
753.651	30258.12
753.989	30217.44
754.327	30119.59
754.666	30050.66
755.004	30049.53
755.342	30218.57
755.679	30116.43
756.017	29926.15
756.355	30028.29
756.693	29902.65
757.031	29862.42
757.368	29646.83
757.706	29833.5
758.044	29703.1
758.381	29776.1
758.719	29652.94
759.056	29702.43
759.394	29472.6
759.731	29395.99
760.068	29424.24
760.405	29499.94
760.743	29288.65
761.08	29232.61
761.417	29192.61
761.754	29111.71
762.091	29171.82
762.428	28990.35
762.765	28960.3
763.102	29066.28
763.438	28892.95
763.775	28747.42
764.112	28937.7
764.449	28877.14
764.785	28704.49
765.122	28490.71
765.458	28382.91
765.795	28477.6
766.131	28505.39
766.467	28457.94
766.804	28267.21
767.14	28170.49
767.476	28204.39
767.812	28081.45
768.148	28170.94
768.485	27973.21
768.821	27739.09
769.157	27879.42
769.492	27785.87
769.828	27859.08
770.164	27354.46
770.5	27530.96
770.836	27431.07
771.171	27371.64
771.507	27372.77
771.842	27090.06
772.178	27113.57
772.513	27187.24
772.849	27086.67
773.184	26864.53
773.519	27034.25
773.855	26913.35
774.19	26722.39
774.525	26598.78
774.86	26754.71
775.195	26716.74
775.53	26615.5
775.865	26489.63
776.2	26353.13
776.535	26206.47
776.87	26264.1
777.205	26111.33
777.539	25994.73
777.874	25990.88
778.209	25891
778.543	25779.36
778.878	25677.67
779.212	25830.21
779.547	25637.9
779.881	25789.99
780.215	25432.93
780.55	25445.36
780.884	25415.31
781.218	25435.64
781.552	25439.26
781.886	25234.07
782.22	25114.07
782.554	25046.5
782.888	24913.85
783.222	24859.84
783.556	24801.54
783.889	24776.45
784.223	24569.9
784.557	24509.34
784.89	24720.18
785.224	24494.2
785.557	24487.87
785.891	24404.26
786.224	24366.97
786.558	24326.52
786.891	24120.2
787.224	24129.01
787.557	24034.78
787.891	24085.4
788.224	24009.47
788.557	23986.42
788.89	23877.72
789.223	23988.68
789.556	23911.17
789.888	23774.9
790.221	23672.08
790.554	23563.6
790.887	23523.15
791.219	23411.97
791.552	23445.19
791.884	23296.94
792.217	23276.61
792.549	23137.4
792.882	23075.48
793.214	23076.61
793.546	23075.03
793.879	22963.62
794.211	22808.82
794.543	22956.16
794.875	22800.23
795.207	23011.53
795.539	22840.91
795.871	22780.57
796.203	22675.94
796.535	22519.79
796.867	22505.1
797.198	22399.34
797.53	22425.1
797.862	22197.09
798.193	22396.4
798.525	22138.1
798.856	22299.23
799.188	22114.6
799.519	21926.58
799.85	21923.65
800.182	21956.64
800.513	21968.62
800.844	21813.82
801.175	21962.74
801.506	21887.72
801.837	21801.16
802.168	21778.34
802.499	21757.55
802.83	21589.64
803.161	21568.18
803.491	21526.6
803.822	21439.82
804.153	21461.96
804.483	21338.8
804.814	21433.94
805.145	21292.48
805.475	21398.69
805.805	21195.98
806.136	21234.85
806.466	21122.99
806.796	21181.07
807.126	21003.44
807.457	20997.8
807.787	20982.65
808.117	20946.95
808.447	20876.67
808.777	20934.75
809.107	20848.42
809.436	20790.57
809.766	20804.13
810.096	20734.98
810.426	20709.22
810.755	20754.41
811.085	20786.28
811.414	20678.03
811.744	20451.82
812.073	20400.97
812.403	20482.33
812.732	20349.22
813.061	20315.78
813.39	20324.82
813.719	20253.63
814.049	20401.43
814.378	20361.65
814.707	20270.81
815.036	20276.23
815.365	20026.3
815.693	20045.28
816.022	19960.76
816.351	20028.56
816.68	19937.94
817.008	20088.67
817.337	19875.79
817.665	19886.19
817.994	19951.27
818.322	19971.38
818.651	19876.69
818.979	19806.87
819.307	19892.74
819.636	19809.8
819.964	19686.42
820.292	19868.33
820.62	19891.38
820.948	19749.47
821.276	19912.63
821.604	19814.1
821.932	19824.72
822.259	19884.38
822.587	19842.8
822.915	19806.64
823.243	19826.07
823.57	19796.7
823.898	19897.26
824.225	19857.26
824.553	19762.8
824.88	19851.16
825.207	19822.91
825.535	19784.27
825.862	19908.78
826.189	19793.31
826.516	20020.42
826.843	19994.66
827.17	19941.55
827.497	19990.14
827.824	20003.47
828.151	20016.13
828.478	20000.08
828.805	20091.83
829.131	20039.63
829.458	19985.39
829.785	20000.31
830.111	19987.88
830.438	20144.26
830.764	20060.19
831.09	20153.98
831.417	20141.55
831.743	20201.66
832.069	20161.89
832.395	20118.04
832.722	20190.13
833.048	20085.73
833.374	20159.85
833.7	20080.76
834.026	20185.84
834.351	20276.23
834.677	20153.75
835.003	20141.77
835.329	20142
835.654	20086.41
835.98	20078.95
836.306	20236.01
836.631	20151.72
836.956	20226.29
837.282	20064.94
837.607	20021.55
837.932	19952.85
838.258	20048.22
838.583	19969.35
838.908	19830.14
839.233	20005.73
839.558	19928.67
839.883	19899.07
840.208	19805.06
840.533	19804.61
840.858	19865.85
841.182	19843.02
841.507	19913.98
841.832	19743.59
842.156	19759.41
842.481	19796.7
842.805	19639.41
843.13	19668.79
843.454	19730.71
843.778	19703.37
844.103	19714.44
844.427	19583.6
844.751	19603.26
845.075	19537.27
845.399	19444.62
845.723	19481
846.047	19512.18
846.371	19389.02
846.695	19298.63
847.019	19241.01
847.343	19296.82
847.666	19129.82
847.99	19078.75
848.313	19142.25
848.637	18880.11
848.96	18915.14
849.284	18800.56
849.607	18738.87
849.931	18783.16
850.254	18559.44
850.577	18587.24
850.9	18489.39
851.223	18522.15
851.546	18370.07
851.869	18304.08
852.192	18321.48
852.515	18166.68
852.838	18119.68
853.161	18052.34
853.483	18060.25
853.806	18018.44
854.129	18034.03
854.451	17858.22
854.774	17826.81
855.096	17774.15
855.419	17835.17
855.741	17793.36
856.063	17725.79
856.385	17816.18
856.708	17620.71
857.03	17594.27
857.352	17606.25
857.674	17484.67
857.996	17556.76
858.318	17334.61
858.64	17342.3
858.961	17398.12
859.283	17272.47
859.605	17250.32
859.926	17343.88
860.248	17188.63
860.57	17213.49
860.891	17309.53
861.212	17111.8
861.534	17142.3
861.855	17104.79
862.176	17107.05
862.498	17188.4
862.819	17011.69
863.14	16990.44
863.461	16937.11
863.782	16958.35
864.103	16962.42
864.424	16937.79
864.745	16998.58
865.065	16824.57
865.386	16887.85
865.707	16852.59
866.027	16993.15
866.348	16971.23
866.668	16930.56
866.989	16885.59
867.309	16706.38
867.63	16696.89
867.95	16754.52
868.27	16693.95
868.59	16797.68
868.91	16793.39
869.23	16841.07
869.55	16755.42
869.87	16764.01
870.19	16638.81
870.51	16680.85
870.83	16661.41
871.15	16677.68
871.469	16705.03
871.789	16638.36
872.109	16623.45
872.428	16534.64
872.748	16697.57
873.067	16590
873.386	16526.5
873.706	16554.97
874.025	16504.58
874.344	16383.45
874.663	16566.05
874.982	16403.79
875.301	16413.06
875.62	16436.33
875.939	16367.63
876.258	16475.88
876.577	16387.3
876.896	16359.5
877.214	16412.15
877.533	16343.68
877.852	16296.68
878.17	16359.05
878.489	16328.09
878.807	16307.52
879.125	16333.29
879.444	16289.9
879.762	16333.29
880.08	16261.87
880.398	16156.57
880.716	16316.34
881.034	16252.38
881.352	16129.22
881.67	16157.24
881.988	16290.8
882.306	16122.9
882.624	16164.7
882.941	16080.64
883.259	16019.62
883.577	15997.25
883.894	15898.95
884.212	16007.42
884.529	15985.5
884.846	15863.24
885.164	15962.9
885.481	15926.74
885.798	15939.17
886.115	15846.07
886.432	15838.61
886.75	15878.61
887.067	15812.62
887.383	15749.8
887.7	15781.21
888.017	15746.18
888.334	15681.78
888.651	15676.13
888.967	15756.58
889.284	15571.72
889.6	15590.48
889.917	15449.69
890.233	15544.38
890.55	15420.54
890.866	15492.18
891.182	15408.11
891.498	15382.35
891.815	15350.71
892.131	15417.38
892.447	15253.54
892.763	15236.82
893.079	15252.86
893.395	15180.32
893.71	15141.9
894.026	15126.54
894.342	15135.8
894.657	15037.73
894.973	15065.97
895.289	14962.25
895.604	15000.21
895.92	14866.21
896.235	14851.52
896.55	14850.16
896.865	14774.91
897.181	14747.11
897.496	14799.77
897.811	14754.12
898.126	14664.85
898.441	14722.25
898.756	14653.78
899.071	14469.15
899.386	14473
899.7	14327.46
900.015	14327.46
900.33	14228.48
900.644	14224.41
900.959	14306.9
901.273	14208.82
901.588	14237.3
901.902	14129.95
902.216	14209.95
902.531	14091.54
902.845	14039.56
903.159	13965.89
903.473	13988.04
903.787	13827.59
904.101	13818.55
904.415	13885.67
904.729	13772.9
905.042	13670.3
905.356	13691.32
905.67	13680.25
905.984	13654.03
906.297	13561.15
906.611	13516.64
906.924	13447.26
907.237	13457.43
907.551	13400.48
907.864	13283.2
908.177	13259.69
908.491	13341.95
908.804	13169.75
909.117	13147.61
909.43	13012.92
909.743	13035.29
910.056	13040.26
910.368	12958.91
910.681	12917.33
910.994	12843.66
911.307	12830.33
911.619	12842.76
911.932	12833.72
912.244	12700.39
912.557	12698.13
912.869	12580.62
913.181	12542.65
913.494	12594.17
913.806	12506.27
914.118	12577.23
914.43	12407.51
914.742	12393.5
915.054	12277.57
915.366	12292.04
915.678	12227.63
915.99	12260.62
916.302	12141.31
916.613	12121.19
916.925	12090.46
917.236	12047.52
917.548	11990.35
917.859	11985.83
918.171	11956.23
918.482	11813.63
918.794	11847.53
919.105	11838.26
919.416	11645.5
919.727	11727.76
920.038	11700.64
920.349	11606.18
920.66	11478.5
920.971	11526.41
921.282	11421.78
921.593	11411.15
921.903	11393.3
922.214	11369.12
922.525	11392.85
922.835	11250.71
923.146	11193.31
923.456	11192.4
923.767	11079.41
924.077	11041
924.387	11038.28
924.697	10985.4
925.008	10962.58
925.318	10971.62
925.628	10838.29
925.938	10845.97
926.248	10765.97
926.558	10726.65
926.867	10770.27
927.177	10716.26
927.487	10633.32
927.796	10513.55
928.106	10531.4
928.416	10469.03
928.725	10551.97
929.034	10528.92
929.344	10466.09
929.653	10410.5
929.962	10336.15
930.271	10318.3
930.581	10262.94
930.89	10220
931.199	10109.72
931.508	10107.46
931.817	10169.61
932.125	10073.79
932.434	10119.44
932.743	9942.49
933.051	9892.78
933.36	9964.19
933.669	9856.85
933.977	9801.03
934.286	9856.39
934.594	9843.51
934.902	9685.32
935.21	9729.39
935.519	9627.92
935.827	9593.35
936.135	9563.52
936.443	9491.88
936.751	9538.66
937.059	9500.47
937.367	9429.74
937.674	9377.99
937.982	9301.38
938.29	9329.18
938.597	9323.07
938.905	9246.24
939.213	9156.3
939.52	9140.93
939.827	9157.65
940.135	9103.42
940.442	9105.68
940.749	9056.64
941.056	9099.35
941.363	8971.9
941.67	8995.63
941.977	8976.19
942.284	8915.63
942.591	8855.74
942.898	8873.14
943.205	8824.78
943.511	8709.98
943.818	8774.84
944.125	8708.85
944.431	8678.57
944.738	8692.58
945.044	8608.52
945.35	8582.3
945.657	8482.19
945.963	8481.51
946.269	8387.73
946.575	8390.9
946.881	8353.83
947.187	8364.68
947.493	8274.97
947.799	8324.91
948.105	8226.38
948.41	8147.29
948.716	8100.51
949.022	8167.4
949.327	8134.86
949.633	8030.68
949.938	8107.96
950.244	8071.13
950.549	8018.7
950.854	7949.1
951.16	7859.61
951.465	7851.25
951.77	7831.36
952.075	7823.68
952.38	7791.81
952.685	7820.97
952.99	7727.64
953.294	7658.26
953.599	7693.29
953.904	7676.79
954.209	7616.45
954.513	7509.56
954.818	7559.73
955.122	7523.35
955.426	7523.35
955.731	7371.94
956.035	7405.38
956.339	7432.95
956.643	7388.66
956.948	7323.35
957.252	7300.98
957.556	7312.73
957.86	7259.63
958.163	7233.19
958.467	7230.02
958.771	7172.17
959.075	7134.66
959.378	7187.31
959.682	7108.44
959.985	7109.8
960.289	7040.65
960.592	7012.63
960.896	6980.99
961.199	6921.78
961.502	6902.57
961.805	6910.71
962.108	6814.67
962.411	6825.06
962.714	6788.23
963.017	6756.59
963.32	6801.33
963.623	6736.93
963.926	6677.49
964.228	6657.61
964.531	6656.25
964.833	6630.49
965.136	6566.31
965.438	6566.08
965.741	6524.73
966.043	6459.42
966.345	6455.58
966.648	6467.33
966.95	6406.09
967.252	6356.6
967.554	6347.56
967.856	6349.37
968.158	6267.34
968.46	6303.94
968.761	6200.67
969.063	6244.28
969.365	6169.48
969.666	6159.77
969.968	6090.62
970.269	6091.97
970.571	6109.83
970.872	6071.86
971.174	6064.4
971.475	6078.19
971.776	6025.76
972.077	5976.72
972.378	5935.82
972.679	5951.41
972.98	5952.32
973.281	5912.77
973.582	5826.89
973.883	5855.82
974.183	5832.32
974.484	5783.28
974.785	5769.27
975.085	5714.13
975.386	5790.29
975.686	5682.27
975.986	5675.26
976.287	5685.2
976.587	5623.51
976.887	5581.7
977.187	5613.79
977.487	5583.51
977.787	5517.3
978.087	5529.05
978.387	5508.26
978.687	5490.18
978.987	5474.36
979.286	5407.7
979.586	5417.87
979.885	5381.26
980.185	5361.14
980.484	5303.74
980.784	5382.61
981.083	5302.39
981.382	5262.16
981.682	5198.44
981.981	5233.24
982.28	5152.34
982.579	5164.31
982.878	5150.53
983.177	5107.82
983.475	5128.16
983.774	5100.59
984.073	5021.27
984.372	4981.49
984.67	5033.02
984.969	5039.34
985.267	4966.8
985.566	4956.86
985.864	4948.95
986.162	4919.35
986.461	4898.56
986.759	4871.44
987.057	4824.21
987.355	4787.37
987.653	4831.67
987.951	4776.98
988.249	4766.36
988.547	4787.83
988.844	4760.71
989.142	4706.25
989.44	4751.67
989.737	4722.97
990.035	4673.03
990.332	4642.52
990.63	4630.32
990.927	4579.24
991.224	4571.11
991.521	4543.31
991.819	4520.49
992.116	4521.84
992.413	4465.57
992.71	4453.37
993.006	4437.1
993.303	4440.04
993.6	4457.67
993.897	4406.82
994.193	4384.67
994.49	4359.14
994.787	4379.02
995.083	4320.04
995.379	4302.87
995.676	4251.34
995.972	4295.64
996.268	4261.51
996.565	4269.65
996.861	4148.52
997.157	4143.32
997.453	4144
997.749	4117.11
998.044	4122.31
998.34	4078.24
998.636	4065.59
998.932	4042.08
999.227	3985.81
999.523	3991.69
999.818	3960.05
1000.114	3953.72
1000.409	3955.76
1000.704	3845.7
1001	3859.04
1001.295	3855.2
1001.59	3850.45
1001.885	3781.07
1002.18	3793.73
1002.475	3798.02
1002.77	3772.03
1003.065	3738.59
1003.359	3730
1003.654	3732.26
1003.949	3663.79
1004.243	3660.4
1004.538	3642.32
1004.832	3653.17
1005.127	3620.85
1005.421	3566.39
1005.715	3565.94
1006.009	3550.12
1006.304	3509.44
1006.598	3491.14
1006.892	3530.23
1007.186	3446.84
1007.48	3450.23
1007.773	3461.99
1008.067	3409.56
1008.361	3404.13
1008.655	3367.3
1008.948	3370.46
1009.242	3376.79
1009.535	3332.05
1009.829	3274.42
1010.122	3264.25
1010.415	3252.27
1010.708	3257.92
1011.001	3233.97
1011.295	3212.95
1011.588	3178.15
1011.881	3126.85
1012.173	3075.78
1012.466	3142.9
1012.759	3097.02
1013.052	3093.63
1013.344	3081.2
1013.637	3083.24
1013.93	3032.17
1014.222	3008.89
1014.514	2999.17
1014.807	2978.61
1015.099	2975.22
1015.391	2941.32
1015.683	2941.32
1015.976	2891.38
1016.268	2876.24
1016.56	2842.57
1016.851	2819.29
1017.143	2846.86
1017.435	2786.07
1017.727	2763.92
1018.018	2775
1018.31	2767.54
1018.602	2719.41
1018.893	2675.79
1019.185	2699.29
1019.476	2667.88
1019.767	2723.93
1020.058	2671.05
1020.35	2589.47
1020.641	2611.61
1020.932	2596.7
1021.223	2537.26
1021.514	2540.43
1021.804	2514.44
1022.095	2514.67
1022.386	2506.53
1022.677	2452.52
1022.967	2439.64
1023.258	2441
1023.548	2436.25
1023.839	2386.53
1024.129	2390.38
1024.419	2358.96
1024.709	2354.9
1025	2307.67
1025.29	2321.22
1025.58	2289.36
1025.87	2238.29
1026.16	2233.54
1026.449	2270.6
1026.739	2205.52
1027.029	2229.02
1027.319	2209.14
1027.608	2173.43
1027.898	2153.55
1028.187	2142.02
1028.477	2120.78
1028.766	2112.64
1029.055	2071.51
1029.344	2067.45
1029.634	2074.23
1029.923	2028.58
1030.212	2028.8
1030.501	2018.63
1030.79	1983.38
1031.078	1982.48
1031.367	1953.1
1031.656	1931.18
1031.945	1971.63
1032.233	1950.16
1032.522	1930.05
1032.81	1883.27
1033.099	1874.68
1033.387	1891.18
1033.675	1878.98
1033.963	1809.83
1034.251	1845.98
1034.54	1797.85
1034.828	1765.31
1035.116	1791.97
1035.403	1799.88
1035.691	1735.25
1035.979	1747.91
1036.267	1762.82
1036.554	1730.96
1036.842	1682.82
1037.129	1708.59
1037.417	1666.78
1037.704	1659.32
1037.992	1676.27
1038.279	1644.86
1038.566	1598.98
1038.853	1598.98
1039.14	1598.98
