Data from copper_heatsink_FLMS001491_065.txt Node
Date: Tue Feb 07 10:50:22 GMT 2017
User: dcchb
Spectrometer: FLMS00149
Trigger mode: 0
Integration Time (sec): 2.000000E-2
Scans to average: 10
Electric dark correction enabled: true
Nonlinearity correction enabled: false
Boxcar width: 0
XAxis mode: Wavelengths
Number of Pixels in Spectrum: 2048
>>>>>Begin Spectral Data<<<<<
341.393	-14.08
341.776	-14.08
342.16	-14.08
342.543	-52.05
342.927	-61.54
343.31	-75.77
343.693	-80.07
344.077	-55.44
344.46	-57.47
344.843	-61.31
345.226	-15.66
345.61	-33.06
345.993	-14.53
346.376	-14.76
346.759	6.71
347.142	30.44
347.525	51.68
347.908	38.57
348.291	69.76
348.674	91.9
349.057	119.02
349.44	109.76
349.823	137.78
350.206	162.41
350.588	194.95
350.971	213.03
351.354	218.23
351.737	242.18
352.119	239.7
352.502	262.52
352.884	258.91
353.267	271.11
353.65	297.1
354.032	305.68
354.414	308.17
354.797	287.61
355.179	351.78
355.562	321.28
355.944	312.92
356.326	322.18
356.709	317.89
357.091	331.9
357.473	323.31
357.855	320.82
358.238	328.06
358.62	343.65
359.002	335.29
359.384	335.29
359.766	337.1
360.148	329.41
360.53	327.83
360.912	352.69
361.294	327.83
361.676	323.99
362.057	344.78
362.439	313.59
362.821	311.11
363.203	331.45
363.584	307.49
363.966	292.58
364.348	341.39
364.729	318.57
365.111	343.42
365.493	330.54
365.874	328.96
366.256	303.65
366.637	313.59
367.019	334.16
367.4	319.24
367.781	303.88
368.163	317.66
368.544	328.73
368.925	323.08
369.306	307.72
369.688	308.62
370.069	321.28
370.45	301.84
370.831	324.89
371.212	303.2
371.593	322.18
371.974	313.59
372.355	287.15
372.736	302.52
373.117	317.21
373.498	308.17
373.879	324.67
374.26	304.33
374.641	323.31
375.021	311.33
375.402	316.31
375.783	323.99
376.163	323.99
376.544	351.11
376.925	330.99
377.305	321.28
377.686	331.9
378.066	334.84
378.447	318.79
378.827	337.77
379.208	338.68
379.588	328.28
379.968	327.83
380.349	334.61
380.729	343.42
381.109	332.12
381.489	321.5
381.87	330.32
382.25	335.51
382.63	338.9
383.01	341.16
383.39	348.39
383.77	337.1
384.15	348.85
384.53	352.24
384.91	339.58
385.29	349.75
385.67	332.8
386.049	342.97
386.429	342.52
386.809	352.91
387.189	355.85
387.568	341.62
387.948	341.39
388.328	353.14
388.707	338.23
389.087	361.95
389.466	364.21
389.846	354.04
390.225	356.3
390.605	359.24
390.984	365.12
391.363	360.82
391.743	364.67
392.122	362.18
392.501	373.48
392.881	369.19
393.26	343.42
393.639	369.41
394.018	347.26
394.397	364.67
394.776	415.96
395.155	365.57
395.534	369.19
395.913	367.15
396.292	362.86
396.671	384.33
397.05	398.56
397.429	375.06
397.808	380.94
398.186	390.65
398.565	387.26
398.944	412.8
399.323	390.43
399.701	378
400.08	392.01
400.458	364.67
400.837	379.35
401.215	401.05
401.594	415.29
401.972	398.34
402.351	371.9
402.729	410.09
403.107	391.11
403.486	399.47
403.864	406.92
404.242	396.98
404.62	404.21
404.999	405.79
405.377	402.63
405.755	411.9
406.133	411.22
406.511	403.99
406.889	420.48
407.267	390.43
407.645	400.37
408.023	419.81
408.401	427.71
408.779	415.51
409.156	439.47
409.534	431.33
409.912	414.16
410.29	417.77
410.667	427.04
411.045	433.82
411.422	418.68
411.8	430.43
412.178	429.97
412.555	444.44
412.933	450.99
413.31	434.27
413.687	448.28
414.065	456.64
414.442	445.79
414.819	453.93
415.197	468.84
415.574	454.38
415.951	460.26
416.328	470.88
416.705	469.97
417.082	469.97
417.46	469.07
417.837	494.15
418.214	483.31
418.591	470.65
418.967	472.69
419.344	460.48
419.721	486.02
420.098	454.15
420.475	454.61
420.852	490.09
421.228	479.01
421.605	498
421.982	505.23
422.358	491.67
422.735	512.91
423.111	494.83
423.488	513.14
423.864	486.02
424.241	488.28
424.617	492.57
424.994	505.68
425.37	515.17
425.746	522.18
426.123	513.36
426.499	501.16
426.875	520.14
427.251	526.92
427.627	518.33
428.003	532.12
428.379	538.9
428.756	536.64
429.132	554.27
429.507	557.43
429.883	546.13
430.259	550.42
430.635	579.12
431.011	556.98
431.387	589.97
431.763	570.31
432.138	581.61
432.514	562.17
432.89	574.38
433.265	585.22
433.641	582.51
434.016	566.69
434.392	592.68
434.767	611.66
435.143	590.2
435.518	585
435.894	613.92
436.269	602.85
436.644	600.59
437.02	606.47
437.395	622.96
437.77	616.64
438.145	622.06
438.52	652.12
438.895	623.87
439.271	633.81
439.646	652.57
440.021	661.15
440.395	645.79
440.77	618.67
441.145	644.66
441.52	651.89
441.895	622.51
442.27	654.6
442.645	668.39
443.019	681.95
443.394	656.86
443.769	642.4
444.143	655.96
444.518	689.85
444.892	657.99
445.267	663.41
445.641	684.21
446.016	691.44
446.39	701.38
446.764	715.39
447.139	695.73
447.513	699.8
447.887	707.03
448.262	699.57
448.636	713.58
449.01	716.07
449.384	696.86
449.758	699.12
450.132	725.33
450.506	726.92
450.88	727.14
451.254	738.89
451.628	718.78
452.002	756.97
452.376	731.66
452.75	741.83
453.123	769.17
453.497	767.82
453.871	744.77
454.244	779.34
454.618	778.89
454.992	770.76
455.365	778.67
455.739	803.52
456.112	799.46
456.486	814.82
456.859	828.38
457.232	842.62
457.606	832.68
457.979	823.18
458.352	839.23
458.725	875.84
459.099	859.79
459.472	860.25
459.845	854.37
460.218	866.12
460.591	898.21
460.964	899.57
461.337	903.18
461.71	926.23
462.083	923.29
462.456	943.63
462.829	928.27
463.201	938.66
463.574	921.94
463.947	940.47
464.32	971.2
464.692	979.56
465.065	963.75
465.438	1008.72
465.81	990.64
466.183	995.61
466.555	988.83
466.928	1032.22
467.3	1026.12
467.672	1061.14
468.045	1040.35
468.417	1073.12
468.789	1075.38
469.161	1084.87
469.534	1082.61
469.906	1111.09
470.278	1119
470.65	1129.39
471.022	1119.9
471.394	1173.01
471.766	1145.44
472.138	1177.07
472.51	1184.76
472.882	1192.67
473.253	1227.92
473.625	1225.43
473.997	1269.05
474.369	1290.29
474.74	1287.81
475.112	1295.94
475.484	1283.96
475.855	1327.13
476.227	1339.33
476.598	1380.91
476.97	1398.76
477.341	1419.55
477.713	1427.46
478.084	1445.09
478.455	1465.65
478.827	1476.95
479.198	1514.01
479.569	1533.45
479.94	1561.02
480.311	1596.27
480.682	1591.07
481.053	1638.76
481.424	1635.59
481.795	1670.62
482.166	1676.95
482.537	1703.16
482.908	1707.68
483.279	1749.94
483.65	1780.45
484.021	1800.33
484.391	1824.29
484.762	1862.93
485.133	1860.67
485.503	1906.32
485.874	1902.93
486.244	1945.19
486.615	1929.6
486.985	1983.61
487.356	2011.18
487.726	2026.32
488.097	2041.68
488.467	2080.1
488.837	2139.99
489.207	2154.67
489.578	2171.4
489.948	2196.71
490.318	2238.51
490.688	2201.45
491.058	2274.9
491.428	2278.74
491.798	2303.82
492.168	2337.72
492.538	2342.47
492.908	2357.83
493.278	2402.13
493.648	2426.98
494.017	2477.6
494.387	2475.57
494.757	2481.67
495.126	2505.63
495.496	2522.12
495.866	2537.04
496.235	2561.67
496.605	2596.02
496.974	2583.36
497.344	2630.14
497.713	2675.79
498.082	2666.53
498.452	2687.32
498.821	2717.15
499.19	2725.96
499.559	2758.05
499.928	2776.81
500.298	2769.8
500.667	2793.75
501.036	2790.36
501.405	2847.31
501.774	2842.11
502.143	2856.13
502.512	2869.01
502.88	2894.09
503.249	2933.86
503.618	2963.24
503.987	2986.07
504.356	2988.1
504.724	2997.36
505.093	3045.27
505.462	3065.16
505.83	3069.23
506.199	3089.79
506.567	3106.29
506.936	3142.9
507.304	3188.55
507.672	3203.01
508.041	3181.99
508.409	3215.44
508.777	3271.48
509.145	3280.52
509.514	3315.1
509.882	3334.3
510.25	3339.95
510.618	3384.93
510.986	3357.36
511.354	3421.99
511.722	3432.61
512.09	3475.09
512.458	3471.7
512.826	3494.98
513.193	3527.75
513.561	3545.6
513.929	3580.63
514.297	3603.9
514.664	3677.8
515.032	3660.62
515.4	3650.91
515.767	3692.26
516.135	3696.56
516.502	3718.25
516.869	3782.43
517.237	3780.39
517.604	3812.26
517.972	3840.96
518.339	3870.56
518.706	3870.11
519.073	3926.83
519.44	3953.72
519.808	3971.35
520.175	3965.93
520.542	4055.64
520.909	4070.1
521.276	4047.73
521.643	4149.88
522.009	4158.01
522.376	4118.24
522.743	4215.41
523.11	4285.69
523.477	4335.41
523.843	4377.89
524.21	4386.25
524.577	4386.03
524.943	4423.77
525.31	4505.12
525.676	4517.55
526.043	4544.44
526.409	4562.52
526.776	4626.02
527.142	4616.08
527.508	4656.3
527.874	4719.13
528.241	4734.27
528.607	4754.15
528.973	4793.02
529.339	4797.77
529.705	4879.8
530.071	4957.54
530.437	4920.7
530.803	4922.06
531.169	4976.52
531.535	5006.35
531.901	5025.79
532.267	5079.12
532.632	5136.29
532.998	5071.89
533.364	5149.4
533.73	5161.6
534.095	5237.98
534.461	5202.28
534.826	5262.39
535.192	5275.27
535.557	5326.79
535.923	5388.94
536.288	5429.84
536.653	5429.84
537.019	5478.66
537.384	5475.49
537.749	5508.71
538.114	5573.34
538.479	5568.37
538.845	5622.38
539.21	5592.32
539.575	5646.33
539.94	5671.64
540.305	5712.55
540.67	5712.77
541.034	5756.39
541.399	5734.92
541.764	5823.28
542.129	5849.27
542.494	5863.05
542.858	5902.37
543.223	5865.54
543.587	5984.86
543.952	6023.5
544.316	6024.86
544.681	6021.69
545.045	6078.41
545.41	6092.2
545.774	6145.76
546.138	6157.51
546.503	6199.99
546.867	6185.53
547.231	6336.26
547.595	6320.22
547.959	6303.27
548.324	6407.67
548.688	6443.83
549.052	6479.31
549.416	6532.19
549.779	6522.7
550.143	6571.96
550.507	6628.46
550.871	6663.48
551.235	6679.75
551.599	6779.41
551.962	6774.21
552.326	6873.87
552.689	6903.7
553.053	6896.47
553.417	6947.77
553.78	7093.08
554.143	7069.8
554.507	7168.1
554.87	7116.8
555.234	7267.08
555.597	7293.07
555.96	7314.09
556.323	7396.12
556.686	7438.83
557.05	7599.73
557.413	7570.8
557.776	7597.92
558.139	7759.95
558.502	7768.99
558.865	7872.26
559.228	7896.67
559.59	7974.18
559.953	8064.58
560.316	8134.86
560.679	8179.83
561.041	8190
561.404	8342.31
561.767	8420.72
562.129	8442.19
562.492	8599.48
562.854	8582.75
563.217	8707.95
563.579	8775.29
563.941	8903.2
564.304	8973.7
564.666	9067.26
565.028	9169.18
565.39	9234.04
565.753	9296.18
566.115	9413.47
566.477	9455.95
566.839	9531.2
567.201	9635.38
567.563	9711.99
567.925	9804.87
568.287	9870.18
568.648	9969.16
569.01	10025.43
569.372	10123.73
569.734	10141.81
570.095	10259.77
570.457	10364.63
570.819	10440.78
571.18	10488.92
571.542	10694.56
571.903	10685.07
572.265	10812.98
572.626	10868.12
572.987	10910.38
573.349	10972.52
573.71	11155.79
574.071	11257.03
574.432	11342.23
574.794	11471.49
575.155	11463.36
575.516	11552.17
575.877	11723.46
576.238	11719.85
576.599	11850.24
576.96	11863.8
577.32	11925.27
577.681	12066.28
578.042	12255.88
578.403	12219.95
578.763	12221.98
579.124	12261.53
579.485	12487.51
579.845	12471.92
580.206	12441.86
580.566	12549.43
580.927	12631.91
581.287	12722.98
581.648	12723.66
582.008	12802.08
582.368	12869.87
582.728	12871
583.089	12948.74
583.449	13106.48
583.809	13116.87
584.169	13110.55
584.529	13125.91
584.889	13306.25
585.249	13310.31
585.609	13287.04
585.969	13507.37
586.329	13470.54
586.688	13513.7
587.048	13572.91
587.408	13531.1
587.768	13655.39
588.127	13648.61
588.487	13638.21
588.846	13780.13
589.206	13799.57
589.565	13913.69
589.925	13934.93
590.284	13905.33
590.643	13950.97
591.003	13928.6
591.362	14178.09
591.721	14120.01
592.08	14285.88
592.44	14258.76
592.799	14283.17
593.158	14339.67
593.517	14388.25
593.876	14404.3
594.235	14433.45
594.593	14506.21
594.952	14590.96
595.311	14509.6
595.67	14661.24
596.029	14768.81
596.387	14769.03
596.746	14780.33
597.104	14758.19
597.463	14758.86
597.822	14883.61
598.18	14852.65
598.538	14941.46
598.897	15006.77
599.255	14950.95
599.613	15201.56
599.972	15082.02
600.33	15210.83
600.688	15134.22
601.046	15237.72
601.404	15362.69
601.762	15378.28
602.12	15430.03
602.478	15443.82
602.836	15454.66
603.194	15437.26
603.552	15532.4
603.91	15433.2
604.268	15701.89
604.625	15618.05
604.983	15661.89
605.341	15724.26
605.698	15837.71
606.056	15914.77
606.413	15915.22
606.771	15897.82
607.128	16032.5
607.485	15917.7
607.843	16032.95
608.2	16178.71
608.557	16201.76
608.914	16273.4
609.272	16281.31
609.629	16251.48
609.986	16395.88
610.343	16431.59
610.7	16620.74
611.057	16581.87
611.414	16573.73
611.771	16581.19
612.127	16740.28
612.484	16605.59
612.841	16694.86
613.198	16738.02
613.554	16692.6
613.911	16891.69
614.267	16840.16
614.624	17000.39
614.98	16891.24
615.337	17097.33
615.693	16957
616.05	17014.62
616.406	17252.36
616.762	17197.44
617.118	17123.32
617.475	17229.08
617.831	17264.79
618.187	17356.31
618.543	17456.87
618.899	17402.86
619.255	17512.69
619.611	17530.32
619.967	17566.47
620.323	17636.98
620.678	17637.43
621.034	17527.38
621.39	17675.4
621.746	17748.16
622.101	17895.28
622.457	17756.98
622.812	17777.77
623.168	17916.52
623.523	17921.94
623.879	17945.9
624.234	17865
624.589	17916.52
624.945	17983.64
625.3	18020.25
625.655	17981.15
626.01	18059.12
626.365	18069.74
626.72	18073.13
627.075	18028.61
627.43	18112.9
627.785	18045.33
628.14	18121.26
628.495	18197.19
628.85	18094.37
629.205	18039.91
629.559	18294.82
629.914	18199.9
630.269	18141.37
630.623	18130.07
630.978	18211.65
631.332	18296.17
631.687	18274.48
632.041	18234.25
632.396	18340.92
632.75	18247.13
633.104	18322.16
633.459	18256.4
633.813	18213.01
634.167	18235.83
634.521	18164.42
634.875	18287.36
635.229	18363.74
635.583	18255.27
635.937	18291.2
636.291	18266.12
636.645	18336.62
636.999	18287.13
637.352	18445.77
637.706	18272.9
638.06	18327.13
638.413	18346.57
638.767	18380.24
639.121	18390.41
639.474	18236.29
639.828	18287.58
640.181	18341.82
640.534	18379.56
640.888	18385.89
641.241	18254.59
641.594	18243.07
641.947	18344.08
642.301	18299.11
642.654	18417.98
643.007	18358.99
643.36	18394.25
643.713	18428.37
644.066	18560.12
644.419	18349.5
644.771	18106.35
645.124	18012.56
645.477	17934.6
645.83	17833.13
646.182	17859.35
646.535	17932.11
646.888	17922.85
647.24	17859.57
647.593	17978.44
647.945	17975.5
648.298	17927.37
648.65	17881.04
649.002	17889.85
649.355	17915.62
649.707	17841.27
650.059	17890.53
650.411	18103.18
650.763	18136.18
651.115	18375.04
651.467	18346.79
651.819	18330.97
652.171	18329.62
652.523	18432.89
652.875	18313.57
653.227	18178.21
653.578	18401.71
653.93	18426.34
654.282	18257.08
654.633	18237.64
654.985	18307.7
655.337	18450.07
655.688	18302.72
656.039	18415.04
656.391	18286.45
656.742	18416.17
657.094	18391.08
657.445	18429.95
657.796	18357.41
658.147	18330.07
658.498	18372.78
658.849	18487.8
659.2	18388.37
659.551	18430.86
659.902	18397.64
660.253	18379.56
660.604	18491.19
660.955	18344.53
661.306	18489.61
661.656	18462.27
662.007	18521.02
662.358	18481.93
662.708	18504.75
663.059	18526.22
663.409	18405.55
663.76	18514.7
664.11	18577.75
664.461	18619.33
664.811	18607.12
665.161	18569.38
665.511	18551.08
665.862	18592.21
666.212	18626.33
666.562	18712.66
666.912	18576.84
667.262	18635.37
667.612	18583.85
667.962	18685.09
668.312	18596.5
668.662	18802.6
669.011	18620.91
669.361	18686.22
669.711	18687.35
670.06	18801.47
670.41	18640.57
670.76	18680.12
671.109	18714.69
671.459	18739.55
671.808	18721.47
672.157	18774.35
672.507	18611.42
672.856	18700.91
673.205	18701.13
673.554	18788.81
673.904	18693.9
674.253	18796.27
674.602	18802.82
674.951	18522.15
675.3	18463.85
675.649	18737.06
675.998	18783.84
676.346	18852.99
676.695	18930.28
677.044	18791.75
677.393	18751.75
677.741	18779.55
678.09	18792.88
678.438	18880.11
678.787	18829.04
679.135	18890.05
679.484	18778.19
679.832	18914.91
680.181	18698.19
680.529	18741.58
680.877	18673.56
681.225	18728.02
681.573	18824.75
681.922	18637.63
682.27	18684.41
682.618	18673.11
682.966	18644.86
683.314	18726.67
683.661	18688.03
684.009	18676.27
684.357	18558.54
684.705	18591.08
685.053	18580.01
685.4	18625.88
685.748	18493.91
686.095	18605.32
686.443	18511.53
686.79	18358.99
687.138	18546.79
687.485	18609.84
687.832	18511.99
688.18	18590.4
688.527	18410.97
688.874	18421.37
689.221	18347.24
689.568	18298.21
689.915	18374.59
690.262	18399.45
690.609	18291.2
690.956	18333.46
691.303	18232.9
691.65	18227.7
691.997	18209.39
692.344	18207.36
692.69	18216.17
693.037	18125.33
693.383	18050.75
693.73	18107.25
694.077	17968.95
694.423	18001.72
694.769	18001.72
695.116	18019.79
695.462	17938.89
695.808	17845.79
696.155	17905.67
696.501	17827.71
696.847	17837.88
697.193	17696.19
697.539	17804.21
697.885	17672.23
698.231	17696.64
698.577	17662.06
698.923	17653.7
699.269	17548.39
699.614	17531.22
699.96	17548.39
700.306	17496.87
700.651	17464.1
700.997	17462.97
701.342	17397.21
701.688	17441.96
702.033	17377.55
702.379	17393.82
702.724	17336.42
703.069	17357.89
703.415	17143.21
703.76	17226.6
704.105	17219.59
704.45	17102.76
704.795	17117.67
705.14	17052.36
705.485	17070.22
705.83	17066.37
706.175	17008.3
706.52	16957
706.865	16905.02
707.209	16873.61
707.554	16884.68
707.899	16896.43
708.243	16831.13
708.588	16827.28
708.932	16719.49
709.277	16674.07
709.621	16779.83
709.966	16697.34
710.31	16731.24
710.654	16623.67
710.998	16690.56
711.342	16638.81
711.687	16665.48
712.031	16573.5
712.375	16499.16
712.719	16617.57
713.063	16387.97
713.407	16546.39
713.75	16529.21
714.094	16489.89
714.438	16349.56
714.782	16430.91
715.125	16351.82
715.469	16375.77
715.812	16332.83
716.156	16312.95
716.499	16338.03
716.843	16308.65
717.186	16225.72
717.53	16258.71
717.873	16174.87
718.216	16208.32
718.559	16138.94
718.902	16146.85
719.246	16180.75
719.589	16091.94
719.932	16073.41
720.275	16090.13
720.617	16075.44
720.96	16177.58
721.303	16013.52
721.646	16050.13
721.989	16045.61
722.331	16068.21
722.674	15981.43
723.016	15954.99
723.359	15993.86
723.701	15999.28
724.044	15945.27
724.386	15779.85
724.729	15898.49
725.071	15831.38
725.413	15883.58
725.755	15790.25
726.097	15804.03
726.439	15821.21
726.782	15785.95
727.124	15794.99
727.465	15774.43
727.807	15770.81
728.149	15842.22
728.491	15754.54
728.833	15766.29
729.175	15757.48
729.516	15784.15
729.858	15719.97
730.199	15767.42
730.541	15801.1
730.882	15775.79
731.224	15726.07
731.565	15628.9
731.906	15670.93
732.248	15710.48
732.589	15702.79
732.93	15604.49
733.271	15570.14
733.612	15618.5
733.953	15690.59
734.294	15630.7
734.635	15632.29
734.976	15631.16
735.317	15584.15
735.658	15523.14
735.999	15521.1
736.339	15504.83
736.68	15563.36
737.021	15481.56
737.361	15439.52
737.702	15497.15
738.042	15516.36
738.383	15510.03
738.723	15523.14
739.063	15453.31
739.404	15421.67
739.744	15328.79
740.084	15408.34
740.424	15535.57
740.764	15441.33
741.104	15449.01
741.444	15392.52
741.784	15316.36
742.124	15395.68
742.464	15388.45
742.804	15319.07
743.143	15365.85
743.483	15401.11
743.823	15320.66
744.162	15226.87
744.502	15329.7
744.841	15179.19
745.181	15307.55
745.52	15224.16
745.86	15288.34
746.199	15186.87
746.538	15113.2
746.877	15176.93
747.216	15238.17
747.556	15097.39
747.895	15209.7
748.234	15129.7
748.573	15114.79
748.911	15094.22
749.25	15109.14
749.589	15073.66
749.928	15189.81
750.267	15068.69
750.605	15058.29
750.944	14933.55
751.283	14867.34
751.621	14940.1
751.96	14831.4
752.298	14802.03
752.636	14887.22
752.975	14887.67
753.313	14835.7
753.651	14906.88
753.989	14760.22
754.327	14828.47
754.666	14758.86
755.004	14769.48
755.342	14765.64
755.679	14705.76
756.017	14697.4
756.355	14738.98
756.693	14729.03
757.031	14748.69
757.368	14587.57
757.706	14633.67
758.044	14625.31
758.381	14663.27
758.719	14548.7
759.056	14655.36
759.394	14571.98
759.731	14399.55
760.068	14449.94
760.405	14402.71
760.743	14423.5
761.08	14342.15
761.417	14368.59
761.754	14306.67
762.091	14314.13
762.428	14265.32
762.765	14209.05
763.102	14325.88
763.438	14286.11
763.775	14230.29
764.112	14220.57
764.449	14213.79
764.785	14165.21
765.122	14056.73
765.458	13917.08
765.795	13964.31
766.131	13915.72
766.467	13863.07
766.804	13845.22
767.14	13720.02
767.476	13698.1
767.812	13708.04
768.148	13730.42
768.485	13671.89
768.821	13668.27
769.157	13614.49
769.492	13578.1
769.828	13551.66
770.164	13468.28
770.5	13483.64
770.836	13408.62
771.171	13287.04
771.507	13345.79
771.842	13288.39
772.178	13242.75
772.513	13293.14
772.849	13189.64
773.184	13150.77
773.519	13219.24
773.855	13160.26
774.19	13117.78
774.525	13022.64
774.86	13049.76
775.195	13023.32
775.53	13031.23
775.865	12887.05
776.2	12780.84
776.535	12748.52
776.87	12741.29
777.205	12687.73
777.539	12678.92
777.874	12713.95
778.209	12570.45
778.543	12612.71
778.878	12586.49
779.212	12559.83
779.547	12497.45
779.881	12476.89
780.215	12415.42
780.55	12513.95
780.884	12368.87
781.218	12461.3
781.552	12360.06
781.886	12360.06
782.22	12213.85
782.554	12122.77
782.888	12082.55
783.222	12122.32
783.556	12042.1
783.889	12030.8
784.223	11923.23
784.557	11960.07
784.89	11976.79
785.224	11939.95
785.557	11876.68
785.891	11870.35
786.224	11856.57
786.558	11868.54
786.891	11793.29
787.224	11767.76
787.557	11646.18
787.891	11685.05
788.224	11697.02
788.557	11532.73
788.89	11549
789.223	11602.79
789.556	11561.66
789.888	11498.16
790.221	11532.51
790.554	11423.36
790.887	11352.4
791.219	11351.5
791.552	11320.31
791.884	11337.48
792.217	11262.91
792.549	11283.47
792.882	11185.17
793.214	11125.96
793.546	11199.18
793.879	11088.68
794.211	11043.25
794.543	11164.83
794.875	11022.24
795.207	11115.12
795.539	11015.23
795.871	10977.04
796.203	10891.17
796.535	10895.01
796.867	10880.77
797.198	10833.99
797.53	10838.51
797.862	10805.29
798.193	10863.82
798.525	10675.35
798.856	10738.4
799.188	10614.11
799.519	10634.45
799.85	10585.41
800.182	10614.57
800.513	10638.07
800.844	10507.68
801.175	10584.06
801.506	10542.25
801.837	10516.94
802.168	10481.69
802.499	10462.25
802.83	10445.98
803.161	10395.36
803.491	10414.57
803.822	10394.91
804.153	10347
804.483	10293.9
804.814	10241.69
805.145	10182.03
805.475	10190.62
805.805	10182.03
806.136	10104.75
806.466	10118.53
806.796	10169.61
807.126	10151.07
807.457	10056.39
807.787	10089.83
808.117	10033.34
808.447	10047.57
808.777	10011.64
809.107	9967.12
809.436	9993.34
809.766	9965.09
810.096	9940.23
810.426	9882.38
810.755	9922.83
811.085	9908.6
811.414	9921.25
811.744	9804.64
812.073	9870.18
812.403	9799.22
812.732	9711.31
813.061	9780.24
813.39	9699.79
813.719	9727.13
814.049	9750.18
814.378	9803.97
814.707	9684.65
815.036	9685.55
815.365	9647.13
815.693	9516.97
816.022	9607.59
816.351	9551.77
816.68	9467.48
817.008	9536.63
817.337	9434.26
817.665	9466.8
817.994	9408.5
818.322	9542.05
818.651	9453.01
818.979	9386.35
819.307	9443.97
819.636	9404.2
819.964	9363.3
820.292	9435.39
820.62	9443.07
820.948	9404.65
821.276	9425.67
821.604	9355.62
821.932	9399.68
822.259	9395.16
822.587	9406.46
822.915	9320.59
823.243	9416.18
823.57	9399.68
823.898	9400.81
824.225	9326.01
824.553	9383.41
824.88	9331.66
825.207	9413.92
825.535	9341.6
825.862	9399.91
826.189	9382.96
826.516	9405.11
826.843	9452.56
827.17	9411.43
827.497	9392.9
827.824	9372.56
828.151	9432.45
828.478	9452.34
828.805	9465.44
829.131	9466.57
829.458	9416.18
829.785	9384.99
830.111	9501.83
830.438	9502.5
830.764	9525.33
831.09	9450.08
831.417	9475.84
831.743	9450.3
832.069	9451.21
832.395	9431.55
832.722	9452.34
833.048	9448.49
833.374	9479
833.7	9446.01
834.026	9439.23
834.351	9472.9
834.677	9437.2
835.003	9516.29
835.329	9494.37
835.654	9424.31
835.98	9448.72
836.306	9459.12
836.631	9437.65
836.956	9341.83
837.282	9380.25
837.607	9379.34
837.932	9347.48
838.258	9375.05
838.583	9397.42
838.908	9294.83
839.233	9361.04
839.558	9352.23
839.883	9260.7
840.208	9272.23
840.533	9232.91
840.858	9330.98
841.182	9350.64
841.507	9316.75
841.832	9291.89
842.156	9247.14
842.481	9284.21
842.805	9262.96
843.13	9249.4
843.454	9249.18
843.778	9229.97
844.103	9200.14
844.427	9177.54
844.751	9198.11
845.075	9122.85
845.399	9099.35
845.723	9057.54
846.047	9107.49
846.371	9002.4
846.695	9042.18
847.019	8903.2
847.343	8923.54
847.666	8871.79
847.99	8819.13
848.313	8802.86
848.637	8835.86
848.96	8820.49
849.284	8795.86
849.607	8788.62
849.931	8708.63
850.254	8706.37
850.577	8709.3
850.9	8621.4
851.223	8564
851.546	8538.46
851.869	8503.21
852.192	8511.57
852.515	8406.71
852.838	8473.6
853.161	8453.72
853.483	8448.52
853.806	8387.73
854.129	8394.96
854.451	8374.4
854.774	8355.19
855.096	8338.92
855.419	8308.64
855.741	8316.09
856.063	8289.2
856.385	8297.11
856.708	8173.73
857.03	8180.05
857.352	8145.48
857.674	8149.32
857.996	8111.58
858.318	8032.03
858.64	8078.59
858.961	8034.52
859.283	8029.32
859.605	7972.15
859.926	8123.56
860.248	8055.99
860.57	7954.07
860.891	7935.31
861.212	7952.49
861.534	7949.32
861.855	7901.87
862.176	7925.37
862.498	7970.34
862.819	7902.09
863.14	7893.28
863.461	7854.19
863.782	7895.09
864.103	7813.96
864.424	7838.82
864.745	7807.86
865.065	7817.12
865.386	7763.12
865.707	7714.08
866.027	7717.24
866.348	7819.61
866.668	7786.39
866.989	7764.92
867.309	7684.47
867.63	7727.41
867.95	7718.14
868.27	7672.72
868.59	7677.92
868.91	7726.96
869.23	7684.93
869.55	7657.13
869.87	7720.86
870.19	7659.61
870.51	7711.59
870.83	7696.45
871.15	7609.22
871.469	7593.18
871.789	7615.77
872.109	7627.07
872.428	7602.44
872.748	7588.43
873.067	7623.91
873.386	7604.93
873.706	7591.37
874.025	7558.15
874.344	7500.52
874.663	7577.58
874.982	7474.08
875.301	7520.41
875.62	7498.94
875.939	7519.73
876.258	7527.19
876.577	7472.5
876.896	7523.35
877.214	7450.35
877.533	7445.61
877.852	7394.31
878.17	7448.77
878.489	7460.3
878.807	7420.3
879.125	7404.48
879.444	7392.28
879.762	7436.57
880.08	7416.01
880.398	7448.77
880.716	7401.77
881.034	7349.79
881.352	7391.6
881.67	7316.8
881.988	7359.96
882.306	7303.47
882.624	7298.49
882.941	7336.91
883.259	7343.24
883.577	7210.59
883.894	7227.08
884.212	7264.6
884.529	7228.21
884.846	7186.63
885.164	7159.52
885.481	7220.08
885.798	7202.9
886.115	7134.88
886.432	7187.99
886.75	7115.9
887.067	7214.65
887.383	7157.48
887.7	7106.86
888.017	7133.3
888.334	7103.47
888.651	7126.75
888.967	7021.67
889.284	7055.34
889.6	6996.36
889.917	6953.64
890.233	6965.85
890.55	6969.24
890.866	6950.93
891.182	6957.26
891.498	6895.34
891.815	6901.44
892.131	6844.95
892.447	6850.14
892.763	6830.71
893.079	6831.39
893.395	6860.54
893.71	6811.05
894.026	6802.91
894.342	6736.93
894.657	6742.58
894.973	6694.67
895.289	6673.65
895.604	6787.77
895.92	6647.21
896.235	6621.22
896.55	6703.48
896.865	6646.53
897.181	6616.48
897.496	6614.22
897.811	6517.5
898.126	6526.99
898.441	6538.51
898.756	6483.37
899.071	6477.05
899.386	6509.36
899.7	6449.03
900.015	6489.02
900.33	6410.38
900.644	6430.04
900.959	6398.18
901.273	6311.18
901.588	6348.24
901.902	6298.52
902.216	6277.5
902.531	6305.53
902.845	6257.17
903.159	6241.8
903.473	6255.58
903.787	6213.1
904.101	6176.94
904.415	6228.47
904.729	6163.84
905.042	6125.64
905.356	6064.85
905.67	6129.03
905.984	6074.35
906.297	6042.71
906.611	6005.87
906.924	6037.74
907.237	5942.6
907.551	5946.67
907.864	5939.89
908.177	5883.16
908.491	5913.67
908.804	5823.05
909.117	5782.38
909.43	5757.07
909.743	5782.38
910.056	5796.61
910.368	5783.73
910.681	5767.01
910.994	5712.77
911.307	5709.38
911.619	5691.76
911.932	5710.06
912.244	5679.1
912.557	5676.84
912.869	5668.48
913.181	5638.43
913.494	5653.57
913.806	5562.49
914.118	5605.21
914.43	5510.07
914.742	5535.15
915.054	5519.33
915.366	5448.15
915.678	5429.84
915.99	5447.7
916.302	5409.5
916.613	5416.51
916.925	5390.07
917.236	5375.38
917.548	5288.15
917.859	5321.37
918.171	5283.86
918.482	5251.77
918.794	5200.92
919.105	5242.5
919.416	5233.01
919.727	5197.31
920.038	5188.27
920.349	5099.46
920.66	5092.68
920.971	5090.87
921.282	5072.34
921.593	5028.05
921.903	5022.4
922.214	5012.45
922.525	5013.81
922.835	4995.05
923.146	4921.38
923.456	4997.76
923.767	4898.33
924.077	4888.84
924.387	4870.99
924.697	4900.37
925.008	4835.06
925.318	4826.02
925.628	4866.24
925.938	4799.8
926.248	4779.01
926.558	4715.51
926.867	4744.89
927.177	4709.41
927.487	4727.49
927.796	4684.55
928.106	4654.95
928.416	4618.79
928.725	4610.88
929.034	4634.38
929.344	4594.61
929.653	4621.73
929.962	4548.06
930.271	4529.08
930.581	4553.71
930.89	4534.73
931.199	4513.26
931.508	4502.86
931.817	4550.54
932.125	4509.19
932.434	4430.1
932.743	4442.52
933.051	4379.25
933.36	4379.02
933.669	4346.48
933.977	4348.52
934.286	4353.71
934.594	4349.19
934.902	4348.29
935.21	4279.14
935.519	4271.68
935.827	4284.11
936.135	4216.32
936.443	4178.58
936.751	4189.42
937.059	4165.02
937.367	4121.85
937.674	4147.16
937.982	4151.01
938.29	4139.03
938.597	4125.7
938.905	4067.85
939.213	4051.57
939.52	4065.13
939.827	4096.54
940.135	4071.91
940.442	4065.36
940.749	4014.97
941.056	4005.93
941.363	3953.05
941.67	3979.03
941.977	3949.88
942.284	3915.31
942.591	3903.33
942.898	3892.48
943.205	3905.14
943.511	3874.18
943.818	3835.76
944.125	3826.27
944.431	3820.85
944.738	3790.34
945.044	3776.33
945.35	3764.8
945.657	3764.12
945.963	3772.49
946.269	3732.03
946.575	3747.63
946.881	3655.65
947.187	3710.11
947.493	3672.15
947.799	3668.31
948.105	3618.82
948.41	3576.33
948.716	3562.55
949.022	3590.8
949.327	3584.47
949.633	3563
949.938	3573.62
950.244	3552.38
950.549	3530.23
950.854	3549.67
951.16	3534.98
951.465	3438.48
951.77	3489.56
952.075	3473.06
952.38	3441.42
952.685	3444.36
952.99	3395.09
953.294	3393.74
953.599	3388.77
953.904	3380.18
954.209	3352.38
954.513	3337.92
954.818	3293.63
955.122	3328.88
955.426	3301.76
955.731	3289.11
956.035	3250.69
956.339	3263.8
956.643	3250.69
956.948	3238.04
957.252	3230.58
957.556	3222.22
957.86	3199.39
958.163	3183.8
958.467	3183.35
958.771	3160.75
959.075	3106.29
959.378	3129.56
959.682	3109.9
959.985	3104.93
960.289	3138.6
960.592	3099.73
960.896	3097.7
961.199	3107.19
961.502	3080.07
961.805	3071.26
962.108	3093.86
962.411	3041.43
962.714	3028.78
963.017	2983.58
963.32	3001.21
963.623	2981.32
963.926	2984.26
964.228	2945.16
964.531	2956.24
964.833	2946.74
965.136	2923.02
965.438	2928.21
965.741	2908.78
966.043	2866.07
966.345	2853.19
966.648	2847.54
966.95	2852.51
967.252	2808.44
967.554	2797.37
967.856	2800.31
968.158	2748.78
968.46	2812.96
968.761	2742.46
969.063	2759.63
969.365	2726.41
969.666	2738.61
969.968	2739.52
970.269	2750.82
970.571	2694.55
970.872	2714.66
971.174	2702.68
971.475	2653.19
971.776	2680.31
972.077	2675.34
972.378	2687.99
972.679	2636.02
972.98	2628.79
973.281	2618.62
973.582	2623.36
973.883	2575.45
974.183	2593.53
974.484	2600.99
974.785	2592.63
975.085	2562.57
975.386	2579.97
975.686	2510.37
975.986	2505.63
976.287	2487.1
976.587	2501.56
976.887	2489.13
977.187	2512.86
977.487	2474.21
977.787	2425.18
978.087	2425.18
978.387	2445.74
978.687	2412.97
978.987	2459.3
979.286	2417.27
979.586	2425.4
979.885	2393.09
980.185	2428.57
980.484	2365.29
980.784	2324.84
981.083	2345.18
981.382	2302.47
981.682	2361
981.981	2329.81
982.28	2318.74
982.579	2278.97
982.878	2290.04
983.177	2275.58
983.475	2244.84
983.774	2276.71
984.073	2231.28
984.372	2243.49
984.67	2236.03
984.969	2209.81
985.267	2230.15
985.566	2226.31
985.864	2204.84
986.162	2204.17
986.461	2182.47
986.759	2200.78
987.057	2153.77
987.355	2147.9
987.653	2151.74
987.951	2127.56
988.249	2142.02
988.547	2142.02
988.844	2091.85
989.142	2121.46
989.44	2081
989.737	2099.31
990.035	2086.65
990.332	2058.63
990.63	2054.34
990.927	2065.64
991.224	2036.26
991.521	2041.46
991.819	2012.53
992.116	2025.64
992.413	2008.24
992.71	2005.75
993.006	1987.45
993.303	1986.09
993.6	1970.05
993.897	1935.7
994.193	1942.93
994.49	1942.7
994.787	1961.23
995.083	1954.23
995.379	1905.19
995.676	1904.96
995.972	1930.95
996.268	1894.57
996.565	1932.31
996.861	1838.98
997.157	1855.25
997.453	1867
997.749	1850.73
998.044	1813.67
998.34	1846.21
998.636	1850.73
998.932	1804.63
999.227	1796.27
999.523	1813.22
999.818	1804.4
1000.114	1807.57
1000.409	1758.08
1000.704	1769.83
1001	1750.84
1001.295	1756.27
1001.59	1725.31
1001.885	1744.29
1002.18	1728.25
1002.475	1706.1
1002.77	1693.9
1003.065	1690.28
1003.359	1702.48
1003.654	1686.44
1003.949	1688.02
1004.243	1671.07
1004.538	1650.73
1004.832	1649.83
1005.127	1625.42
1005.421	1615.93
1005.715	1599.89
1006.009	1647.12
1006.304	1595.82
1006.598	1591.98
1006.892	1558.08
1007.186	1584.52
1007.48	1557.85
1007.773	1569.83
1008.067	1553.79
1008.361	1553.33
1008.655	1552.2
1008.948	1542.94
1009.242	1548.82
1009.535	1521.47
1009.829	1508.82
1010.122	1500
1010.415	1478.53
1010.708	1474.69
1011.001	1488.48
1011.295	1485.09
1011.588	1433.34
1011.881	1432.43
1012.173	1433.11
1012.466	1433.79
1012.759	1411.87
1013.052	1404.19
1013.344	1431.98
1013.637	1388.14
1013.93	1395.15
1014.222	1393.57
1014.514	1401.7
1014.807	1385.88
1015.099	1395.37
1015.391	1368.71
1015.683	1333
1015.976	1357.86
1016.268	1353.11
1016.56	1338.88
1016.851	1318.54
1017.143	1303.4
1017.435	1307.47
1017.727	1303.4
1018.018	1278.54
1018.31	1256.17
1018.602	1259.33
1018.893	1262.5
1019.185	1256.39
1019.476	1218.2
1019.767	1214.59
1020.058	1210.75
1020.35	1217.3
1020.641	1238.99
1020.932	1206.9
1021.223	1205.32
1021.514	1220.01
1021.804	1202.84
1022.095	1172.1
1022.386	1182.95
1022.677	1167.36
1022.967	1165.77
1023.258	1127.36
1023.548	1120.58
1023.839	1144.31
1024.129	1135.72
1024.419	1112.89
1024.709	1131.65
1025	1107.7
1025.29	1098.21
1025.58	1068.38
1025.87	1058.66
1026.16	1061.37
1026.449	1075.83
1026.739	1060.01
1027.029	1052.78
1027.319	1069.28
1027.608	1059.34
1027.898	1029.28
1028.187	1033.35
1028.477	1024.99
1028.766	1016.63
1029.055	1032.22
1029.344	1030.64
1029.634	1023.41
1029.923	999.68
1030.212	999.23
1030.501	999.23
1030.79	971.88
1031.078	980.02
1031.367	932.56
1031.656	950.86
1031.945	968.27
1032.233	920.13
1032.522	958.1
1032.81	925.55
1033.099	918.1
1033.387	933.46
1033.675	898.89
1033.963	897.08
1034.251	920.81
1034.54	903.41
1034.828	891.43
1035.116	891.88
1035.403	895.27
1035.691	888.49
1035.979	876.97
1036.267	889.17
1036.554	879.91
1036.842	848.27
1037.129	870.41
1037.417	863.18
1037.704	827.03
1037.992	835.61
1038.279	809.63
1038.566	821.6
1038.853	821.6
1039.14	821.6
