Data from copper_heatsink_FLMS001491_048.txt Node
Date: Tue Feb 07 10:50:01 GMT 2017
User: dcchb
Spectrometer: FLMS00149
Trigger mode: 0
Integration Time (sec): 2.000000E-2
Scans to average: 10
Electric dark correction enabled: true
Nonlinearity correction enabled: false
Boxcar width: 0
XAxis mode: Wavelengths
Number of Pixels in Spectrum: 2048
>>>>>Begin Spectral Data<<<<<
341.393	-13.3
341.776	-13.3
342.16	-13.3
342.543	-66.64
342.927	-66.64
343.31	-58.28
343.693	-81.33
344.077	-60.31
344.46	-51.27
344.843	-47.2
345.226	-30.71
345.61	-34.77
345.993	-0.65
346.376	-11.72
346.759	2.29
347.142	32.12
347.525	32.12
347.908	59.91
348.291	66.92
348.674	77.31
349.057	105.56
349.44	146.69
349.823	136.97
350.206	150.31
350.588	219.68
350.971	222.62
351.354	244.54
351.737	246.8
352.119	246.35
352.502	284.09
352.884	308.72
353.267	291.09
353.65	313.69
354.032	324.09
354.414	300.81
354.797	328.38
355.179	348.27
355.562	337.19
355.944	352.79
356.326	343.52
356.709	366.8
357.091	359.11
357.473	346.46
357.855	358.89
358.238	356.4
358.62	364.09
359.002	360.7
359.384	377.87
359.766	369.74
360.148	348.27
360.53	357.98
360.912	356.18
361.294	343.75
361.676	350.53
362.057	334.03
362.439	369.06
362.821	362.96
363.203	343.52
363.584	356.63
363.966	344.43
364.348	335.61
364.729	332.22
365.111	366.57
365.493	344.2
365.874	353.47
366.256	331.77
366.637	346.91
367.019	330.64
367.4	323.86
367.781	326.35
368.163	341.26
368.544	343.97
368.925	362.73
369.306	341.49
369.688	355.5
370.069	348.49
370.45	339.23
370.831	350.98
371.212	329.06
371.593	347.36
371.974	346.69
372.355	334.26
372.736	340.81
373.117	329.29
373.498	339.23
373.879	361.37
374.26	319.79
374.641	334.71
375.021	338.78
375.402	342.17
375.783	374.71
376.163	381.49
376.544	376.52
376.925	360.24
377.305	338.1
377.686	367.02
378.066	360.7
378.447	372
378.827	376.74
379.208	372.67
379.588	364.09
379.968	374.03
380.349	384.65
380.729	387.36
381.109	372.45
381.489	371.54
381.87	371.32
382.25	385.1
382.63	379
383.01	375.84
383.39	374.48
383.77	390.98
384.15	393.24
384.53	408.61
384.91	396.18
385.29	384.88
385.67	414.25
386.049	402.96
386.429	373.58
386.809	384.88
387.189	438.43
387.568	415.38
387.948	405.44
388.328	406.12
388.707	407.7
389.087	414.48
389.466	400.02
389.846	429.17
390.225	404.54
390.605	427.36
390.984	407.25
391.363	411.54
391.743	413.58
392.122	451.99
392.501	436.17
392.881	435.72
393.26	443.86
393.639	459.23
394.018	449.73
394.397	452.22
394.776	471.2
395.155	444.08
395.534	445.21
395.913	463.74
396.292	463.74
396.671	453.8
397.05	452.67
397.429	471.65
397.808	470.07
398.186	480.92
398.565	449.96
398.944	490.41
399.323	468.72
399.701	449.73
400.08	480.02
400.458	460.36
400.837	495.83
401.215	501.03
401.594	487.93
401.972	486.12
402.351	484.76
402.729	485.44
403.107	481.82
403.486	498.55
403.864	512.11
404.242	499.9
404.62	538.77
404.999	502.84
405.377	508.94
405.755	495.83
406.133	523.63
406.511	543.29
406.889	528.15
407.267	547.58
407.645	530.86
408.023	550.52
408.401	548.94
408.779	561.82
409.156	548.49
409.534	555.49
409.912	575.15
410.29	571.31
410.667	591.88
411.045	577.64
411.422	580.8
411.8	583.52
412.178	570.63
412.555	608.15
412.933	611.76
413.31	607.47
413.687	620.8
414.065	619.9
414.442	601.37
414.819	647.92
415.197	609.73
415.574	610.41
415.951	650.41
416.328	645.44
416.705	651.99
417.082	678.88
417.46	670.29
417.837	653.57
418.214	664.42
418.591	692.89
418.967	664.42
419.344	688.37
419.721	675.04
420.098	692.44
420.475	692.44
420.852	691.99
421.228	700.12
421.605	729.95
421.982	703.96
422.358	721.59
422.735	716.85
423.111	731.53
423.488	740.8
423.864	754.58
424.241	750.29
424.617	773.57
424.994	757.75
425.37	763.62
425.746	762.27
426.123	776.96
426.499	795.26
426.875	794.36
427.251	808.82
427.627	778.54
428.003	807.24
428.379	807.46
428.756	816.96
429.132	832.55
429.507	818.76
429.883	830.97
430.259	864.19
430.635	866.9
431.011	859.89
431.387	871.19
431.763	886.78
432.138	883.17
432.514	885.43
432.89	884.52
433.265	920.91
433.641	916.16
434.016	911.42
434.392	940.57
434.767	941.7
435.143	957.52
435.518	965.88
435.894	993.22
436.269	982.6
436.644	987.8
437.02	999.1
437.395	1023.05
437.77	1020.79
438.145	1031.64
438.52	1017.18
438.895	1031.87
439.271	1042.03
439.646	1054.01
440.021	1056.95
440.395	1098.3
440.77	1074.35
441.145	1091.3
441.52	1114.58
441.895	1105.76
442.27	1108.25
442.645	1108.7
443.019	1132.65
443.394	1148.7
443.769	1175.82
444.143	1153.67
444.518	1179.66
444.892	1156.61
445.267	1178.98
445.641	1187.79
446.016	1191.64
446.39	1206.1
446.764	1205.65
447.139	1177.4
447.513	1241.8
447.887	1227.57
448.262	1238.87
448.636	1218.08
449.01	1242.26
449.384	1281.12
449.758	1281.12
450.132	1272.31
450.506	1273.22
450.88	1280.22
451.254	1307.56
451.628	1312.08
452.002	1348.69
452.376	1364.51
452.75	1344.17
453.123	1343.27
453.497	1373.33
453.871	1385.98
454.244	1421.01
454.618	1398.64
454.992	1427.34
455.365	1448.13
455.739	1462.36
456.112	1482.02
456.486	1511.17
456.859	1498.29
457.232	1524.96
457.606	1568.8
457.979	1539.42
458.352	1571.51
458.725	1585.52
459.099	1583.94
459.472	1644.96
459.845	1671.62
460.218	1653.77
460.591	1675.24
460.964	1659.87
461.337	1714.56
461.71	1719.76
462.083	1770.83
462.456	1721.34
462.829	1773.31
463.201	1808.79
463.574	1788.23
463.947	1837.04
464.32	1869.58
464.692	1868.45
465.065	1913.65
465.438	1938.73
465.81	1946.64
466.183	1940.54
466.555	2012.86
466.928	1997.94
467.3	2060.09
467.672	2030.71
468.045	2113.42
468.417	2097.6
468.789	2100.99
469.161	2153.42
469.534	2167.65
469.906	2235
470.278	2253.53
470.65	2292.62
471.022	2293.3
471.394	2369.46
471.766	2338.27
472.138	2405.16
472.51	2424.37
472.882	2444.71
473.253	2512.05
473.625	2538.94
473.997	2600.86
474.369	2610.13
474.74	2648.77
475.112	2663.91
475.484	2747.07
475.855	2750.69
476.227	2794.53
476.598	2858.48
476.97	2892.61
477.341	2965.83
477.713	2971.48
478.084	3038.14
478.455	3111.81
478.827	3169.21
479.198	3220.51
479.569	3239.27
479.94	3332.6
480.311	3349.54
480.682	3392.03
481.053	3496.43
481.424	3544.79
481.795	3573.27
482.166	3627.05
482.537	3712.7
482.908	3749.76
483.279	3811
483.65	3910.66
484.021	3951.56
484.391	4014.16
484.762	4058.68
485.133	4100.03
485.503	4124.44
485.874	4248.73
486.244	4303.87
486.615	4397.88
486.985	4379.57
487.356	4510.64
487.726	4538.44
488.097	4669.74
488.467	4618.21
488.837	4813.24
489.207	4844.19
489.578	4891.43
489.948	4982.72
490.318	5055.94
490.688	5110.85
491.058	5123.51
491.428	5255.71
491.798	5301.36
492.168	5428.59
492.538	5454.8
492.908	5520.34
493.278	5523.5
493.648	5609.6
494.017	5697.96
494.387	5754.68
494.757	5814.34
495.126	5901.79
495.496	5965.97
495.866	5968.91
496.235	6027.21
496.605	6115.35
496.974	6201.22
497.344	6223.37
497.713	6267.43
498.082	6355.79
498.452	6384.49
498.821	6500.2
499.19	6513.3
499.559	6606.63
499.928	6710.36
500.298	6747.65
500.667	6780.87
501.036	6803.47
501.405	6938.38
501.774	6931.82
502.143	7114.64
502.512	7063.8
502.88	7135.43
503.249	7198.26
503.618	7283.45
503.987	7274.64
504.356	7315.54
504.724	7407.74
505.093	7453.17
505.462	7549.89
505.83	7616.1
506.199	7728.86
506.567	7771.58
506.936	7816.55
507.304	7891.8
507.672	8020.61
508.041	8048.4
508.409	8102.87
508.777	8195.97
509.145	8286.14
509.514	8251.79
509.882	8348.06
510.25	8430.09
510.618	8527.26
510.986	8603.19
511.354	8658.11
511.722	8819.01
512.09	8905.33
512.458	8890.19
512.826	9019.68
513.193	9119.11
513.561	9117.98
513.929	9250.63
514.297	9346.45
514.664	9445.2
515.032	9511.19
515.4	9537.4
515.767	9652.43
516.135	9753.22
516.502	9695.82
516.869	9877.51
517.237	9987.79
517.604	10010.16
517.972	10164.28
518.339	10231.17
518.706	10288.57
519.073	10416.93
519.44	10482.01
519.808	10661.89
520.175	10600.43
520.542	10904.15
520.909	10884.94
521.276	10960.42
521.643	11143.46
522.009	11210.35
522.376	11231.15
522.743	11439.05
523.11	11474.53
523.477	11692.83
523.843	11775.99
524.21	11908.87
524.577	12058.92
524.943	12089.88
525.31	12258.01
525.676	12382.53
526.043	12470.21
526.409	12575.97
526.776	12793.59
527.142	12771.9
527.508	12869.07
527.874	13073.36
528.241	13180.92
528.607	13183.18
528.973	13417.08
529.339	13388.15
529.705	13569.39
530.071	13690.74
530.437	13853
530.803	13962.37
531.169	14085.99
531.535	14100
531.901	14200.33
532.267	14304.96
532.632	14478.07
532.998	14506.77
533.364	14680.77
533.73	14796.7
534.095	14932.52
534.461	14921.22
534.826	15147.2
535.192	15270.14
535.557	15364.6
535.923	15407.76
536.288	15521.2
536.653	15609.79
537.019	15692.27
537.384	15847.3
537.749	15881.19
538.114	15941.3
538.479	16181.3
538.845	16247.28
539.21	16199.83
539.575	16296.1
539.94	16457.9
540.305	16627.84
540.67	16730.44
541.034	16780.38
541.399	16854.27
541.764	17000.03
542.129	17098.56
542.494	17308.73
542.858	17396.18
543.223	17416.75
543.587	17730.41
543.952	17656.06
544.316	17780.35
544.681	17720.69
545.045	18055.6
545.41	18179.44
545.774	18331.3
546.138	18292.2
546.503	18405.65
546.867	18576.04
547.231	18731.97
547.595	18867.1
547.959	19022.58
548.324	19190.71
548.688	19228.22
549.052	19441.78
549.416	19544.6
549.779	19675.9
550.143	19701.43
550.507	20034.3
550.871	20142.78
551.235	20103.68
551.599	20477.91
551.962	20600.39
552.326	20695.08
552.689	20949.99
553.053	20995.86
553.417	21167.61
553.78	21547.26
554.143	21486.47
554.507	21654.6
554.87	21936.17
555.234	22283.06
555.597	22193.57
555.96	22446.67
556.323	22656.38
556.686	22790.62
557.05	23115.35
557.413	23377.27
557.776	23516.25
558.139	23687.54
558.502	23875.11
558.865	24104.48
559.228	24283.46
559.59	24585.6
559.953	24774.52
560.316	25136.09
560.679	25331.34
561.041	25654.72
561.404	25925.22
561.767	26118.21
562.129	26263.74
562.492	26747.8
562.854	26873.45
563.217	27132.87
563.579	27421.23
563.941	27760.65
564.304	27847.21
564.666	28199.74
565.028	28533.52
565.39	28788.65
565.753	29051.47
566.115	29238.36
566.477	29630.89
566.839	29857.32
567.201	30235.62
567.563	30489.4
567.925	30773
568.287	31073.11
568.648	31307.45
569.01	31743.83
569.372	32208.67
569.734	32331.61
570.095	32663.58
570.457	33010.46
570.819	33255.43
571.18	33469.2
571.542	33861.06
571.903	33948.29
572.265	34343.53
572.626	34594.82
572.987	34964.31
573.349	35311.42
573.71	35664.18
574.071	35837.28
574.432	36103.03
574.794	36695.33
575.155	36813.07
575.516	36832.51
575.877	37265.26
576.238	37455.54
576.599	37952.7
576.96	38178.69
577.32	38494.38
577.681	38694.38
578.042	38913.13
578.403	39116.51
578.763	39535.49
579.124	39682.15
579.485	39965.76
579.845	40262.25
580.206	40425.18
580.566	40665.63
580.927	40899.97
581.287	41354.42
581.648	41484.36
582.008	41633.74
582.368	41774.75
582.728	41967.74
583.089	42146.04
583.449	42232.82
583.809	42606.59
584.169	42849.07
584.529	42968.84
584.889	43374.03
585.249	43369.74
585.609	43531.76
585.969	43880.68
586.329	43772.89
586.688	44017.18
587.048	44236.15
587.408	44217.85
587.768	44407.22
588.127	44745.29
588.487	44797.04
588.846	45243.81
589.206	45189.57
589.565	45419.85
589.925	45608.77
590.284	45623.91
590.643	45910.23
591.003	46083.79
591.362	46142.09
591.721	46453.5
592.08	46496.43
592.44	46811.45
592.799	46996.53
593.158	46949.98
593.517	47107.49
593.876	47322.4
594.235	47390.65
594.593	47613.92
594.952	47699.57
595.311	47768.26
595.67	47858.43
596.029	48192.66
596.387	48553.33
596.746	48464.06
597.104	48489.83
597.463	48639.88
597.822	48910.83
598.18	48944.96
598.538	49046.2
598.897	49389.69
599.255	49066.76
599.613	49855.67
599.972	49739.96
600.33	49986.74
600.688	49939.05
601.046	50143.34
601.404	50360.51
601.762	50403.9
602.12	50606.38
602.478	50746.72
602.836	50864.68
603.194	50791.46
603.552	50933.15
603.91	50934.06
604.268	51259.92
604.625	51300.6
604.983	51384.44
605.341	51402.52
605.698	51717.99
606.056	51856.07
606.413	51900.81
606.771	52085.44
607.128	52258.09
607.485	52285.43
607.843	52362.27
608.2	52657.17
608.557	52827.57
608.914	52813.1
609.272	53017.17
609.629	53084.73
609.986	53205.86
610.343	53076.15
610.7	53438.17
611.057	53436.36
611.414	53574.66
611.771	53634.32
612.127	53945.28
612.484	53949.12
612.841	54110.7
613.198	54056.91
613.554	54183.91
613.911	54410.8
614.267	54540.06
614.624	54524.47
614.98	54638.59
615.337	54856.21
615.693	54851.92
616.05	54943.44
616.406	55217.56
616.762	55170.56
617.118	55177.33
617.475	55234.06
617.831	55351.57
618.187	55436.31
618.543	55600.15
618.899	55701.39
619.255	55812.57
619.611	55861.84
619.967	56010.53
620.323	56009.85
620.678	56052.11
621.034	56012.79
621.39	56163.98
621.746	56104.99
622.101	56499.11
622.457	56320.36
622.812	56496.4
623.168	56629.5
623.523	56647.13
623.879	56714.02
624.234	56690.06
624.589	56824.07
624.945	56855.93
625.3	56959.43
625.655	56972.54
626.01	57024.74
626.365	57125.53
626.72	57150.84
627.075	57137.51
627.43	57163.04
627.785	57219.99
628.14	57336.83
628.495	57410.72
628.85	57449.14
629.205	57385.86
629.559	57606.42
629.914	57473.09
630.269	57538.18
630.623	57512.87
630.978	57502.25
631.332	57676.93
631.687	57825.85
632.041	57709.92
632.396	57781.56
632.75	57759.64
633.104	57847.77
633.459	57818.17
633.813	57776.59
634.167	57921.67
634.521	57881.44
634.875	58012.06
635.229	58041.21
635.583	57867.66
635.937	57936.36
636.291	57944.04
636.645	58015.9
636.999	57974.1
637.352	58036.24
637.706	57968
638.06	58099.07
638.413	58103.59
638.767	58048.22
639.121	58159.18
639.474	58041.44
639.828	58137.71
640.181	58229.46
640.534	58227.2
640.888	58179.06
641.241	58162.79
641.594	58236.69
641.947	58349.23
642.301	58282.11
642.654	58372.05
643.007	58398.04
643.36	58492.5
643.713	58402.56
644.066	58511.26
644.419	58436.23
644.771	58421.09
645.124	58244.6
645.477	58252.73
645.83	58073.53
646.182	57975.68
646.535	57831.28
646.888	57896.13
647.24	57756.25
647.593	57930.93
647.945	57939.3
648.298	57806.19
648.65	57855.23
649.002	57719.64
649.355	57925.51
649.707	57973.19
650.059	58244.6
650.411	58551.71
650.763	58560.97
651.115	58880.74
651.467	58788.54
651.819	58852.27
652.171	58767.75
652.523	58794.64
652.875	58807.3
653.227	58777.92
653.578	58981.75
653.93	58867.41
654.282	58793.51
654.633	58787.64
654.985	58927.29
655.337	58995.54
655.688	58891.14
656.039	59098.14
656.391	58896.11
656.742	58979.49
657.094	59036.44
657.445	59226.72
657.796	59193.95
658.147	59083.67
658.498	59090.45
658.849	59177.23
659.2	59100.17
659.551	59066.05
659.902	59265.14
660.253	59135.65
660.604	59207.96
660.955	59184.91
661.306	59306.27
661.656	59319.82
662.007	59340.39
662.358	59338.58
662.708	59362.99
663.059	59359.6
663.409	59247.51
663.76	59445.92
664.11	59410.22
664.461	59466.04
664.811	59495.41
665.161	59416.32
665.511	59455.19
665.862	59545.13
666.212	59646.82
666.562	59661.51
666.912	59681.62
667.262	59687.27
667.612	59729.53
667.962	59720.94
668.312	59758.23
668.662	59874.16
669.011	59960.94
669.361	59877.78
669.711	59930.88
670.06	59955.97
670.41	59906.25
670.76	59913.03
671.109	59989.86
671.459	59993.93
671.808	59936.76
672.157	60022.4
672.507	59926.59
672.856	59901.73
673.205	60017.66
673.554	60085.91
673.904	60080.03
674.253	60158.45
674.602	60158.67
674.951	59846.59
675.3	59657.67
675.649	60152.34
675.998	60192.12
676.346	60240.48
676.695	60360.7
677.044	60144.44
677.393	60244.77
677.741	60254.04
678.09	60239.57
678.438	60172.91
678.787	60235.96
679.135	60193.47
679.484	60094.72
679.832	60216.07
680.181	60153.7
680.529	60243.87
680.877	60254.26
681.225	60222.63
681.573	60317.99
681.922	60242.51
682.27	60192.12
682.618	60300.82
682.966	60169.97
683.314	60296.52
683.661	60208.16
684.009	60112.8
684.357	60122.52
684.705	60140.82
685.053	60239.35
685.4	60189.86
685.748	60044.1
686.095	60070.54
686.443	60038
686.79	60093.14
687.138	60138.33
687.485	60103.98
687.832	60088.17
688.18	60092.69
688.527	59919.81
688.874	59939.7
689.221	59911.9
689.568	59851.34
689.915	59915.74
690.262	59917.32
690.609	59833.03
690.956	59779.02
691.303	59781.73
691.65	59651.79
691.997	59706.71
692.344	59568.41
692.69	59671.45
693.037	59710.32
693.383	59503.77
693.73	59632.81
694.077	59491.57
694.423	59478.69
694.769	59406.15
695.116	59368.64
695.462	59385.36
695.808	59329.32
696.155	59395.53
696.501	59296.1
696.847	59310.79
697.193	59153.73
697.539	59285.48
697.885	59028.31
698.231	58977.91
698.577	59085.93
698.923	59085.25
699.269	58940.63
699.614	58889.1
699.96	58804.13
700.306	58817.01
700.651	58781.08
700.997	58849.33
701.342	58762.32
701.688	58761.65
702.033	58762.32
702.379	58665.15
702.724	58655.44
703.069	58679.16
703.415	58492.73
703.76	58501.09
704.105	58505.16
704.45	58417.7
704.795	58311.94
705.14	58355.56
705.485	58324.14
705.83	58167.31
706.175	58196.46
706.52	58166.41
706.865	58169.8
707.209	58203.7
707.554	58021.78
707.899	58148.56
708.243	58056.13
708.588	58070.59
708.932	57898.39
709.277	57866.3
709.621	57888.22
709.966	57836.47
710.31	57906.98
710.654	57666.99
710.998	57715.12
711.342	57738.17
711.687	57733.88
712.031	57667.89
712.375	57502.7
712.719	57568.46
713.063	57561.68
713.407	57638.51
713.75	57562.13
714.094	57533.66
714.438	57427.22
714.782	57501.57
715.125	57437.84
715.469	57483.04
715.812	57366.2
716.156	57298.18
716.499	57264.51
716.843	57346.54
717.186	57178.64
717.53	57328.46
717.873	57326.2
718.216	57248.69
718.559	57238.75
718.902	57093.67
719.246	57226.77
719.589	57092.31
719.932	57028.81
720.275	57014.35
720.617	57017.06
720.96	56971.64
721.303	56951.98
721.646	56906.78
721.989	56849.61
722.331	56990.39
722.674	56842.15
723.016	56972.99
723.359	56852.77
723.701	56974.12
724.044	56762.83
724.386	56799.89
724.729	56864.52
725.071	56647.58
725.413	56734.58
725.755	56724.64
726.097	56690.06
726.439	56571.65
726.782	56629.5
727.124	56734.58
727.465	56571.2
727.807	56568.26
728.149	56559.45
728.491	56455.04
728.833	56639.22
729.175	56471.54
729.516	56534.36
729.858	56413.23
730.199	56638.76
730.541	56473.35
730.882	56410.75
731.224	56437.64
731.565	56288.94
731.906	56438.09
732.248	56425.21
732.589	56279.9
732.93	56184.31
733.271	56178.44
733.612	56219.34
733.953	56315.38
734.294	56159.46
734.635	56199.68
734.976	56183.64
735.317	56091.66
735.658	56034.71
735.999	56068.84
736.339	56046.69
736.68	56183.41
737.021	56009.85
737.361	56033.13
737.702	56072.9
738.042	55977.54
738.383	55884.66
738.723	56058.89
739.063	55969.86
739.404	56021.15
739.744	56035.62
740.084	55937.77
740.424	55989.52
740.764	55741.16
741.104	56011.44
741.444	55928.73
741.784	55829.29
742.124	55852.57
742.464	55865.23
742.804	55771.9
743.143	55622.75
743.483	55648.96
743.823	55551.11
744.162	55592.46
744.502	55650.54
744.841	55447.38
745.181	55661.39
745.52	55542.97
745.86	55678.11
746.199	55614.61
746.538	55683.31
746.877	55633.59
747.216	55675.85
747.556	55578.45
747.895	55635.85
748.234	55400.61
748.573	55407.16
748.911	55344.56
749.25	55307.27
749.589	55124
749.928	55182.31
750.267	55234.06
750.605	55171.01
750.944	55133.95
751.283	55148.86
751.621	55216.88
751.96	54927.4
752.298	55070.67
752.636	55069.31
752.975	55005.81
753.313	54995.19
753.651	55034.06
753.989	54806.27
754.327	54771.02
754.666	54726.27
755.004	54738.7
755.342	54813.73
755.679	54704.8
756.017	54552.49
756.355	54629.55
756.693	54508.43
757.031	54527.86
757.368	54384.36
757.706	54389.33
758.044	54279.5
758.381	54331.93
758.719	54247.19
759.056	54265.27
759.394	54241.99
759.731	54091.04
760.068	54051.94
760.405	53844.49
760.743	53780.99
761.08	53852.4
761.417	53628.9
761.754	53595.68
762.091	53558.17
762.428	53487.89
762.765	53448.57
763.102	53497.38
763.438	53330.38
763.775	53189.14
764.112	53221.23
764.449	53124.96
764.785	52958.18
765.122	52910.73
765.458	52870.95
765.795	52763.16
766.131	52630.51
766.467	52617.4
766.804	52516.39
767.14	52383.74
767.476	52398.88
767.812	52341.25
768.148	52517.74
768.485	52277.52
768.821	52081.6
769.157	52049.51
769.492	51898.55
769.828	51925.22
770.164	51797.54
770.5	51685.45
770.836	51655.17
771.171	51399.13
771.507	51339.02
771.842	51224.44
772.178	51202.07
772.513	51118.01
772.849	51060.61
773.184	51002.53
773.519	50997.78
773.855	50918.69
774.19	50770.44
774.525	50667.85
774.86	50667.62
775.195	50474.63
775.53	50342.66
775.865	50181.76
776.2	50068.32
776.535	49908.55
776.87	49848.66
777.205	49836.23
777.539	49632.17
777.874	49748.32
778.209	49274.21
778.543	49250.71
778.878	49091.17
779.212	49104.95
779.547	48949.02
779.881	49022.69
780.215	48759.42
780.55	48835.35
780.884	48643.49
781.218	48642.59
781.552	48682.14
781.886	48488.02
782.22	48242.83
782.554	48095.03
782.888	47734.82
783.222	47849.39
783.556	47635.61
783.889	47577.53
784.223	47203.53
784.557	47337.99
784.89	47385
785.224	47108.62
785.557	47006.25
785.891	47031.33
786.224	46855.52
786.558	46838.12
786.891	46325.14
787.224	46340.05
787.557	46252.82
787.891	46143.9
788.224	46141.41
788.557	46130.34
788.89	46065.48
789.223	46089.44
789.556	45732.61
789.888	45561.54
790.221	45434.77
790.554	45253.08
790.887	45340.76
791.219	45216.69
791.552	45162
791.884	44900.99
792.217	44832.07
792.549	44520.67
792.882	44329.48
793.214	44441.8
793.546	44338.52
793.879	44148.7
794.211	43875.03
794.543	44040.45
794.875	43833.23
795.207	44069.15
795.539	43696.51
795.871	43654.7
796.203	43596.62
796.535	43373.13
796.867	43264.2
797.198	43116.86
797.53	43112.57
797.862	42828.96
798.193	42977.43
798.525	42787.6
798.856	42873.03
799.188	42413.15
799.519	42354.39
799.85	42095.87
800.182	42308.07
800.513	42308.07
800.844	41618.59
801.175	42007.29
801.506	41791.25
801.837	41649.1
802.168	41530.91
802.499	41424.93
802.83	41306.29
803.161	41212.73
803.491	41221.54
803.822	41197.59
804.153	40942.45
804.483	40664.27
804.814	40693.65
805.145	40788.79
805.475	40777.71
805.805	40616.59
806.136	40497.95
806.466	40408.91
806.796	40380.44
807.126	40314.45
807.457	40169.82
807.787	40290.49
808.117	40142.48
808.447	39960.11
808.777	40106.54
809.107	40017.06
809.436	39770.06
809.766	39561.47
810.096	39570.51
810.426	39275.61
810.755	39536.84
811.085	39139.79
811.414	39304.98
811.744	38875.16
812.073	39004.88
812.403	38950.19
812.732	38604.44
813.061	38516.08
813.39	38638.56
813.719	38615.28
814.049	38685.56
814.378	38470.2
814.707	38394.72
815.036	38273.6
815.365	38216.88
815.693	38080.61
816.022	38147.5
816.351	37896.88
816.68	37903.21
817.008	37968.97
817.337	37505.26
817.665	37513.39
817.994	37726.95
818.322	37593.39
818.651	37306.84
818.979	37239.05
819.307	37342.78
819.636	37239.05
819.964	37092.61
820.292	37211.25
820.62	37164.7
820.948	37053.29
821.276	37130.58
821.604	37044.48
821.932	37145.04
822.259	37179.62
822.587	37152.95
822.915	37036.57
823.243	37298.71
823.57	37156.79
823.898	37182.78
824.225	37042.44
824.553	37199.95
824.88	37170.58
825.207	37365.83
825.535	37150.46
825.862	37452.83
826.189	37252.38
826.516	37422.77
826.843	37390.01
827.17	37407.18
827.497	37389.55
827.824	37396.11
828.151	37518.82
828.478	37445.37
828.805	37763.33
829.131	37536.89
829.458	37587.74
829.785	37185.27
830.111	37167.64
830.438	37472.04
830.764	37359.05
831.09	37370.35
831.417	37230.46
831.743	37356.79
832.069	37274.3
832.395	37239.73
832.722	37406.95
833.048	37283.12
833.374	37212.38
833.7	37100.52
834.026	37450.12
834.351	37377.12
834.677	37204.02
835.003	37313.4
835.329	37250.35
835.654	37312.95
835.98	37155.21
836.306	37075.44
836.631	36919.96
836.956	37037.02
837.282	37018.49
837.607	36968.32
837.932	36793.19
838.258	36959.96
838.583	37042.22
838.908	36906.85
839.233	36838.83
839.558	36808.1
839.883	36674.54
840.208	36812.17
840.533	36553.19
840.858	36613.53
841.182	36641.78
841.507	36696.46
841.832	36521.33
842.156	36512.97
842.481	36433.87
842.805	36280.88
843.13	36172.41
843.454	36132.64
843.778	36067.78
844.103	35915.92
844.427	35762.93
844.751	35945.98
845.075	35684.51
845.399	35651.07
845.723	35527.23
846.047	35549.38
846.371	35353
846.695	35395.93
847.019	34988.26
847.343	34771.32
847.666	34612.23
847.99	34704.88
848.313	34759.57
848.637	34573.81
848.96	34381.72
849.284	34421.5
849.607	34078.45
849.931	34054.95
850.254	33857.67
850.577	33675.98
850.9	33555.3
851.223	33596.43
851.546	33305.14
851.869	33094.75
852.192	33343.56
852.515	33147.63
852.838	33015.21
853.161	33132.94
853.483	32824.93
853.806	32607.53
854.129	32692.5
854.451	32391.72
854.774	32420.64
855.096	32142.23
855.419	32334.77
855.741	32108.79
856.063	32060.43
856.385	31931.17
856.708	31798.29
857.03	31678.52
857.352	31815.24
857.674	31786.31
857.996	31550.84
858.318	31403.27
858.64	31492.99
858.961	31363.95
859.283	31252.09
859.605	31086.22
859.926	31121.24
860.248	31083.28
860.57	31019.1
860.891	31097.74
861.212	30940.68
861.534	30945.2
861.855	30746.34
862.176	30825.88
862.498	30919.67
862.819	30821.14
863.14	30747.47
863.461	30567.13
863.782	30360.13
864.103	30505.67
864.424	30361.26
864.745	30406.01
865.065	30222.51
865.386	30358.55
865.707	30258.89
866.027	30267.71
866.348	30067.94
866.668	30158.11
866.989	30178.44
867.309	29956.3
867.63	29900.71
867.95	29974.16
868.27	29809.41
868.59	29884.44
868.91	29861.39
869.23	29778.45
869.55	29566.71
869.87	29908.39
870.19	29707.27
870.51	29835.85
870.83	29715.63
871.15	29562.41
871.469	29564.9
871.789	29616.42
872.109	29578.46
872.428	29342.31
872.748	29489.87
873.067	29342.31
873.386	29471.57
873.706	29371.69
874.025	29325.36
874.344	29246.04
874.663	29217.34
874.982	29144.8
875.301	29099.15
875.62	29022.77
875.939	29168.07
876.258	29001.3
876.577	28968.08
876.896	28971.7
877.214	28919.49
877.533	29025.71
877.852	28986.84
878.17	28985.03
878.489	28911.36
878.807	28894.64
879.125	28744.58
879.444	28777.58
879.762	28658.48
880.08	28683.57
880.398	28448.32
880.716	28599.95
881.034	28383.46
881.352	28418.49
881.67	28417.81
881.988	28412.39
882.306	28411.26
882.624	28408.77
882.941	28261.88
883.259	28124.49
883.577	28114.32
883.894	28105.05
884.212	28088.56
884.529	28071.61
884.846	27817.6
885.164	27799.75
885.481	27819.64
885.798	27884.72
886.115	27700.77
886.432	27679.53
886.75	27592.98
887.067	27488.35
887.383	27372.42
887.7	27510.27
888.017	27304.85
888.334	27275.02
888.651	27416.48
888.967	27330.16
889.284	27110.95
889.6	27059.43
889.917	26843.84
890.233	26869.38
890.55	26741.92
890.866	26858.31
891.182	26724.75
891.498	26628.48
891.815	26654.47
892.131	26384.65
892.447	26432.33
892.763	26514.59
893.079	26208.38
893.395	26320.47
893.71	26115.05
894.026	26193.01
894.342	25981.27
894.657	25834.15
894.973	25845.45
895.289	25874.15
895.604	25813.13
895.92	25558
896.235	25532.24
896.55	25493.37
896.865	25545.35
897.181	25412.69
897.496	25501.28
897.811	25246.6
898.126	25166.15
898.441	25226.71
898.756	25145.81
899.071	25139.25
899.386	25024.68
899.7	24722.99
900.015	24759.38
900.33	24460.85
900.644	24547.41
900.959	24483.68
901.273	24292.27
901.588	24255.66
901.902	24221.54
902.216	24104.48
902.531	24145.38
902.845	24029.45
903.159	23899.51
903.473	23843.92
903.787	23809.8
904.101	23575.45
904.415	23657.71
904.729	23654.77
905.042	23553.31
905.356	23491.84
905.67	23416.14
905.984	23382.46
906.297	23195.58
906.611	23079.65
906.924	23021.34
907.237	22930.5
907.551	22847.34
907.864	22782.48
908.177	22805.98
908.491	22778.19
908.804	22457.97
909.117	22585.65
909.43	22534.35
909.743	22390.63
910.056	22236.73
910.368	22217.98
910.681	22014.59
910.994	22010.52
911.307	21912.9
911.619	21743.86
911.932	21811.66
912.244	21572.12
912.557	21600.59
912.869	21421.16
913.181	21427.26
913.494	21243.31
913.806	20993.15
914.118	21088.74
914.43	21116.54
914.742	21001.96
915.054	20991.11
915.366	20857.56
915.678	20802.87
915.99	20671.12
916.302	20609.66
916.613	20537.12
916.925	20421.86
917.236	20375.31
917.548	20289.44
917.859	20302.77
918.171	20183.68
918.482	20164.24
918.794	20003.8
919.105	20023.23
919.416	19893.52
919.727	19778.27
920.038	19752.73
920.349	19576.46
920.66	19563.58
920.971	19655.78
921.282	19469.35
921.593	19303.93
921.903	19106.64
922.214	19076.81
922.525	18993.43
922.835	18981
923.146	18890.83
923.456	18851.28
923.767	18728.58
924.077	18835.69
924.387	18680.89
924.697	18669.37
925.008	18636.15
925.318	18489.71
925.628	18386.44
925.938	18275.48
926.248	18004.75
926.558	18063.51
926.867	17949.39
927.177	17938.54
927.487	17894.02
927.796	17881.59
928.106	17754.82
928.416	17648.83
928.725	17626.01
929.034	17520.02
929.344	17442.51
929.653	17488.61
929.962	17387.14
930.271	17283.64
930.581	17223.98
930.89	17103.08
931.199	17049.3
931.508	17000.94
931.817	16981.28
932.125	16912.8
932.434	16825.57
932.743	16658.8
933.051	16638.46
933.36	16799.13
933.669	16544.23
933.977	16428.97
934.286	16434.62
934.594	16493.38
934.902	16238.7
935.21	16258.13
935.519	16256.78
935.827	16145.59
936.135	16049.78
936.443	15954.64
936.751	15948.76
937.059	15761.42
937.367	15767.75
937.674	15735.66
937.982	15652.95
938.29	15572.95
938.597	15594.19
938.905	15300.19
939.213	15240.98
939.52	15237.59
939.827	15177.26
940.135	15141.78
940.442	14951.95
940.749	15039.18
941.056	15110.59
941.363	14885.96
941.67	14936.36
941.977	14892.74
942.284	14643.71
942.591	14604.16
942.898	14493.88
943.205	14454.79
943.511	14420.89
943.818	14360.1
944.125	14335.02
944.431	14225.64
944.738	14209.6
945.044	14172.54
945.35	14083.95
945.657	14060.22
945.963	14034.91
946.269	14034.24
946.575	13892.32
946.881	13740.68
947.187	13730.97
947.493	13640.35
947.799	13644.19
948.105	13717.86
948.41	13556.28
948.716	13453.46
949.022	13457.98
949.327	13373.46
949.633	13319.9
949.938	13287.14
950.244	13276.97
950.549	13170.53
950.854	13054.83
951.16	12984.77
951.465	12989.29
951.77	12947.03
952.075	12825.91
952.38	12720.15
952.685	12718.79
952.99	12584.33
953.294	12588.17
953.599	12569.87
953.904	12492.58
954.209	12462.53
954.513	12330.1
954.818	12277.9
955.122	12305.92
955.426	12179.37
955.731	12177.11
956.035	12072.93
956.339	12023.67
956.643	12094.85
956.948	11968.98
957.252	11956.32
957.556	11908.19
957.86	11707.29
958.163	11844.01
958.467	11728.53
958.771	11633.17
959.075	11602.44
959.378	11529.89
959.682	11578.03
959.985	11428.2
960.289	11359.28
960.592	11257.81
960.896	11301.2
961.199	11308.21
961.502	11223.91
961.805	11136.01
962.108	11150.02
962.411	11179.17
962.714	11120.64
963.017	11004.94
963.32	11036.8
963.623	10950.02
963.926	10963.58
964.228	10775.11
964.531	10795.9
964.833	10689.46
965.136	10595.91
965.438	10602.01
965.741	10526.76
966.043	10518.62
966.345	10467.78
966.648	10411.05
966.95	10389.81
967.252	10333.32
967.554	10287.89
967.856	10265.3
968.158	10219.65
968.46	10167.9
968.761	10147.33
969.063	10111.17
969.365	10030.27
969.666	10009.93
969.968	9880.67
970.269	9866.89
970.571	9826.21
970.872	9821.01
971.174	9727
971.475	9676.61
971.776	9642.26
972.077	9623.05
972.378	9626.67
972.679	9602.26
972.98	9529.04
973.281	9438.65
973.582	9428.71
973.883	9310.97
974.183	9340.35
974.484	9347.58
974.785	9291.54
975.085	9302.38
975.386	9207.24
975.686	9149.39
975.986	9105.78
976.287	9133.12
976.587	8987.59
976.887	8964.76
977.187	8948.95
977.487	9011.09
977.787	8828.72
978.087	8833.92
978.387	8793.92
978.687	8763.87
978.987	8735.17
979.286	8609.97
979.586	8619.24
979.885	8601.16
980.185	8521.61
980.484	8428.73
980.784	8488.39
981.083	8394.84
981.382	8408.62
981.682	8414.95
981.981	8347.38
982.28	8284.56
982.579	8235.52
982.878	8249.08
983.177	8192.13
983.475	8210.66
983.774	8120.04
984.073	8085.47
984.372	7980.16
984.67	7947.39
984.969	7992.59
985.267	7992.13
985.566	7871.01
985.864	7824.68
986.162	7767.28
986.461	7778.81
986.759	7743.55
987.057	7701.97
987.355	7645.93
987.653	7681.18
987.951	7586.72
988.249	7495.88
988.547	7457.23
988.844	7425.82
989.142	7453.62
989.44	7405.48
989.737	7264.02
990.035	7278.71
990.332	7221.08
990.63	7193.29
990.927	7207.75
991.224	7219.05
991.521	7151.48
991.819	7141.08
992.116	7057.7
992.413	7059.28
992.71	6960.3
993.006	6944.7
993.303	6978.83
993.6	6883.92
993.897	6834.88
994.193	6821.32
994.49	6769.34
994.787	6798.72
995.083	6732.96
995.379	6731.38
995.676	6722.11
995.972	6627.65
996.268	6603.02
996.565	6555.56
996.861	6482.34
997.157	6487.09
997.453	6439.41
997.749	6458.16
998.044	6407.09
998.34	6358.28
998.636	6353.99
998.932	6319.18
999.227	6251.84
999.523	6221.56
999.818	6172.3
1000.114	6127.55
1000.409	6111.28
1000.704	6128.23
1001	6102.92
1001.295	6015.46
1001.59	5991.28
1001.885	5998.74
1002.18	5953.32
1002.475	5899.31
1002.77	5836.03
1003.065	5859.76
1003.359	5834.45
1003.654	5738.63
1003.949	5712.65
1004.243	5705.19
1004.538	5694.57
1004.832	5649.15
1005.127	5578.64
1005.421	5565.08
1005.715	5501.8
1006.009	5510.17
1006.304	5451.41
1006.598	5443.73
1006.892	5435.14
1007.186	5332.32
1007.48	5309.72
1007.773	5259.78
1008.067	5292.77
1008.361	5205.32
1008.655	5200.8
1008.948	5132.55
1009.242	5152.66
1009.535	5074.02
1009.829	5049.39
1010.122	4958.54
1010.415	4988.82
1010.708	4879.67
1011.001	4888.94
1011.295	4876.28
1011.588	4918.09
1011.881	4822.5
1012.173	4829.05
1012.466	4748.38
1012.759	4676.06
1013.052	4680.58
1013.344	4645.56
1013.637	4652.11
1013.93	4591.09
1014.222	4558.78
1014.514	4512.45
1014.807	4520.36
1015.099	4488.05
1015.391	4459.57
1015.683	4429.74
1015.976	4417.99
1016.268	4390.2
1016.56	4363.3
1016.851	4326.24
1017.143	4328.5
1017.435	4267.26
1017.727	4249.18
1018.018	4188.17
1018.31	4170.54
1018.602	4160.82
1018.893	4098
1019.185	4066.14
1019.476	4028.85
1019.767	3979.13
1020.058	3966.25
1020.35	3938.23
1020.641	3952.69
1020.932	3903.43
1021.223	3919.93
1021.514	3859.81
1021.804	3831.57
1022.095	3810.55
1022.386	3789.99
1022.677	3749.53
1022.967	3695.52
1023.258	3651.68
1023.548	3649.65
1023.839	3619.82
1024.129	3595.41
1024.419	3600.39
1024.709	3577.11
1025	3540.73
1025.29	3481.97
1025.58	3469.99
1025.87	3450.11
1026.16	3450.11
1026.449	3380.96
1026.739	3376.66
1027.029	3333.73
1027.319	3329.88
1027.608	3324.69
1027.898	3270
1028.187	3258.47
1028.477	3211.47
1028.766	3218.02
1029.055	3207.63
1029.344	3172.83
1029.634	3114.3
1029.923	3109.78
1030.212	3095.54
1030.501	3105.03
1030.79	3027.97
1031.078	3030.01
1031.367	2956.56
1031.656	2938.03
1031.945	2961.53
1032.233	2942.78
1032.522	2863.68
1032.81	2867.07
1033.099	2855.09
1033.387	2810.8
1033.675	2833.63
1033.963	2803.34
1034.251	2767.19
1034.54	2726.51
1034.828	2697.36
1035.116	2664.59
1035.403	2703.23
1035.691	2713.18
1035.979	2642.22
1036.267	2595.67
1036.554	2623.01
1036.842	2565.84
1037.129	2537.59
1037.417	2505.5
1037.704	2496.23
1037.992	2471.6
1038.279	2468.21
1038.566	2423.92
1038.853	2423.92
1039.14	2423.92
