Data from copper_heatsink_FLMS001491_094.txt Node
Date: Tue Feb 07 10:50:52 GMT 2017
User: dcchb
Spectrometer: FLMS00149
Trigger mode: 0
Integration Time (sec): 2.000000E-2
Scans to average: 10
Electric dark correction enabled: true
Nonlinearity correction enabled: false
Boxcar width: 0
XAxis mode: Wavelengths
Number of Pixels in Spectrum: 2048
>>>>>Begin Spectral Data<<<<<
341.393	-18.57
341.776	-18.57
342.16	-18.57
342.543	-54.73
342.927	-65.13
343.31	-64.22
343.693	-80.04
344.077	-63.77
344.46	-48.85
344.843	-32.58
345.226	-40.72
345.61	-36.65
345.993	-28.29
346.376	-22.64
346.759	8.54
347.142	27.98
347.525	47.64
347.908	74.31
348.291	85.61
348.674	79.96
349.057	93.74
349.44	107.75
349.823	131.93
350.206	185.49
350.588	193.85
350.971	214.87
351.354	249.67
351.737	242.21
352.119	274.07
352.502	262.78
352.884	269.56
353.267	280.85
353.65	281.76
354.032	292.61
354.414	307.75
354.797	307.97
355.179	307.52
355.562	325.37
355.944	309.1
356.326	348.42
356.709	339.84
357.091	337.12
357.473	337.35
357.855	347.75
358.238	319.72
358.62	341.42
359.002	340.74
359.384	317.24
359.766	348.65
360.148	346.84
360.53	321.98
360.912	346.84
361.294	346.62
361.676	336.9
362.057	350.46
362.439	326.95
362.821	338.48
363.203	329.67
363.584	324.69
363.966	318.82
364.348	326.73
364.729	314.53
365.111	311.59
365.493	337.35
365.874	310.46
366.256	315.43
366.637	339.38
367.019	321.08
367.4	311.36
367.781	310.91
368.163	309.33
368.544	323.56
368.925	314.53
369.306	307.07
369.688	306.84
370.069	330.57
370.45	321.53
370.831	324.02
371.212	325.37
371.593	310.68
371.974	327.86
372.355	334.41
372.736	334.41
373.117	328.54
373.498	335.09
373.879	321.76
374.26	336.45
374.641	321.76
375.021	329.44
375.402	325.82
375.783	323.79
376.163	333.73
376.544	340.97
376.925	331.02
377.305	342.32
377.686	325.6
378.066	347.75
378.447	339.84
378.827	323.34
379.208	347.75
379.588	338.03
379.968	332.83
380.349	342.1
380.729	331.47
381.109	322.66
381.489	334.41
381.87	343.45
382.25	356.33
382.63	347.97
383.01	343.9
383.39	345.94
383.77	363.34
384.15	342.1
384.53	351.59
384.91	358.82
385.29	358.14
385.67	377.12
386.049	366.73
386.429	361.76
386.809	374.64
387.189	345.03
387.568	364.92
387.948	368.99
388.328	386.61
388.707	352.94
389.087	370.57
389.466	374.64
389.846	378.48
390.225	362.43
390.605	366.05
390.984	368.54
391.363	381.19
391.743	375.31
392.122	404.24
392.501	374.41
392.881	379.61
393.26	388.87
393.639	393.62
394.018	400.85
394.397	390
394.776	388.87
395.155	402.21
395.534	401.08
395.913	398.82
396.292	387.29
396.671	409.21
397.05	395.88
397.429	423
397.808	417.12
398.186	394.52
398.565	410.57
398.944	427.74
399.323	410.12
399.701	418.93
400.08	437.46
400.458	429.55
400.837	420.51
401.215	441.98
401.594	415.09
401.972	427.07
402.351	428.19
402.729	430.23
403.107	423.9
403.486	434.52
403.864	425.26
404.242	433.17
404.62	438.59
404.999	445.82
405.377	438.36
405.755	418.25
406.133	453.73
406.511	429.55
406.889	450.57
407.267	461.41
407.645	455.09
408.023	470.91
408.401	465.93
408.779	459.38
409.156	463.22
409.534	488.31
409.912	476.56
410.29	483.11
410.667	476.33
411.045	474.97
411.422	470.68
411.8	473.39
412.178	491.47
412.555	516.55
412.933	482.43
413.31	498.02
413.687	496.22
414.065	523.56
414.442	493.5
414.819	531.47
415.197	491.7
415.574	520.85
415.951	532.37
416.328	532.15
416.705	533.95
417.082	517.91
417.46	538.47
417.837	525.14
418.214	524.01
418.591	533.95
418.967	512.49
419.344	549.55
419.721	551.81
420.098	549.1
420.475	557.68
420.852	548.64
421.228	571.92
421.605	540.51
421.982	568.76
422.358	562.88
422.735	575.08
423.111	590
423.488	585.7
423.864	566.27
424.241	573.28
424.617	578.02
424.994	591.81
425.37	582.77
425.746	594.52
426.123	588.42
426.499	603.33
426.875	603.11
427.251	615.76
427.627	618.25
428.003	616.89
428.379	637
428.756	636.1
429.132	640.62
429.507	635.87
429.883	633.39
430.259	648.08
430.635	661.86
431.011	653.95
431.387	669.54
431.763	676.1
432.138	674.29
432.514	676.78
432.89	670.45
433.265	725.36
433.641	712.48
434.016	693.27
434.392	712.26
434.767	715.42
435.143	723.33
435.518	720.39
435.894	735.98
436.269	725.81
436.644	740.05
437.02	744.8
437.395	753.38
437.77	763.78
438.145	753.61
438.52	756.1
438.895	780.95
439.271	775.08
439.646	775.98
440.021	771.46
440.395	771.69
440.77	793.84
441.145	795.87
441.52	795.64
441.895	815.08
442.27	810.33
442.645	806.94
443.019	816.66
443.394	820.28
443.769	831.35
444.143	835.64
444.518	831.57
444.892	846.94
445.267	852.36
445.641	849.88
446.016	837
446.39	838.35
446.764	842.65
447.139	857.11
447.513	869.09
447.887	853.95
448.262	853.04
448.636	865.92
449.01	884.45
449.384	887.84
449.758	883.78
450.132	866.6
450.506	906.83
450.88	918.13
451.254	907.96
451.628	933.49
452.002	930.33
452.376	952.47
452.75	951.12
453.123	954.96
453.497	977.33
453.871	963.55
454.244	958.35
454.618	986.82
454.992	981.4
455.365	977.11
455.739	1015.75
456.112	1022.98
456.486	1022.53
456.859	1025.24
457.232	1053.04
457.606	1045.58
457.979	1063.88
458.352	1048.97
458.725	1058.23
459.099	1068.63
459.472	1114.05
459.845	1107.95
460.218	1135.52
460.591	1156.99
460.964	1137.33
461.337	1180.04
461.71	1160.38
462.083	1181.85
462.456	1184.11
462.829	1221.85
463.201	1201.73
463.574	1229.76
463.947	1240.38
464.32	1247.16
464.692	1260.94
465.065	1267.49
465.438	1284.44
465.81	1288.74
466.183	1310.21
466.555	1336.19
466.928	1351.56
467.3	1360.83
467.672	1368.74
468.045	1376.87
468.417	1390.88
468.789	1384.55
469.161	1422.97
469.534	1442.63
469.906	1473.37
470.278	1487.38
470.65	1496.19
471.022	1503.42
471.394	1521.5
471.766	1524.21
472.138	1557.66
472.51	1611.67
472.882	1620.48
473.253	1611.44
473.625	1645.56
473.997	1677.65
474.369	1689.4
474.74	1706.13
475.112	1731.66
475.484	1779.12
475.855	1794.94
476.227	1827.93
476.598	1840.36
476.97	1883.52
477.341	1887.14
477.713	1923.52
478.084	1913.13
478.455	1979.57
478.827	1995.39
479.198	2058.21
479.569	2048.72
479.94	2110.86
480.311	2114.48
480.682	2160.8
481.053	2186.34
481.424	2239.67
481.795	2221.14
482.166	2271.54
482.537	2292.78
482.908	2372.55
483.279	2381.36
483.65	2413
484.021	2441.93
484.391	2497.75
484.762	2532.32
485.133	2521.25
485.503	2565.99
485.874	2611.64
486.244	2628.14
486.615	2708.59
486.985	2703.84
487.356	2768.92
487.726	2803.73
488.097	2859.09
488.467	2839.21
488.837	2888.24
489.207	2899.54
489.578	3014.79
489.948	3011.86
490.318	3038.52
490.688	3095.92
491.058	3140.89
491.428	3187.44
491.798	3184.28
492.168	3259.53
492.538	3254.56
492.908	3339.3
493.278	3311.96
493.648	3342.02
494.017	3397.83
494.387	3429.92
494.757	3423.14
495.126	3478.51
495.496	3496.81
495.866	3544.72
496.235	3565.51
496.605	3602.12
496.974	3605.51
497.344	3645.96
497.713	3679.41
498.082	3704.27
498.452	3744.04
498.821	3756.24
499.19	3773.42
499.559	3833.08
499.928	3845.73
500.298	3875.11
500.667	3931.61
501.036	3919.18
501.405	3994.2
501.774	3962.79
502.143	4012.51
502.512	4040.76
502.88	4024.71
503.249	4092.96
503.618	4121.21
503.987	4149.23
504.356	4178.83
504.724	4190.36
505.093	4232.16
505.462	4255.44
505.83	4265.83
506.199	4301.31
506.567	4379.73
506.936	4422.21
507.304	4412.72
507.672	4434.42
508.041	4471.48
508.409	4537.01
508.777	4568.65
509.145	4589.67
509.514	4531.82
509.882	4620.63
510.25	4633.96
510.618	4700.17
510.986	4744.01
511.354	4784.69
511.722	4820.85
512.09	4870.79
512.458	4848.87
512.826	4976.32
513.193	4930.9
513.561	4966.15
513.929	5020.62
514.297	5030.11
514.664	5114.63
515.032	5114.17
515.4	5132.03
515.767	5221.29
516.135	5287.73
516.502	5209.09
516.869	5247.5
517.237	5400.04
517.604	5343.55
517.972	5428.29
518.339	5443.66
518.706	5480.49
519.073	5553.48
519.44	5555.52
519.808	5663.31
520.175	5640.49
520.542	5709.41
520.909	5759.13
521.276	5793.93
521.643	5836.19
522.009	5832.8
522.376	5850.65
522.743	5925.23
523.11	5994.15
523.477	6103.3
523.843	6094.94
524.21	6203.41
524.577	6241.15
524.943	6303.75
525.31	6305.78
525.676	6412.44
526.043	6456.51
526.409	6514.14
526.776	6563.63
527.142	6536.06
527.508	6655.6
527.874	6747.8
528.241	6739.67
528.607	6718.88
528.973	6828.93
529.339	6838.65
529.705	6871.64
530.071	6966.78
530.437	7017.63
530.803	7071.64
531.169	7149.37
531.535	7103.73
531.901	7188.92
532.267	7238.86
532.632	7330.16
532.998	7365.41
533.364	7410.84
533.73	7390.27
534.095	7473.43
534.461	7555.24
534.826	7606.99
535.192	7636.59
535.557	7686.31
535.923	7705.97
536.288	7719.08
536.653	7840.43
537.019	7782.8
537.384	7898.73
537.749	7955.23
538.114	7945.74
538.479	7956.58
538.845	8035
539.21	8008.11
539.575	8132.63
539.94	8131.72
540.305	8272.51
540.67	8218.72
541.034	8241.55
541.399	8383.47
541.764	8346.63
542.129	8443.35
542.494	8449.45
542.858	8554.76
543.223	8540.98
543.587	8675.66
543.952	8719.5
544.316	8734.19
544.681	8768.77
545.045	8822.1
545.41	8857.58
545.774	8898.93
546.138	8935.77
546.503	8975.77
546.867	9078.14
547.231	9134.41
547.595	9176.67
547.959	9245.14
548.324	9302.54
548.688	9275.65
549.052	9367.17
549.416	9437.45
549.779	9478.8
550.143	9511.57
550.507	9626.6
550.871	9725.35
551.235	9778.01
551.599	9878.12
551.962	9912.01
552.326	9988.85
552.689	10073.14
553.053	9987.72
553.417	10193.36
553.78	10300.03
554.143	10226.58
554.507	10382.06
554.87	10474.71
555.234	10581.37
555.597	10617.08
555.96	10668.15
556.323	10780.92
556.686	10833.35
557.05	11001.02
557.413	11055.94
557.776	11156.27
558.139	11235.37
558.502	11364.63
558.865	11354.69
559.228	11536.38
559.59	11590.16
559.953	11732.76
560.316	11838.74
560.679	11911.06
561.041	12014.56
561.404	12099.53
561.767	12242.57
562.129	12317.83
562.492	12537.03
562.854	12552.85
563.217	12747.87
563.579	12779.06
563.941	13001.42
564.304	13102.89
564.666	13261.53
565.028	13293.62
565.39	13405.25
565.753	13587.4
566.115	13671.46
566.477	13831.68
566.839	13923.89
567.201	14090.21
567.563	14116.42
567.925	14318.68
568.287	14366.36
568.648	14506.92
569.01	14763.41
569.372	14854.03
569.734	14806.8
570.095	15060.13
570.457	15241.36
570.819	15341.02
571.18	15432.77
571.542	15528.59
571.903	15721.58
572.265	15830.95
572.626	15934.45
572.987	16091.74
573.349	16222.13
573.71	16362.24
574.071	16495.12
574.432	16564.49
574.794	16779.18
575.155	16841.55
575.516	16966.52
575.877	17071.15
576.238	17175.33
576.599	17348.43
576.96	17395.88
577.32	17466.39
577.681	17661.41
578.042	17759.49
578.403	17826.16
578.763	17991.57
579.124	18042.42
579.485	18229.53
579.845	18331.9
580.206	18420.04
580.566	18451.68
580.927	18511.34
581.287	18656.64
581.648	18704.1
582.008	18827.94
582.368	18875.85
582.728	19042.62
583.089	19041.72
583.449	19128.95
583.809	19198.77
584.169	19318.32
584.529	19413.91
584.889	19586.34
585.249	19605.09
585.609	19638.76
585.969	19738.65
586.329	19738.42
586.688	19807.35
587.048	19891.19
587.408	19865.65
587.768	20043.95
588.127	19970.05
588.487	20076.72
588.846	20300.67
589.206	20230.39
589.565	20358.74
589.925	20443.71
590.284	20496.37
590.643	20518.51
591.003	20631.05
591.362	20828.11
591.721	20807.09
592.08	20880.09
592.44	20950.37
592.799	20961.67
593.158	21051.61
593.517	21117.59
593.876	21126.41
594.235	21159.4
594.593	21286.4
594.952	21303.35
595.311	21391.49
595.67	21380.64
596.029	21586.73
596.387	21616.34
596.746	21719.39
597.104	21589.67
597.463	21699.95
597.822	21941.98
598.18	21957.35
598.538	21890
598.897	22131.81
599.255	22178.58
599.613	22360.05
599.972	22231.46
600.33	22439.14
600.688	22293.83
601.046	22474.85
601.404	22505.35
601.762	22552.58
602.12	22687.27
602.478	22680.04
602.836	22887.49
603.194	22764.1
603.552	22932.24
603.91	22769.3
604.268	23085.45
604.625	23044.32
604.983	23188.05
605.341	23090.2
605.698	23290.64
606.056	23442.05
606.413	23350.76
606.771	23526.34
607.128	23552.78
607.485	23510.53
607.843	23642.73
608.2	23805.89
608.557	23756.62
608.914	23782.84
609.272	24120.45
609.629	24126.78
609.986	24123.39
610.343	24102.37
610.7	24305.99
611.057	24432.08
611.414	24453.33
611.771	24540.78
612.127	24599.31
612.484	24740.78
612.841	24756.82
613.198	24772.64
613.554	24780.55
613.911	25034.1
614.267	24991.39
614.624	25027.55
614.98	25077.04
615.337	25280.65
615.693	25236.36
616.05	25273.19
616.406	25461.89
616.762	25357.26
617.118	25372.62
617.475	25536.69
617.831	25563.58
618.187	25632.5
618.543	25752.95
618.899	25855.32
619.255	25871.37
619.611	25921.08
619.967	25997.69
620.323	26179.83
620.678	26076.33
621.034	26100.97
621.39	26155.43
621.746	26182.77
622.101	26453.27
622.457	26169.67
622.812	26229.55
623.168	26440.62
623.523	26438.81
623.879	26587.06
624.234	26425.7
624.589	26382.09
624.945	26568.98
625.3	26624.79
625.655	26607.62
626.01	26683.78
626.365	26730.1
626.72	26676.32
627.075	26717.9
627.43	26787.28
627.785	26772.36
628.14	26936.2
628.495	26889.65
628.85	26871.57
629.205	26932.36
629.559	27004.45
629.914	26912.24
630.269	27070.88
630.623	27091.67
630.978	27088.74
631.332	27156.31
631.687	27297.54
632.041	26904.79
632.396	27217.77
632.75	27194.95
633.104	27247.6
633.459	27135.29
633.813	27239.69
634.167	27195.4
634.521	27218.9
634.875	27321.27
635.229	27216.42
635.583	27012.58
635.937	27079.25
636.291	27101.17
636.645	27217.32
636.999	27082.64
637.352	27258.68
637.706	27103.65
638.06	27233.59
638.413	27141.16
638.767	27258.45
639.121	27319.69
639.474	27211.45
639.828	27378.9
640.181	27335.96
640.534	27237.89
640.888	27115.18
641.241	27105.69
641.594	27189.53
641.947	27205.12
642.301	27354.04
642.654	27471.78
643.007	27277.43
643.36	27347.04
643.713	27353.81
644.066	27434.94
644.419	27166.93
644.771	27052.35
645.124	26859.82
645.477	26673.15
645.83	26531.92
646.182	26619.6
646.535	26431.81
646.888	26669.99
647.24	26539.37
647.593	26825.47
647.945	26718.58
648.298	26659.6
648.65	26609.43
649.002	26636.55
649.355	26615.98
649.707	26685.13
650.059	26707.96
650.411	26900.49
650.763	27032.69
651.115	27413.93
651.467	27334.15
651.819	27343.42
652.171	27318.56
652.523	27149.75
652.875	27331.67
653.227	27157.66
653.578	27353.81
653.93	27382.29
654.282	27126.7
654.633	27149.98
654.985	27226.81
655.337	27194.5
655.688	27155.4
656.039	27406.02
656.391	27143.88
656.742	27339.8
657.094	27282.4
657.445	27504.77
657.796	27446.69
658.147	27238.56
658.498	27369.41
658.849	27435.85
659.2	27300.48
659.551	27246.7
659.902	27396.53
660.253	27382.06
660.604	27474.26
660.955	27375.28
661.306	27422.06
661.656	27417.77
662.007	27412.12
662.358	27569.18
662.708	27518.56
663.059	27504.09
663.409	27421.84
663.76	27613.69
664.11	27645.11
664.461	27579.12
664.811	27667.93
665.161	27609.63
665.511	27559.46
665.862	27596.75
666.212	27774.14
666.562	27777.53
666.912	27648.72
667.262	27806.68
667.612	27809.62
667.962	27880.35
668.312	27750.64
668.662	28016.62
669.011	27820.24
669.361	27892.78
669.711	27866.34
670.06	27789.06
670.41	27701.15
670.76	27723.52
671.109	27872.45
671.459	27918.32
671.808	27806.01
672.157	27819.11
672.507	27706.57
672.856	27798.1
673.205	27977.98
673.554	27872.22
673.904	27795.16
674.253	28068.82
674.602	28010.29
674.951	27499.57
675.3	27383.42
675.649	28052.1
675.998	27995.83
676.346	27995.83
676.695	28001.71
677.044	27868.6
677.393	27993.8
677.741	28027.47
678.09	28064.53
678.438	28029.73
678.787	28079.67
679.135	27952.22
679.484	27704.54
679.832	27850.75
680.181	27862.28
680.529	27890.75
680.877	27930.07
681.225	27895.27
681.573	27968.94
681.922	27785.67
682.27	27821.15
682.618	27870.19
682.966	27863.18
683.314	27824.31
683.661	27688.5
684.009	27664.54
684.357	27556.75
684.705	27526.92
685.053	27649.85
685.4	27563.3
685.748	27676.97
686.095	27595.16
686.443	27392.68
686.79	27453.7
687.138	27487.14
687.485	27463.19
687.832	27402.85
688.18	27403.3
688.527	27312.23
688.874	27428.61
689.221	27224.78
689.568	27310.43
689.915	27169.19
690.262	27216.42
690.609	27188.4
690.956	27037.66
691.303	26972.13
691.65	26903.21
691.997	26977.55
692.344	26796.09
692.69	26842.19
693.037	26903.21
693.383	26518.81
693.73	26770.55
694.077	26516.77
694.423	26596.55
694.769	26615.98
695.116	26667.51
695.462	26384.35
695.808	26472.93
696.155	26452.37
696.501	26339.83
696.847	26336.21
697.193	26097.58
697.539	26240.4
697.885	26132.6
698.231	26033.4
698.577	26077.24
698.923	25919.73
699.269	26025.26
699.614	25868.88
699.96	25897.58
700.306	25936.22
700.651	25741.2
700.997	25729.9
701.342	25776.46
701.688	25679.51
702.033	25664.59
702.379	25673.63
702.724	25547.31
703.069	25543.24
703.415	25244.94
703.76	25334.21
704.105	25356.13
704.45	25396.8
704.795	25206.75
705.14	25147.09
705.485	25211.95
705.83	25190.03
706.175	25258.28
706.52	25097.38
706.865	25044.95
707.209	24976.7
707.554	24950.94
707.899	24837.95
708.243	24860.32
708.588	24861.9
708.932	24707.1
709.277	24663.26
709.621	24673.21
709.966	24709.82
710.31	24590.95
710.654	24426.43
710.998	24477.51
711.342	24680.44
711.687	24565.41
712.031	24409.49
712.375	24394.12
712.719	24431.86
713.063	24295.59
713.407	24391.86
713.75	24307.79
714.094	24284.52
714.438	24271.64
714.782	24311.86
715.125	24119.78
715.469	24359.32
715.812	23974.02
716.156	23987.8
716.499	23988.93
716.843	23962.94
717.186	23900.35
717.53	23934.92
717.873	24009.04
718.216	23904.19
718.559	23962.94
718.902	23750.52
719.246	23898.09
719.589	23770.63
719.932	23763.85
720.275	23826.68
720.617	23783.51
720.96	23751.88
721.303	23804.08
721.646	23769.73
721.989	23670.52
722.331	23655.15
722.674	23564.54
723.016	23701.71
723.359	23634.14
723.701	23658.32
724.044	23485.44
724.386	23361.15
724.729	23522.95
725.071	23404.99
725.413	23492.9
725.755	23459.68
726.097	23370.87
726.439	23283.64
726.782	23437.99
727.124	23443.41
727.465	23272.11
727.807	23313.02
728.149	23265.79
728.491	23324.09
728.833	23375.39
729.175	23253.58
729.516	23214.94
729.858	23103.53
730.199	23311.66
730.541	23131.33
730.882	23171.78
731.224	23177.65
731.565	23111.67
731.906	23157.54
732.248	23192.12
732.589	23083.87
732.93	23109.86
733.271	23034.15
733.612	23090.88
733.953	23104.66
734.294	23045.45
734.635	23047.04
734.976	23063.31
735.317	22864.44
735.658	22993.93
735.999	22868.28
736.339	22870.09
736.68	22828.06
737.021	22699.02
737.361	22725.69
737.702	22953.48
738.042	22812.69
738.383	22704.67
738.723	22732.02
739.063	22712.58
739.404	22780.38
739.744	22700.15
740.084	22557.56
740.424	22765.91
740.764	22641.17
741.104	22777.66
741.444	22585.13
741.784	22584.9
742.124	22620.15
742.464	22726.14
742.804	22658.8
743.143	22567.5
743.483	22529.99
743.823	22409.76
744.162	22482.3
744.502	22501.06
744.841	22459.03
745.181	22448.18
745.52	22414.28
745.86	22385.81
746.199	22304.23
746.538	22310.33
746.877	22332.48
747.216	22393.95
747.556	22372.02
747.895	22279.82
748.234	22255.64
748.573	22118.47
748.911	22207.96
749.25	22288.19
749.589	22207.28
749.928	22137
750.267	22184.69
750.605	21951.47
750.944	21938.59
751.283	21795.32
751.621	21998.02
751.96	21818.82
752.298	21860.4
752.636	21814.53
752.975	21865.82
753.313	21661.99
753.651	21850.23
753.989	21626.73
754.327	21669.67
754.666	21611.59
755.004	21679.84
755.342	21672.61
755.679	21665.15
756.017	21542.67
756.355	21732.49
756.693	21486.62
757.031	21503.57
757.368	21381.77
757.706	21496.57
758.044	21356.01
758.381	21370.92
758.719	21349.9
759.056	21224.03
759.394	21342.45
759.731	21020.65
760.068	21020.65
760.405	20955.56
760.743	20970.48
761.08	21094.77
761.417	20950.59
761.754	20934.77
762.091	20824.04
762.428	20718.96
762.765	20664.73
763.102	20846.42
763.438	20749.69
763.775	20638.06
764.112	20739.53
764.449	20681
764.785	20509.02
765.122	20316.03
765.458	20379.53
765.795	20368.46
766.131	20341.12
766.467	20197.62
766.804	20157.85
767.14	20050.05
767.476	20088.69
767.812	19981.58
768.148	20015.48
768.485	19888.47
768.821	19796.27
769.157	19800.34
769.492	19874.01
769.828	19959.66
770.164	19703.85
770.5	19589.05
770.836	19576.62
771.171	19469.5
771.507	19533.91
771.842	19347.02
772.178	19419.56
772.513	19360.58
772.849	19309.96
773.184	19267.47
773.519	19268.6
773.855	19141.6
774.19	19128.27
774.525	19009.4
774.86	19011.66
775.195	18907.26
775.53	18838.33
775.865	18737.32
776.2	18627.94
776.535	18469.3
776.87	18529.41
777.205	18515.63
777.539	18375.07
777.874	18394.95
778.209	18378.68
778.543	18293.71
778.878	18227.5
779.212	18229.31
779.547	18173.49
779.881	18202.42
780.215	18039.03
780.55	18199.71
780.884	18148.18
781.218	18119.71
781.552	18094.62
781.886	17834.06
782.22	17671.36
782.554	17778.25
782.888	17638.36
783.222	17628.65
783.556	17538.71
783.889	17500.06
784.223	17349.78
784.557	17383.91
784.89	17434.98
785.224	17293.97
785.557	17266.17
785.891	17304.59
786.224	17214.42
786.558	17197.25
786.891	17049.23
787.224	17097.36
787.557	16919.96
787.891	16934.43
788.224	16909.12
788.557	16905.28
788.89	16781.44
789.223	16886.07
789.556	16728.78
789.888	16750.48
790.221	16604.94
790.554	16515.23
790.887	16447.66
791.219	16446.76
791.552	16479.75
791.884	16372.86
792.217	16350.49
792.549	16217.38
792.882	16173.09
793.214	16108.01
793.546	16197.27
793.879	16108.46
794.211	15973.1
794.543	16093.77
794.875	16028.91
795.207	16091.51
795.539	15903.27
795.871	15979.65
796.203	15773.55
796.535	15702.37
796.867	15633.44
797.198	15581.92
797.53	15720.9
797.862	15587.8
798.193	15639.55
798.525	15592.09
798.856	15548.02
799.188	15449.04
799.519	15306.45
799.85	15366.33
800.182	15317.75
800.513	15293.11
800.844	15248.82
801.175	15337.18
801.506	15246.11
801.837	15146
802.168	15215.15
802.499	15087.7
802.83	15029.62
803.161	15084.53
803.491	15077.08
803.822	15037.3
804.153	14957.53
804.483	14783.52
804.814	14753.24
805.145	14681.38
805.475	14813.58
805.805	14667.82
806.136	14731.1
806.466	14704.2
806.796	14686.35
807.126	14590.08
807.457	14537.43
807.787	14594.83
808.117	14501.95
808.447	14530.42
808.777	14520.48
809.107	14464.66
809.436	14454.94
809.766	14420.37
810.096	14347.15
810.426	14296.3
810.755	14307.38
811.085	14230.77
811.414	14141.73
811.744	14175.86
812.073	14135.63
812.403	14224.44
812.732	14160.04
813.061	14152.13
813.39	14073.49
813.719	14033.71
814.049	14109.19
814.378	14014.73
814.707	13939.7
815.036	13988.29
815.365	13854.73
815.693	13765.47
816.022	13746.49
816.351	13651.58
816.68	13590.79
817.008	13657
817.337	13626.94
817.665	13637.79
817.994	13672.59
818.322	13677.34
818.651	13506.72
818.979	13466.95
819.307	13609.54
819.636	13503.56
819.964	13437.57
820.292	13512.37
820.62	13510.79
820.948	13540.84
821.276	13560.05
821.604	13520.73
821.932	13500.85
822.259	13509.66
822.587	13535.65
822.915	13545.82
823.243	13614.29
823.57	13604.57
823.898	13601.86
824.225	13522.09
824.553	13493.39
824.88	13411.36
825.207	13628.98
825.535	13432.37
825.862	13578.13
826.189	13497.23
826.516	13579.49
826.843	13537.91
827.17	13543.33
827.497	13620.62
827.824	13593.95
828.151	13677.34
828.478	13537.68
828.805	13546.95
829.131	13505.14
829.458	13570.67
829.785	13532.48
830.111	13642.99
830.438	13756.43
830.764	13674.17
831.09	13659.49
831.417	13632.37
831.743	13653.16
832.069	13637.57
832.395	13647.06
832.722	13673.95
833.048	13602.09
833.374	13553.5
833.7	13525.48
834.026	13652.71
834.351	13641.86
834.677	13587.17
835.003	13716.89
835.329	13612.71
835.654	13517.79
835.98	13523.9
836.306	13565.48
836.631	13487.29
836.956	13565.02
837.282	13510.34
837.607	13423.11
837.932	13411.13
838.258	13401.64
838.583	13390.34
838.908	13327.52
839.233	13448.64
839.558	13396.22
839.883	13393.73
840.208	13350.12
840.533	13391.47
840.858	13421.53
841.182	13338.59
841.507	13344.24
841.832	13218.59
842.156	13193.06
842.481	13219.95
842.805	13220.85
843.13	13231.93
843.454	13274.64
843.778	13168.42
844.103	13143.79
844.427	13136.11
844.751	13097.69
845.075	13001.2
845.399	12998.49
845.723	13034.19
846.047	13015.43
846.371	12886.62
846.695	12884.36
847.019	12893.63
847.343	12762.79
847.666	12691.15
847.99	12723.69
848.313	12714.65
848.637	12597.59
848.96	12679.17
849.284	12636.69
849.607	12508.78
849.931	12447.77
850.254	12351.5
850.577	12368.67
850.9	12207.77
851.223	12170.26
851.546	12161.9
851.869	12109.92
852.192	12240.09
852.515	12140.66
852.838	12022.69
853.161	12092.75
853.483	11983.82
853.806	11977.95
854.129	11960.77
854.451	11910.83
854.774	11954.45
855.096	11961
855.419	11867.22
855.741	11814.11
856.063	11774.11
856.385	11770.95
856.708	11651.63
857.03	11618.41
857.352	11659.99
857.674	11546.55
857.996	11566.89
858.318	11544.74
858.64	11604.62
858.961	11454.57
859.283	11476.72
859.605	11471.97
859.926	11462.03
860.248	11371.18
860.57	11333.67
860.891	11384.74
861.212	11246.89
861.534	11284.18
861.855	11270.4
862.176	11248.02
862.498	11263.39
862.819	11320.34
863.14	11267.46
863.461	11189.95
863.782	11140
864.103	11178.42
864.424	11147.69
864.745	11199.66
865.065	11101.36
865.386	11162.83
865.707	11105.65
866.027	11070.4
866.348	11029.27
866.668	11021.14
866.989	11040.12
867.309	10941.14
867.63	10977.52
867.95	11001.48
868.27	10938.2
868.59	10926.22
868.91	10971.19
869.23	10942.04
869.55	10843.29
869.87	10918.99
870.19	10929.16
870.51	10911.31
870.83	10877.19
871.15	10872.67
871.469	10883.74
871.789	10892.55
872.109	10851.65
872.428	10711.09
872.748	10840.58
873.067	10821.82
873.386	10759.45
873.706	10768.71
874.025	10776.85
874.344	10734.36
874.663	10777.08
874.982	10670.86
875.301	10776.62
875.62	10675.38
875.939	10754.25
876.258	10690.75
876.577	10707.47
876.896	10707.02
877.214	10622.05
877.533	10647.81
877.852	10657.76
878.17	10540.47
878.489	10583.41
878.807	10588.83
879.125	10614.82
879.444	10587.93
879.762	10530.53
880.08	10553.58
880.398	10483.07
880.716	10567.14
881.034	10513.13
881.352	10442.62
881.67	10428.16
881.988	10532.56
882.306	10504.54
882.624	10491.21
882.941	10428.61
883.259	10381.83
883.577	10366.01
883.894	10345.45
884.212	10366.46
884.529	10375.96
884.846	10358.33
885.164	10337.31
885.481	10301.61
885.798	10369.4
886.115	10192.68
886.432	10227.71
886.75	10290.99
887.067	10223.87
887.383	10186.58
887.7	10172.57
888.017	10097.77
888.334	10175.06
888.651	10114.04
888.967	10018.9
889.284	9968.74
889.6	9967.15
889.917	9899.13
890.233	9934.16
890.55	9886.03
890.866	9925.35
891.182	9947.49
891.498	9923.09
891.815	9862.3
892.131	9771
892.447	9782.75
892.763	9775.97
893.079	9718.8
893.395	9733.49
893.71	9673.38
894.026	9679.93
894.342	9717.89
894.657	9646.48
894.973	9626.6
895.289	9596.09
895.604	9581.17
895.92	9498.01
896.235	9507.05
896.55	9479.26
896.865	9467.05
897.181	9354.74
897.496	9449.2
897.811	9413.27
898.126	9370.56
898.441	9325.14
898.756	9315.87
899.071	9327.62
899.386	9300.05
899.7	9286.72
900.015	9208.3
900.33	9200.39
900.644	9135.76
900.959	9123.56
901.273	9074.52
901.588	8971.47
901.902	8870.46
902.216	8924.47
902.531	8977.35
902.845	8988.65
903.159	8790.91
903.473	8914.98
903.787	8908.65
904.101	8793.62
904.415	8790.69
904.729	8802.66
905.042	8712.27
905.356	8655.1
905.67	8688.09
905.984	8631.37
906.297	8560.64
906.611	8510.02
906.924	8470.02
907.237	8459.4
907.551	8518.38
907.864	8403.35
908.177	8396.12
908.491	8416.46
908.804	8294.2
909.117	8292.39
909.43	8232.28
909.743	8212.17
910.056	8219.85
910.368	8176.24
910.681	8206.97
910.994	8166.75
911.307	8159.52
911.619	8087.88
911.932	8040.65
912.244	7986.87
912.557	8087.43
912.869	7988.22
913.181	8065.51
913.494	7908.22
913.806	7970.14
914.118	7924.95
914.43	7915.23
914.742	7923.37
915.054	7845.85
915.366	7831.62
915.678	7766.99
915.99	7762.92
916.302	7749.81
916.613	7706.42
916.925	7656.25
917.236	7620.32
917.548	7560.44
917.859	7618.29
918.171	7565.63
918.482	7462.81
918.794	7422.36
919.105	7478.41
919.416	7439.54
919.727	7438.63
920.038	7313.89
920.349	7256.26
920.66	7229.82
920.971	7194.12
921.282	7242.71
921.593	7127.45
921.903	7103.27
922.214	7148.92
922.525	7110.51
922.835	7130.62
923.146	7092.43
923.456	7076.61
923.767	6970.85
924.077	6981.02
924.387	6956.84
924.697	6910.74
925.008	6940.11
925.318	6918.42
925.628	6835.48
925.938	6857.86
926.248	6770.4
926.558	6764.75
926.867	6711.42
927.177	6681.82
927.487	6668.93
927.796	6679.78
928.106	6620.57
928.416	6608.15
928.725	6595.72
929.034	6552.1
929.344	6447.7
929.653	6519.56
929.962	6479.11
930.271	6451.99
930.581	6444.08
930.89	6380.81
931.199	6334.03
931.508	6310.53
931.817	6311.2
932.125	6309.17
932.434	6297.65
932.743	6244.54
933.051	6291.77
933.36	6186.91
933.669	6157.76
933.977	6158.67
934.286	6144.65
934.594	6130.64
934.902	6095.16
935.21	6127.25
935.519	6082.74
935.827	6040.48
936.135	6016.3
936.443	5946.92
936.751	5890.88
937.059	5941.5
937.367	5896.98
937.674	5911.21
937.982	5898.79
938.29	5824.89
938.597	5871.22
938.905	5737.89
939.213	5756.64
939.52	5739.02
939.827	5702.41
940.135	5709.86
940.442	5665.57
940.749	5674.38
941.056	5659.02
941.363	5620.83
941.67	5585.35
941.977	5602.07
942.284	5499.25
942.591	5565.24
942.898	5503.99
943.205	5503.99
943.511	5459.02
943.818	5465.58
944.125	5366.6
944.431	5433.26
944.738	5446.59
945.044	5360.27
945.35	5274.4
945.657	5276.43
945.963	5271.46
946.269	5294.28
946.575	5249.99
946.881	5202.98
947.187	5145.59
947.493	5215.41
947.799	5169.54
948.105	5155.3
948.41	5077.11
948.716	5116.43
949.022	5088.41
949.327	5047.51
949.633	4998.02
949.938	5025.81
950.244	5035.98
950.549	4969.09
950.854	4971.8
951.16	4957.34
951.465	4939.26
951.77	4887.29
952.075	4872.15
952.38	4891.58
952.685	4892.48
952.99	4824.92
953.294	4794.86
953.599	4817.46
953.904	4788.31
954.209	4681.42
954.513	4741.3
954.818	4682.77
955.122	4645.94
955.426	4666.5
955.731	4669.44
956.035	4639.84
956.339	4588.54
956.643	4592.38
956.948	4560.29
957.252	4547.86
957.556	4572.49
957.86	4540.18
958.163	4491.36
958.467	4477.35
958.771	4472.61
959.075	4408.88
959.378	4433.29
959.682	4411.59
959.985	4393.74
960.289	4384.7
960.592	4368.88
960.896	4342.67
961.199	4342.89
961.502	4336.57
961.805	4297.25
962.108	4266.51
962.411	4314.87
962.714	4223.12
963.017	4183.35
963.32	4167.53
963.623	4125.72
963.926	4177.25
964.228	4147.42
964.531	4202.33
964.833	4173.63
965.136	4085.27
965.438	4121.88
965.741	4042.34
966.043	4042.34
966.345	4063.35
966.648	4021.09
966.95	4025.61
967.252	3954.66
967.554	4006.86
967.856	3975.9
968.158	3985.84
968.46	3948.78
968.761	3980.64
969.063	3900.19
969.365	3859.52
969.666	3911.49
969.968	3837.37
970.269	3856.58
970.571	3810.48
970.872	3789.24
971.174	3776.13
971.475	3752.4
971.776	3752.18
972.077	3749.69
972.378	3738.62
972.679	3669.69
972.98	3716.92
973.281	3669.24
973.582	3691.84
973.883	3652.29
974.183	3662.23
974.484	3654.78
974.785	3617.26
975.085	3619.75
975.386	3591.28
975.686	3565.06
975.986	3567.77
976.287	3533.2
976.587	3539.53
976.887	3568.23
977.187	3526.64
977.487	3504.05
977.787	3508.34
978.087	3486.87
978.387	3450.94
978.687	3429.92
978.987	3413.2
979.286	3404.61
979.586	3382.92
979.885	3365.74
980.185	3338.4
980.484	3295.46
980.784	3339.98
981.083	3294.56
981.382	3297.95
981.682	3306.76
981.981	3270.38
982.28	3272.19
982.579	3205.98
982.878	3229.7
983.177	3236.03
983.475	3174.79
983.774	3180.44
984.073	3165.98
984.372	3131.17
984.67	3152.64
984.969	3138.41
985.267	3074.68
985.566	3108.35
985.864	3072.42
986.162	3061.8
986.461	3084.4
986.759	3045.3
987.057	2997.84
987.355	3011.63
987.653	2995.36
987.951	2950.39
988.249	2992.87
988.547	2983.83
988.844	2947.45
989.142	2955.59
989.44	2914.46
989.737	2932.99
990.035	2898.19
990.332	2879.66
990.63	2870.16
990.927	2883.5
991.224	2845.08
991.521	2845.76
991.819	2807.34
992.116	2803.27
992.413	2783.39
992.71	2795.82
993.006	2759.89
993.303	2743.61
993.6	2770.96
993.897	2754.46
994.193	2756.5
994.49	2735.48
994.787	2685.54
995.083	2694.58
995.379	2661.58
995.676	2689.6
995.972	2685.99
996.268	2655.48
996.565	2602.6
996.861	2604.86
997.157	2615.26
997.453	2583.39
997.749	2572.55
998.044	2587.23
998.34	2565.77
998.636	2577.97
998.932	2528.03
999.227	2493.9
999.523	2512.66
999.818	2506.78
1000.114	2486.45
1000.409	2450.74
1000.704	2436.5
1001	2437.41
1001.295	2412.1
1001.59	2405.54
1001.885	2402.61
1002.18	2385.66
1002.475	2377.52
1002.77	2368.26
1003.065	2329.84
1003.359	2328.94
1003.654	2345.88
1003.949	2284.19
1004.243	2298.2
1004.538	2326.45
1004.832	2296.62
1005.127	2269.05
1005.421	2249.16
1005.715	2238.77
1006.009	2240.35
1006.304	2202.61
1006.598	2225.44
1006.892	2194.93
1007.186	2195.15
1007.48	2167.58
1007.773	2145.89
1008.067	2142.73
1008.361	2138.88
1008.655	2127.36
1008.948	2107.7
1009.242	2091.43
1009.535	2058.66
1009.829	2093.01
1010.122	2043.75
1010.415	2019.57
1010.708	2036.29
1011.001	2027.7
1011.295	2057.76
1011.588	2023.86
1011.881	1949.06
1012.173	1961.26
1012.466	1951.54
1012.759	1973.92
1013.052	1922.17
1013.344	1922.62
1013.637	1936.18
1013.93	1918.33
1014.222	1869.29
1014.514	1881.26
1014.807	1898.66
1015.099	1879
1015.391	1854.37
1015.683	1851.43
1015.976	1812.11
1016.268	1839.46
1016.56	1802.85
1016.851	1832.23
1017.143	1838.1
1017.435	1769.85
1017.727	1745
1018.018	1730.99
1018.31	1734.83
1018.602	1692.57
1018.893	1704.09
1019.185	1703.19
1019.476	1699.35
1019.767	1683.76
1020.058	1628.39
1020.35	1665.9
1020.641	1634.94
1020.932	1633.81
1021.223	1634.26
1021.514	1589.97
1021.804	1665.45
1022.095	1593.14
1022.386	1597.43
1022.677	1581.61
1022.967	1553.82
1023.258	1552.46
1023.548	1556.75
1023.839	1563.53
1024.129	1541.84
1024.419	1507.49
1024.709	1511.78
1025	1515.62
1025.29	1504.1
1025.58	1480.82
1025.87	1483.53
1026.16	1469.52
1026.449	1488.73
1026.739	1441.05
1027.029	1449.19
1027.319	1407.15
1027.608	1432.91
1027.898	1394.72
1028.187	1419.81
1028.477	1392.69
1028.766	1382.52
1029.055	1346.36
1029.344	1381.39
1029.634	1345.01
1029.923	1340.71
1030.212	1332.8
1030.501	1303.88
1030.79	1308.62
1031.078	1291.22
1031.367	1287.38
1031.656	1274.5
1031.945	1267.27
1032.233	1267.49
1032.522	1244.67
1032.81	1224.33
1033.099	1245.8
1033.387	1236.31
1033.675	1208.97
1033.963	1194.73
1034.251	1214.39
1034.54	1194.28
1034.828	1192.02
1035.116	1174.84
1035.403	1186.82
1035.691	1174.84
1035.979	1157.22
1036.267	1140.27
1036.554	1149.76
1036.842	1148.63
1037.129	1138.68
1037.417	1125.13
1037.704	1114.5
1037.992	1126.26
1038.279	1094.84
1038.566	1079.03
1038.853	1079.03
1039.14	1079.03
