Data from copper_heatsink_FLMS001491_099.txt Node
Date: Tue Feb 07 10:50:53 GMT 2017
User: dcchb
Spectrometer: FLMS00149
Trigger mode: 0
Integration Time (sec): 2.000000E-2
Scans to average: 10
Electric dark correction enabled: true
Nonlinearity correction enabled: false
Boxcar width: 0
XAxis mode: Wavelengths
Number of Pixels in Spectrum: 2048
>>>>>Begin Spectral Data<<<<<
341.393	-15.41
341.776	-15.41
342.16	-15.41
342.543	-75.29
342.927	-75.75
343.31	-76.65
343.693	-83.2
344.077	-42.98
344.46	-45.01
344.843	-56.76
345.226	-40.95
345.61	-39.36
345.993	-25.13
346.376	-11.12
346.759	30.47
347.142	9
347.525	25.72
347.908	66.4
348.291	76.34
348.674	103.01
349.057	110.24
349.44	103.68
349.823	111.14
350.206	178.71
350.588	171.03
350.971	204.02
351.354	228.65
351.737	238.37
352.119	249.67
352.502	275.43
352.884	266.62
353.267	265.94
353.65	291.25
354.032	276.33
354.414	300.51
354.797	287.86
355.179	345.03
355.562	313.85
355.944	306.62
356.326	329.67
356.709	325.37
357.091	323.56
357.473	329.44
357.855	317.46
358.238	318.59
358.62	336.9
359.002	342.1
359.384	346.39
359.766	350.91
360.148	343.45
360.53	336.67
360.912	346.39
361.294	357.69
361.676	347.07
362.057	325.37
362.439	347.29
362.821	340.51
363.203	344.58
363.584	328.54
363.966	327.41
364.348	317.46
364.729	326.28
365.111	317.92
365.493	315.2
365.874	318.37
366.256	332.38
366.637	340.74
367.019	324.24
367.4	321.53
367.781	326.5
368.163	339.38
368.544	324.47
368.925	345.49
369.306	323.56
369.688	308.88
370.069	315.43
370.45	312.04
370.831	320.85
371.212	324.69
371.593	307.97
371.974	318.82
372.355	321.76
372.736	323.56
373.117	327.63
373.498	317.24
373.879	325.82
374.26	344.58
374.641	322.21
375.021	335.54
375.402	331.25
375.783	326.28
376.163	340.51
376.544	335.54
376.925	343.23
377.305	310.46
377.686	336.67
378.066	319.72
378.447	341.42
378.827	343.23
379.208	342.32
379.588	342.32
379.968	345.71
380.349	339.61
380.729	356.33
381.109	340.51
381.489	341.87
381.87	349.33
382.25	349.78
382.63	339.16
383.01	345.26
383.39	347.29
383.77	349.55
384.15	348.42
384.53	347.07
384.91	358.14
385.29	344.58
385.67	352.26
386.049	362.21
386.429	348.88
386.809	370.34
387.189	361.76
387.568	347.07
387.948	359.72
388.328	355.88
388.707	361.08
389.087	345.26
389.466	384.81
389.846	378.25
390.225	395.65
390.605	381.19
390.984	404.47
391.363	393.17
391.743	400.17
392.122	394.98
392.501	395.88
392.881	395.2
393.26	377.8
393.639	385.26
394.018	406.5
394.397	402.21
394.776	395.2
395.155	400.4
395.534	398.14
395.913	408.99
396.292	388.42
396.671	402.66
397.05	395.43
397.429	402.66
397.808	394.07
398.186	429.32
398.565	400.17
398.944	429.78
399.323	416.22
399.701	413.28
400.08	429.32
400.458	436.1
400.837	434.3
401.215	437.91
401.594	407.63
401.972	401.08
402.351	397.69
402.729	418.48
403.107	416.22
403.486	422.77
403.864	436.56
404.242	440.85
404.62	434.97
404.999	451.02
405.377	440.62
405.755	436.78
406.133	462.32
406.511	443.34
406.889	473.84
407.267	439.72
407.645	458.7
408.023	454.18
408.401	468.65
408.779	452.83
409.156	461.64
409.534	474.52
409.912	457.8
410.29	493.28
410.667	470
411.045	502.54
411.422	508.64
411.8	477.91
412.178	494.41
412.555	503.22
412.933	504.35
413.31	493.5
413.687	500.51
414.065	493.05
414.442	505.71
414.819	508.87
415.197	529.21
415.574	499.38
415.951	519.72
416.328	514.97
416.705	507.97
417.082	523.33
417.46	528.08
417.837	518.81
418.214	532.82
418.591	538.7
418.967	546.84
419.344	526.5
419.721	551.81
420.098	511.36
420.475	547.74
420.852	553.62
421.228	575.54
421.605	569.43
421.982	562.65
422.358	581.19
422.735	564.01
423.111	534.41
423.488	582.99
423.864	562.2
424.241	592.03
424.617	591.35
424.994	571.69
425.37	582.54
425.746	597.91
426.123	595.2
426.499	586.61
426.875	612.14
427.251	590.22
427.627	622.31
428.003	601.98
428.379	637
428.756	624.57
429.132	631.81
429.507	629.55
429.883	650.34
430.259	661.18
430.635	640.17
431.011	642.65
431.387	669.54
431.763	669.32
432.138	665.25
432.514	665.93
432.89	665.93
433.265	695.98
433.641	736.66
434.016	677.23
434.392	699.6
434.767	710.9
435.143	703.89
435.518	722.65
435.894	735.31
436.269	731.46
436.644	733.72
437.02	728.98
437.395	738.02
437.77	760.39
438.145	771.46
438.52	760.62
438.895	756.32
439.271	786.38
439.646	770.78
440.021	768.07
440.395	777.79
440.77	778.69
441.145	767.62
441.52	811.24
441.895	798.81
442.27	798.58
442.645	799.48
443.019	821.18
443.394	810.78
443.769	825.7
444.143	763.78
444.518	837.45
444.892	825.02
445.267	827.51
445.641	827.28
446.016	830.22
446.39	855.53
446.764	842.87
447.139	851.46
447.513	860.5
447.887	873.38
448.262	861.4
448.636	848.3
449.01	891.91
449.384	873.61
449.758	893.95
450.132	884.68
450.506	900.5
450.88	880.84
451.254	869.77
451.628	924.23
452.002	931.01
452.376	927.39
452.75	940.5
453.123	953.38
453.497	959.03
453.871	966.49
454.244	985.47
454.618	1000.16
454.992	983.21
455.365	994.73
455.739	1006.48
456.112	1027.95
456.486	1012.36
456.859	1029.08
457.232	1046.71
457.606	1063.43
457.979	1054.39
458.352	1091.91
458.725	1070.89
459.099	1100.49
459.472	1103.66
459.845	1121.51
460.218	1112.24
460.591	1139.14
460.964	1136.65
461.337	1158.12
461.71	1167.84
462.083	1176.65
462.456	1166.03
462.829	1139.81
463.201	1215.74
463.574	1222.3
463.947	1224.33
464.32	1261.85
464.692	1263.65
465.065	1256.42
465.438	1284.22
465.81	1301.62
466.183	1321.5
466.555	1339.58
466.928	1352.46
467.3	1342.3
467.672	1359.47
468.045	1362.18
468.417	1390.2
468.789	1421.62
469.161	1428.85
469.534	1450.09
469.906	1453.25
470.278	1450.54
470.65	1477.21
471.022	1531.67
471.394	1523.76
471.766	1544.55
472.138	1563.31
472.51	1577.32
472.882	1606.02
473.253	1637.88
473.625	1646.24
473.997	1692.57
474.369	1673.13
474.74	1687.37
475.112	1722.62
475.484	1753.13
475.855	1774.83
476.227	1786.8
476.598	1814.15
476.97	1891.21
477.341	1898.89
477.713	1884.88
478.084	1952
478.455	2000.36
478.827	2000.81
479.198	2043.07
479.569	2050.98
479.94	2073.58
480.311	2136.85
480.682	2134.82
481.053	2188.37
481.424	2254.81
481.795	2231.54
482.166	2277.64
482.537	2308.15
482.908	2354.25
483.279	2374.81
483.65	2447.8
484.021	2439.89
484.391	2484.86
484.762	2503.39
485.133	2534.81
485.503	2579.78
485.874	2608.02
486.244	2643.73
486.615	2704.29
486.985	2722.82
487.356	2743.16
487.726	2794.46
488.097	2856.38
488.467	2847.11
488.837	2904.97
489.207	2930.95
489.578	3010.05
489.948	2939.54
490.318	3081.23
490.688	3061.12
491.058	3109.25
491.428	3176.82
491.798	3215.24
492.168	3215.47
492.538	3193.32
492.908	3300.66
493.278	3326.88
493.648	3351.73
494.017	3384.05
494.387	3434.44
494.757	3460.43
495.126	3471.05
495.496	3511.28
495.866	3533.2
496.235	3511.05
496.605	3624.72
496.974	3592.41
497.344	3687.54
497.713	3648
498.082	3700.88
498.452	3749.69
498.821	3769.8
499.19	3741.55
499.559	3830.59
499.928	3833.08
500.298	3915.79
500.667	3898.84
501.036	3932.51
501.405	3938.61
501.774	3931.83
502.143	4031.26
502.512	4014.77
502.88	4088.21
503.249	4080.98
503.618	4105.16
503.987	4152.62
504.356	4147.87
504.724	4221.77
505.093	4206.85
505.462	4253.18
505.83	4278.94
506.199	4315.78
506.567	4367.07
506.936	4339.5
507.304	4421.08
507.672	4455.43
508.041	4466.73
508.409	4530.69
508.777	4548.99
509.145	4589.67
509.514	4614.3
509.882	4624.02
510.25	4615.2
510.618	4707.86
510.986	4699.5
511.354	4782.66
511.722	4790.34
512.09	4836.67
512.458	4878.02
512.826	4947.62
513.193	4917.79
513.561	4940.39
513.929	4999.83
514.297	5072.82
514.664	5116.21
515.032	5106.72
515.4	5196.66
515.767	5189.2
516.135	5244.34
516.502	5224
516.869	5338.12
517.237	5323.21
517.604	5358.01
517.972	5410.44
518.339	5478.91
518.706	5468.29
519.073	5473.71
519.44	5569.3
519.808	5620.83
520.175	5647.04
520.542	5698.79
520.909	5737.21
521.276	5774.5
521.643	5816.3
522.009	5863.53
522.376	5927.03
522.743	5987.6
523.11	6056.52
523.477	6052.23
523.843	6089.97
524.21	6244.09
524.577	6254.48
524.943	6288.83
525.31	6290.19
525.676	6405.44
526.043	6432.78
526.409	6488.6
526.776	6559.79
527.142	6577.41
527.508	6567.92
527.874	6664.42
528.241	6750.74
528.607	6821.25
528.973	6887.23
529.339	6791.19
529.705	6973.33
530.071	6936.05
530.437	7054.01
530.803	7067.79
531.169	7133.78
531.535	7119.32
531.901	7187.34
532.267	7252.65
532.632	7320.22
532.998	7286.55
533.364	7415.81
533.73	7437.5
534.095	7537.61
534.461	7564.5
534.826	7562.92
535.192	7583.04
535.557	7739.64
535.923	7638.4
536.288	7742.8
536.653	7797.94
537.019	7844.27
537.384	7919.98
537.749	7905.51
538.114	7926.98
538.479	8009.92
538.845	8051.72
539.21	8020.31
539.575	8091.72
539.94	8163.13
540.305	8261.44
540.67	8234.09
541.034	8311.83
541.399	8345.95
541.764	8362.45
542.129	8463.69
542.494	8544.37
542.858	8583.01
543.223	8563.57
543.587	8607.87
543.952	8668.66
544.316	8691.03
544.681	8708.43
545.045	8863.23
545.41	8782.55
545.774	8892.83
546.138	8945.26
546.503	9027.97
546.867	9040.85
547.231	9185.03
547.595	9234.97
547.959	9201.3
548.324	9289.88
548.688	9341.63
549.052	9432.48
549.416	9455.08
549.779	9463.21
550.143	9468.64
550.507	9617.33
550.871	9610.55
551.235	9767.84
551.599	9844.9
551.962	9886.03
552.326	9924.22
552.689	10035.17
553.053	9999.92
553.417	10117.88
553.78	10254.6
554.143	10288.73
554.507	10377.99
554.87	10442.39
555.234	10572.56
555.597	10613.46
555.96	10674.03
556.323	10756.28
556.686	10839.9
557.05	10926.9
557.413	10960.35
557.776	11043.74
558.139	11174.35
558.502	11279.66
558.865	11450.5
559.228	11556.72
559.59	11532.08
559.953	11633.78
560.316	11784.96
560.679	11867.22
561.041	12011.39
561.404	12170.71
561.767	12314.89
562.129	12293.42
562.492	12533.19
562.854	12612.28
563.217	12644.6
563.579	12809.56
563.941	12993.74
564.304	13081.42
564.666	13213.62
565.028	13353.05
565.39	13383.33
565.753	13573.84
566.115	13724.57
566.477	13872.36
566.839	13848.63
567.201	14118.46
567.563	14105.58
567.925	14414.72
568.287	14427.15
568.648	14558.9
569.01	14710.76
569.372	14819.23
569.734	14908.27
570.095	15070.3
570.457	15164.3
570.819	15293.11
571.18	15393.9
571.542	15587.57
571.903	15731.97
572.265	15902.14
572.626	15910.95
572.987	16070.5
573.349	16170.83
573.71	16349.36
574.071	16398.62
574.432	16575.79
574.794	16864.15
575.155	16869.34
575.516	16916.57
575.877	17124.25
576.238	17161.54
576.599	17316.11
576.96	17439.5
577.32	17560.85
577.681	17637.01
578.042	17722.2
578.403	17841.97
578.763	17868.64
579.124	18064.57
579.485	18148.41
579.845	18400.38
580.206	18344.11
580.566	18431.34
580.927	18478.12
581.287	18619.36
581.648	18744.32
582.008	18843.3
582.368	18916.07
582.728	18974.83
583.089	19063.19
583.449	19095.95
583.809	19282.84
584.169	19335.72
584.529	19397.87
584.889	19598.31
585.249	19516.96
585.609	19538.43
585.969	19641.25
586.329	19796.95
586.688	19901.13
587.048	19866.78
587.408	19991.75
587.768	19901.58
588.127	20137.06
588.487	20127.34
588.846	20312.64
589.206	20242.14
589.565	20358.52
589.925	20469.48
590.284	20450.72
590.643	20562.58
591.003	20692.07
591.362	20814.33
591.721	20769.36
592.08	20942.23
592.44	21011.83
592.799	21033.98
593.158	21028.56
593.517	21032.62
593.876	21091.83
594.235	21169.8
594.593	21285.95
594.952	21421.32
595.311	21398.27
595.67	21456.12
596.029	21478.71
596.387	21598.49
596.746	21820.17
597.104	21708.09
597.463	21770.91
597.822	21957.8
598.18	21821.98
598.538	21845.94
598.897	22136.1
599.255	21967.97
599.613	22441.18
599.972	22198.47
600.33	22322.08
600.688	22471.01
601.046	22514.17
601.404	22537.22
601.762	22607.27
602.12	22698.34
602.478	22738.57
602.836	22721.62
603.194	22724.11
603.552	22871.45
603.91	22754.16
604.268	23020.82
604.625	22957.32
604.983	23247.93
605.341	23051.33
605.698	23306.69
606.056	23373.81
606.413	23350.3
606.771	23563.41
607.128	23605.66
607.485	23555.04
607.843	23653.57
608.2	23804.76
608.557	23775.6
608.914	23664.19
609.272	23922.49
609.629	24041.59
609.986	24291.07
610.343	24156.84
610.7	24376.27
611.057	24337.85
611.414	24397.96
611.771	24487.9
612.127	24594.34
612.484	24684.05
612.841	24845.18
613.198	24727.22
613.554	24783.03
613.911	24995.68
614.267	24913.88
614.624	25028.9
614.98	25034.78
615.337	25269.8
615.693	25197.26
616.05	25262.8
616.406	25468.67
616.762	25386.63
617.118	25364.49
617.475	25504.6
617.831	25588.89
618.187	25650.58
618.543	25716.57
618.899	25980.97
619.255	25922.67
619.611	25873.18
619.967	25986.84
620.323	25896.23
620.678	25966.51
621.034	26050.8
621.39	26094.19
621.746	26133.51
622.101	26371.24
622.457	26204.47
622.812	26391.35
623.168	26577.11
623.523	26429.32
623.879	26540.5
624.234	26329.21
624.589	26378.02
624.945	26605.81
625.3	26625.92
625.655	26684.68
626.01	26683.1
626.365	26804.68
626.72	26718.13
627.075	26859.82
627.43	26672.02
627.785	26668.63
628.14	26902.98
628.495	26976.2
628.85	26943.2
629.205	26933.03
629.559	27012.35
629.914	26938.91
630.269	26951.57
630.623	26982.98
630.978	26965.35
631.332	27175.97
631.687	27104.78
632.041	27091.9
632.396	27089.19
632.75	26987.95
633.104	27214.84
633.459	27128.96
633.813	27126.02
634.167	27276.3
634.521	27206.02
634.875	27277.43
635.229	27123.99
635.583	27012.81
635.937	27142.52
636.291	27125.12
636.645	27114.05
636.999	27109.98
637.352	27236.3
637.706	27086.03
638.06	27221.84
638.413	27112.92
638.767	27191.79
639.121	27235.17
639.474	27066.59
639.828	27291.44
640.181	27327.15
640.534	27292.12
640.888	27239.02
641.241	27104.33
641.594	27195.4
641.947	27241.73
642.301	27248.28
642.654	27248.96
643.007	27241.73
643.36	27347.71
643.713	27223.42
644.066	27450.31
644.419	27226.81
644.771	27148.62
645.124	26697.11
645.477	26574.63
645.83	26522.88
646.182	26478.36
646.535	26596.32
646.888	26711.8
647.24	26562.65
647.593	26690.56
647.945	26643.1
648.298	26615.75
648.65	26544.34
649.002	26571.01
649.355	26684.91
649.707	26543.44
650.059	26690.1
650.411	26870.89
650.763	26907.72
651.115	27410.31
651.467	27229.3
651.819	27401.95
652.171	27188.17
652.523	27200.37
652.875	27204.89
653.227	27089.41
653.578	27309.75
653.93	27287.38
654.282	27236.76
654.633	27050.09
654.985	27196.3
655.337	27266.36
655.688	27243.08
656.039	27321.5
656.391	27098.23
656.742	27218
657.094	27331.67
657.445	27455.96
657.796	27392.46
658.147	27323.76
658.498	27324.89
658.849	27470.2
659.2	27485.34
659.551	27287.6
659.902	27336.41
660.253	27247.15
660.604	27431.55
660.955	27307.94
661.306	27478.56
661.656	27425.45
662.007	27404.89
662.358	27407.82
662.708	27553.36
663.059	27507.71
663.409	27348.39
663.76	27663.86
664.11	27565.79
664.461	27662.73
664.811	27741.83
665.161	27558.78
665.511	27646.69
665.862	27617.99
666.212	27800.81
666.562	27879.9
666.912	27773.01
667.262	27728.72
667.612	27780.92
667.962	27888.04
668.312	27614.82
668.662	27841.03
669.011	27855.04
669.361	27766.69
669.711	27809.62
670.06	27740.02
670.41	27792.22
670.76	27690.3
671.109	27884.2
671.459	27713.35
671.808	27881.94
672.157	27922.16
672.507	27816.4
672.856	27669.06
673.205	27888.72
673.554	28013.23
673.904	27848.49
674.253	28071.54
674.602	27881.71
674.951	27498.67
675.3	27434.72
675.649	27852.56
675.998	27958.09
676.346	27913.8
676.695	27862.73
677.044	27794.03
677.393	27853.01
677.741	27940.69
678.09	28003.97
678.438	27951.31
678.787	27995.15
679.135	27990.86
679.484	27893.01
679.832	27886.68
680.181	27676.07
680.529	27958.09
680.877	27828.38
681.225	27947.47
681.573	27937.3
681.922	27895.04
682.27	27657.54
682.618	27899.34
682.966	27681.49
683.314	27717.87
683.661	27660.93
684.009	27569.85
684.357	27566.92
684.705	27478.56
685.053	27497.31
685.4	27534.37
685.748	27392.91
686.095	27446.69
686.443	27436.3
686.79	27386.36
687.138	27508.84
687.485	27547.26
687.832	27311.56
688.18	27427.49
688.527	27253.03
688.874	27189.53
689.221	27220.48
689.568	27277.21
689.915	27158.34
690.262	27171.22
690.609	27212.12
690.956	26926.48
691.303	27009.64
691.65	26872.92
691.997	26825.02
692.344	26719.03
692.69	26891.23
693.037	26804.68
693.383	26578.47
693.73	26664.12
694.077	26598.13
694.423	26578.02
694.769	26558.58
695.116	26555.87
695.462	26394.52
695.808	26423.22
696.155	26385.25
696.501	26359.94
696.847	26366.72
697.193	26201.53
697.539	26267.74
697.885	26082.44
698.231	25997.47
698.577	25968.54
698.923	26035.21
699.269	25881.09
699.614	25849.45
699.96	25818.04
700.306	25706.17
700.651	25661.66
700.997	25735.78
701.342	25770.35
701.688	25758.38
702.033	25641.32
702.379	25607.65
702.724	25499.63
703.069	25578.95
703.415	25245.62
703.76	25401.1
704.105	25370.82
704.45	25364.71
704.795	25154.78
705.14	25168.11
705.485	25143.25
705.83	25157.94
706.175	25188
706.52	25072.07
706.865	24893.99
707.209	24880.89
707.554	24840.66
707.899	24882.02
708.243	24786.88
708.588	24679.08
708.932	24736.03
709.277	24686.31
709.621	24749.59
709.966	24552.53
710.31	24669.37
710.654	24554.79
710.998	24523.61
711.342	24609.03
711.687	24510.73
712.031	24455.13
712.375	24335.14
712.719	24300.11
713.063	24350.5
713.407	24298.98
713.75	24084.75
714.094	24214.69
714.438	24168.81
714.782	24145.54
715.125	23999.78
715.469	24199.32
715.812	24008.82
716.156	23830.52
716.499	23998.87
716.843	23890.18
717.186	23776.06
717.53	24065.77
717.873	23981.47
718.216	23860.12
718.559	23879.56
718.902	23741.03
719.246	23748.71
719.589	23746.45
719.932	23720.92
720.275	23624.2
720.617	23647.47
720.96	23838.43
721.303	23702.16
721.646	23667.81
721.989	23638.66
722.331	23635.27
722.674	23509.62
723.016	23563.86
723.359	23527.7
723.701	23538.1
724.044	23400.7
724.386	23323.41
724.729	23485.67
725.071	23428.04
725.413	23303.3
725.755	23305.56
726.097	23285.22
726.439	23193.92
726.782	23357.76
727.124	23359.57
727.465	23173.81
727.807	23141.72
728.149	23242.74
728.491	23174.04
728.833	23275.5
729.175	23165.45
729.516	23140.14
729.858	23030.76
730.199	23097.2
730.541	23186.47
730.882	23174.94
731.224	23174.94
731.565	23109.86
731.906	23005.45
732.248	23090.88
732.589	23051.78
732.93	22956.42
733.271	22891.79
733.612	23106.69
733.953	23113.02
734.294	22881.84
734.635	22938.79
734.976	22992.12
735.317	22791.22
735.658	22802.3
735.999	22861.96
736.339	22786.25
736.68	22838.68
737.021	22762.75
737.361	22668.06
737.702	22657.44
738.042	22747.61
738.383	22674.16
738.723	22742.86
739.063	22706.93
739.404	22670.1
739.744	22681.4
740.084	22605.24
740.424	22612.92
740.764	22675.75
741.104	22721.85
741.444	22501.29
741.784	22576.09
742.124	22532.92
742.464	22570.44
742.804	22684.78
743.143	22480.72
743.483	22518.24
743.823	22369.54
744.162	22310.11
744.502	22414.96
744.841	22340.84
745.181	22470.33
745.52	22312.82
745.86	22312.37
746.199	22323.89
746.538	22270.11
746.877	22315.3
747.216	22235.31
747.556	22301.29
747.895	22187.62
748.234	22239.6
748.573	22145.82
748.911	22169.32
749.25	22086.83
749.589	22017.01
749.928	22037.8
750.267	22108.53
750.605	22030.34
750.944	21939.95
751.283	21764.58
751.621	21927.29
751.96	21734.75
752.298	21726.62
752.636	21889.78
752.975	21794.19
753.313	21586.73
753.651	21921.19
753.989	21649.78
754.327	21608.65
754.666	21559.16
755.004	21652.72
755.342	21601.42
755.679	21674.64
756.017	21541.54
756.355	21665.15
756.693	21537.02
757.031	21459.73
757.368	21355.33
757.706	21381.09
758.044	21307.19
758.381	21410.24
758.719	21274.43
759.056	21196.24
759.394	21201.21
759.731	21025.39
760.068	21076.01
760.405	20824.04
760.743	20854.32
761.08	21017.03
761.417	20918.96
761.754	20777.94
762.091	20842.35
762.428	20805.06
762.765	20678.28
763.102	20754.44
763.438	20691.84
763.775	20614.1
764.112	20566.42
764.449	20571.17
764.785	20502.24
765.122	20315.81
765.458	20335.92
765.795	20206.66
766.131	20203.27
766.467	20085.98
766.804	20008.7
767.14	19963.73
767.476	20101.58
767.812	19938.64
768.148	19932.31
768.485	19927.34
768.821	19787.46
769.157	19722.38
769.492	19743.85
769.828	19860.68
770.164	19668.37
770.5	19648.93
770.836	19546.79
771.171	19427.24
771.507	19492.78
771.842	19321.03
772.178	19291.43
772.513	19233.58
772.849	19268.83
773.184	19230.19
773.519	19222.05
773.855	19106.8
774.19	19121.26
774.525	19103.18
774.86	18947.48
775.195	18871.33
775.53	18804.21
775.865	18709.3
776.2	18548.4
776.535	18501.84
776.87	18468.62
777.205	18478.57
777.539	18379.81
777.874	18480.83
778.209	18300.27
778.543	18310.66
778.878	18190.89
779.212	18347.27
779.547	18089.65
779.881	18177.33
780.215	18039.03
780.55	18018.69
780.884	18021.4
781.218	17998.35
781.552	17919.03
781.886	17784.35
782.22	17748.42
782.554	17719.27
782.888	17504.81
783.222	17511.81
783.556	17471.81
783.889	17456.22
784.223	17265.72
784.557	17434.3
784.89	17297.58
785.224	17301.65
785.557	17178.94
785.891	17243.35
786.224	17254.42
786.558	17183.23
786.891	17001.09
787.224	17041.77
787.557	16964.94
787.891	16844.26
788.224	16938.72
788.557	16847.42
788.89	16815.56
789.223	16730.14
789.556	16598.39
789.888	16708.67
790.221	16586.41
790.554	16413.76
790.887	16436.81
791.219	16411.96
791.552	16376.7
791.884	16386.87
792.217	16215.12
792.549	16247.89
792.882	16174.45
793.214	16054.68
793.546	16129.03
793.879	15975.81
794.211	15918.18
794.543	15960.44
794.875	15941.69
795.207	16062.36
795.539	15921.8
795.871	15871.63
796.203	15783.27
796.535	15671.64
796.867	15692.65
797.198	15626.44
797.53	15637.51
797.862	15576.72
798.193	15626.89
798.525	15570.62
798.856	15520.45
799.188	15407.69
799.519	15323.17
799.85	15238.88
800.182	15273.68
800.513	15265.54
800.844	15187.81
801.175	15247.69
801.506	15101.03
801.837	15158.43
802.168	15211.99
802.499	15136.28
802.83	14953.01
803.161	15001.6
803.491	15045.66
803.822	14992.78
804.153	14811.77
804.483	14713.7
804.814	14739.23
805.145	14727.93
805.475	14770.19
805.805	14659.91
806.136	14648.39
806.466	14638.22
806.796	14645.22
807.126	14583.53
807.457	14585.56
807.787	14586.01
808.117	14474.61
808.447	14449.07
808.777	14452.46
809.107	14344.44
809.436	14350.77
809.766	14360.26
810.096	14325.68
810.426	14318
810.755	14180.15
811.085	14240.04
811.414	14188.06
811.744	14107.38
812.073	14146.03
812.403	14153.03
812.732	14082.3
813.061	14135.86
813.39	14068.29
813.719	13986.93
814.049	14038.68
814.378	14006.59
814.707	13910.33
815.036	13953.94
815.365	13831.01
815.693	13771.8
816.022	13747.17
816.351	13762.31
816.68	13628.3
817.008	13711.69
817.337	13502.2
817.665	13567.28
817.994	13648.19
818.322	13681.63
818.651	13544.69
818.979	13522.77
819.307	13492.94
819.636	13515.31
819.964	13394.63
820.292	13482.31
820.62	13527.51
820.948	13494.74
821.276	13575.65
821.604	13507.17
821.932	13475.54
822.259	13520.73
822.587	13550.11
822.915	13493.61
823.243	13638.24
823.57	13460.39
823.898	13576.32
824.225	13472.37
824.553	13397.8
824.88	13439.6
825.207	13485.93
825.535	13432.37
825.862	13628.98
826.189	13432.15
826.516	13458.81
826.843	13656.55
827.17	13538.36
827.497	13532.94
827.824	13564.35
828.151	13551.01
828.478	13556.44
828.805	13586.95
829.131	13506.72
829.458	13480.96
829.785	13557.57
830.111	13541.3
830.438	13699.48
830.764	13613.84
831.09	13709.43
831.417	13570.22
831.743	13616.1
832.069	13673.04
832.395	13553.05
832.722	13525.7
833.048	13471.69
833.374	13517.34
833.7	13520.73
834.026	13460.85
834.351	13547.17
834.677	13626.72
835.003	13575.65
835.329	13523.22
835.654	13544.01
835.98	13523.67
836.306	13526.38
836.631	13509.21
836.956	13462.2
837.282	13434.41
837.607	13345.37
837.932	13343.56
838.258	13440.96
838.583	13341.08
838.908	13386.27
839.233	13412.71
839.558	13375.43
839.883	13388.53
840.208	13369.32
840.533	13327.52
840.858	13360.51
841.182	13390.79
841.507	13340.62
841.832	13231.02
842.156	13242.1
842.481	13305.82
842.805	13251.59
843.13	13276.9
843.454	13207.29
843.778	13111.93
844.103	13076.22
844.427	13101.76
844.751	13087.75
845.075	13061.08
845.399	13022.21
845.723	12932.72
846.047	12968.43
846.371	12803.91
846.695	12788.32
847.019	12739.96
847.343	12763.46
847.666	12694.77
847.99	12626.97
848.313	12689.12
848.637	12602.11
848.96	12655.67
849.284	12566.86
849.607	12560.08
849.931	12502
850.254	12288
850.577	12295.23
850.9	12268.56
851.223	12240.99
851.546	12173.87
851.869	12141.33
852.192	12280.99
852.515	12042.13
852.838	12022.24
853.161	12088.68
853.483	12047.55
853.806	11995.35
854.129	11958.29
854.451	11916.71
854.774	11882.58
855.096	11845.07
855.419	11888.68
855.741	11853.21
856.063	11735.92
856.385	11685.75
856.708	11629.93
857.03	11587
857.352	11633.1
857.674	11590.61
857.996	11531.18
858.318	11525.98
858.64	11540.67
858.961	11466.55
859.283	11486.44
859.605	11431.3
859.926	11457.51
860.248	11458.87
860.57	11344.74
860.891	11322.37
861.212	11351.75
861.534	11238.76
861.855	11283.05
862.176	11249.15
862.498	11290.96
862.819	11252.09
863.14	11235.14
863.461	11177.52
863.782	11112.89
864.103	11145.2
864.424	11175.93
864.745	11130.96
865.065	11036.73
865.386	10977.75
865.707	11022.72
866.027	11039.67
866.348	11023.62
866.668	10989.5
866.989	11085.32
867.309	10868.82
867.63	11013.68
867.95	10953.79
868.27	10904.08
868.59	10906.11
868.91	10856.62
869.23	10894.59
869.55	10848.26
869.87	10899.33
870.19	10820.92
870.51	10868.37
870.83	10831.76
871.15	10830.86
871.469	10821.59
871.789	10817.75
872.109	10842.16
872.428	10738.43
872.748	10799.45
873.067	10790.41
873.386	10733.01
873.706	10671.54
874.025	10780.24
874.344	10688.26
874.663	10730.3
874.982	10716.51
875.301	10754.93
875.62	10617.08
875.939	10701.6
876.258	10771.2
876.577	10622.5
876.896	10686.46
877.214	10597.65
877.533	10612.79
877.852	10576.63
878.17	10543.86
878.489	10586.12
878.807	10543.86
879.125	10568.27
879.444	10597.19
879.762	10596.97
880.08	10437.42
880.398	10498.21
880.716	10550.19
881.034	10528.72
881.352	10413.24
881.67	10428.16
881.988	10560.13
882.306	10404.88
882.624	10470.87
882.941	10378.44
883.259	10358.1
883.577	10338.67
883.894	10307.26
884.212	10315.17
884.529	10291.89
884.846	10288.95
885.164	10334.6
885.481	10243.76
885.798	10355.62
886.115	10217.99
886.432	10271.55
886.75	10192.01
887.067	10201.5
887.383	10084.66
887.7	10159.46
888.017	10072.91
888.334	10072.46
888.651	10041.28
888.967	9952.01
889.284	9918.11
889.6	9903.2
889.917	9949.53
890.233	9944.78
890.55	9868.85
890.866	9887.38
891.182	9893.48
891.498	9817.33
891.815	9821.85
892.131	9845.12
892.447	9798.8
892.763	9759.93
893.079	9611
893.395	9659.59
893.71	9666.14
894.026	9661.85
894.342	9674.05
894.657	9654.85
894.973	9626.6
895.289	9591.12
895.604	9614.85
895.92	9495.08
896.235	9497.34
896.55	9493.72
896.865	9439.94
897.181	9417.56
897.496	9360.62
897.811	9332.82
898.126	9336.44
898.441	9238.58
898.756	9300.96
899.071	9278.36
899.386	9319.94
899.7	9251.69
900.015	9198.36
900.33	9128.76
900.644	9116.33
900.959	9128.08
901.273	9017.12
901.588	8982.77
901.902	9003.56
902.216	8945.49
902.531	8900.29
902.845	8893.74
903.159	8847.41
903.473	8836.79
903.787	8801.99
904.101	8738.48
904.415	8798.6
904.729	8735.1
905.042	8652.61
905.356	8632.95
905.67	8618.26
905.984	8530.58
906.297	8578.72
906.611	8420.08
906.924	8459.4
907.237	8475.22
907.551	8405.84
907.864	8387.31
908.177	8417.82
908.491	8334.43
908.804	8238.61
909.117	8237.26
909.43	8210.14
909.743	8188.67
910.056	8219.4
910.368	8151.38
910.681	8153.42
910.994	8112.74
911.307	8118.39
911.619	8028.67
911.932	8036.36
912.244	7980.99
912.557	8059.18
912.869	7983.93
913.181	8013.76
913.494	7995.91
913.806	8011.27
914.118	7963.59
914.43	7860.77
914.742	7928.56
915.054	7771.5
915.366	7781.45
915.678	7756.14
915.99	7727.44
916.302	7565.86
916.613	7588.68
916.925	7612.64
917.236	7638.17
917.548	7531.51
917.859	7615.58
918.171	7488.57
918.482	7439.76
918.794	7456.03
919.105	7467.78
919.416	7409.25
919.727	7313.66
920.038	7383.04
920.349	7258.52
920.66	7201.35
920.971	7246.32
921.282	7206.55
921.593	7178.98
921.903	7094.01
922.214	7131.3
922.525	7093.78
922.835	7106.44
923.146	6988.25
923.456	7000.68
923.767	7004.52
924.077	7002.26
924.387	6965.88
924.697	6906.67
925.008	6891.08
925.318	6880.68
925.628	6862.15
925.938	6843.17
926.248	6783.28
926.558	6734.7
926.867	6724.98
927.177	6688.82
927.487	6681.59
927.796	6617.86
928.106	6586.9
928.416	6633.68
928.725	6637.07
929.034	6478.66
929.344	6514.36
929.653	6460.13
929.962	6463.29
930.271	6435.95
930.581	6404.08
930.89	6372.22
931.199	6278.66
931.508	6306.46
931.817	6254.26
932.125	6304.2
932.434	6299.23
932.743	6193.24
933.051	6221.94
933.36	6200.02
933.669	6123.41
933.977	6162.96
934.286	6128.84
934.594	6167.93
934.902	6080.48
935.21	6021.04
935.519	6066.46
935.827	6011.78
936.135	5969.52
936.443	5921.84
936.751	5924.32
937.059	5902.4
937.367	5904.44
937.674	5923.64
937.982	5919.35
938.29	5807.26
938.597	5835.74
938.905	5751.44
939.213	5710.54
939.52	5706.02
939.827	5719.58
940.135	5655.63
940.442	5658.34
940.749	5655.18
941.056	5683.2
941.363	5601.39
941.67	5626.25
941.977	5542.64
942.284	5548.06
942.591	5514.39
942.898	5456.09
943.205	5478.68
943.511	5431.45
943.818	5434.17
944.125	5408.85
944.431	5421.51
944.738	5377.67
945.044	5330.89
945.35	5351
945.657	5302.64
945.963	5265.36
946.269	5231.46
946.575	5181.52
946.881	5202.31
947.187	5158.92
947.493	5160.27
947.799	5153.27
948.105	5111.24
948.41	5090.9
948.716	5051.12
949.022	5071.91
949.327	5030.11
949.633	5040.5
949.938	4963.67
950.244	4995.31
950.549	4977.68
950.854	4941.52
951.16	4891.58
951.465	4914.63
951.77	4942.43
952.075	4866.27
952.38	4867.17
952.685	4841.86
952.99	4851.58
953.294	4805.71
953.599	4788.76
953.904	4752.6
954.209	4744.24
954.513	4718.25
954.818	4715.54
955.122	4658.14
955.426	4638.03
955.731	4591.48
956.035	4595.77
956.339	4615.66
956.643	4628.76
956.948	4564.81
957.252	4540.4
957.556	4544.47
957.86	4487.3
958.163	4494.08
958.467	4426.06
958.771	4418.82
959.075	4415.66
959.378	4385.15
959.682	4389.67
959.985	4372.27
960.289	4340.86
960.592	4322.56
960.896	4348.77
961.199	4352.39
961.502	4358.26
961.805	4308.77
962.108	4299.73
962.411	4245.04
962.714	4264.7
963.017	4243.24
963.32	4195.78
963.623	4105.84
963.926	4154.65
964.228	4169.11
964.531	4172.73
964.833	4133.41
965.136	4074.88
965.438	4084.6
965.741	4054.77
966.043	4076.01
966.345	4019.96
966.648	4009.8
966.95	3983.13
967.252	3990.14
967.554	3951.49
967.856	3982
968.158	3900.87
968.46	3891.15
968.761	3930.93
969.063	3902.91
969.365	3895.67
969.666	3875.11
969.968	3825.39
970.269	3848.67
970.571	3809.57
970.872	3801.89
971.174	3762.57
971.475	3781.1
971.776	3752.4
972.077	3706.07
972.378	3691.16
972.679	3713.53
972.98	3711.5
973.281	3723.93
973.582	3665.17
973.883	3649.58
974.183	3618.39
974.484	3594.67
974.785	3638.05
975.085	3587.43
975.386	3581.78
975.686	3552.63
975.986	3566.42
976.287	3526.42
976.587	3544.95
976.887	3478.28
977.187	3481.45
977.487	3531.16
977.787	3460.43
978.087	3455.69
978.387	3470.37
978.687	3412.3
978.987	3403.26
979.286	3388.8
979.586	3369.36
979.885	3371.85
980.185	3318.29
980.484	3327.33
980.784	3332.07
981.083	3288.91
981.382	3269.7
981.682	3285.07
981.981	3229.03
982.28	3277.61
982.579	3226.31
982.878	3197.39
983.177	3189.48
983.475	3181.34
983.774	3125.53
984.073	3128.69
984.372	3102.47
984.67	3091.4
984.969	3066.32
985.267	3112.42
985.566	3098.63
985.864	3125.53
986.162	3081.46
986.461	3052.76
986.759	3053.44
987.057	2998.75
987.355	3004.17
987.653	3003.27
987.951	2983.61
988.249	2959.43
988.547	2975.47
988.844	2963.72
989.142	2972.08
989.44	2927.34
989.737	2946.77
990.035	2927.11
990.332	2871.75
990.63	2847.57
990.927	2850.28
991.224	2857.06
991.521	2798.53
991.819	2784.07
992.116	2813.44
992.413	2770.05
992.71	2772.09
993.006	2782.03
993.303	2748.59
993.6	2742.48
993.897	2740.9
994.193	2742.94
994.49	2712.43
994.787	2684.63
995.083	2661.81
995.379	2665.2
995.676	2649.83
995.972	2666.33
996.268	2627.01
996.565	2599.89
996.861	2617.29
997.157	2594.01
997.453	2577.52
997.749	2609.83
998.044	2570.96
998.34	2574.13
998.636	2556.05
998.932	2577.52
999.227	2533.9
999.523	2509.5
999.818	2503.17
1000.114	2484.19
1000.409	2467.69
1000.704	2449.84
1001	2444.41
1001.295	2445.77
1001.59	2376.17
1001.885	2414.13
1002.18	2364.19
1002.475	2363.29
1002.77	2364.42
1003.065	2354.47
1003.359	2352.66
1003.654	2340.24
1003.949	2347.69
1004.243	2330.97
1004.538	2277.41
1004.832	2263.17
1005.127	2244.87
1005.421	2231.54
1005.715	2258.43
1006.009	2208.26
1006.304	2183.18
1006.598	2187.02
1006.892	2190.41
1007.186	2188.83
1007.48	2167.58
1007.773	2141.6
1008.067	2095.27
1008.361	2101.15
1008.655	2095.04
1008.948	2085.1
1009.242	2069.96
1009.535	2065.67
1009.829	2057.98
1010.122	2073.35
1010.415	2017.53
1010.708	1993.58
1011.001	2023.41
1011.295	2009.85
1011.588	1991.54
1011.881	1984.76
1012.173	1952.67
1012.466	1954.71
1012.759	1939.34
1013.052	1937.08
1013.344	1930.53
1013.637	1914.71
1013.93	1852.56
1014.222	1906.8
1014.514	1903.64
1014.807	1867.48
1015.099	1834.03
1015.391	1828.84
1015.683	1824.09
1015.976	1823.64
1016.268	1780.7
1016.56	1828.38
1016.851	1820.25
1017.143	1792.23
1017.435	1780.48
1017.727	1738.22
1018.018	1715.39
1018.31	1717.2
1018.602	1743.87
1018.893	1709.07
1019.185	1676.07
1019.476	1676.07
1019.767	1681.5
1020.058	1681.04
1020.35	1669.52
1020.641	1621.84
1020.932	1638.56
1021.223	1642.85
1021.514	1629.75
1021.804	1569.41
1022.095	1589.97
1022.386	1582.74
1022.677	1568.5
1022.967	1570.76
1023.258	1541.39
1023.548	1541.84
1023.839	1567.37
1024.129	1539.13
1024.419	1517.66
1024.709	1509.52
1025	1490.77
1025.29	1483.31
1025.58	1448.96
1025.87	1483.31
1026.16	1466.59
1026.449	1437.66
1026.739	1457.32
1027.029	1439.47
1027.319	1436.3
1027.608	1417.77
1027.898	1404.89
1028.187	1402.41
1028.477	1376.19
1028.766	1372.58
1029.055	1354.5
1029.344	1362.41
1029.634	1333.48
1029.923	1331
1030.212	1308.62
1030.501	1308.85
1030.79	1321.73
1031.078	1319.7
1031.367	1289.42
1031.656	1285.35
1031.945	1280.38
1032.233	1285.57
1032.522	1251.45
1032.81	1243.77
1033.099	1243.09
1033.387	1226.59
1033.675	1211.68
1033.963	1182.98
1034.251	1211
1034.54	1187.27
1034.828	1186.82
1035.116	1167.16
1035.403	1153.37
1035.691	1179.81
1035.979	1170.32
1036.267	1144.79
1036.554	1159.7
1036.842	1119.7
1037.129	1134.62
1037.417	1114.28
1037.704	1122.64
1037.992	1106.14
1038.279	1085.58
1038.566	1097.56
1038.853	1097.56
1039.14	1097.56
