Data from copper_heatsink_FLMS001491_008.txt Node
Date: Tue Feb 07 10:49:04 GMT 2017
User: dcchb
Spectrometer: FLMS00149
Trigger mode: 0
Integration Time (sec): 2.000000E-2
Scans to average: 10
Electric dark correction enabled: true
Nonlinearity correction enabled: false
Boxcar width: 0
XAxis mode: Wavelengths
Number of Pixels in Spectrum: 2048
>>>>>Begin Spectral Data<<<<<
341.393	-20.9
341.776	-20.9
342.16	-20.9
342.543	-48.7
342.927	-73.11
343.31	-68.59
343.693	-48.7
344.077	-48.25
344.46	-36.27
344.843	-61.81
345.226	-41.02
345.61	-22.49
345.993	-37.4
346.376	-6.89
346.759	15.93
347.142	12.99
347.525	35.37
347.908	44.63
348.291	56.16
348.674	95.93
349.057	110.39
349.44	106.78
349.823	142.48
350.206	180.22
350.588	249.6
350.971	230.62
351.354	268.58
351.737	278.75
352.119	310.39
352.502	324.85
352.884	320.1
353.267	345.64
353.65	333.89
354.032	343.15
354.414	348.8
354.797	351.74
355.179	361.01
355.562	367.11
355.944	363.49
356.326	379.31
356.709	376.15
357.091	392.19
357.473	403.27
357.855	384.06
358.238	384.06
358.62	412.76
359.002	398.52
359.384	395.36
359.766	382.93
360.148	393.77
360.53	397.39
360.912	390.61
361.294	405.98
361.676	406.66
362.057	398.07
362.439	391.29
362.821	394
363.203	384.28
363.584	397.84
363.966	371.63
364.348	375.02
364.729	387
365.111	377.28
365.493	375.7
365.874	383.15
366.256	372.98
366.637	398.97
367.019	356.49
367.4	357.39
367.781	352.87
368.163	385.41
368.544	379.31
368.925	369.37
369.306	375.47
369.688	390.39
370.069	379.31
370.45	372.53
370.831	374.79
371.212	356.94
371.593	373.89
371.974	382.93
372.355	395.13
372.736	396.49
373.117	386.32
373.498	379.76
373.879	376.6
374.26	387.9
374.641	398.29
375.021	401.46
375.402	395.36
375.783	389.71
376.163	414.79
376.544	419.31
376.925	389.26
377.305	406.88
377.686	411.18
378.066	397.84
378.447	397.16
378.827	416.37
379.208	420.44
379.588	419.09
379.968	392.65
380.349	409.37
380.729	400.55
381.109	444.62
381.489	424.96
381.87	425.19
382.25	435.58
382.63	430.84
383.01	423.83
383.39	451.85
383.77	427.22
384.15	426.09
384.53	462.93
384.91	451.4
385.29	447.78
385.67	448.46
386.049	452.76
386.429	442.36
386.809	459.31
387.189	446.65
387.568	468.12
387.948	450.27
388.328	448.01
388.707	464.73
389.087	458.63
389.466	483.49
389.846	492.3
390.225	475.13
390.605	494.34
390.984	488.46
391.363	497.05
391.743	477.16
392.122	492.98
392.501	468.12
392.881	498.63
393.26	516.26
393.639	510.16
394.018	526.43
394.397	521.46
394.776	512.87
395.155	510.61
395.534	513.55
395.913	526.43
396.292	511.06
396.671	525.52
397.05	503.6
397.429	531.17
397.808	538.4
398.186	535.92
398.565	546.54
398.944	546.77
399.323	545.64
399.701	541.12
400.08	547.22
400.458	587.89
400.837	539.08
401.215	574.11
401.594	569.59
401.972	567.56
402.351	559.19
402.729	576.37
403.107	610.94
403.486	598.74
403.864	592.19
404.242	586.09
404.62	607.78
404.999	612.98
405.377	616.14
405.755	605.75
406.133	611.62
406.511	618.85
406.889	615.46
407.267	637.38
407.645	635.58
408.023	644.39
408.401	632.64
408.779	665.41
409.156	665.86
409.534	652.75
409.912	651.85
410.29	687.78
410.667	702.69
411.045	690.94
411.422	670.15
411.8	682.58
412.178	691.39
412.555	729.36
412.933	706.31
413.31	724.84
413.687	720.09
414.065	723.26
414.442	728
414.819	750.15
415.197	754.44
415.574	749.7
415.951	749.25
416.328	755.57
416.705	777.95
417.082	765.06
417.46	764.39
417.837	785.63
418.214	775.91
418.591	805.06
418.967	799.64
419.344	790.6
419.721	798.51
420.098	807.78
420.475	793.99
420.852	828.34
421.228	862.01
421.605	834.67
421.982	828.57
422.358	828.57
422.735	839.19
423.111	840.32
423.488	855.46
423.864	891.61
424.241	859.53
424.617	877.83
424.994	870.15
425.37	880.32
425.746	892.29
426.123	939.07
426.499	924.16
426.875	928.22
427.251	936.36
427.627	912.18
428.003	928.45
428.379	957.6
428.756	942.46
429.132	991.95
429.507	996.92
429.883	1005.06
430.259	974.55
430.635	991.05
431.011	1005.51
431.387	1029.01
431.763	1052.74
432.138	1061.55
432.514	1045.51
432.89	1045.96
433.265	1081.21
433.641	1122.57
434.016	1104.49
434.392	1098.39
434.767	1137.48
435.143	1125.51
435.518	1156.47
435.894	1163.02
436.269	1158.05
436.644	1174.09
437.02	1191.72
437.395	1205.51
437.77	1203.47
438.145	1216.8
438.52	1205.51
438.895	1243.24
439.271	1232.85
439.646	1279.63
440.021	1249.8
440.395	1269.91
440.77	1270.59
441.145	1273.07
441.52	1309.46
441.895	1273.3
442.27	1292.28
442.645	1325.05
443.019	1316.91
443.394	1317.14
443.769	1323.47
444.143	1326.18
444.518	1340.87
444.892	1372.96
445.267	1380.42
445.641	1376.57
446.016	1378.38
446.39	1360.53
446.764	1386.52
447.139	1397.36
447.513	1407.53
447.887	1414.54
448.262	1436.91
448.636	1437.59
449.01	1464.26
449.384	1432.84
449.758	1474.42
450.132	1475.1
450.506	1465.39
450.88	1471.26
451.254	1500.64
451.628	1499.51
452.002	1506.97
452.376	1520.07
452.75	1539.51
453.123	1595.1
453.497	1559.17
453.871	1607.08
454.244	1601.65
454.618	1649.11
454.992	1634.65
455.365	1669.45
455.739	1667.64
456.112	1712.84
456.486	1692.27
456.859	1701.31
457.232	1729.56
457.606	1739.95
457.979	1781.76
458.352	1816.79
458.725	1822.21
459.099	1821.76
459.472	1882.55
459.845	1900.18
460.218	1884.13
460.591	1887.75
460.964	1914.64
461.337	1971.81
461.71	1956.67
462.083	1993.73
462.456	2031.25
462.829	2006.61
463.201	2033.28
463.574	2050
463.947	2083.9
464.32	2120.96
464.692	2116.67
465.065	2174.97
465.438	2203.67
465.81	2188.53
466.183	2223.11
466.555	2265.59
466.928	2286.83
467.3	2272.14
467.672	2282.54
468.045	2350.33
468.417	2398.92
468.789	2383.78
469.161	2428.75
469.534	2472.59
469.906	2540.16
470.278	2516.43
470.65	2558.24
471.022	2589.88
471.394	2654.05
471.766	2666.71
472.138	2656.54
472.51	2719.82
472.882	2784.67
473.253	2777.44
473.625	2842.75
473.997	2870.32
474.369	2879.59
474.74	2943.54
475.112	2970.88
475.484	3037.32
475.855	3035.97
476.227	3067.15
476.598	3170.65
476.97	3192.57
477.341	3242.51
477.713	3298.78
478.084	3280.7
478.455	3417.2
478.827	3432.34
479.198	3559.12
479.569	3487.48
479.94	3633.24
480.311	3668.27
480.682	3731.99
481.053	3797.3
481.424	3868.03
481.795	3875.94
482.166	3926.34
482.537	3976.28
482.908	4059.44
483.279	4091.76
483.65	4148.93
484.021	4237.74
484.391	4295.37
484.762	4314.8
485.133	4328.59
485.503	4402.48
485.874	4506.21
486.244	4565.64
486.615	4609.71
486.985	4715.47
487.356	4778.97
487.726	4830.27
488.097	4901.68
488.467	4917.95
488.837	4986.87
489.207	5018.06
489.578	5099.41
489.948	5151.16
490.318	5289.47
490.688	5250.14
491.058	5338.96
491.428	5352.97
491.798	5450.14
492.168	5566.07
492.538	5562.45
492.908	5638.16
493.278	5660.3
493.648	5660.76
494.017	5778.49
494.387	5830.92
494.757	5933.97
495.126	5927.87
495.496	5944.59
495.866	6025.49
496.235	6066.17
496.605	6112.04
496.974	6119.73
497.344	6188.42
497.713	6238.59
498.082	6266.16
498.452	6387.29
498.821	6401.3
499.19	6381.87
499.559	6455.54
499.928	6510.22
500.298	6578.47
500.667	6659.82
501.036	6627.96
501.405	6682.88
501.774	6682.42
502.143	6774.62
502.512	6837.45
502.88	6874.96
503.249	6898.46
503.618	6921.51
503.987	7013.71
504.356	7020.72
504.724	7067.05
505.093	7129.42
505.462	7118.12
505.83	7206.03
506.199	7240.83
506.567	7328.06
506.936	7349.3
507.304	7436.53
507.672	7456.41
508.041	7549.07
508.409	7584.32
508.777	7705
509.145	7782.51
509.514	7735.28
509.882	7810.76
510.25	7871.09
510.618	7879.45
510.986	7974.82
511.354	8054.82
511.722	8089.17
512.09	8122.16
512.458	8178.88
512.826	8258.65
513.193	8331.87
513.561	8293.23
513.929	8416.16
514.297	8500.23
514.664	8586.1
515.032	8655.93
515.4	8645.54
515.767	8758.53
516.135	8766.66
516.502	8784.29
516.869	8951.97
517.237	8998.29
517.604	8995.81
517.972	9145.41
518.339	9177.95
518.706	9274.67
519.073	9256.59
519.44	9367.55
519.808	9505.63
520.175	9454.55
520.542	9590.37
520.909	9686.41
521.276	9647.99
521.643	9839.18
522.009	9875.11
522.376	9894.54
522.743	10030.36
523.11	10162.11
523.477	10267.87
523.843	10289.56
524.21	10434.87
524.577	10520.74
524.943	10546.5
525.31	10702.2
525.676	10810.9
526.043	10847.96
526.409	11006.83
526.776	11066.71
527.142	11134.51
527.508	11109.43
527.874	11306.26
528.241	11266.03
528.607	11438.23
528.973	11545.8
529.339	11524.56
529.705	11617.43
530.071	11774.72
530.437	11831.67
530.803	12007.71
531.169	12059.68
531.535	12121.15
531.901	12054.03
532.267	12198.21
532.632	12387.13
532.998	12393.01
533.364	12468.94
533.73	12484.08
534.095	12789.61
534.461	12720.91
534.826	12825.76
535.192	12873.67
535.557	13006.1
535.923	13066.21
536.288	13086.55
536.653	13172.65
537.019	13143.95
537.384	13317.05
537.749	13423.94
538.114	13411.74
538.479	13498.97
538.845	13620.09
539.21	13576.71
539.575	13710.03
539.94	13794.55
540.305	13987.09
540.67	13984.38
541.034	14002.23
541.399	14157.71
541.764	14242.45
542.129	14305.73
542.494	14457.59
542.858	14396.8
543.223	14514.76
543.587	14655.32
543.952	14742.1
544.316	14753.4
544.681	14839.04
545.045	14900.74
545.41	15096.44
545.774	15174.18
546.138	15247.62
546.503	15376.88
546.867	15438.58
547.231	15548.4
547.595	15632.92
547.959	15697.1
548.324	15835.85
548.688	16003.53
549.052	16035.85
549.416	16211.66
549.779	16213.7
550.143	16330.98
550.507	16531.2
550.871	16665.44
551.235	16683.52
551.599	16951.08
551.962	16984.3
552.326	17040.79
552.689	17281.01
553.053	17241.47
553.417	17448.92
553.78	17707.22
554.143	17730.72
554.507	17890.72
554.87	17971.39
555.234	18225.17
555.597	18266.3
555.96	18413.41
556.323	18577.93
556.686	18787.19
557.05	18984.02
557.413	19150.8
557.776	19224.24
558.139	19506.72
558.502	19548.3
558.865	19813.83
559.228	20019.25
559.59	20116.42
559.953	20394.6
560.316	20757.08
560.679	20731.09
561.041	21097.64
561.404	21296.95
561.767	21425.76
562.129	21731.97
562.492	21999.99
562.854	22125.18
563.217	22248.79
563.579	22315.23
563.941	22752.74
564.304	23004.71
564.666	23161.54
565.028	23308.43
565.39	23557.91
565.753	23877.68
566.115	24281.96
566.477	24477.66
566.839	24653.48
567.201	24912.23
567.563	25110.19
567.925	25452.33
568.287	25607.58
568.648	25794.01
569.01	26060.44
569.372	26481.22
569.734	26631.05
570.095	26988.78
570.457	27241.88
570.819	27448.88
571.18	27646.84
571.542	28040.05
571.903	28202.31
572.265	28558.91
572.626	28816.53
572.987	29084.09
573.349	29216.29
573.71	29612.44
574.071	29668.26
574.432	29881.14
574.794	30431.4
575.155	30581
575.516	30814.67
575.877	31032.97
576.238	31263.02
576.599	31576.46
576.96	31779.62
577.32	32031.59
577.681	32186.61
578.042	32597
578.403	32607.39
578.763	32953.37
579.124	33147.49
579.485	33465.22
579.845	33817.75
580.206	33859.79
580.566	34078.54
580.927	34207.35
581.287	34678.98
581.648	34692.31
582.008	35114.22
582.368	35045.29
582.728	35332.29
583.089	35546.75
583.449	35572.06
583.809	35837.14
584.169	36011.6
584.529	36254.98
584.889	36694.97
585.249	36524.8
585.609	36511.47
585.969	37148.97
586.329	37077.33
586.688	37317.55
587.048	37436.64
587.408	37622.4
587.768	37824.2
588.127	38023.75
588.487	38066.23
588.846	38479.78
589.206	38425.32
589.565	38585.99
589.925	38778.3
590.284	38939.2
590.643	39087.22
591.003	39337.16
591.362	39698.5
591.721	39739.86
592.08	39895.11
592.44	40132.17
592.799	40173.29
593.158	40363.8
593.517	40413.06
593.876	40564.47
594.235	40741.64
594.593	40935.08
594.952	41124.46
595.311	41179.37
595.67	41454.16
596.029	41740.26
596.387	41852.8
596.746	42079.46
597.104	41941.16
597.463	42170.98
597.822	42594.25
598.18	42446.23
598.538	42591.31
598.897	43067.91
599.255	42816.84
599.613	43424.73
599.972	43357.62
600.33	43556.93
600.688	43650.26
601.046	43790.83
601.404	44269.68
601.762	44102.91
602.12	44556.46
602.478	44687.53
602.836	44883.23
603.194	44649.33
603.552	44891.14
603.91	44911.93
604.268	45269.21
604.625	45284.8
604.983	45616.54
605.341	45580.16
605.698	45904.22
606.056	46153.48
606.413	46238.67
606.771	46423.07
607.128	46610.19
607.485	46611.54
607.843	46758.88
608.2	46946.22
608.557	47296.72
608.914	47253.56
609.272	47539.88
609.629	47673.89
609.986	47929.93
610.343	47865.97
610.7	48204.95
611.057	48389.35
611.414	48357.71
611.771	48556.58
612.127	48739.17
612.484	48804.03
612.841	49009.22
613.198	48851.94
613.554	49028.43
613.911	49273.17
614.267	49480.62
614.624	49554.74
614.98	49822.98
615.337	50018.91
615.693	50049.19
616.05	50115.86
616.406	50333.93
616.762	50307.94
617.118	50396.98
617.475	50502.29
617.831	50733.24
618.187	50786.57
618.543	50990.18
618.899	51083.06
619.255	51293.45
619.611	51200.8
619.967	51478.76
620.323	51719.43
620.678	51566.67
621.034	51613.22
621.39	51592.88
621.746	51744.06
622.101	52160.78
622.457	51974.79
622.812	52145.63
623.168	52375.91
623.523	52219.98
623.879	52472.63
624.234	52393.99
624.589	52528.45
624.945	52620.42
625.3	52772.96
625.655	52784.94
626.01	52770.48
626.365	52927.53
626.72	52963.92
627.075	53072.62
627.43	53114.87
627.785	53076.68
628.14	53217.7
628.495	53324.81
628.85	53335.66
629.205	53312.38
629.559	53486.62
629.914	53367.75
630.269	53422.21
630.623	53591.02
630.978	53474.19
631.332	53603.22
631.687	53766.83
632.041	53772.48
632.396	53785.37
632.75	53849.77
633.104	53900.62
633.459	53798.92
633.813	53881.41
634.167	53838.02
634.521	53972.25
634.875	53990.11
635.229	54052.03
635.583	53975.64
635.937	54077.56
636.291	54053.38
636.645	54201.4
636.999	54121.18
637.352	54260.61
637.706	54126.37
638.06	54326.59
638.413	54195.98
638.767	54256.31
639.121	54443.88
639.474	54323.88
639.828	54358.68
640.181	54406.14
640.534	54421.73
640.888	54442.52
641.241	54334.73
641.594	54470.77
641.947	54525.68
642.301	54474.16
642.654	54602.07
643.007	54627.83
643.36	54572.69
643.713	54744.89
644.066	54835.96
644.419	54574.5
644.771	54428.51
645.124	54045.7
645.477	53979.03
645.83	53852.26
646.182	53998.02
646.535	54044.34
646.888	54257.67
647.24	54147.62
647.593	54496.31
647.945	54399.13
648.298	54339.93
648.65	54344.9
649.002	54330.21
649.355	54427.61
649.707	54411.56
650.059	54423.09
650.411	54758.45
650.763	54838.67
651.115	55163.18
651.467	55242.73
651.819	55198.21
652.171	55180.81
652.523	55088.16
652.875	55169.28
653.227	55101.49
653.578	55415.38
653.93	55350.07
654.282	55214.03
654.633	55210.19
654.985	55336.74
655.337	55472.33
655.688	55488.15
656.039	55557.97
656.391	55311.88
656.742	55401.59
657.094	55573.57
657.445	55660.57
657.796	55632.1
658.147	55589.39
658.498	55589.84
658.849	55727.01
659.2	55762.26
659.551	55776.73
659.902	55804.07
660.253	55667.58
660.604	55790.96
660.955	55671.42
661.306	55863.73
661.656	55845.65
662.007	55904.86
662.358	55930.62
662.708	55858.08
663.059	55873.45
663.409	55846.55
663.76	56115.7
664.11	56075.7
664.461	56126.55
664.811	56197.51
665.161	56169.03
665.511	56105.53
665.862	56243.38
666.212	56336.71
666.562	56412.87
666.912	56388.23
667.262	56424.39
667.612	56400.44
667.962	56467.78
668.312	56465.07
668.662	56533.77
669.011	56527.21
669.361	56538.51
669.711	56519.76
670.06	56535.8
670.41	56541
670.76	56592.52
671.109	56722.01
671.459	56646.53
671.808	56673.43
672.157	56751.62
672.507	56661
672.856	56653.54
673.205	56721.33
673.554	56825.29
673.904	56703.48
674.253	56872.97
674.602	56776.47
674.951	56401.57
675.3	56432.08
675.649	56836.36
675.998	56872.52
676.346	56983.7
676.695	57057.6
677.044	56917.03
677.393	56868.9
677.741	56922.68
678.09	56905.74
678.438	56904.15
678.787	57025.73
679.135	56987.09
679.484	56784.38
679.832	56931.95
680.181	56819.18
680.529	56902.8
680.877	56858.05
681.225	56938.73
681.573	57175.11
681.922	56997.94
682.27	56901.44
682.618	56953.42
682.966	56938.28
683.314	57039.07
683.661	56916.36
684.009	56881.78
684.357	56886.3
684.705	56859.18
685.053	56947.54
685.4	56944.15
685.748	56819.64
686.095	56888.33
686.443	56870.71
686.79	56868.45
687.138	56865.74
687.485	56813.08
687.832	56797.26
688.18	56860.76
688.527	56777.38
688.874	56827.55
689.221	56752.52
689.568	56656.25
689.915	56616.93
690.262	56666.19
690.609	56581.45
690.956	56605.18
691.303	56665.06
691.65	56504.62
691.997	56527.67
692.344	56399.99
692.69	56397.73
693.037	56412.87
693.383	56237.73
693.73	56418.29
694.077	56289.25
694.423	56349.14
694.769	56216.26
695.116	56191.18
695.462	56155.47
695.808	56132.2
696.155	56104.17
696.501	55976.72
696.847	56037.06
697.193	55890.85
697.539	55866.44
697.885	55678.42
698.231	55651.08
698.577	55782.83
698.923	55770.4
699.269	55613.34
699.614	55571.99
699.96	55636.16
700.306	55692.66
700.651	55540.57
700.997	55529.73
701.342	55580.57
701.688	55448.6
702.033	55430.07
702.379	55470.97
702.724	55415.83
703.069	55523.62
703.415	55213.8
703.76	55181.94
704.105	55172.45
704.45	55256.97
704.795	54990.53
705.14	55024.88
705.485	55054.03
705.83	54988.95
706.175	55119.79
706.52	54992.11
706.865	54856.98
707.209	54845.68
707.554	54735.62
707.899	54867.37
708.243	54748.05
708.588	54758.9
708.932	54705.34
709.277	54720.48
709.621	54813.59
709.966	54593.48
710.31	54710.54
710.654	54383.09
710.998	54534.95
711.342	54483.65
711.687	54521.39
712.031	54435.74
712.375	54387.38
712.719	54474.61
713.063	54301.28
713.407	54363.43
713.75	54261.06
714.094	54267.39
714.438	54168.41
714.782	54321.4
715.125	54194.85
715.469	54246.6
715.812	54073.95
716.156	54010.9
716.499	54128.41
716.843	54210.89
717.186	54019.26
717.53	54159.14
717.873	54152.14
718.216	53931.8
718.559	53823.33
718.902	53737.68
719.246	53978.13
719.589	53936.32
719.932	53635.09
720.275	53648.87
720.617	53765.48
720.96	53774.29
721.303	53834.18
721.646	53807.29
721.989	53582.43
722.331	53800.73
722.674	53696.78
723.016	53737.68
723.359	53555.77
723.701	53671.24
724.044	53495.2
724.386	53467.41
724.729	53512.38
725.071	53514.41
725.413	53569.1
725.755	53625.82
726.097	53317.81
726.439	53227.41
726.782	53270.12
727.124	53513.51
727.465	53379.27
727.807	53322.1
728.149	53318.71
728.491	53342.67
728.833	53329.56
729.175	53249.79
729.516	53185.16
729.858	53110.35
730.199	53151.26
730.541	53202.33
730.882	53093.18
731.224	53271.03
731.565	53126.4
731.906	53190.13
732.248	53269.22
732.589	53057.25
732.93	52981.09
733.271	53073.29
733.612	53091.82
733.953	53109.45
734.294	53001.43
734.635	53048.89
734.976	53166.4
735.317	52842.79
735.658	52956.23
735.999	52979.28
736.339	53020.64
736.68	53036.91
737.021	52979.06
737.361	52854.54
737.702	52958.95
738.042	52904.71
738.383	52878.5
738.723	52913.75
739.063	52798.5
739.404	52882.79
739.744	52907.42
740.084	52630.82
740.424	52742.23
740.764	52683.47
741.104	52849.8
741.444	52614.55
741.784	52571.61
742.124	52703.59
742.464	52515.12
742.804	52532.29
743.143	52495.23
743.483	52506.08
743.823	52323.71
744.162	52388.34
744.502	52472.86
744.841	52349.02
745.181	52549.24
745.52	52386.98
745.86	52462.69
746.199	52386.76
746.538	52313.54
746.877	52392.41
747.216	52457.72
747.556	52360.09
747.895	52425.18
748.234	52257.27
748.573	52302.01
748.911	52250.94
749.25	52203.94
749.589	52119.42
749.928	52198.29
750.267	52286.42
750.605	52200.1
750.944	52011.63
751.283	51944.96
751.621	52124.84
751.96	51859.99
752.298	51819.09
752.636	51678.53
752.975	51610.28
753.313	51495.71
753.651	51658.87
753.989	51555.82
754.327	51608.7
754.666	51370.74
755.004	51524.86
755.342	51480.79
755.679	51468.14
756.017	51293.68
756.355	51449.61
756.693	51271.76
757.031	51379.33
757.368	51188.37
757.706	51123.29
758.044	50997.64
758.381	50990.64
758.719	50834.93
759.056	50839.45
759.394	50844.88
759.731	50601.27
760.068	50579.57
760.405	50389.3
760.743	50453.02
761.08	50506.36
761.417	50452.12
761.754	50339.81
762.091	50317.89
762.428	50283.08
762.765	50107.04
763.102	50244.22
763.438	50070.66
763.775	49703.89
764.112	49908.86
764.449	49833.83
764.785	49652.82
765.122	49445.14
765.458	49510.22
765.795	49485.37
766.131	49415.08
766.467	49297.12
766.804	49258.93
767.14	49173.28
767.476	49126.28
767.812	48939.62
768.148	48983.91
768.485	48909.79
768.821	48665.27
769.157	48575.11
769.492	48480.87
769.828	48369.69
770.164	48093.54
770.5	48127.89
770.836	48230.94
771.171	47920.43
771.507	47968.8
771.842	47686.77
772.178	47693.1
772.513	47517.28
772.849	47373.1
773.184	47276.16
773.519	47385.08
773.855	47091.76
774.19	47159.78
774.525	46882.72
774.86	46971.31
775.195	46828.71
775.53	46667.59
775.865	46424.43
776.2	46327.71
776.535	46104.66
776.87	46123.87
777.205	45916.87
777.539	45813.15
777.874	45773.15
778.209	45665.13
778.543	45636.2
778.878	45379.03
779.212	45480.73
779.547	45205.03
779.881	45414.74
780.215	45165.71
780.55	45050.68
780.884	44788.54
781.218	44918.25
781.552	44972.49
781.886	44433.75
782.22	44318.04
782.554	44508.77
782.888	44033.53
783.222	44039.86
783.556	43859.75
783.889	43597.16
784.223	43359.2
784.557	43375.92
784.89	43332.98
785.224	43240.78
785.557	42988.14
785.891	43010.06
786.224	43023.84
786.558	42854.35
786.891	42593.57
787.224	42527.13
787.557	42430.41
787.891	42561.25
788.224	42423.4
788.557	42454.14
788.89	42307.48
789.223	42121.27
789.556	42020.03
789.888	41892.12
790.221	41787.94
790.554	41517.67
790.887	41542.3
791.219	41420.04
791.552	41207.39
791.884	41148.41
792.217	41034.06
792.549	40863.9
792.882	40568.76
793.214	40653.51
793.546	40637.91
793.879	40590.46
794.211	40399.5
794.543	40506.84
794.875	40225.27
795.207	40332.16
795.539	40088.55
795.871	40096.23
796.203	39820.08
796.535	39660.54
796.867	39503.26
797.198	39335.35
797.53	39561.11
797.862	39275.92
798.193	39311.4
798.525	39043.83
798.856	39366.31
799.188	38718.19
799.519	38791.18
799.85	38604.07
800.182	38768.81
800.513	38628.48
800.844	38248.37
801.175	38470.29
801.506	38359.1
801.837	38121.37
802.168	38083.41
802.499	37889.06
802.83	37875.28
803.161	37946.69
803.491	37885.9
803.822	37791.89
804.153	37660.37
804.483	37593.25
804.814	37333.14
805.145	37390.09
805.475	37432.58
805.805	37110.1
806.136	37345.8
806.466	37043.21
806.796	37063.32
807.126	36877.34
807.457	36888.86
807.787	36866.26
808.117	36748.3
808.447	36623.33
808.777	36560.28
809.107	36359.16
809.436	36427.4
809.766	36412.04
810.096	36354.86
810.426	36120.29
810.755	36258.82
811.085	36091.37
811.414	35965.27
811.744	35758.27
812.073	35697.93
812.403	35742.68
812.732	35436.47
813.061	35463.14
813.39	35337.26
813.719	35323.48
814.049	35586.07
814.378	35501.55
814.707	35312.63
815.036	35165.97
815.365	35102.47
815.693	34754.91
816.022	34832.42
816.351	34685.98
816.68	34628.81
817.008	34754.23
817.337	34451.64
817.665	34337.74
817.994	34609.15
818.322	34521.92
818.651	34398.08
818.979	34283.05
819.307	34340
819.636	34239.66
819.964	34019.33
820.292	34257.29
820.62	34135.03
820.948	34149.05
821.276	34253
821.604	34169.16
821.932	34280.12
822.259	34210.29
822.587	34243.05
822.915	34178.88
823.243	34370.51
823.57	34293
823.898	34281.92
824.225	34217.29
824.553	34131.64
824.88	34192.89
825.207	34312.66
825.535	33979.78
825.862	34103.62
826.189	34056.17
826.516	34296.16
826.843	34423.61
827.17	34270.4
827.497	34308.59
827.824	34419.09
828.151	34370.06
828.478	34236.05
828.805	34582.71
829.131	34246.67
829.458	34321.47
829.785	34242.83
830.111	34213.22
830.438	34472.43
830.764	34423.61
831.09	34413.9
831.417	34150.85
831.743	34317.18
832.069	34275.6
832.395	34167.58
832.722	34333.9
833.048	34255.94
833.374	34360.34
833.7	34160.8
834.026	34290.51
834.351	34298.65
834.677	34337.74
835.003	34478.98
835.329	34413.67
835.654	34279.44
835.98	34159.44
836.306	34293.22
836.631	34013.91
836.956	34452.31
837.282	34292.77
837.607	34245.31
837.932	34212.32
838.258	34178.42
838.583	34048.94
838.908	33858.66
839.233	33985.89
839.558	33856.17
839.883	33813.24
840.208	33634.93
840.533	33636.74
840.858	33660.02
841.182	33723.07
841.507	33712.67
841.832	33494.83
842.156	33468.39
842.481	33409.86
842.805	33467.48
843.13	33243.76
843.454	33280.14
843.778	33294.6
844.103	33288.5
844.427	33175.06
844.751	33258.67
845.075	32989.3
845.399	33010.54
845.723	32801.96
846.047	32830.89
846.371	32499.37
846.695	32657.33
847.019	32415.98
847.343	32349.09
847.666	32122.66
847.99	31972.38
848.313	32002.21
848.637	31869.33
848.96	31746.62
849.284	31710.47
849.607	31576.01
849.931	31326.75
850.254	31180.54
850.577	31077.49
850.9	30828.23
851.223	30840.66
851.546	30743.71
851.869	30582.36
852.192	30781
852.515	30467.33
852.838	30324.74
853.161	30378.52
853.483	30182.6
853.806	30096.72
854.129	30140.11
854.451	29963.62
854.774	29956.16
855.096	29791.42
855.419	29814.02
855.741	29686.56
856.063	29380.58
856.385	29390.98
856.708	29407.93
857.03	29280.47
857.352	29263.52
857.674	29194.15
857.996	29136.3
858.318	28998.9
858.64	29061.5
858.961	29040.93
859.283	28782.86
859.605	28665.12
859.926	28796.42
860.248	28610.89
860.57	28443.88
860.891	28550.77
861.212	28440.95
861.534	28427.84
861.855	28408.18
862.176	28418.35
862.498	28447.5
862.819	28322.98
863.14	28120.28
863.461	28104.91
863.782	28001.18
864.103	28082.54
864.424	28064.69
864.745	28134.74
865.065	27907.4
865.386	27825.37
865.707	27783.79
866.027	27854.52
866.348	27874.86
866.668	27865.82
866.989	27874.86
867.309	27598.03
867.63	27638.71
867.95	27607.07
868.27	27425.61
868.59	27556.45
868.91	27594.42
869.23	27484.81
869.55	27451.14
869.87	27636
870.19	27516.23
870.51	27343.8
870.83	27386.29
871.15	27196.69
871.469	27207.76
871.789	27315.1
872.109	27268.1
872.428	27197.59
872.748	27113.52
873.067	27076.69
873.386	27035.79
873.706	27056.58
874.025	26788.34
874.344	26832.85
874.663	26978.39
874.982	26811.61
875.301	26776.36
875.62	26643.25
875.939	26566.42
876.258	26660.88
876.577	26566.87
876.896	26589.47
877.214	26674.67
877.533	26568
877.852	26542.69
878.17	26490.04
878.489	26520.77
878.807	26507.89
879.125	26410.94
879.444	26366.88
879.762	26447.55
880.08	26459.98
880.398	26342.7
880.716	26386.09
881.034	26195.36
881.352	26151.06
881.67	26037.17
881.988	26231.74
882.306	26077.85
882.624	26143.15
882.941	25895.93
883.259	26045.53
883.577	25847.34
883.894	25826.55
884.212	25805.08
884.529	25760.79
884.846	25672.66
885.164	25744.07
885.481	25556.5
885.798	25655.71
886.115	25356.06
886.432	25354.02
886.75	25292.56
887.067	25319.67
887.383	25128.49
887.7	25242.61
888.017	25085.56
888.334	25102.5
888.651	24978.67
888.967	25032.22
889.284	24981.38
889.6	24894.37
889.917	24707.03
890.233	24723.08
890.55	24590.2
890.866	24708.16
891.182	24612.57
891.498	24474.05
891.815	24512.91
892.131	24357.21
892.447	24237.44
892.763	24252.58
893.079	24206.93
893.395	24060.72
893.71	24315.86
894.026	24104.79
894.342	24054.85
894.657	23924
894.973	23866.83
895.289	23806.94
895.604	23718.59
895.92	23573.96
896.235	23492.6
896.55	23449.44
896.865	23421.42
897.181	23290.8
897.496	23364.24
897.811	23150.69
898.126	23125.38
898.441	23103.91
898.756	22941.2
899.071	22758.16
899.386	22763.81
899.7	22567.88
900.015	22499.86
900.33	22438.62
900.644	22498.73
900.959	22480.2
901.273	22372.18
901.588	22269.13
901.902	22136.93
902.216	22198.85
902.531	22131.51
902.845	22003.83
903.159	21888.8
903.473	21782.14
903.787	21741.01
904.101	21631.63
904.415	21714.34
904.729	21725.42
905.042	21570.39
905.356	21418.98
905.67	21424.63
905.984	21293.56
906.297	21145.32
906.611	21113.46
906.924	21140.8
907.237	21023.29
907.551	20980.13
907.864	20881.82
908.177	20764.99
908.491	20693.13
908.804	20556.86
909.117	20582.17
909.43	20422.17
909.743	20283.87
910.056	20259.69
910.368	20090.66
910.681	20144.22
910.994	19992.58
911.307	19872.36
911.619	19783.1
911.932	19896.54
912.244	19699.48
912.557	19724.34
912.869	19492.48
913.181	19446.38
913.494	19324.35
913.806	19163.68
914.118	19227.4
914.43	19160.51
914.742	19083.68
915.054	19038.71
915.366	19000.07
915.678	18869.45
915.99	18739.51
916.302	18553.3
916.613	18589.23
916.925	18617.48
917.236	18544.26
917.548	18578.83
917.859	18455.9
918.171	18273.76
918.482	18226.75
918.794	18169.13
919.105	18178.62
919.416	17971.84
919.727	17883.71
920.038	17895.46
920.349	17709.25
920.66	17826.08
920.971	17622.7
921.282	17509.71
921.593	17325.53
921.903	17407.11
922.214	17390.62
922.525	17333.22
922.835	17184.97
923.146	17077.63
923.456	17078.31
923.767	16937.29
924.077	16874.92
924.387	16715.83
924.697	16610.75
925.008	16685.32
925.318	16591.09
925.628	16547.47
925.938	16491.88
926.248	16348.84
926.558	16329.18
926.867	16376.18
927.177	16273.81
927.487	16128.95
927.796	16020.48
928.106	15955.85
928.416	15926.02
928.725	15952.91
929.034	15775.07
929.344	15872.46
929.653	15762.41
929.962	15725.35
930.271	15556.54
930.581	15501.4
930.89	15368.75
931.199	15251.01
931.508	15208.3
931.817	15181.63
932.125	15201.75
932.434	15034.07
932.743	14813.06
933.051	14863.23
933.36	14945.03
933.669	14773.74
933.977	14765.6
934.286	14709.1
934.594	14751.14
934.902	14552.05
935.21	14483.57
935.519	14557.92
935.827	14394.08
936.135	14353.63
936.443	14183.24
936.751	14216.46
937.059	14162.23
937.367	14043.59
937.674	14075.9
937.982	13967.43
938.29	13899.86
938.597	13893.31
938.905	13672.75
939.213	13671.62
939.52	13656.7
939.827	13538.51
940.135	13556.59
940.442	13543.03
940.749	13502.36
941.056	13473.88
941.363	13232.08
941.67	13277.5
941.977	13284.06
942.284	13165.87
942.591	13159.09
942.898	13087.68
943.205	13120.9
943.511	12955.93
943.818	12839.55
944.125	12759.33
944.431	12654.92
944.738	12749.83
945.044	12711.87
945.35	12665.32
945.657	12451.54
945.963	12515.26
946.269	12325.21
946.575	12355.72
946.881	12162.05
947.187	12249.28
947.493	12185.78
947.799	12180.81
948.105	12101.26
948.41	11945.56
948.716	12100.81
949.022	12022.85
949.327	11915.96
949.633	11744.89
949.938	11719.13
950.244	11741.27
950.549	11621.28
950.854	11625.34
951.16	11531.79
951.465	11434.39
951.77	11339.7
952.075	11379.02
952.38	11343.32
952.685	11351.45
952.99	11229.2
953.294	11179.71
953.599	11120.72
953.904	11131.8
954.209	10966.83
954.513	10965.7
954.818	10963.89
955.122	10881.63
955.426	10838.92
955.731	10809.77
956.035	10759.6
956.339	10681.87
956.643	10688.87
956.948	10532.72
957.252	10492.94
957.556	10509.67
957.86	10521.42
958.163	10486.16
958.467	10466.5
958.771	10378.82
959.075	10374.98
959.378	10224.7
959.682	10240.75
959.985	10189.9
960.289	10142.67
960.592	10064.93
960.896	10047.08
961.199	10055.67
961.502	9961.43
961.805	9880.98
962.108	9814.09
962.411	9827.43
962.714	9692.29
963.017	9703.81
963.32	9768.9
963.623	9608.67
963.926	9680.54
964.228	9554.21
964.531	9541.33
964.833	9530.03
965.136	9435.8
965.438	9474.67
965.741	9391.28
966.043	9246.65
966.345	9259.98
966.648	9278.97
966.95	9211.62
967.252	9125.52
967.554	9174.79
967.856	9092.3
968.158	8962.36
968.46	8942.25
968.761	8885.76
969.063	8899.31
969.365	8862.7
969.666	8779.77
969.968	8631.3
970.269	8644.63
970.571	8648.47
970.872	8694.35
971.174	8614.8
971.475	8563.73
971.776	8500.45
972.077	8498.87
972.378	8474.24
972.679	8471.75
972.98	8383.4
973.281	8278.31
973.582	8348.37
973.883	8235.38
974.183	8265.21
974.484	8171.88
974.785	8152.89
975.085	8146.34
975.386	8184.98
975.686	8005.33
975.986	7983.41
976.287	7967.36
976.587	7863.18
976.887	7883.3
977.187	7864.31
977.487	7886.01
977.787	7838.32
978.087	7794.26
978.387	7737.08
978.687	7706.58
978.987	7652.57
979.286	7603.08
979.586	7566.02
979.885	7542.06
980.185	7511.1
980.484	7412.8
980.784	7456.41
981.083	7410.99
981.382	7342.29
981.682	7344.33
981.981	7356.08
982.28	7273.59
982.579	7175.97
982.878	7215.74
983.177	7165.12
983.475	7161.05
983.774	7056.88
984.073	7040.83
984.372	6922.42
984.67	6929.42
984.969	6889.42
985.267	6848.75
985.566	6849.2
985.864	6818.46
986.162	6816.43
986.461	6782.76
986.759	6749.31
987.057	6659.15
987.355	6630.45
987.653	6626.38
987.951	6605.36
988.249	6518.13
988.547	6555.42
988.844	6503.67
989.142	6462.32
989.44	6452.82
989.737	6487.4
990.035	6403.33
990.332	6382.32
990.63	6306.61
990.927	6341.42
991.224	6229.78
991.521	6256.45
991.819	6170.57
992.116	6197.46
992.413	6214.86
992.71	6120.18
993.006	6085.15
993.303	6063.46
993.6	6058.94
993.897	5982.55
994.193	5966.74
994.49	5972.16
994.787	5937.58
995.083	5863.24
995.379	5903.46
995.676	5829.56
995.972	5831.15
996.268	5792.28
996.565	5740.98
996.861	5734.43
997.157	5663.01
997.453	5599.29
997.749	5590.47
998.044	5545.96
998.34	5549.57
998.636	5493.75
998.932	5494.88
999.227	5467.99
999.523	5460.76
999.818	5375.11
1000.114	5341.89
1000.409	5325.85
1000.704	5258.05
1001	5265.29
1001.295	5241.56
1001.59	5150.03
1001.885	5091.28
1002.18	5085.85
1002.475	5104.84
1002.77	5061.45
1003.065	5013.54
1003.359	4969.7
1003.654	4966.54
1003.949	4936.03
1004.243	4932.41
1004.538	4913.66
1004.832	4896.03
1005.127	4824.62
1005.421	4805.64
1005.715	4762.47
1006.009	4699.42
1006.304	4751.85
1006.598	4678.18
1006.892	4663.04
1007.186	4602.25
1007.48	4574.91
1007.773	4602.93
1008.067	4579.65
1008.361	4473.44
1008.655	4492.65
1008.948	4465.31
1009.242	4443.61
1009.535	4410.17
1009.829	4403.39
1010.122	4344.18
1010.415	4285.2
1010.708	4298.76
1011.001	4281.36
1011.295	4247.68
1011.588	4215.6
1011.881	4165.65
1012.173	4139.21
1012.466	4119.1
1012.759	4099.21
1013.052	4072.77
1013.344	4080.46
1013.637	4020.57
1013.93	4010.4
1014.222	4001.14
1014.514	3929.73
1014.807	3943.96
1015.099	3891.31
1015.391	3855.15
1015.683	3847.47
1015.976	3816.51
1016.268	3770.64
1016.56	3733.57
1016.851	3714.37
1017.143	3670.98
1017.435	3648.15
1017.727	3658.55
1018.018	3644.54
1018.31	3613.35
1018.602	3556.86
1018.893	3549.4
1019.185	3502.17
1019.476	3491.77
1019.767	3476.18
1020.058	3422.62
1020.35	3408.61
1020.641	3379.91
1020.932	3378.78
1021.223	3356.63
1021.514	3308.73
1021.804	3318.67
1022.095	3263.76
1022.386	3228.05
1022.677	3189.41
1022.967	3199.35
1023.258	3166.81
1023.548	3129.07
1023.839	3103.08
1024.129	3038.23
1024.419	3057.21
1024.709	3055.63
1025	3045.68
1025.29	2976.76
1025.58	2947.15
1025.87	2970.2
1026.16	2916.87
1026.449	2897.44
1026.739	2873.48
1027.029	2829.19
1027.319	2839.13
1027.608	2821.51
1027.898	2793.26
1028.187	2767.27
1028.477	2720.04
1028.766	2700.15
1029.055	2660.16
1029.344	2630.55
1029.634	2665.81
1029.923	2637.78
1030.212	2591.46
1030.501	2595.75
1030.79	2568.86
1031.078	2573.38
1031.367	2533.38
1031.656	2514.62
1031.945	2487.51
1032.233	2486.15
1032.522	2444.34
1032.81	2403.89
1033.099	2440.5
1033.387	2391.69
1033.675	2369.54
1033.963	2364.57
1034.251	2335.42
1034.54	2325.7
1034.828	2294.29
1035.116	2307.62
1035.403	2265.59
1035.691	2249.77
1035.979	2245.25
1036.267	2222.88
1036.554	2185.37
1036.842	2171.13
1037.129	2133.84
1037.417	2151.69
1037.704	2119.61
1037.992	2139.04
1038.279	2090.68
1038.566	2034.41
1038.853	2034.41
1039.14	2034.41
