Data from copper_heatsink_FLMS001491_052.txt Node
Date: Tue Feb 07 10:50:11 GMT 2017
User: dcchb
Spectrometer: FLMS00149
Trigger mode: 0
Integration Time (sec): 2.000000E-2
Scans to average: 10
Electric dark correction enabled: true
Nonlinearity correction enabled: false
Boxcar width: 0
XAxis mode: Wavelengths
Number of Pixels in Spectrum: 2048
>>>>>Begin Spectral Data<<<<<
341.393	-8.69
341.776	-8.69
342.16	-8.69
342.543	-60.66
342.927	-77.84
343.31	-86.2
343.693	-44.39
344.077	-46.2
344.46	-72.41
344.843	-51.62
345.226	-64.73
345.61	-37.16
345.993	-13.88
346.376	-1.45
346.759	-7.56
347.142	21.6
347.525	46.91
347.908	56.17
348.291	73.12
348.674	104.76
349.057	123.06
349.44	117.19
349.823	149.95
350.206	167.35
350.588	194.25
350.971	231.99
351.354	225.21
351.737	245.09
352.119	270.4
352.502	293.9
352.884	274.24
353.267	273.11
353.65	307.92
354.032	311.53
354.414	312.66
354.797	340.01
355.179	313.11
355.562	337.52
355.944	324.19
356.326	332.32
356.709	343.62
357.091	352.21
357.473	335.03
357.855	359.67
358.238	337.29
358.62	368.48
359.002	351.98
359.384	356.5
359.766	357.18
360.148	333.45
360.53	368.03
360.912	335.94
361.294	360.12
361.676	350.85
362.057	358.54
362.439	376.39
362.821	361.02
363.203	337.75
363.584	334.36
363.966	344.98
364.348	347.69
364.729	346.11
365.111	336.16
365.493	322.38
365.874	318.76
366.256	346.56
366.637	330.97
367.019	340.91
367.4	329.61
367.781	345.2
368.163	342.72
368.544	357.18
368.925	335.71
369.306	343.62
369.688	321.93
370.069	344.98
370.45	340.46
370.831	326.45
371.212	324.86
371.593	335.94
371.974	327.35
372.355	343.85
372.736	353.11
373.117	334.13
373.498	337.07
373.879	342.27
374.26	358.31
374.641	328.71
375.021	342.72
375.402	376.61
375.783	343.39
376.163	360.57
376.544	371.64
376.925	366.22
377.305	366.67
377.686	367.58
378.066	369.83
378.447	367.8
378.827	356.28
379.208	344.98
379.588	359.67
379.968	347.69
380.349	372.09
380.729	366.67
381.109	373.9
381.489	370.29
381.87	367.12
382.25	361.25
382.63	377.74
383.01	367.35
383.39	370.74
383.77	364.19
384.15	391.3
384.53	362.38
384.91	409.61
385.29	398.99
385.67	395.37
386.049	373.45
386.429	378.87
386.809	388.59
387.189	400.57
387.568	405.54
387.948	393.34
388.328	403.28
388.707	405.54
389.087	393.11
389.466	410.51
389.846	404.64
390.225	424.97
390.605	406.9
390.984	422.94
391.363	403.51
391.743	430.85
392.122	427.23
392.501	440.79
392.881	445.09
393.26	429.27
393.639	429.49
394.018	437.63
394.397	435.82
394.776	434.24
395.155	435.82
395.534	443.96
395.913	442.6
396.292	454.13
396.671	444.86
397.05	434.47
397.429	470.4
397.808	442.6
398.186	448.02
398.565	459.1
398.944	481.47
399.323	487.12
399.701	469.95
400.08	466.56
400.458	478.98
400.837	460
401.215	472.66
401.594	492.54
401.972	471.98
402.351	492.09
402.729	458.19
403.107	496.61
403.486	484.63
403.864	484.63
404.242	498.87
404.62	459.55
404.999	481.92
405.377	501.81
405.755	503.16
406.133	486.44
406.511	519.89
406.889	523.5
407.267	513.56
407.645	521.02
408.023	531.19
408.401	546.55
408.779	540.23
409.156	537.97
409.534	530.96
409.912	547.46
410.29	558.98
410.667	530.73
411.045	552.43
411.422	568.93
411.8	567.57
412.178	568.47
412.555	571.41
412.933	585.2
413.31	589.49
413.687	586.55
414.065	605.53
414.442	602.6
414.819	628.36
415.197	594.46
415.574	620.68
415.951	607.79
416.328	636.04
416.705	621.58
417.082	614.57
417.46	634.69
417.837	624.97
418.214	620.68
418.591	619.55
418.967	657.51
419.344	660
419.721	658.19
420.098	640.34
420.475	648.47
420.852	642.14
421.228	659.09
421.605	677.4
421.982	690.5
422.358	677.62
422.735	700.67
423.111	679.66
423.488	703.16
423.864	691.63
424.241	720.79
424.617	724.18
424.994	740.9
425.37	709.26
425.746	724.63
426.123	712.65
426.499	732.09
426.875	714.46
427.251	732.76
427.627	749.49
428.003	736.15
428.379	753.1
428.756	794.91
429.132	775.47
429.507	792.2
429.883	787.45
430.259	788.81
430.635	801.46
431.011	802.59
431.387	836.26
431.763	828.81
432.138	824.96
432.514	830.39
432.89	859.99
433.265	859.77
433.641	862.25
434.016	881.46
434.392	891.63
434.767	873.1
435.143	868.13
435.518	899.31
435.894	926.88
436.269	889.14
436.644	927.11
437.02	947.22
437.395	939.76
437.77	926.88
438.145	963.94
438.52	963.49
438.895	986.99
439.271	975.24
439.646	957.39
440.021	988.35
440.395	1008.69
440.77	972.3
441.145	1010.72
441.52	1011.17
441.895	1029.03
442.27	1049.37
442.645	1023.6
443.019	1036.94
443.394	1027.67
443.769	1053.66
444.143	1077.16
444.518	1056.14
444.892	1058.86
445.267	1072.19
445.641	1064.05
446.016	1086.88
446.39	1066.31
446.764	1068.35
447.139	1096.14
447.513	1123.71
447.887	1102.7
448.262	1126.88
448.636	1116.93
449.01	1156.71
449.384	1139.31
449.758	1141.57
450.132	1154.67
450.506	1148.35
450.88	1181.79
451.254	1185.86
451.628	1193.77
452.002	1221.56
452.376	1217.27
452.75	1209.59
453.123	1254.56
453.497	1245.29
453.871	1247.78
454.244	1266.08
454.618	1272.86
454.992	1302.47
455.365	1309.7
455.739	1313.09
456.112	1336.14
456.486	1331.17
456.859	1362.35
457.232	1384.72
457.606	1359.41
457.979	1363.03
458.352	1422.69
458.725	1420.65
459.099	1455
459.472	1440.54
459.845	1493.65
460.218	1464.95
460.591	1470.6
460.964	1517.83
461.337	1521.44
461.71	1554.44
462.083	1518.96
462.456	1560.54
462.829	1599.63
463.201	1614.1
463.574	1606.19
463.947	1628.11
464.32	1657.26
464.692	1661.33
465.065	1709.46
465.438	1730.03
465.81	1737.71
466.183	1768.44
466.555	1791.72
466.928	1781.1
467.3	1805.05
467.672	1835.33
468.045	1874.2
468.417	1864.03
468.789	1860.64
469.161	1895.9
469.534	1925.95
469.906	1952.84
470.278	1988.55
470.65	1988.55
471.022	2019.06
471.394	2067.19
471.766	2098.15
472.138	2105.38
472.51	2141.77
472.882	2155.1
473.253	2214.76
473.625	2245.49
473.997	2289.78
474.369	2266.51
474.74	2309.44
475.112	2341.76
475.484	2405.04
475.855	2424.24
476.227	2463.79
476.598	2494.3
476.97	2529.78
477.341	2539.27
477.713	2617.46
478.084	2637.8
478.455	2668.53
478.827	2729.77
479.198	2782.2
479.569	2770.68
479.94	2895.19
480.311	2925.25
480.682	2927.51
481.053	2996.66
481.424	3097.45
481.795	3092.25
482.166	3119.14
482.537	3174.05
482.908	3224.22
483.279	3258.35
483.65	3320.94
484.021	3415.18
484.391	3434.61
484.762	3418.12
485.133	3437.55
485.503	3543.08
485.874	3579.02
486.244	3627.15
486.615	3712.57
486.985	3739.01
487.356	3823.98
487.726	3913.24
488.097	3920.02
488.467	3944.66
488.837	3961.15
489.207	4047.7
489.578	4122.96
489.948	4180.13
490.318	4207.02
490.688	4242.95
491.058	4329.96
491.428	4357.98
491.798	4401.82
492.168	4482.95
492.538	4478.2
492.908	4541.48
493.278	4618.08
493.648	4613.34
494.017	4634.58
494.387	4706.22
494.757	4743.05
495.126	4816.72
495.496	4836.38
495.866	4932.88
496.235	4915.93
496.605	4974.91
496.974	5019.2
497.344	5060.11
497.713	5035.7
498.082	5101.69
498.452	5214.68
498.821	5189.37
499.19	5229.59
499.559	5260.55
499.928	5377.39
500.298	5437.95
500.667	5430.94
501.036	5430.04
501.405	5498.29
501.774	5521.79
502.143	5586.42
502.512	5551.62
502.88	5654.22
503.249	5641.56
503.618	5733.31
503.987	5726.08
504.356	5816.7
504.724	5792.29
505.093	5813.76
505.462	5956.58
505.83	5943.25
506.199	5996.13
506.567	6111.6
506.936	6067.31
507.304	6172.62
507.672	6183.24
508.041	6226.4
508.409	6291.04
508.777	6381.43
509.145	6353.63
509.514	6432.73
509.882	6498.04
510.25	6557.24
510.618	6577.58
510.986	6629.11
511.354	6710.91
511.722	6681.99
512.09	6785.94
512.458	6776.22
512.826	6816.45
513.193	6867.29
513.561	6944.8
513.929	6975.31
514.297	7080.39
514.664	7175.08
515.032	7230.45
515.4	7270.67
515.767	7282.87
516.135	7377.11
516.502	7271.8
516.869	7445.13
517.237	7564
517.604	7550.44
517.972	7643.77
518.339	7677.44
518.706	7722.64
519.073	7789.75
519.44	7839.02
519.808	7946.13
520.175	7950.65
520.542	8047.15
520.909	8098.22
521.276	8128.27
521.643	8254.37
522.009	8304.32
522.376	8339.57
522.743	8486.46
523.11	8524.42
523.477	8642.61
523.843	8663.63
524.21	8744.53
524.577	8828.14
524.943	8856.84
525.31	8917.18
525.676	9034.24
526.043	9062.26
526.409	9184.07
526.776	9269.04
527.142	9396.49
527.508	9385.42
527.874	9497.5
528.241	9502.25
528.607	9623.6
528.973	9742.47
529.339	9721
529.705	9892.97
530.071	9986.31
530.437	9916.48
530.803	10038.51
531.169	10162.57
531.535	10176.81
531.901	10199.18
532.267	10334.32
532.632	10354.88
532.998	10455.22
533.364	10467.2
533.73	10598.72
534.095	10672.61
534.461	10731.82
534.826	10805.49
535.192	10878.26
535.557	10987.18
535.923	10976.34
536.288	11063.79
536.653	11123
537.019	11114.86
537.384	11275.31
537.749	11221.08
538.114	11280.51
538.479	11392.14
538.845	11485.02
539.21	11505.81
539.575	11563.66
539.94	11649.76
540.305	11729.54
540.67	11775.18
541.034	11754.62
541.399	11993.03
541.764	12023.54
542.129	12005.24
542.494	12152.35
542.858	12206.13
543.223	12183.76
543.587	12295.4
543.952	12431.44
544.316	12494.49
544.681	12492.68
545.045	12638.21
545.41	12676.86
545.774	12786.23
546.138	12799.11
546.503	12950.97
546.867	12945.78
547.231	13080.69
547.595	13089.27
547.959	13211.76
548.324	13290.17
548.688	13316.84
549.052	13413.11
549.416	13549.6
549.779	13642.93
550.143	13665.08
550.507	13834.57
550.871	13957.27
551.235	13884.06
551.599	14106.2
551.962	14175.35
552.326	14282.92
552.689	14423.93
553.053	14371.05
553.417	14519.75
553.78	14713.64
554.143	14804.26
554.507	14992.95
554.87	15084.93
555.234	15190.24
555.597	15260.29
555.96	15351.81
556.323	15453.51
556.686	15550.68
557.05	15748.19
557.413	15879.94
557.776	15932.14
558.139	16073.15
558.502	16254.84
558.865	16375.06
559.228	16458.23
559.59	16751.33
559.953	16807.14
560.316	17095.95
560.679	17111.09
561.041	17372.33
561.404	17552.21
561.767	17672.88
562.129	17747.23
562.492	18016.38
562.854	18114.68
563.217	18257.73
563.579	18426.08
563.941	18574.78
564.304	18867.2
564.666	19024.94
565.028	19142.67
565.39	19323.69
565.753	19581.99
566.115	19665.15
566.477	19866.5
566.839	20026.27
567.201	20211.57
567.563	20401.17
567.925	20627.38
568.287	20690.66
568.648	20910.76
569.01	21122.06
569.372	21353.01
569.734	21370.41
570.095	21758.88
570.457	21901.92
570.819	21950.51
571.18	22105.53
571.542	22404.74
571.903	22548.23
572.265	22786.65
572.626	22817.15
572.987	23087.66
573.349	23201.78
573.71	23511.6
574.071	23477.02
574.432	23762.21
574.794	23981.42
575.155	24164.46
575.516	24179.38
575.877	24494.85
576.238	24645.81
576.599	24846.71
576.96	24992.69
577.32	25139.58
577.681	25339.12
578.042	25474.71
578.403	25664.31
578.763	25603.75
579.124	25812.78
579.485	26026.34
579.845	26244.18
580.206	26275.59
580.566	26429.04
580.927	26534.8
581.287	26701.57
581.648	26838.97
582.008	27051.85
582.368	26950.83
582.728	27111.5
583.089	27180.43
583.449	27415.45
583.809	27379.29
584.169	27651.38
584.529	27735.67
584.889	28165.94
585.249	28052.04
585.609	27972.05
585.969	28214.75
586.329	28213.17
586.688	28439.83
587.048	28395.76
587.408	28507.85
587.768	28691.35
588.127	28795.3
588.487	28821.52
588.846	28996.88
589.206	28952.81
589.565	29005.92
589.925	29354.84
590.284	29219.02
590.643	29427.15
591.003	29627.6
591.362	29658.56
591.721	29726.58
592.08	29765.67
592.44	29907.82
592.799	30017.19
593.158	30029.85
593.517	30176.06
593.876	30288.6
594.235	30356.62
594.593	30484.75
594.952	30616.5
595.311	30589.15
595.67	30808.58
596.029	30994.11
596.387	31037.96
596.746	31219.19
597.104	31097.84
597.463	31200.21
597.822	31442.01
598.18	31344.39
598.538	31360.21
598.897	31532.63
599.255	31577.38
599.613	31966.52
599.972	31895.11
600.33	32058.27
600.688	32057.59
601.046	32292.39
601.404	32465.04
601.762	32451.03
602.12	32640.17
602.478	32675.88
602.836	32914.74
603.194	32707.29
603.552	32825.7
603.91	32790.9
604.268	33106.6
604.625	33037.22
604.983	33199.93
605.341	33165.81
605.698	33360.61
606.056	33498.68
606.413	33643.54
606.771	33709.3
607.128	33763.53
607.485	33768.5
607.843	33932.79
608.2	34110.42
608.557	34356.96
608.914	34321.03
609.272	34509.95
609.629	34620.91
609.986	34733.9
610.343	34653.45
610.7	35115.59
611.057	34957.17
611.414	34999.21
611.771	35159.88
612.127	35423.6
612.484	35419.31
612.841	35480.78
613.198	35498.4
613.554	35587.21
613.911	35861.78
614.267	35799.86
614.624	35886.42
614.98	36110.82
615.337	36269.68
615.693	36349.23
616.05	36337.48
616.406	36685.72
616.762	36522.56
617.118	36582.67
617.475	36735.88
617.831	36935.88
618.187	36922.32
618.543	37071.92
618.899	37300.84
619.255	37255.64
619.611	37265.14
619.967	37421.52
620.323	37706.93
620.678	37546.26
621.034	37554.17
621.39	37645.92
621.746	37788.06
622.101	38036.19
622.457	37724.78
622.812	37926.81
623.168	38078.9
623.523	38189.86
623.879	38181.95
624.234	38218.56
624.589	38191.44
624.945	38404.32
625.3	38569.96
625.655	38412
626.01	38496.06
626.365	38647.02
626.72	38614.03
627.075	38666.46
627.43	38893.79
627.785	38664.87
628.14	38952.1
628.495	38972.66
628.85	39035.26
629.205	38981.7
629.559	39155.26
629.914	39117.97
630.269	38905.09
630.623	38954.58
630.978	39022.6
631.332	39229.38
631.687	39471.86
632.041	39303.5
632.396	39303.73
632.75	39085.2
633.104	39303.27
633.459	39220.79
633.813	39211.75
634.167	39182.6
634.521	39364.06
634.875	39456.26
635.229	39381.69
635.583	39258.53
635.937	39301.24
636.291	39300.11
636.645	39620.55
636.999	39510.73
637.352	39503.72
637.706	39402.48
638.06	39545.53
638.413	39340.56
638.767	39465.76
639.121	39588.46
639.474	39424.4
639.828	39514.34
640.181	39658.07
640.534	39733.55
640.888	39492.2
641.241	39356.61
641.594	39609.48
641.947	39710.27
642.301	39520.44
642.654	39752.3
643.007	39746.2
643.36	39747.56
643.713	39675.47
644.066	39828.46
644.419	39641.57
644.771	39522.48
645.124	39164.52
645.477	39165.88
645.83	38890.4
646.182	38863.74
646.535	38661.71
646.888	38837.98
647.24	38596.4
647.593	38847.24
647.945	38849.28
648.298	38743.06
648.65	38716.85
649.002	38662.16
649.355	38752.78
649.707	38843.17
650.059	38920.01
650.411	39477.06
650.763	39562.25
651.115	40038.17
651.467	39995.46
651.819	39883.82
652.171	39917.5
652.523	39837.05
652.875	39942.58
653.227	39967.21
653.578	40089.69
653.93	40099.64
654.282	40036.36
654.633	39922.24
654.985	40119.98
655.337	40192.74
655.688	40200.65
656.039	40232.06
656.391	39931.96
656.742	40046.53
657.094	40187.32
657.445	40335.11
657.796	40164.27
658.147	40242.46
658.498	40161.78
658.849	40407.65
659.2	40423.47
659.551	40326.07
659.902	40429.35
660.253	40384.38
660.604	40391.38
660.955	40354.32
661.306	40492.62
661.656	40368.56
662.007	40437.48
662.358	40552.96
662.708	40813.97
663.059	40815.78
663.409	40433.87
663.76	40691.03
664.11	40677.02
664.461	40745.27
664.811	40811.71
665.161	40837.47
665.511	40720.64
665.862	40754.76
666.212	41080.4
666.562	41111.14
666.912	40928.54
667.262	40961.99
667.612	41039.05
667.962	41107.97
668.312	41101.65
668.662	41407.4
669.011	41281.53
669.361	41229.55
669.711	41272.26
670.06	41239.95
670.41	41118.82
670.76	41102.78
671.109	41211.47
671.459	41154.75
671.808	41122.66
672.157	41315.2
672.507	41246.05
672.856	41322.88
673.205	41232.26
673.554	41468.42
673.904	41448.75
674.253	41663.66
674.602	41660.73
674.951	41069.78
675.3	41038.37
675.649	41509.54
675.998	41602.2
676.346	41647.85
676.695	41721.52
677.044	41490.56
677.393	41738.24
677.741	41814.17
678.09	41638.35
678.438	41603.1
678.787	41749.99
679.135	41799.48
679.484	41497.79
679.832	41735.3
680.181	41560.16
680.529	41771.68
680.877	41645.81
681.225	41693.04
681.573	41914.28
681.922	41560.39
682.27	41697.79
682.618	41813.49
682.966	41707.73
683.314	41749.76
683.661	41612.14
684.009	41371.47
684.357	41520.39
684.705	41308.87
685.053	41458.02
685.4	41459.83
685.748	41454.86
686.095	41267.74
686.443	41092.83
686.79	41247.63
687.138	41326.95
687.485	41440.62
687.832	41387.74
688.18	41190
688.527	41044.92
688.874	40966.28
689.221	41017.13
689.568	40864.14
689.915	40852.61
690.262	40731.26
690.609	40823.91
690.956	40689.23
691.303	40742.33
691.65	40653.52
691.997	40660.53
692.344	40527.42
692.69	40562
693.037	40686.51
693.383	40438.84
693.73	40475.45
694.077	40432.06
694.423	40403.81
694.769	40197.49
695.116	40237.04
695.462	40285.17
695.808	40071.84
696.155	40124.04
696.501	39953.2
696.847	39910.26
697.193	39577.39
697.539	39805.86
697.885	39652.64
698.231	39539.88
698.577	39548.24
698.923	39691.51
699.269	39578.3
699.614	39195.71
699.96	39431.63
700.306	39310.51
700.651	39251.75
700.997	39360
701.342	39220.11
701.688	39129.95
702.033	39015.37
702.379	39181.02
702.724	38965.2
703.069	39129.72
703.415	38743.97
703.76	38853.34
704.105	38900.57
704.45	38859.9
704.795	38542.16
705.14	38592.56
705.485	38626.91
705.83	38380.59
706.175	38489.06
706.52	38472.34
706.865	38282.06
707.209	38369.74
707.554	38160.93
707.899	38455.84
708.243	38206.58
708.588	38264.21
708.932	38045.23
709.277	38134.04
709.621	38120.93
709.966	37816.76
710.31	38033.7
710.654	37555.3
710.998	37849.08
711.342	37844.78
711.687	37781.28
712.031	37581.74
712.375	37650.44
712.719	37814.95
713.063	37613.83
713.407	37864.22
713.75	37443.66
714.094	37582.42
714.438	37414.28
714.782	37446.83
715.125	37224.91
715.469	37473.72
715.812	37404.34
716.156	37202.99
716.499	37283.89
716.843	37368.41
717.186	37116.44
717.53	37271.69
717.873	37294.51
718.216	37227.4
718.559	37340.84
718.902	36939.72
719.246	37025.59
719.589	36841.87
719.932	36787.41
720.275	36878.93
720.617	36804.13
720.96	36867.86
721.303	36845.94
721.646	36961.64
721.989	36887.07
722.331	36905.37
722.674	36851.59
723.016	36855.88
723.359	36836.67
723.701	37029.89
724.044	36542.44
724.386	36441.43
724.729	36571.59
725.071	36676.22
725.413	36585.61
725.755	36701.76
726.097	36482.78
726.439	36304.26
726.782	36432.84
727.124	36587.19
727.465	36318.27
727.807	36277.37
728.149	36235.33
728.491	36325.5
728.833	36438.94
729.175	36146.3
729.516	36228.55
729.858	36114.21
730.199	36243.02
730.541	36146.97
730.882	36123.47
731.224	36209.12
731.565	36146.75
731.906	36158.5
732.248	36097.71
732.589	36075.56
732.93	35836.02
733.271	35916.92
733.612	36088.67
733.953	36052.74
734.294	36011.84
734.635	35858.62
734.976	35949.01
735.317	35826.53
735.658	35786.53
735.999	36000.99
736.339	35851.16
736.68	36001.44
737.021	35920.31
737.361	35772.07
737.702	35912.4
738.042	35785.17
738.383	35764.38
738.723	35713.54
739.063	35754.44
739.404	35670.38
739.744	35618.4
740.084	35617.04
740.424	35656.36
740.764	35584.28
741.104	35704.95
741.444	35500.44
741.784	35577.95
742.124	35620.43
742.464	35516.26
742.804	35569.36
743.143	35543.37
743.483	35505.63
743.823	35156.04
744.162	35382.47
744.502	35426.77
744.841	35387.22
745.181	35492.98
745.52	35383.15
745.86	35459.99
746.199	35269.26
746.538	35422.47
746.877	35323.04
747.216	35503.6
747.556	35487.1
747.895	35351.97
748.234	35220.22
748.573	35356.26
748.911	35383.15
749.25	35346.99
749.589	35114.68
749.928	35317.62
750.267	35423.38
750.605	35162.37
750.944	35064.74
751.283	35041.24
751.621	35078.53
751.96	34942.26
752.298	34911.98
752.636	35041.24
752.975	34898.42
753.313	34722.83
753.651	34948.36
753.989	34742.26
754.327	34660.91
754.666	34601.93
755.004	34732.32
755.342	34814.58
755.679	34650.97
756.017	34377.3
756.355	34570.97
756.693	34376.4
757.031	34313.12
757.368	34223.86
757.706	34317.42
758.044	34175.27
758.381	34200.58
758.719	34155.84
759.056	34228.15
759.394	34261.83
759.731	33967.6
760.068	33938.44
760.405	33881.27
760.743	33640.6
761.08	33683.54
761.417	33663.2
761.754	33505.69
762.091	33474.28
762.428	33371.45
762.765	33284.68
763.102	33401.51
763.438	33257.33
763.775	32969.66
764.112	33090.1
764.449	33079.03
764.785	33051.01
765.122	32763.79
765.458	32705.26
765.795	32554.53
766.131	32716.33
766.467	32685.37
766.804	32547.29
767.14	32264.36
767.476	32369.45
767.812	32351.37
768.148	32302.33
768.485	32241.99
768.821	31996.35
769.157	32003.58
769.492	31882.68
769.828	32002.68
770.164	31678.39
770.5	31628.22
770.836	31568.34
771.171	31544.16
771.507	31473.2
771.842	31400.21
772.178	31277.04
772.513	31158.63
772.849	30980.56
773.184	31092.42
773.519	31062.36
773.855	30868.92
774.19	30738.75
774.525	30745.08
774.86	30695.37
775.195	30869.15
775.53	30588.25
775.865	30429.16
776.2	30296.05
776.535	30120.47
776.87	30214.93
777.205	30005.21
777.539	29969.28
777.874	29987.59
778.209	29811.32
778.543	29837.53
778.878	29742.62
779.212	29631.44
779.547	29613.81
779.881	29621.5
780.215	29242.97
780.55	29478.9
780.884	29192.13
781.218	29147.84
781.552	29230.32
781.886	29050.66
782.22	28934.51
782.554	28965.47
782.888	28706.26
783.222	28586.04
783.556	28572.48
783.889	28629.43
784.223	28404.35
784.557	28267.63
784.89	28338.59
785.224	28167.97
785.557	28082.1
785.891	28054.76
786.224	28084.36
786.558	28063.12
786.891	27758.95
787.224	27717.36
787.557	27533.64
787.891	27554.43
788.224	27648.21
788.557	27583.36
788.89	27516.24
789.223	27465.62
789.556	27211.62
789.888	27324.15
790.221	27166.87
790.554	27122.13
790.887	27136.36
791.219	26927.33
791.552	27058.4
791.884	26887.78
792.217	26801
792.549	26598.3
792.882	26563.72
793.214	26585.19
793.546	26642.14
793.879	26365.54
794.211	26193.56
794.543	26317.63
794.875	26311.07
795.207	26511.75
795.539	26234.01
795.871	26276.05
796.203	26026.34
796.535	25939.78
796.867	25847.36
797.198	25742.73
797.53	25730.98
797.862	25570.53
798.193	25709.51
798.525	25545.22
798.856	25619.34
799.188	25290.31
799.519	25247.6
799.85	25127.6
800.182	25275.85
800.513	25293.25
800.844	25028.62
801.175	25191.1
801.506	25151.33
801.837	24966.25
802.168	24846.71
802.499	24891.22
802.83	24846.93
803.161	24789.31
803.491	24763.77
803.822	24771
804.153	24679.03
804.483	24435.87
804.814	24415.3
805.145	24346.83
805.475	24335.53
805.805	24289.66
806.136	24324.46
806.466	24327.4
806.796	24294.4
807.126	24130.57
807.457	24077.23
807.787	24117.46
808.117	23984.13
808.447	24008.31
808.777	24142.77
809.107	23858.48
809.436	23726.96
809.766	23856
810.096	23751.37
810.426	23697.13
810.755	23719.28
811.085	23521.32
811.414	23639.28
811.744	23534.2
812.073	23572.39
812.403	23445.39
812.732	23430.92
813.061	23317.03
813.39	23179.86
813.719	23343.69
814.049	23328.1
814.378	23132.17
814.707	23292.85
815.036	23174.88
815.365	23016.02
815.693	23060.09
816.022	23003.82
816.351	22854.22
816.68	22715.24
817.008	22841.79
817.337	22633.2
817.665	22554.56
817.994	22665.07
818.322	22692.41
818.651	22650.83
818.979	22702.58
819.307	22710.04
819.636	22584.84
819.964	22499.2
820.292	22608.35
820.62	22532.19
820.948	22510.72
821.276	22558.86
821.604	22547.56
821.932	22584.62
822.259	22477.73
822.587	22506.2
822.915	22490.84
823.243	22519.08
823.57	22474.56
823.898	22477.73
824.225	22447.67
824.553	22566.77
824.88	22532.19
825.207	22553.66
825.535	22475.02
825.862	22681.56
826.189	22512.98
826.516	22635.46
826.843	22565.41
827.17	22608.8
827.497	22724.5
827.824	22806.53
828.151	22827.32
828.478	22689.93
828.805	22836.14
829.131	22727.89
829.458	22672.75
829.785	22505.07
830.111	22578.29
830.438	22722.47
830.764	22741.22
831.09	22828.45
831.417	22742.58
831.743	22804.5
832.069	22850.37
832.395	22843.14
832.722	22947.32
833.048	22884.27
833.374	22889.47
833.7	22809.02
834.026	22822.13
834.351	22861.45
834.677	22928.79
835.003	22872.52
835.329	22874.33
835.654	22863.48
835.98	22858.51
836.306	22871.39
836.631	22712.75
836.956	22886.53
837.282	22836.14
837.607	22654.9
837.932	22512.76
838.258	22656.93
838.583	22651.96
838.908	22467.78
839.233	22528.57
839.558	22454.45
839.883	22534.22
840.208	22391.4
840.533	22601.79
840.858	22544.17
841.182	22485.64
841.507	22559.53
841.832	22336.26
842.156	22397.05
842.481	22274.57
842.805	22327.9
843.13	22319.09
843.454	22138.98
843.778	22148.47
844.103	22213.78
844.427	22209.26
844.751	21999.55
845.075	22018.08
845.399	22032.32
845.723	21806.33
846.047	21873.22
846.371	21693.57
846.695	21778.54
847.019	21599.56
847.343	21576.28
847.666	21502.39
847.99	21313.47
848.313	21399.11
848.637	21273.01
848.96	21367.7
849.284	21249.29
849.607	21069.63
849.931	21155.96
850.254	20838.22
850.577	20839.35
850.9	20781.5
851.223	20629.64
851.546	20459.02
851.869	20458.12
852.192	20576.76
852.515	20347.84
852.838	20368.63
853.161	20375.41
853.483	20228.97
853.806	20266.94
854.129	20144.46
854.451	20246.15
854.774	20032.14
855.096	20007.28
855.419	20105.36
855.741	20050
856.063	19904.24
856.385	19879.6
856.708	19839.61
857.03	19727.74
857.352	19758.48
857.674	19676.67
857.996	19664.02
858.318	19536.56
858.64	19567.75
858.961	19486.39
859.283	19485.26
859.605	19414.76
859.926	19503.34
860.248	19331.37
860.57	19215.89
860.891	19296.79
861.212	19213.18
861.534	19147.19
861.855	19169.57
862.176	19104.48
862.498	19221.99
862.819	19181.77
863.14	19048.21
863.461	19081.89
863.782	18943.58
864.103	19013.64
864.424	18997.59
864.745	18914.21
865.065	18904.49
865.386	18958.72
865.707	18882.79
866.027	19002.11
866.348	18952.17
866.668	18849.57
866.989	18850.93
867.309	18668.34
867.63	18774.32
867.95	18882.79
868.27	18598.73
868.59	18578.62
868.91	18594.21
869.23	18576.14
869.55	18535.91
869.87	18610.26
870.19	18559.87
870.51	18566.42
870.83	18560.09
871.15	18442.35
871.469	18528.23
871.789	18503.6
872.109	18558.96
872.428	18396.03
872.748	18450.49
873.067	18289.36
873.386	18327.55
873.706	18418.85
874.025	18369.59
874.344	18284.39
874.663	18499.75
874.982	18380.89
875.301	18402.36
875.62	18369.81
875.939	18281.45
876.258	18336.37
876.577	18306.31
876.896	18246.65
877.214	18258.18
877.533	18218.63
877.852	18349.02
878.17	18270.83
878.489	18177.95
878.807	18114.91
879.125	18037.17
879.444	18109.26
879.762	18073.55
880.08	18098.41
880.398	17955.14
880.716	17930.96
881.034	17915.81
881.352	17929.37
881.67	17878.98
881.988	17972.08
882.306	17884.85
882.624	17808.7
882.941	17791.75
883.259	17728.02
883.577	17792.43
883.894	17706.33
884.212	17787.68
884.529	17728.47
884.846	17700.68
885.164	17615.48
885.481	17603.28
885.798	17571.19
886.115	17626.33
886.432	17472.21
886.75	17536.16
887.067	17576.39
887.383	17362.83
887.7	17439.89
888.017	17321.71
888.334	17337.98
888.651	17304.98
888.967	17344.53
889.284	17236.96
889.6	17079.23
889.917	17045.1
890.233	17113.8
890.55	16982.28
890.866	16943.41
891.182	17015.27
891.498	16967.14
891.815	16975.27
892.131	16890.53
892.447	16850.76
892.763	16814.83
893.079	16655.06
893.395	16654.15
893.71	16653.02
894.026	16582.52
894.342	16503.65
894.657	16455.29
894.973	16481.28
895.289	16429.07
895.604	16456.42
895.92	16349.3
896.235	16307.27
896.55	16295.52
896.865	16344.78
897.181	16294.61
897.496	16229.98
897.811	16109.99
898.126	16056.65
898.441	15958.35
898.756	16012.59
899.071	15790.9
899.386	15881.52
899.7	15866.83
900.015	15668.42
900.33	15603.33
900.644	15568.98
900.959	15558.81
901.273	15596.55
901.588	15509.1
901.902	15398.14
902.216	15511.58
902.531	15374.86
902.845	15370.12
903.159	15268.65
903.473	15183.91
903.787	15097.58
904.101	15173.51
904.415	15159.05
904.729	15119.96
905.042	15008.77
905.356	15117.47
905.67	14968.55
905.984	14941.66
906.297	14776.69
906.611	14832.51
906.924	14872.05
907.237	14677.03
907.551	14723.81
907.864	14639.52
908.177	14580.99
908.491	14538.28
908.804	14510.71
909.117	14330.15
909.43	14339.64
909.743	14349.58
910.056	14306.87
910.368	14160.88
910.681	14166.08
910.994	14161.79
911.307	13993.88
911.619	13898.29
911.932	13945.3
912.244	13857.84
912.557	13849.25
912.869	13882.02
913.181	13672.54
913.494	13777.84
913.806	13685.19
914.118	13641.12
914.43	13509.6
914.742	13502.82
915.054	13514.12
915.366	13430.96
915.678	13337.63
915.99	13406.78
916.302	13321.13
916.613	13218.54
916.925	13281.36
917.236	13183.28
917.548	13175.83
917.859	13164.07
918.171	13042.27
918.482	12879.56
918.794	12901.48
919.105	12938.54
919.416	12754.37
919.727	12729.74
920.038	12679.57
920.349	12732.9
920.66	12660.81
920.971	12616.97
921.282	12512.11
921.593	12485.9
921.903	12416.98
922.214	12479.35
922.525	12397.32
922.835	12361.61
923.146	12226.7
923.456	12194.83
923.767	12162.75
924.077	12132.24
924.387	12026.7
924.697	11924.56
925.008	11940.6
925.318	11921.85
925.628	11902.64
925.938	11842.75
926.248	11781.06
926.558	11739.48
926.867	11617.9
927.177	11673.27
927.487	11558.47
927.796	11452.71
928.106	11576.09
928.416	11428.98
928.725	11464.91
929.034	11305.82
929.344	11301.52
929.653	11384.01
929.962	11253.62
930.271	11226.05
930.581	11191.25
930.89	11137.91
931.199	11112.6
931.508	11112.15
931.817	11114.86
932.125	11005.49
932.434	10983.57
932.743	10904.02
933.051	10793.29
933.36	10902.44
933.669	10725.95
933.977	10687.98
934.286	10742.67
934.594	10699.73
934.902	10655.21
935.21	10590.36
935.519	10564.37
935.827	10502.45
936.135	10456.8
936.443	10332.06
936.751	10351.27
937.059	10313.98
937.367	10329.57
937.674	10242.57
937.982	10211.38
938.29	10131.39
938.597	10192.85
938.905	10038.28
939.213	10021.33
939.52	9954.89
939.827	9976.59
940.135	9876.25
940.442	9880.09
940.749	9944.72
941.056	9849.13
941.363	9697.05
941.67	9757.38
941.977	9673.55
942.284	9591.51
942.591	9650.95
942.898	9573.43
943.205	9551.97
943.511	9510.16
943.818	9471.06
944.125	9311.29
944.431	9303.61
944.738	9292.54
945.044	9281.46
945.35	9297.51
945.657	9231.97
945.963	9184.74
946.269	9124.18
946.575	9152.2
946.881	9129.38
947.187	9116.5
947.493	9046.89
947.799	8960.8
948.105	8909.27
948.41	8851.19
948.716	8824.98
949.022	8784.3
949.327	8823.17
949.633	8777.07
949.938	8808.26
950.244	8783.4
950.549	8676.28
950.854	8642.39
951.16	8571.65
951.465	8625.89
951.77	8552.67
952.075	8511.32
952.38	8455.05
952.685	8436.06
952.99	8362.17
953.294	8327.82
953.599	8376.18
953.904	8307.25
954.209	8238.55
954.513	8249.4
954.818	8241.94
955.122	8187.93
955.426	8169.63
955.731	8093.7
956.035	8008.96
956.339	8082.63
956.643	7979.13
956.948	7958.34
957.252	7976.41
957.556	7932.12
957.86	7854.16
958.163	7917.89
958.467	7808.51
958.771	7804.89
959.075	7763.54
959.378	7688.96
959.682	7717.89
959.985	7643.09
960.289	7619.59
960.592	7620.94
960.896	7615.07
961.199	7566.71
961.502	7540.49
961.805	7445.81
962.108	7510.21
962.411	7415.53
962.714	7362.19
963.017	7370.55
963.32	7338.92
963.623	7258.69
963.926	7245.13
964.228	7164.68
964.531	7145.93
964.833	7115.19
965.136	7113.39
965.438	7087.85
965.741	7048.76
966.043	6989.1
966.345	6982.32
966.648	6920.85
966.95	6924.92
967.252	6887.86
967.554	6882.21
967.856	6948.19
968.158	6813.06
968.46	6761.76
968.761	6742.55
969.063	6748.65
969.365	6706.39
969.666	6720.85
969.968	6650.57
970.269	6645.83
970.571	6653.74
970.872	6614.42
971.174	6509.56
971.475	6553.85
971.776	6502.33
972.077	6522.67
972.378	6442.44
972.679	6440.64
972.98	6446.74
973.281	6348.89
973.582	6373.29
973.883	6365.61
974.183	6306.63
974.484	6257.82
974.785	6224.82
975.085	6252.84
975.386	6186.18
975.686	6173.3
975.986	6135.33
976.287	6125.62
976.587	6063.24
976.887	6060.53
977.187	6063.02
977.487	6017.6
977.787	6000.65
978.087	6022.12
978.387	5891.95
978.687	5948.9
978.987	5940.54
979.286	5895.79
979.586	5876.58
979.885	5755.91
980.185	5770.82
980.484	5754.33
980.784	5742.57
981.083	5763.37
981.382	5675.23
981.682	5684.05
981.981	5674.78
982.28	5625.74
982.579	5637.94
982.878	5612.63
983.177	5539.64
983.475	5521.56
983.774	5465.52
984.073	5463.03
984.372	5450.61
984.67	5419.87
984.969	5350.49
985.267	5361.12
985.566	5418.06
985.864	5321.8
986.162	5327.9
986.461	5268.01
986.759	5258.97
987.057	5170.84
987.355	5145.08
987.653	5231.85
987.951	5172.42
988.249	5089.03
988.547	5127.22
988.844	5103.95
989.142	5076.15
989.44	5076.38
989.737	5075.93
990.035	5003.61
990.332	4971.52
990.63	4920.9
990.927	4942.37
991.224	4907.57
991.521	4871.86
991.819	4829.83
992.116	4844.75
992.413	4844.97
992.71	4786.67
993.006	4824.86
993.303	4818.53
993.6	4772.21
993.897	4717.29
994.193	4681.59
994.49	4667.8
994.787	4676.16
995.083	4708.48
995.379	4689.5
995.676	4568.82
995.972	4599.1
996.268	4561.82
996.565	4520.01
996.861	4535.15
997.157	4487.69
997.453	4441.37
997.749	4411.08
998.044	4426.45
998.34	4368.37
998.636	4381.93
998.932	4345.55
999.227	4296.29
999.523	4293.8
999.818	4273.69
1000.114	4233.69
1000.409	4277.53
1000.704	4175.38
1001	4117.98
1001.295	4095.39
1001.59	4160.24
1001.885	4155.95
1002.18	4032.34
1002.475	4097.19
1002.77	4049.96
1003.065	3990.98
1003.359	4013.81
1003.654	4016.74
1003.949	3944.43
1004.243	3950.08
1004.538	3870.99
1004.832	3944.66
1005.127	3908.95
1005.421	3884.32
1005.715	3814.49
1006.009	3836.41
1006.304	3786.69
1006.598	3813.13
1006.892	3766.36
1007.186	3720.03
1007.48	3687.26
1007.773	3686.36
1008.067	3662.18
1008.361	3673.25
1008.655	3630.09
1008.948	3642.74
1009.242	3606.13
1009.535	3595.29
1009.829	3546.47
1010.122	3532.01
1010.415	3507.38
1010.708	3463.09
1011.001	3497.21
1011.295	3477.32
1011.588	3461.28
1011.881	3356.2
1012.173	3383.09
1012.466	3326.82
1012.759	3350.55
1013.052	3326.59
1013.344	3300.38
1013.637	3257.22
1013.93	3270.78
1014.222	3268.29
1014.514	3239.36
1014.807	3208.18
1015.099	3192.13
1015.391	3156.2
1015.683	3142.42
1015.976	3092.02
1016.268	3066.26
1016.56	3050.44
1016.851	3052.02
1017.143	3011.8
1017.435	3034.62
1017.727	2986.94
1018.018	2917.56
1018.31	2971.35
1018.602	2921.41
1018.893	2893.84
1019.185	2887.96
1019.476	2862.42
1019.767	2846.38
1020.058	2842.76
1020.35	2815.65
1020.641	2777.46
1020.932	2770
1021.223	2741.52
1021.514	2705.37
1021.804	2734.52
1022.095	2707.63
1022.386	2699.04
1022.677	2667.18
1022.967	2638.48
1023.258	2611.36
1023.548	2574.3
1023.839	2592.6
1024.129	2576.78
1024.419	2533.17
1024.709	2514.86
1025	2491.36
1025.29	2498.37
1025.58	2448.2
1025.87	2449.1
1026.16	2434.87
1026.449	2410.91
1026.739	2398.03
1027.029	2399.39
1027.319	2374.3
1027.608	2349.9
1027.898	2346.05
1028.187	2309.9
1028.477	2296.56
1028.766	2332.27
1029.055	2298.82
1029.344	2241.42
1029.634	2236
1029.923	2237.58
1030.212	2211.37
1030.501	2192.84
1030.79	2146.06
1031.078	2165.49
1031.367	2136.12
1031.656	2122.56
1031.945	2131.82
1032.233	2080.3
1032.522	2071.71
1032.81	2059.51
1033.099	2070.58
1033.387	2055.89
1033.675	2024.48
1033.963	2001.2
1034.251	1996.46
1034.54	1943.35
1034.828	1938.61
1035.116	1939.74
1035.403	1957.36
1035.691	1925.5
1035.979	1887.99
1036.267	1891.38
1036.554	1895.44
1036.842	1881.89
1037.129	1799.63
1037.417	1810.02
1037.704	1810.02
1037.992	1821.1
1038.279	1778.39
1038.566	1753.98
1038.853	1753.98
1039.14	1753.98
