Data from copper_heatsink_FLMS001491_090.txt Node
Date: Tue Feb 07 10:50:43 GMT 2017
User: dcchb
Spectrometer: FLMS00149
Trigger mode: 0
Integration Time (sec): 2.000000E-2
Scans to average: 10
Electric dark correction enabled: true
Nonlinearity correction enabled: false
Boxcar width: 0
XAxis mode: Wavelengths
Number of Pixels in Spectrum: 2048
>>>>>Begin Spectral Data<<<<<
341.393	-2.4
341.776	-2.4
342.16	-2.4
342.543	-34.94
342.927	-65.22
343.31	-79.46
343.693	-70.42
344.077	-63.19
344.46	-60.7
344.843	-53.47
345.226	-21.61
345.61	-44.21
345.993	-14.83
346.376	14.77
346.759	-1.95
347.142	28.78
347.525	40.54
347.908	56.13
348.291	69.69
348.674	98.84
349.057	101.1
349.44	132.51
349.823	132.96
350.206	180.64
350.588	226.52
350.971	231.72
351.354	259.74
351.737	245.28
352.119	274.88
352.502	284.82
352.884	283.02
353.267	296.12
353.65	303.58
354.032	317.36
354.414	323.69
354.797	329.57
355.179	329.12
355.562	333.64
355.944	354.65
356.326	368.44
356.709	355.33
357.091	360.53
357.473	363.01
357.855	361.88
358.238	374.31
358.62	370.02
359.002	362.79
359.384	376.57
359.766	352.84
360.148	349
360.53	376.57
360.912	372.5
361.294	390.58
361.676	354.65
362.057	349.45
362.439	351.49
362.821	363.69
363.203	367.98
363.584	359.17
363.966	359.62
364.348	365.72
364.729	346.97
365.111	354.2
365.493	326.18
365.874	373.18
366.256	361.21
366.637	353.52
367.019	356.69
367.4	343.8
367.781	330.25
368.163	348.32
368.544	344.48
368.925	342
369.306	339.96
369.688	346.52
370.069	348.1
370.45	354.2
370.831	363.47
371.212	337.48
371.593	360.98
371.974	346.06
372.355	353.75
372.736	357.36
373.117	354.2
373.498	355.56
373.879	353.97
374.26	333.86
374.641	361.21
375.021	344.03
375.402	359.85
375.783	351.26
376.163	372.5
376.544	382
376.925	368.44
377.305	381.77
377.686	328.21
378.066	361.21
378.447	376.57
378.827	361.21
379.208	370.24
379.588	405.5
379.968	375.89
380.349	391.94
380.729	367.31
381.109	397.59
381.489	399.85
381.87	388.55
382.25	390.58
382.63	401.2
383.01	405.05
383.39	364.59
383.77	413.63
384.15	384.93
384.53	412.5
384.91	404.37
385.29	401.66
385.67	399.17
386.049	408.44
386.429	410.7
386.809	430.81
387.189	392.16
387.568	425.16
387.948	400.75
388.328	410.47
388.707	428.32
389.087	428.1
389.466	432.84
389.846	428.1
390.225	435.55
390.605	424.48
390.984	432.39
391.363	448.43
391.743	432.16
392.122	439.85
392.501	413.18
392.881	439.17
393.26	428.55
393.639	450.47
394.018	466.97
394.397	450.47
394.776	451.82
395.155	463.12
395.534	456.8
395.913	484.37
396.292	479.17
396.671	455.21
397.05	456.34
397.429	480.98
397.808	465.16
398.186	499.96
398.565	480.98
398.944	484.14
399.323	473.29
399.701	471.94
400.08	509.68
400.458	509.9
400.837	479.85
401.215	488.21
401.594	507.87
401.972	505.38
402.351	502.22
402.729	505.83
403.107	501.99
403.486	523.91
403.864	528.21
404.242	534.99
404.62	527.08
404.999	517.59
405.377	530.47
405.755	539.05
406.133	548.09
406.511	537.92
406.889	546.74
407.267	571.6
407.645	557.58
408.023	549.45
408.401	558.26
408.779	558.04
409.156	573.63
409.534	548.77
409.912	561.43
410.29	586.74
410.667	582.44
411.045	571.82
411.422	577.24
411.8	579.28
412.178	589.9
412.555	610.92
412.933	610.46
413.31	607.53
413.687	614.53
414.065	622.89
414.442	626.96
414.819	633.29
415.197	628.99
415.574	649.79
415.951	618.37
416.328	640.75
416.705	635.55
417.082	657.92
417.46	657.69
417.837	675.55
418.214	651.82
418.591	676.45
418.967	687.52
419.344	683.68
419.721	708.99
420.098	721.65
420.475	682.33
420.852	699.73
421.228	696.34
421.605	713.06
421.982	702.67
422.358	722.33
422.735	719.39
423.111	717.81
423.488	731.36
423.864	728.2
424.241	747.86
424.617	758.26
424.994	754.42
425.37	774.3
425.746	770.69
426.123	777.01
426.499	793.74
426.875	771.14
427.251	802.32
427.627	803.68
428.003	823.34
428.379	814.53
428.756	808.43
429.132	826.73
429.507	855.88
429.883	846.84
430.259	848.88
430.635	847.97
431.011	858.59
431.387	880.06
431.763	871.7
432.138	858.82
432.514	905.37
432.89	913.96
433.265	931.81
433.641	949.66
434.016	937.01
434.392	944.47
434.767	935.88
435.143	970.23
435.518	960.74
435.894	977.46
436.269	994.86
436.644	960.74
437.02	1015.2
437.395	1018.36
437.77	1011.58
438.145	1009.55
438.52	1010.91
438.895	1066.72
439.271	1039.83
439.646	1076.44
440.021	1084.35
440.395	1058.59
440.77	1062.43
441.145	1093.84
441.52	1103.33
441.895	1103.11
442.27	1133.84
442.645	1106.72
443.019	1109.21
443.394	1102.43
443.769	1146.95
444.143	1144.69
444.518	1142.2
444.892	1160.96
445.267	1176.55
445.641	1127.96
446.016	1157.12
446.39	1167.96
446.764	1178.81
447.139	1168.19
447.513	1192.6
447.887	1202.54
448.262	1225.14
448.636	1256.55
449.01	1194.86
449.384	1245.93
449.758	1259.03
450.132	1256.77
450.506	1249.77
450.88	1249.77
451.254	1289.54
451.628	1316.21
452.002	1294.74
452.376	1288.64
452.75	1313.27
453.123	1342.65
453.497	1334.29
453.871	1328.41
454.244	1376.77
454.618	1375.19
454.992	1404.79
455.365	1383.55
455.739	1427.39
456.112	1442.76
456.486	1461.97
456.859	1455.87
457.232	1508.07
457.606	1464.68
457.979	1487.5
458.352	1492.7
458.725	1538.58
459.099	1569.31
459.472	1579.25
459.845	1572.7
460.218	1600.04
460.591	1610.21
460.964	1612.7
461.337	1652.24
461.71	1666.71
462.083	1703.54
462.456	1714.39
462.829	1708.51
463.201	1743.99
463.574	1732.24
463.947	1766.37
464.32	1804.56
464.692	1790.32
465.065	1818.57
465.438	1850.43
465.81	1881.84
466.183	1896.31
466.555	1946.47
466.928	1954.84
467.3	1926.59
467.672	1945.8
468.045	2001.84
468.417	2021.5
468.789	2042.06
469.161	2061.95
469.534	2094.94
469.906	2118.67
470.278	2139.46
470.65	2160.03
471.022	2194.83
471.394	2246.81
471.766	2260.82
472.138	2249.29
472.51	2340.14
472.882	2361.6
473.253	2390.98
473.625	2406.35
473.997	2463.3
474.369	2492
474.74	2517.53
475.112	2539.23
475.484	2574.25
475.855	2630.98
476.227	2656.96
476.598	2713.46
476.97	2711.2
477.341	2774.48
477.713	2858.31
478.084	2837.98
478.455	2902.16
478.827	2938.09
479.198	3014.69
479.569	3038.65
479.94	3102.6
480.311	3110.51
480.682	3195.93
481.053	3276.16
481.424	3344.63
481.795	3372.2
482.166	3395.93
482.537	3458.98
482.908	3501.24
483.279	3530.16
483.65	3568.13
484.021	3659.88
484.391	3692.64
484.762	3755.69
485.133	3815.58
485.503	3849.7
485.874	3890.6
486.244	3936.7
486.615	3998.17
486.985	4090.37
487.356	4111.39
487.726	4183.7
488.097	4246.98
488.467	4275.45
488.837	4360.42
489.207	4408.33
489.578	4471.61
489.948	4515.45
490.318	4554.32
490.688	4613.07
491.058	4704.59
491.428	4738.27
491.798	4778.72
492.168	4841.77
492.538	4894.42
492.908	4914.08
493.278	5011.48
493.648	4988.88
494.017	5101.87
494.387	5133.28
494.757	5165.6
495.126	5240.85
495.496	5259.16
495.866	5316.1
496.235	5342.77
496.605	5430.22
496.974	5465.03
497.344	5452.82
497.713	5525.59
498.082	5562.2
498.452	5640.39
498.821	5692.36
499.19	5690.78
499.559	5751.57
499.928	5786.15
500.298	5845.35
500.667	5930.78
501.036	5905.01
501.405	5999.93
501.774	6014.62
502.143	6041.51
502.512	6117.44
502.88	6158.34
503.249	6107.95
503.618	6272.91
503.987	6292.57
504.356	6337.55
504.724	6392.23
505.093	6444.21
505.462	6495.28
505.83	6435.85
506.199	6536.64
506.567	6637.88
506.936	6665.45
507.304	6708.16
507.672	6699.34
508.041	6782.28
508.409	6864.76
508.777	6898.43
509.145	6964.65
509.514	6995.38
509.882	7080.58
510.25	7126.9
510.618	7159.44
510.986	7204.19
511.354	7292.32
511.722	7352.89
512.09	7395.37
512.458	7450.06
512.826	7444.18
513.193	7594.01
513.561	7598.3
513.929	7746.32
514.297	7771.18
514.664	7892.76
515.032	7847.34
515.4	7926.2
515.767	7962.14
516.135	8076.71
516.502	7976.37
516.869	8193.32
517.237	8238.51
517.604	8220.66
517.972	8365.29
518.339	8363.48
518.706	8497.26
519.073	8493.42
519.44	8589.92
519.808	8665.39
520.175	8711.04
520.542	8811.83
520.909	8905.39
521.276	8899.29
521.643	8999.4
522.009	9094.99
522.376	9203.68
522.743	9174.53
523.11	9277.13
523.477	9462.66
523.843	9515.31
524.21	9593.5
524.577	9680.96
524.943	9748.53
525.31	9742.88
525.676	9890.45
526.043	9941.52
526.409	10072.59
526.776	10220.16
527.142	10208.18
527.508	10236.88
527.874	10443.43
528.241	10463.54
528.607	10484.1
528.973	10598.9
529.339	10697.2
529.705	10701.5
530.071	10843.19
530.437	10988.27
530.803	11057.87
531.169	11079.34
531.535	11096.06
531.901	11209.06
532.267	11271.43
532.632	11382.61
532.998	11415.15
533.364	11445.66
533.73	11644.52
534.095	11677.74
534.461	11787.35
534.826	11819.43
535.192	11805.65
535.557	12028.24
535.923	12060.56
536.288	12122.03
536.653	12208.8
537.019	12301.46
537.384	12287.9
537.749	12324.96
538.114	12381.68
538.479	12482.24
538.845	12612.18
539.21	12601.79
539.575	12759.98
539.94	12820.09
540.305	12864.15
540.67	12911.61
541.034	12993.42
541.399	13153.19
541.764	13186.63
542.129	13302.56
542.494	13343.24
542.858	13453.97
543.223	13415.1
543.587	13604.92
543.952	13699.16
544.316	13703.91
544.681	13786.84
545.045	13866.61
545.41	13910.45
545.774	14085.36
546.138	14104.57
546.503	14163.55
546.867	14231.57
547.231	14315.41
547.595	14525.35
547.959	14548.18
548.324	14610.32
548.688	14713.37
549.052	14822.29
549.416	14928.05
549.779	15033.36
550.143	15138.44
550.507	15289.63
550.871	15318.55
551.235	15416.4
551.599	15594.48
551.962	15650.75
552.326	15781.14
552.689	15949.04
553.053	15975.26
553.417	16149.94
553.78	16355.81
554.143	16364.85
554.507	16459.54
554.87	16635.13
555.234	16760.77
555.597	16863.82
555.96	16994.44
556.323	17157.15
556.686	17276.69
557.05	17376.35
557.413	17547.42
557.776	17678.04
558.139	17920.52
558.502	18013.4
558.865	18148.08
559.228	18415.19
559.59	18491.8
559.953	18699.48
560.316	18941.73
560.679	19013.82
561.041	19268.96
561.404	19474.15
561.767	19637.31
562.129	19635.5
562.492	20060.35
562.854	20141.25
563.217	20165.66
563.579	20372.88
563.941	20721.57
564.304	20807
564.666	21071.17
565.028	21194.33
565.39	21274.1
565.753	21661.21
566.115	21824.82
566.477	22045.38
566.839	22173.74
567.201	22491.24
567.563	22512.94
567.925	22895.53
568.287	22989.08
568.648	23205.12
569.01	23521.5
569.372	23640.82
569.734	23701.61
570.095	24072.9
570.457	24293.01
570.819	24378.43
571.18	24520.34
571.542	24817.06
571.903	24854.8
572.265	25303.15
572.626	25575.68
572.987	25582.01
573.349	25924.83
573.71	26046.86
574.071	26176.35
574.432	26428.32
574.794	26752.6
575.155	26930.45
575.516	26875.76
575.877	27200.05
576.238	27328.63
576.599	27604.78
576.96	27686.36
577.32	27856.3
577.681	28081.61
578.042	28335.38
578.403	28338.1
578.763	28543.97
579.124	28720.46
579.485	28868.03
579.845	29115.48
580.206	29187.34
580.566	29325.87
580.927	29458.52
581.287	29796.36
581.648	29697.83
582.008	30035.68
582.368	30023.93
582.728	30074.77
583.089	30279.06
583.449	30347.99
583.809	30683.8
584.169	30775.09
584.529	30891.25
584.889	31144.35
585.249	30992.26
585.609	31149.77
585.969	31492.82
586.329	31393.38
586.688	31436.32
587.048	31564.68
587.408	31636.32
587.768	31795.41
588.127	31855.74
588.487	32001.28
588.846	32340.7
589.206	32098.68
589.565	32265.68
589.925	32516.97
590.284	32572.79
590.643	32784.08
591.003	32977.75
591.362	33101.81
591.721	32957.86
592.08	33132.32
592.44	33370.28
592.799	33334.58
593.158	33340.23
593.517	33489.15
593.876	33653.21
594.235	33722.59
594.593	33837.16
594.952	34035.12
595.311	33947.67
595.67	34089.13
596.029	34346.53
596.387	34540.65
596.746	34495.45
597.104	34464.26
597.463	34597.82
597.822	34674.2
598.18	34738.83
598.538	34947.64
598.897	35125.49
599.255	34746.74
599.613	35300.85
599.972	35296.56
600.33	35506.72
600.688	35271.93
601.046	35727.28
601.404	35979.03
601.762	35785.58
602.12	36151.22
602.478	36086.59
602.836	36229.41
603.194	36306.25
603.552	36429.41
603.91	36381.73
604.268	36638.44
604.625	36563.87
604.983	36920.24
605.341	36755.28
605.698	37001.6
606.056	37098.32
606.413	37252.21
606.771	37333.34
607.128	37490.62
607.485	37377.18
607.843	37604.52
608.2	37785.31
608.557	38036.37
608.914	38050.38
609.272	38140.32
609.629	38349.36
609.986	38382.13
610.343	38402.92
610.7	38906.86
611.057	38694.43
611.414	38855.11
611.771	38889.23
612.127	39093.97
612.484	39173.29
612.841	39330.58
613.198	39173.29
613.554	39322.44
613.911	39543.68
614.267	39574.64
614.624	39803.56
614.98	39746.61
615.337	40170.33
615.693	40167.84
616.05	40269.53
616.406	40604.21
616.762	40457.78
617.118	40514.27
617.475	40568.96
617.831	40725.57
618.187	40838.11
618.543	40961.72
618.899	41088.5
619.255	41097.31
619.611	41151.32
619.967	41458.66
620.323	41396.28
620.678	41572.32
621.034	41521.7
621.39	41569.39
621.746	41609.39
622.101	42061.13
622.457	41779.33
622.812	41944.52
623.168	42096.83
623.523	42156.04
623.879	42298.86
624.234	42147.45
624.589	42252.08
624.945	42368.69
625.3	42488.23
625.655	42548.57
626.01	42540.44
626.365	42701.56
626.72	42662.69
627.075	42684.61
627.43	42777.27
627.785	42726.87
628.14	42911.5
628.495	42890.26
628.85	43065.17
629.205	42761.67
629.559	43152.62
629.914	42903.82
630.269	43075.56
630.623	43125.73
630.978	43087.99
631.332	43294.77
631.687	43351.04
632.041	43306.74
632.396	43328.21
632.75	43276.23
633.104	43395.78
633.459	43248.89
633.813	43347.87
634.167	43323.01
634.521	43291.15
634.875	43454.99
635.229	43393.29
635.583	43309
635.937	43330.7
636.291	43506.06
636.645	43485.04
636.999	43405.05
637.352	43601.65
637.706	43487.53
638.06	43693.4
638.413	43577.24
638.767	43598.94
639.121	43531.37
639.474	43358.94
639.828	43451.37
640.181	43612.27
640.534	43590.8
640.888	43526.85
641.241	43591.25
641.594	43667.19
641.947	43716.68
642.301	43603.01
642.654	43677.35
643.007	43753.96
643.36	43714.19
643.713	43725.71
644.066	43940.62
644.419	43772.49
644.771	43535.66
645.124	43172.28
645.477	43057.03
645.83	43019.29
646.182	42890.03
646.535	42898.84
646.888	42963.47
647.24	42709.7
647.593	43030.37
647.945	42913.98
648.298	42764.84
648.65	42661.79
649.002	42590.6
649.355	42810.48
649.707	42895.91
650.059	43116.01
650.411	43600.75
650.763	43567.3
651.115	44092.71
651.467	44028.53
651.819	44088.19
652.171	43973.39
652.523	43995.76
652.875	43957.57
653.227	43905.6
653.578	44185.59
653.93	43993.96
654.282	44007.29
654.633	43815.88
654.985	43900.63
655.337	43906.5
655.688	44150.34
656.039	44237.79
656.391	44021.53
656.742	44174.74
657.094	44328.64
657.445	44392.82
657.796	44262.42
658.147	44226.72
658.498	44271.01
658.849	44314.17
659.2	44202.31
659.551	44259.71
659.902	44553.72
660.253	44541.74
660.604	44598.91
660.955	44393.72
661.306	44597.56
661.656	44598.69
662.007	44576.31
662.358	44691.11
662.708	44597.78
663.059	44798.23
663.409	44502.64
663.76	44665.8
664.11	44831.45
664.461	44916.64
664.811	44967.72
665.161	44893.82
665.511	44768.4
665.862	44939.02
666.212	45041.16
666.562	45111.21
666.912	44983.99
667.262	45067.6
667.612	45007.04
667.962	45199.57
668.312	45041.61
668.662	45323.41
669.011	45223.75
669.361	45237.77
669.711	45374.48
670.06	45219.91
670.41	45233.47
670.76	45468.95
671.109	45478.89
671.459	45299.68
671.808	45535.61
672.157	45534.03
672.507	45288.61
672.856	45230.31
673.205	45452.22
673.554	45579.9
673.904	45421.04
674.253	45717.3
674.602	45712.78
674.951	45052.91
675.3	44937.21
675.649	45581.94
675.998	45555.95
676.346	45741.03
676.695	45908.03
677.044	45561.15
677.393	45717.07
677.741	45791.42
678.09	45753.01
678.438	45854.47
678.787	45870.29
679.135	45850.18
679.484	45548.27
679.832	45856.28
680.181	45673.01
680.529	45767.02
680.877	45647.92
681.225	45804.53
681.573	45933.57
681.922	45794.13
682.27	45609.96
682.618	45560.02
682.966	45614.03
683.314	45688.83
683.661	45597.3
684.009	45549.17
684.357	45515.72
684.705	45488.15
685.053	45570.19
685.4	45449.51
685.748	45316.86
686.095	45370.87
686.443	45425.78
686.79	45269.18
687.138	45502.17
687.485	45457.19
687.832	45328.84
688.18	45545.78
688.527	45192.34
688.874	45212.23
689.221	45198.44
689.568	45007.26
689.915	44925.91
690.262	45146.92
690.609	44866.25
690.956	45007.26
691.303	44954.83
691.65	44831
691.997	44905.34
692.344	44611.79
692.69	44746.93
693.037	44686.37
693.383	44395.98
693.73	44538.8
694.077	44373.61
694.423	44280.95
694.769	44259.26
695.116	44302.2
695.462	44161.86
695.808	44104.69
696.155	44351.69
696.501	43976.1
696.847	43907.63
697.193	43736.79
697.539	43985.37
697.885	43705.83
698.231	43591.93
698.577	43605.94
698.923	43477.59
699.269	43525.04
699.614	43377.02
699.96	43302.67
700.306	43493.4
700.651	43326.86
700.997	43301.09
701.342	43066.52
701.688	43059.97
702.033	43097.71
702.379	43031.72
702.724	42873.31
703.069	43129.8
703.415	42762.12
703.76	42867.66
704.105	42711.96
704.45	42768
704.795	42581.56
705.14	42691.84
705.485	42664.73
705.83	42443.71
706.175	42586.54
706.52	42429.03
706.865	42284.85
707.209	42282.36
707.554	42226.09
707.899	42267.22
708.243	42114.01
708.588	42112.88
708.932	42073.1
709.277	41781.59
709.621	42058.41
709.966	41834.24
710.31	41872.2
710.654	41606.45
710.998	41789.27
711.342	41826.33
711.687	41787.46
712.031	41714.02
712.375	41627.69
712.719	41815.03
713.063	41728.25
713.407	41766.9
713.75	41495.26
714.094	41453.91
714.438	41451.65
714.782	41454.14
715.125	41389.05
715.469	41456.4
715.812	41250.07
716.156	40956.75
716.499	41208.49
716.843	41186.35
717.186	41093.24
717.53	41197.19
717.873	41213.46
718.216	41075.39
718.559	41119
718.902	40836.07
719.246	40912.91
719.589	40743.42
719.932	40828.84
720.275	40756.3
720.617	40709.52
720.96	40698.9
721.303	40930.08
721.646	41045.56
721.989	40797.66
722.331	41010.76
722.674	40736.19
723.016	40924.66
723.359	40808.96
723.701	40919.23
724.044	40597.44
724.386	40617.1
724.729	40628.4
725.071	40519.02
725.413	40387.95
725.755	40492.58
726.097	40154.74
726.439	40148.41
726.782	40339.82
727.124	40627.49
727.465	40265.47
727.807	40327.16
728.149	40212.13
728.491	40209.65
728.833	40154.51
729.175	40070.9
729.516	40038.35
729.858	40244.9
730.199	40108.41
730.541	39949.54
730.882	39953.38
731.224	40175.98
731.565	40131.68
731.906	40210.1
732.248	40274.28
732.589	40114.74
732.93	39958.13
733.271	40194.73
733.612	40051.24
733.953	39967.62
734.294	39949.54
734.635	39961.75
734.976	40012.82
735.317	39695.99
735.658	39804.01
735.999	39844.46
736.339	39816.21
736.68	39916.32
737.021	39885.82
737.361	39516.56
737.702	39897.57
738.042	39697.12
738.383	39677.91
738.723	39977.79
739.063	39671.58
739.404	39821.18
739.744	39668.65
740.084	39578.25
740.424	39790.22
740.764	39625.03
741.104	39763.56
741.444	39550.91
741.784	39454.87
742.124	39691.92
742.464	39646.73
742.804	39535.99
743.143	39553.17
743.483	39624.81
743.823	39323.57
744.162	39458.93
744.502	39398.82
744.841	39321.31
745.181	39466.17
745.52	39504.58
745.86	39427.52
746.199	39291.26
746.538	39360.41
746.877	39673.39
747.216	39234.53
747.556	39218.94
747.895	39277.24
748.234	39016.01
748.573	39148.66
748.911	39248.32
749.25	39262.78
749.589	39128.55
749.928	39159.51
750.267	39215.78
750.605	39162.22
750.944	39066.18
751.283	38985.95
751.621	38952.28
751.96	38852.62
752.298	38780.31
752.636	38893.75
752.975	38588.22
753.313	38444.95
753.651	38811.04
753.989	38473.88
754.327	38446.31
754.666	38374.22
755.004	38621.67
755.342	38736.24
755.679	38465.06
756.017	38213.32
756.355	38442.69
756.693	38199.98
757.031	38416.7
757.368	38127.9
757.706	38086.09
758.044	37929.03
758.381	37951.18
758.719	37940.33
759.056	38049.25
759.394	37987.79
759.731	37679.32
760.068	37801.12
760.405	37655.82
760.743	37579.89
761.08	37669.38
761.417	37455.6
761.754	37354.36
762.091	37295.83
762.428	37406.33
762.765	37235.72
763.102	37402.72
763.438	37058.09
763.775	36993.91
764.112	37041.82
764.449	36979.23
764.785	36943.75
765.122	36750.98
765.458	36596.41
765.795	36547.6
766.131	36494.94
766.467	36548.05
766.804	36355.06
767.14	36185.8
767.476	36209.53
767.812	36095.41
768.148	36179.7
768.485	35934.51
768.821	35741.74
769.157	35659.49
769.492	35635.76
769.828	35607.51
770.164	35316.22
770.5	35223.11
770.836	35185.6
771.171	35078.71
771.507	34989.9
771.842	34945.15
772.178	34892.95
772.513	35030.58
772.849	34893.86
773.184	34688.44
773.519	34542.45
773.855	34572.96
774.19	34384.94
774.525	34440.54
774.86	34328.9
775.195	34302.01
775.53	34153.31
775.865	34016.82
776.2	33803.49
776.535	33555.13
776.87	33872.87
777.205	33651.4
777.539	33573.44
777.874	33590.84
778.209	33296.38
778.543	33274.24
778.878	33191.3
779.212	33237.85
779.547	33001.48
779.881	33142.49
780.215	32825.89
780.55	32914.02
780.884	32794.93
781.218	32783.18
781.552	32740.01
781.886	32563.75
782.22	32416.18
782.554	32346.35
782.888	32072.91
783.222	32023.2
783.556	31905.46
783.889	31881.73
784.223	31634.06
784.557	31785.01
784.89	31820.27
785.224	31617.11
785.557	31462.76
785.891	31354.06
786.224	31349.99
786.558	31336.66
786.891	31297.34
787.224	31106.84
787.557	31053.28
787.891	31011.25
788.224	31072.49
788.557	30828.65
788.89	30730.35
789.223	30749.56
789.556	30423.01
789.888	30397.25
790.221	30458.27
790.554	30005.62
790.887	30241.1
791.219	30047.43
791.552	30054.21
791.884	29971.27
792.217	29945.29
792.549	29813.54
792.882	29672.3
793.214	29532.42
793.546	29597.72
793.879	29589.59
794.211	29452.87
794.543	29589.14
794.875	29449.48
795.207	29723.37
795.539	29429.59
795.871	29400.22
796.203	29170.84
796.535	29156.83
796.867	29096.72
797.198	28935.14
797.53	28938.08
797.862	28622.16
798.193	28701.7
798.525	28578.99
798.856	28742.38
799.188	28428.94
799.519	28367.47
799.85	28233.01
800.182	28188.72
800.513	28250.19
800.844	28121.83
801.175	28258.55
801.506	28258.55
801.837	28051.55
802.168	27921.38
802.499	27885
802.83	27865.34
803.161	27750.54
803.491	27786.47
803.822	27771.11
804.153	27639.58
804.483	27539.25
804.814	27394.84
805.145	27396.2
805.475	27265.81
805.805	27127.51
806.136	27230.78
806.466	27395.97
806.796	27336.99
807.126	27041.41
807.457	26985.59
807.787	27005.48
808.117	26870.11
808.447	26924.12
808.777	26907.85
809.107	26919.15
809.436	26751.7
809.766	26763.22
810.096	26730.91
810.426	26780.62
810.755	26612.04
811.085	26670.57
811.414	26540.4
811.744	26476.9
812.073	26371.37
812.403	26457.69
812.732	26386.06
813.061	26272.84
813.39	26234.2
813.719	26201.2
814.049	26261.99
814.378	26225.16
814.707	26129.34
815.036	26053.19
815.365	25892.96
815.693	25716.7
816.022	25765.51
816.351	25609.35
816.68	25509.92
817.008	25746.53
817.337	25382.92
817.665	25465.86
817.994	25500.43
818.322	25577.27
818.651	25394.22
818.979	25324.84
819.307	25542.69
819.636	25245.3
819.964	25129.14
820.292	25411.62
820.62	25376.14
820.948	25247.1
821.276	25378.17
821.604	25245.75
821.932	25427.44
822.259	25492.52
822.587	25420.21
822.915	25308.12
823.243	25449.36
823.57	25368.46
823.898	25466.99
824.225	25316.26
824.553	25343.37
824.88	25363.49
825.207	25422.24
825.535	25305.86
825.862	25354.45
826.189	25245.07
826.516	25532.07
826.843	25585.4
827.17	25605.51
827.497	25596.93
827.824	25576.36
828.151	25639.41
828.478	25633.99
828.805	25759.86
829.131	25469.02
829.458	25461.79
829.785	25427.89
830.111	25538.17
830.438	25800.54
830.764	25743.14
831.09	25751.72
831.417	25735
831.743	25871.95
832.069	25880.31
832.395	25691.16
832.722	25693.19
833.048	25547.66
833.374	25687.32
833.7	25559.19
834.026	25814.32
834.351	25781.55
834.677	25589.47
835.003	25725.74
835.329	25728.45
835.654	25671.5
835.98	25643.03
836.306	25649.35
836.631	25475.8
836.956	25680.31
837.282	25513.76
837.607	25471.05
837.932	25386.54
838.258	25463.82
838.583	25511.05
838.908	25391.73
839.233	25500.43
839.558	25417.04
839.883	25384.73
840.208	25273.77
840.533	25231.06
840.858	25421.79
841.182	25463.6
841.507	25333.2
841.832	25304.05
842.156	25335.69
842.481	25281.68
842.805	25117.16
843.13	25169.82
843.454	25031.97
843.778	24970.5
844.103	24896.61
844.427	24923.95
844.751	24823.39
845.075	24755.37
845.399	24762.37
845.723	24671.07
846.047	24712.2
846.371	24453
846.695	24406.45
847.019	24289.16
847.343	24255.72
847.666	24142.27
847.99	24091.43
848.313	24159.22
848.637	23825.67
848.96	23967.36
849.284	23819.35
849.607	23764.21
849.931	23679.46
850.254	23638.11
850.577	23522.63
850.9	23401.96
851.223	23263.65
851.546	23252.58
851.869	23127.61
852.192	23250.09
852.515	23015.52
852.838	22989.54
853.161	22903.89
853.483	22855.53
853.806	22888.07
854.129	22967.84
854.451	22714.06
854.774	22626.83
855.096	22635.87
855.419	22566.27
855.741	22640.39
856.063	22430.68
856.385	22429.1
856.708	22273.62
857.03	22213.06
857.352	22337.8
857.674	22166.28
857.996	22127.19
858.318	22042.44
858.64	22045.15
858.961	21999.73
859.283	21911.15
859.605	21797.48
859.926	21797.03
860.248	21733.52
860.57	21707.76
860.891	21778.5
861.212	21753.19
861.534	21669.8
861.855	21621.89
862.176	21769.46
862.498	21663.02
862.819	21685.62
863.14	21623.25
863.461	21594.55
863.782	21543.93
864.103	21551.61
864.424	21491.27
864.745	21491.05
865.065	21310.94
865.386	21373.53
865.707	21352.97
866.027	21295.57
866.348	21373.08
866.668	21320.88
866.989	21175.12
867.309	21132.41
867.63	21183.71
867.95	21204.27
868.27	21129.02
868.59	21173.54
868.91	21072.07
869.23	21073.65
869.55	20934.45
869.87	21174.44
870.19	21061.23
870.51	21049.02
870.83	20966.31
871.15	20927.9
871.469	20821.68
871.789	20917.27
872.109	20968.57
872.428	20731.29
872.748	20852.42
873.067	20936.26
873.386	20864.39
873.706	20879.76
874.025	20713.66
874.344	20696.94
874.663	20780.1
874.982	20652.2
875.301	20742.59
875.62	20716.38
875.939	20616.94
876.258	20658.98
876.577	20529.94
876.896	20590.28
877.214	20545.99
877.533	20643.61
877.852	20556.38
878.17	20612.65
878.489	20469.83
878.807	20420.79
879.125	20538.53
879.444	20466.21
879.762	20484.97
880.08	20405.88
880.398	20269.38
880.716	20248.14
881.034	20284.75
881.352	20274.35
881.67	20180.35
881.988	20150.29
882.306	20190.51
882.624	20051.76
882.941	20066.22
883.259	19966.34
883.577	19877.53
883.894	19937.87
884.212	19835.72
884.529	19880.24
884.846	19993.91
885.164	19943.52
885.481	19868.49
885.798	19849.28
886.115	19709.62
886.432	19736.29
886.75	19709.62
887.067	19738.77
887.383	19594.15
887.7	19633.24
888.017	19512.57
888.334	19633.24
888.651	19550.53
888.967	19427.37
889.284	19270.54
889.6	19294.49
889.917	19123.88
890.233	19221.95
890.55	19063.54
890.866	19133.82
891.182	19131.56
891.498	19051.56
891.815	18989.19
892.131	18931.56
892.447	18893.37
892.763	18803.88
893.079	18783.32
893.395	18642.31
893.71	18660.16
894.026	18537
894.342	18496.77
894.657	18477.57
894.973	18500.84
895.289	18499.03
895.604	18479.37
895.92	18376.55
896.235	18227.85
896.55	18359.38
896.865	18335.42
897.181	18360.28
897.496	18303.56
897.811	18126.84
898.126	18091.13
898.441	18094.07
898.756	18049.55
899.071	17931.82
899.386	17938.82
899.7	17732.27
900.015	17685.72
900.33	17628.1
900.644	17598.94
900.959	17553.75
901.273	17499.06
901.588	17510.36
901.902	17438.5
902.216	17398.72
902.531	17338.61
902.845	17278.05
903.159	17215.23
903.473	17083.93
903.787	17175.9
904.101	17013.2
904.415	16992.18
904.729	16989.92
905.042	16839.87
905.356	16846.2
905.67	16737.95
905.984	16857.49
906.297	16723.71
906.611	16541.34
906.924	16528.01
907.237	16490.95
907.551	16474
907.864	16295.48
908.177	16373.44
908.491	16359.2
908.804	16218.19
909.117	16117.85
909.43	16050.06
909.743	15952.43
910.056	16047.35
910.368	16045.31
910.681	15963.73
910.994	15939.33
911.307	15759.44
911.619	15629.5
911.932	15714.02
912.244	15485.55
912.557	15639.45
912.869	15448.49
913.181	15519.45
913.494	15438.55
913.806	15356.74
914.118	15308.38
914.43	15227.93
914.742	15268.84
915.054	15049.86
915.366	15054.83
915.678	15104.09
915.99	14980.93
916.302	14855.06
916.613	14813.93
916.925	14781.39
917.236	14813.25
917.548	14684.67
917.859	14731.67
918.171	14575.52
918.482	14572.81
918.794	14496.88
919.105	14469.08
919.416	14380.95
919.727	14293.04
920.038	14259.37
920.349	14121.75
920.66	14148.19
920.971	14110.22
921.282	14034.29
921.593	13933.28
921.903	13909.1
922.214	13833.62
922.525	13797.69
922.835	13689.67
923.146	13657.35
923.456	13612.16
923.767	13534.19
924.077	13569.9
924.387	13568.32
924.697	13511.37
925.008	13477.47
925.318	13333.97
925.628	13306.4
925.938	13297.36
926.248	13141.89
926.558	13126.75
926.867	13039.06
927.177	13077.71
927.487	13074.54
927.796	12877.26
928.106	12807.88
928.416	12809.24
928.725	12746.64
929.034	12743.48
929.344	12717.72
929.653	12733.31
929.962	12647.21
930.271	12589.13
930.581	12480.43
930.89	12521.79
931.199	12397.27
931.508	12335.58
931.817	12370.83
932.125	12357.27
932.434	12288.12
932.743	12255.13
933.051	12148.24
933.36	12088.35
933.669	11956.38
933.977	11941.24
934.286	11899.43
934.594	11857.17
934.902	11866.67
935.21	11718.42
935.519	11726.1
935.827	11675.71
936.135	11570.4
936.443	11555.04
936.751	11514.13
937.059	11604.75
937.367	11454.25
937.674	11429.39
937.982	11507.58
938.29	11274.36
938.597	11284.99
938.905	11192.56
939.213	11173.35
939.52	11130.87
939.827	11150.98
940.135	11051.77
940.442	10986.69
940.749	11064.88
941.056	10997.08
941.363	10868.05
941.67	10848.39
941.977	10748.73
942.284	10702.85
942.591	10736.07
942.898	10694.49
943.205	10645.23
943.511	10584.67
943.818	10632.8
944.125	10475.06
944.431	10458.11
944.738	10392.35
945.044	10405.01
945.35	10353.71
945.657	10306.48
945.963	10312.13
946.269	10239.59
946.575	10225.58
946.881	10138.35
947.187	10088.63
947.493	9985.36
947.799	10031.23
948.105	9969.09
948.41	9979.71
948.716	10027.84
949.022	9867.85
949.327	9819.94
949.633	9777.68
949.938	9814.97
950.244	9760.51
950.549	9707.4
950.854	9671.69
951.16	9597.35
951.465	9538.59
951.77	9451.81
952.075	9454.07
952.38	9446.39
952.685	9337.69
952.99	9301.54
953.294	9272.84
953.599	9237.36
953.904	9178.83
954.209	9139.73
954.513	9201.88
954.818	9111.26
955.122	9095.44
955.426	8963.46
955.731	8984.48
956.035	8897.03
956.339	8875.78
956.643	8827.2
956.948	8750.14
957.252	8770.93
957.556	8813.19
957.86	8791.94
958.163	8739.29
958.467	8608.67
958.771	8676.69
959.075	8578.16
959.378	8613.19
959.682	8503.36
959.985	8429.02
960.289	8449.81
960.592	8392.18
960.896	8402.12
961.199	8363.25
961.502	8368.68
961.805	8250.49
962.108	8248.46
962.411	8172.07
962.714	8180.43
963.017	8109.93
963.32	8142.02
963.623	8076.48
963.926	8145.18
964.228	8025.41
964.531	8006.65
964.833	7954
965.136	7919.42
965.438	7898.86
965.741	7847.56
966.043	7838.3
966.345	7782.48
966.648	7776.83
966.95	7716.49
967.252	7659.77
967.554	7633.33
967.856	7650.51
968.158	7535.48
968.46	7573.67
968.761	7524.18
969.063	7491.19
969.365	7399.89
969.666	7378.87
969.968	7344.07
970.269	7316.28
970.571	7316.73
970.872	7237.63
971.174	7229.27
971.475	7206.9
971.776	7222.49
972.077	7127.13
972.378	7141.14
972.679	7105.89
972.98	7108.15
973.281	6968.94
973.582	6976.17
973.883	6974.36
974.183	6970.3
974.484	6896.85
974.785	6875.61
975.085	6828.15
975.386	6830.64
975.686	6795.61
975.986	6749.29
976.287	6780.92
976.587	6720.36
976.887	6712.45
977.187	6690.53
977.487	6612.79
977.787	6617.31
978.087	6630.64
978.387	6499.8
978.687	6501.83
978.987	6478.56
979.286	6501.38
979.586	6463.42
979.885	6392.91
980.185	6389.75
980.484	6388.84
980.784	6312.91
981.083	6268.39
981.382	6302.74
981.682	6265.68
981.981	6184.33
982.28	6169.19
982.579	6146.82
982.878	6195.4
983.177	6129.19
983.475	6070.43
983.774	6029.98
984.073	5958.12
984.372	5989.98
984.67	5936.2
984.969	5945.01
985.267	5945.24
985.566	5861.17
985.864	5894.62
986.162	5848.74
986.461	5789.31
986.759	5792.7
987.057	5729.88
987.355	5740.72
987.653	5730.1
987.951	5675.42
988.249	5666.83
988.547	5578.92
988.844	5554.74
989.142	5592.93
989.44	5555.19
989.737	5480.62
990.035	5505.25
990.332	5439.72
990.63	5463.9
990.927	5461.86
991.224	5408.76
991.521	5409.43
991.819	5354.75
992.116	5348.87
992.413	5334.18
992.71	5264.13
993.006	5220.06
993.303	5251.92
993.6	5215.99
993.897	5168.76
994.193	5216.67
994.49	5159.27
994.787	5049.9
995.083	5090.12
995.379	5035.66
995.676	5021.87
995.972	4997.47
996.268	4945.72
996.565	4949.79
996.861	4902.1
997.157	4909.11
997.453	4872.05
997.749	4861.43
998.044	4849.67
998.34	4782.11
998.636	4788.21
998.932	4740.3
999.227	4707.76
999.523	4695.78
999.818	4702.56
1000.114	4636.8
1000.409	4671.15
1000.704	4594.54
1001	4540.98
1001.295	4585.05
1001.59	4541.66
1001.885	4498.5
1002.18	4491.94
1002.475	4441.32
1002.77	4439.06
1003.065	4376.47
1003.359	4338.28
1003.654	4352.29
1003.949	4305.28
1004.243	4292.18
1004.538	4273.87
1004.832	4239.75
1005.127	4217.15
1005.421	4190.94
1005.715	4163.59
1006.009	4151.84
1006.304	4110.26
1006.598	4083.37
1006.892	4101.22
1007.186	4044.05
1007.48	3998.4
1007.773	4011.28
1008.067	4020.54
1008.361	3929.7
1008.655	3928.34
1008.948	3971.73
1009.242	3906.87
1009.535	3858.97
1009.829	3867.78
1010.122	3799.08
1010.415	3830.49
1010.708	3786.88
1011.001	3741
1011.295	3760.21
1011.588	3731.29
1011.881	3698.07
1012.173	3667.33
1012.466	3658.75
1012.759	3650.16
1013.052	3645.64
1013.344	3572.65
1013.637	3568.35
1013.93	3526.55
1014.222	3506.66
1014.514	3472.31
1014.807	3472.31
1015.099	3405.19
1015.391	3406.32
1015.683	3365.42
1015.976	3345.53
1016.268	3347.12
1016.56	3320.68
1016.851	3278.42
1017.143	3271.64
1017.435	3215.37
1017.727	3230.73
1018.018	3192.54
1018.31	3215.59
1018.602	3208.14
1018.893	3161.13
1019.185	3117.52
1019.476	3156.84
1019.767	3083.85
1020.058	3045.65
1020.35	3053.11
1020.641	3028.48
1020.932	3000.23
1021.223	2929.05
1021.514	2905.32
1021.804	2916.84
1022.095	2871.87
1022.386	2855.83
1022.677	2878.43
1022.967	2838.2
1023.258	2782.38
1023.548	2803.4
1023.839	2777.64
1024.129	2780.12
1024.419	2741.93
1024.709	2750.75
1025	2694.48
1025.29	2667.13
1025.58	2668.26
1025.87	2665.78
1026.16	2641.6
1026.449	2577.87
1026.739	2576.74
1027.029	2586.68
1027.319	2536.97
1027.608	2529.74
1027.898	2499.91
1028.187	2457.87
1028.477	2466.01
1028.766	2442.51
1029.055	2450.87
1029.344	2443.41
1029.634	2400.93
1029.923	2368.61
1030.212	2355.96
1030.501	2377.65
1030.79	2333.36
1031.078	2292.45
1031.367	2277.99
1031.656	2272.12
1031.945	2281.61
1032.233	2214.26
1032.522	2224.66
1032.81	2211.78
1033.099	2174.26
1033.387	2213.81
1033.675	2180.82
1033.963	2134.94
1034.251	2129.07
1034.54	2125.45
1034.828	2082.97
1035.116	2086.13
1035.403	2077.32
1035.691	2046.36
1035.979	2036.42
1036.267	2017.88
1036.554	1992.8
1036.842	2000.94
1037.129	1966.36
1037.417	1952.12
1037.704	1954.84
1037.992	1952.12
1038.279	1903.09
1038.566	1866.02
1038.853	1866.02
1039.14	1866.02
