Data from copper_heatsink_FLMS001491_018.txt Node
Date: Tue Feb 07 10:49:18 GMT 2017
User: dcchb
Spectrometer: FLMS00149
Trigger mode: 0
Integration Time (sec): 2.000000E-2
Scans to average: 10
Electric dark correction enabled: true
Nonlinearity correction enabled: false
Boxcar width: 0
XAxis mode: Wavelengths
Number of Pixels in Spectrum: 2048
>>>>>Begin Spectral Data<<<<<
341.393	-3.76
341.776	-3.76
342.16	-3.76
342.543	-54.6
342.927	-70.2
343.31	-64.55
343.693	-63.87
344.077	-48.73
344.46	-40.59
344.843	-56.41
345.226	-39.46
345.61	-49.41
345.993	-29.52
346.376	1.44
346.759	0.08
347.142	26.75
347.525	41.44
347.908	56.35
348.291	71.72
348.674	91.16
349.057	103.58
349.44	149.46
349.823	132.74
350.206	182.68
350.588	213.19
350.971	221.77
351.354	236.24
351.737	265.39
352.119	285.05
352.502	277.37
352.884	259.51
353.267	298.16
353.65	336.12
354.032	313.52
354.414	338.83
354.797	352.39
355.179	349.23
355.562	334.77
355.944	353.75
356.326	338.38
356.709	345.61
357.091	334.09
357.473	370.02
357.855	368.89
358.238	357.59
358.62	361.66
359.002	353.97
359.384	374.31
359.766	372.28
360.148	360.08
360.53	369.79
360.912	355.33
361.294	358.04
361.676	357.59
362.057	357.59
362.439	355.1
362.821	366.18
363.203	338.15
363.584	365.27
363.966	365.72
364.348	350.81
364.729	364.82
365.111	344.48
365.493	331.15
365.874	353.97
366.256	322.11
366.637	343.58
367.019	324.37
367.4	339.06
367.781	365.27
368.163	342.45
368.544	333.86
368.925	360.3
369.306	338.38
369.688	334.31
370.069	343.13
370.45	344.03
370.831	337.93
371.212	350.81
371.593	317.36
371.974	341.09
372.355	354.88
372.736	363.01
373.117	382.9
373.498	346.29
373.879	337.03
374.26	339.96
374.641	351.04
375.021	331.6
375.402	362.79
375.783	371.37
376.163	363.92
376.544	353.07
376.925	366.4
377.305	349.45
377.686	346.29
378.066	360.3
378.447	363.01
378.827	350.13
379.208	351.71
379.588	342.22
379.968	368.44
380.349	359.85
380.729	366.18
381.109	386.97
381.489	351.49
381.87	368.44
382.25	387.65
382.63	374.31
383.01	372.28
383.39	357.59
383.77	389.91
384.15	390.58
384.53	383.58
384.91	382.67
385.29	372.05
385.67	391.49
386.049	391.03
386.429	388.1
386.809	392.39
387.189	410.24
387.568	381.54
387.948	393.29
388.328	392.16
388.707	394.65
389.087	394.65
389.466	386.52
389.846	415.67
390.225	396.01
390.605	411.15
390.984	410.7
391.363	422.9
391.743	419.28
392.122	420.64
392.501	418.83
392.881	415.22
393.26	411.37
393.639	427.19
394.018	403.92
394.397	416.12
394.776	406.63
395.155	414.09
395.534	401.66
395.913	427.42
396.292	427.64
396.671	442.56
397.05	451.6
397.429	416.34
397.808	426.06
398.186	435.55
398.565	423.12
398.944	425.16
399.323	441.2
399.701	433.75
400.08	440.3
400.458	455.67
400.837	458.83
401.215	466.97
401.594	443.24
401.972	469
402.351	466.97
402.729	459.06
403.107	445.95
403.486	455.44
403.864	477.81
404.242	450.24
404.62	487.76
404.999	470.35
405.377	476.23
405.755	459.28
406.133	466.29
406.511	466.74
406.889	474.65
407.267	484.59
407.645	487.53
408.023	494.76
408.401	506.51
408.779	499.05
409.156	487.98
409.534	491.82
409.912	531.82
410.29	512.84
410.667	499.96
411.045	509
411.422	495.89
411.8	497.92
412.178	520.98
412.555	522.33
412.933	540.41
413.31	536.79
413.687	532.27
414.065	532.95
414.442	530.24
414.819	529.79
415.197	548.32
415.574	553.52
415.951	554.65
416.328	575.66
416.705	570.24
417.082	555.78
417.46	568.66
417.837	562.1
418.214	556.23
418.591	562.33
418.967	573.63
419.344	590.58
419.721	576.57
420.098	576.57
420.475	579.73
420.852	570.24
421.228	594.87
421.605	587.19
421.982	602.55
422.358	593.74
422.735	603.68
423.111	600.07
423.488	601.2
423.864	626.73
424.241	607.98
424.617	618.6
424.994	607.53
425.37	649.79
425.746	611.37
426.123	625.61
426.499	621.09
426.875	631.93
427.251	655.66
427.627	627.41
428.003	655.66
428.379	664.7
428.756	666.73
429.132	673.06
429.507	673.74
429.883	679.16
430.259	679.16
430.635	661.54
431.011	704.92
431.387	708.54
431.763	696.34
432.138	695.66
432.514	732.95
432.89	710.8
433.265	734.3
433.641	738.82
434.016	736.34
434.392	771.14
434.767	751.93
435.143	761.87
435.518	788.54
435.894	784.24
436.269	754.64
436.644	780.18
437.02	799.61
437.395	784.02
437.77	778.37
438.145	827.41
438.52	808.88
438.895	804.58
439.271	805.49
439.646	815.88
440.021	825.83
440.395	838.25
440.77	829.44
441.145	842.1
441.52	850.91
441.895	853.4
442.27	861.76
442.645	851.36
443.019	867.41
443.394	861.76
443.769	890.68
444.143	872.6
444.518	885.94
444.892	871.25
445.267	886.84
445.641	899.95
446.016	889.1
446.39	901.98
446.764	904.92
447.139	918.03
447.513	914.64
447.887	925.94
448.262	924.35
448.636	919.61
449.01	920.29
449.384	921.64
449.758	924.81
450.132	955.09
450.506	955.77
450.88	963.68
451.254	974.52
451.628	976.33
452.002	996.67
452.376	986.5
452.75	1008.65
453.123	1004.8
453.497	1012.26
453.871	1021.98
454.244	1063.79
454.618	1045.26
454.992	1051.81
455.365	1062.66
455.739	1075.31
456.112	1076.44
456.486	1092.94
456.859	1092.49
457.232	1132.48
457.606	1147.63
457.979	1146.5
458.352	1157.57
458.725	1160.05
459.099	1170.22
459.472	1186.95
459.845	1207.06
460.218	1189.21
460.591	1219.71
460.964	1226.04
461.337	1252.03
461.71	1268.3
462.083	1293.84
462.456	1284.34
462.829	1279.6
463.201	1288.19
463.574	1305.14
463.947	1354.4
464.32	1359.82
464.692	1380.84
465.065	1364.57
465.438	1396.21
465.81	1414.74
466.183	1397.79
466.555	1434.4
466.928	1462.87
467.3	1460.61
467.672	1490.22
468.045	1491.12
468.417	1529.54
468.789	1514.4
469.161	1549.42
469.534	1583.32
469.906	1613.83
470.278	1609.08
470.65	1634.62
471.022	1681.4
471.394	1699.25
471.766	1708.97
472.138	1734.05
472.51	1750.32
472.882	1806.36
473.253	1804.56
473.625	1847.95
473.997	1877.1
474.369	1871
474.74	1905.35
475.112	1932.46
475.484	1973.82
475.855	1976.3
476.227	2026.02
476.598	2088.84
476.97	2123.19
477.341	2168.62
477.713	2168.62
478.084	2211.55
478.455	2244.09
478.827	2263.3
479.198	2311.66
479.569	2324.77
479.94	2417.42
480.311	2432.34
480.682	2470.53
481.053	2524.99
481.424	2550.53
481.795	2550.07
482.166	2599.11
482.537	2641.37
482.908	2724.98
483.279	2773.57
483.65	2783.06
484.021	2862.83
484.391	2878.2
484.762	2927.24
485.133	2978.09
485.503	3044.3
485.874	3116.16
486.244	3081.36
486.615	3140.79
486.985	3158.19
487.356	3241.81
487.726	3269.83
488.097	3377.62
488.467	3339.66
488.837	3439.32
489.207	3489.26
489.578	3537.39
489.948	3566.09
490.318	3593.21
490.688	3636.6
491.058	3671.85
491.428	3770.83
491.798	3778.74
492.168	3846.31
492.538	3931.51
492.908	3951.62
493.278	3951.17
493.648	4044.05
494.017	4028.45
494.387	4100.99
494.757	4188.22
495.126	4221.44
495.496	4247.66
495.866	4278.16
496.235	4346.86
496.605	4394.77
496.974	4420.31
497.344	4483.58
497.713	4517.25
498.082	4518.61
498.452	4551.83
498.821	4632.51
499.19	4640.41
499.559	4658.49
499.928	4719.28
500.298	4757.02
500.667	4820.07
501.036	4835.44
501.405	4881.76
501.774	4868.21
502.143	4936.9
502.512	4971.48
502.88	5027.3
503.249	5083.79
503.618	5120.18
503.987	5174.19
504.356	5180.74
504.724	5270.68
505.093	5286.5
505.462	5268.42
505.83	5270.91
506.199	5385.03
506.567	5490.56
506.936	5461.64
507.304	5573.05
507.672	5590.9
508.041	5632.48
508.409	5712.48
508.777	5716.77
509.145	5777.56
509.514	5801.51
509.882	5838.8
510.25	5906.6
510.618	5907.95
510.986	5970.1
511.354	6054.61
511.722	6118.34
512.09	6144.56
512.458	6164.67
512.826	6242.63
513.193	6299.81
513.561	6295.06
513.929	6357.66
514.297	6450.99
514.664	6477.43
515.032	6590.19
515.4	6614.15
515.767	6643.98
516.135	6747.03
516.502	6709.74
516.869	6800.58
517.237	6818.44
517.604	6851.88
517.972	6955.38
518.339	7009.84
518.706	7010.3
519.073	7119.67
519.44	7153.57
519.808	7320.34
520.175	7276.28
520.542	7366.44
520.909	7429.04
521.276	7505.65
521.643	7648.47
522.009	7688.7
522.376	7715.81
522.743	7761.46
523.11	7856.83
523.477	7946.09
523.843	8015.92
524.21	8050.04
524.577	8106.31
524.943	8243.26
525.31	8304.05
525.676	8399.19
526.043	8427.21
526.409	8494.1
526.776	8574.55
527.142	8665.39
527.508	8704.49
527.874	8791.72
528.241	8871.49
528.607	8919.62
528.973	9069
529.339	9000.3
529.705	9161.88
530.071	9256.11
530.437	9305.6
530.803	9354.42
531.169	9464.24
531.535	9492.04
531.901	9586.27
532.267	9601.41
532.632	9695.42
532.998	9725.48
533.364	9830.79
533.73	9833.05
534.095	9968.64
534.461	10023.55
534.826	10127.28
535.192	10179.25
535.557	10258.57
535.923	10249.98
536.288	10337.89
536.653	10407.95
537.019	10452.47
537.384	10556.64
537.749	10616.3
538.114	10687.71
538.479	10719.58
538.845	10857.65
539.21	10852.91
539.575	10941.94
539.94	10954.82
540.305	11055.84
540.67	11121.15
541.034	11213.8
541.399	11273.69
541.764	11317.98
542.129	11447.92
542.494	11539.44
542.858	11552.32
543.223	11664.41
543.587	11742.6
543.952	11731.53
544.316	11827.12
544.681	11933.1
545.045	12057.17
545.41	12035.02
545.774	12144.85
546.138	12258.52
546.503	12338.07
546.867	12344.62
547.231	12591.62
547.595	12634.78
547.959	12715.68
548.324	12797.49
548.688	12866.87
549.052	12944.38
549.416	12991.83
549.779	13077.03
550.143	13247.19
550.507	13405.38
550.871	13452.61
551.235	13506.62
551.599	13635.66
551.962	13800.63
552.326	13901.64
552.689	14093.5
553.053	14028.87
553.417	14136.21
553.78	14345.7
554.143	14474.51
554.507	14480.38
554.87	14685.8
555.234	14891.44
555.597	14828.4
555.96	15029.29
556.323	15189.52
556.686	15306.12
557.05	15522.39
557.413	15556.29
557.776	15747.02
558.139	16023.17
558.502	16057.06
558.865	16132.54
559.228	16374.8
559.59	16474
559.953	16708.8
560.316	16991.73
560.679	17045.51
561.041	17137.71
561.404	17336.58
561.767	17658.83
562.129	17628.55
562.492	17937.01
562.854	18010.68
563.217	18163.9
563.579	18383.78
563.941	18658.13
564.304	18751.91
564.666	19007.95
565.028	19083.88
565.39	19373.36
565.753	19516.18
566.115	19764.54
566.477	19964.76
566.839	20091.31
567.201	20305.09
567.563	20528.58
567.925	20747.56
568.287	20801.8
568.648	20979.65
569.01	21176.93
569.372	21473.42
569.734	21565.62
570.095	21865.27
570.457	22028.21
570.819	22159.73
571.18	22424.58
571.542	22658.7
571.903	22737.34
572.265	22872.7
572.626	23053.94
572.987	23291.22
573.349	23537.09
573.71	23697.77
574.071	23770.76
574.432	24049.85
574.794	24366.22
575.155	24542.72
575.516	24446.67
575.877	24680.57
576.238	24771.86
576.599	25038.97
576.96	25075.13
577.32	25277.16
577.681	25459.98
578.042	25688
578.403	25679.64
578.763	25896.13
579.124	26007.76
579.485	26304.93
579.845	26293.18
580.206	26478.26
580.566	26422.67
580.927	26671.25
581.287	26839.61
581.648	26888.64
582.008	27262.19
582.368	27187.39
582.728	27268.97
583.089	27278.92
583.449	27436.2
583.809	27609.53
584.169	27714.61
584.529	27776.3
584.889	27907.6
585.249	27843.42
585.609	27902.85
585.969	28130.42
586.329	28201.6
586.688	28366.8
587.048	28446.57
587.408	28391.43
587.768	28413.57
588.127	28538.09
588.487	28663.06
588.846	29077.51
589.206	28751.19
589.565	28831.87
589.925	29019.21
590.284	29031.41
590.643	29085.65
591.003	29379.65
591.362	29428.69
591.721	29336.94
592.08	29539.65
592.44	29675.91
592.799	29652.41
593.158	29679.3
593.517	29842.01
593.876	29912.52
594.235	29896.93
594.593	29974.66
594.952	30247.2
595.311	30256.46
595.67	30312.73
596.029	30530.13
596.387	30622.1
596.746	30587.3
597.104	30526.06
597.463	30682.44
597.822	30775.77
598.18	30780.29
598.538	30806.73
598.897	31058.93
599.255	30908.65
599.613	31257.12
599.972	31258.47
600.33	31260.73
600.688	31323.55
601.046	31450.11
601.404	31661.4
601.762	31667.73
602.12	31999.02
602.478	31834.95
602.836	32000.37
603.194	31821.85
603.552	31920.6
603.91	31968.96
604.268	32170.54
604.625	32163.98
604.983	32305.22
605.341	32326.69
605.698	32481.94
606.056	32608.27
606.413	32626.12
606.771	32773.23
607.128	32952.89
607.485	32808.04
607.843	32832.89
608.2	33077.63
608.557	33311.3
608.914	33196.95
609.272	33497.28
609.629	33554.68
609.986	33639.65
610.343	33522.82
610.7	33812.08
611.057	33735.69
611.414	33746.77
611.771	33879.19
612.127	33914
612.484	34113.76
612.841	34306.53
613.198	34251.16
613.554	34283.25
613.911	34531.83
614.267	34616.8
614.624	34465.85
614.98	34661.55
615.337	34935.89
615.693	34872.39
616.05	34914.87
616.406	35127.52
616.762	35099.5
617.118	35162.32
617.475	35184.47
617.831	35403.67
618.187	35391.92
618.543	35355.31
618.899	35526.61
619.255	35762.53
619.611	35638.7
619.967	35843.44
620.323	35944
620.678	35853.83
621.034	35750.11
621.39	35963.88
621.746	35941.06
622.101	36377.89
622.457	36052.92
622.812	36274.84
623.168	36346.25
623.523	36479.35
623.879	36595.05
624.234	36324.1
624.589	36652
624.945	36566.58
625.3	36696.52
625.655	36569.07
626.01	36789.17
626.365	36819.91
626.72	36759.8
627.075	36810.42
627.43	36932
627.785	36873.24
628.14	36892
628.495	37115.94
628.85	37037.98
629.205	36942.39
629.559	37129.05
629.914	36953.24
630.269	37030.98
630.623	36947.59
630.978	36962.73
631.332	37189.84
631.687	37141.93
632.041	37024.65
632.396	37152.55
632.75	37111.43
633.104	37182.84
633.459	36998.21
633.813	36998.66
634.167	37024.65
634.521	37107.36
634.875	37086.12
635.229	37221.7
635.583	37013.8
635.937	37063.74
636.291	36971.77
636.645	37172.21
636.999	37211.08
637.352	37123.63
637.706	37010.86
638.06	37336.96
638.413	37168.6
638.767	36896.29
639.121	37164.08
639.474	37126.79
639.828	36999.34
640.181	37196.17
640.534	37171.31
640.888	37115.49
641.241	36817.87
641.594	36994.59
641.947	37136.74
642.301	37003.63
642.654	36973.8
643.007	37237.07
643.36	37246.56
643.713	37226
644.066	37355.49
644.419	36947.59
644.771	36650.87
645.124	36216.08
645.477	36269.87
645.83	36007.95
646.182	36040.95
646.535	36143.54
646.888	36380.82
647.24	36138.57
647.593	36666.24
647.945	36490.42
648.298	36518.22
648.65	36237.78
649.002	36186.25
649.355	36452.91
649.707	36316.87
650.059	36231.45
650.411	36635.05
650.763	36832.56
651.115	37272.55
651.467	37080.24
651.819	37384.86
652.171	37227.81
652.523	37155.04
652.875	36980.81
653.227	36979.68
653.578	37188.49
653.93	37017.19
654.282	36882.5
654.633	36875.95
654.985	37179.67
655.337	37212.44
655.688	37188.94
656.039	37207.24
656.391	37044.53
656.742	37143.97
657.094	37238.2
657.445	37174.25
657.796	37364.07
658.147	37262.83
658.498	37245.66
658.849	37275.71
659.2	37234.81
659.551	37129.05
659.902	37324.3
660.253	37237.3
660.604	37268.26
660.955	37151.2
661.306	37244.3
661.656	37238.2
662.007	37320.23
662.358	37201.14
662.708	37284.3
663.059	37301.25
663.409	37137.41
663.76	37562.94
664.11	37463.73
664.461	37597.06
664.811	37610.17
665.161	37506.44
665.511	37392.55
665.862	37447.46
666.212	37717.06
666.562	37624.63
666.912	37611.3
667.262	37662.37
667.612	37565.88
667.962	37554.58
668.312	37608.59
668.662	37773.55
669.011	37802.71
669.361	37694.23
669.711	37622.6
670.06	37679.32
670.41	37717.96
670.76	37534.01
671.109	37837.28
671.459	37668.02
671.808	37694.69
672.157	37832.31
672.507	37672.99
672.856	37663.5
673.205	37741.69
673.554	37923.16
673.904	37868.47
674.253	37991.63
674.602	37823.95
674.951	37458.99
675.3	37204.98
675.649	37673.9
675.998	37879.31
676.346	37945.08
676.695	37992.31
677.044	37818.53
677.393	37830.95
677.741	37886.55
678.09	37832.99
678.438	37785.31
678.787	37677.96
679.135	37899.43
679.484	37560.45
679.832	37811.07
680.181	37597.29
680.529	37756.83
680.877	37640.9
681.225	37721.8
681.573	37912.99
681.922	37656.5
682.27	37588.02
682.618	37745.53
682.966	37576.27
683.314	37614.46
683.661	37624.41
684.009	37440.23
684.357	37407.69
684.705	37400.01
685.053	37347.13
685.4	37411.08
685.748	37257.86
686.095	37321.59
686.443	37244.53
686.79	37103.29
687.138	37281.14
687.485	37284.75
687.832	37164.08
688.18	37273.45
688.527	36996.4
688.874	37072.78
689.221	36931.32
689.568	36877.53
689.915	36790.98
690.262	36788.95
690.609	36774.03
690.956	36846.8
691.303	36740.36
691.65	36646.8
691.997	36496.53
692.344	36420.6
692.69	36226.48
693.037	36487.03
693.383	36211.34
693.73	36484.32
694.077	36263.76
694.423	36204.78
694.769	36197.78
695.116	36000.95
695.462	36043.2
695.808	36036.2
696.155	35958.91
696.501	35758.24
696.847	35708.98
697.193	35531.35
697.539	35661.29
697.885	35568.42
698.231	35258.37
698.577	35380.17
698.923	35261.3
699.269	35221.08
699.614	35118.26
699.96	35156.9
700.306	35308.08
700.651	35036.9
700.997	34982.22
701.342	35020.86
701.688	35003.46
702.033	34772.28
702.379	34814.08
702.724	34693.18
703.069	34886.63
703.415	34546.3
703.76	34584.49
704.105	34444.6
704.45	34471.04
704.795	34261.78
705.14	34329.35
705.485	34251.84
705.83	34156.47
706.175	34291.16
706.52	34039.64
706.865	34138.17
707.209	34126.42
707.554	33849.59
707.899	34004.84
708.243	33979.76
708.588	33910.38
708.932	33652.76
709.277	33726.2
709.621	33679.88
709.966	33517.62
710.31	33726.43
710.654	33347
710.998	33506.77
711.342	33435.36
711.687	33467.68
712.031	33299.32
712.375	33220
712.719	33341.58
713.063	33289.6
713.407	33412.54
713.75	33134.81
714.094	33321.47
714.438	33171.42
714.782	33238.31
715.125	33061.59
715.469	33145.43
715.812	33037.18
716.156	32757.87
716.499	32895.04
716.843	32969.16
717.186	32869.28
717.53	32987.69
717.873	32995.15
718.216	32907.02
718.559	32870.63
718.902	32605.78
719.246	32772.56
719.589	32767.58
719.932	32652.56
720.275	32500.02
720.617	32540.02
720.96	32456.63
721.303	32535.05
721.646	32566.69
721.989	32371.44
722.331	32486.91
722.674	32402.4
723.016	32376.41
723.359	32491.89
723.701	32410.08
724.044	32264.1
724.386	32155.4
724.729	32346.13
725.071	32290.76
725.413	32252.57
725.755	32229.07
726.097	32123.08
726.439	31909.08
726.782	32002.18
727.124	32180.03
727.465	31963.31
727.807	31949.98
728.149	31768.97
728.491	31916.76
728.833	31829.98
729.175	31809.87
729.516	31847.16
729.858	31733.26
730.199	31790.66
730.541	31772.81
730.882	31708.63
731.224	31861.39
731.565	31675.86
731.906	31727.39
732.248	31701.62
732.589	31621.4
732.93	31611
733.271	31618.69
733.612	31668.86
733.953	31739.36
734.294	31642.64
734.635	31649.87
734.976	31662.53
735.317	31458.92
735.658	31408.3
735.999	31574.85
736.339	31695.75
736.68	31622.08
737.021	31477.22
737.361	31517
737.702	31530.33
738.042	31516.77
738.383	31399.26
738.723	31442.2
739.063	31412.82
739.404	31343.22
739.744	31359.94
740.084	31143.45
740.424	31345.02
740.764	31126.72
741.104	31408.07
741.444	31170.79
741.784	31187.51
742.124	31250.79
742.464	31202.43
742.804	31097.8
743.143	31097.35
743.483	31116.55
743.823	30941.64
744.162	31148.64
744.502	31132.37
744.841	30948.2
745.181	31081.75
745.52	31012.38
745.86	31092.37
746.199	30918.59
746.538	30946.62
746.877	30878.82
747.216	30977.35
747.556	30911.81
747.895	30955.2
748.234	30843.12
748.573	30908.42
748.911	30802.66
749.25	30864.58
749.589	30542.56
749.928	30741.42
750.267	30697.81
750.605	30517.02
750.944	30637.02
751.283	30575.33
751.621	30675.21
751.96	30415.1
752.298	30415.33
752.636	30415.56
752.975	30289.23
753.313	30155.22
753.651	30355.44
753.989	30417.14
754.327	30220.99
754.666	30098.73
755.004	30160.65
755.342	30210.36
755.679	30114.1
756.017	30048.79
756.355	30038.39
756.693	29974.66
757.031	30000.88
757.368	29717.04
757.706	29902.58
758.044	29728.79
758.381	29809.47
758.719	29759.3
759.056	29687.44
759.394	29661.68
759.731	29341.69
760.068	29365.41
760.405	29414.68
760.743	29375.36
761.08	29329.48
761.417	29310.5
761.754	29276.83
762.091	29154.12
762.428	29195.48
762.765	29010.62
763.102	29102.14
763.438	28846.56
763.775	28854.24
764.112	28910.74
764.449	28793
764.785	28633.91
765.122	28451.99
765.458	28440.92
765.795	28446.57
766.131	28533.57
766.467	28462.39
766.804	28352.33
767.14	28357.76
767.476	28324.99
767.812	28130.64
768.148	28149.63
768.485	28004.09
768.821	28004.55
769.157	27720.49
769.492	27729.53
769.828	27816.08
770.164	27544.67
770.5	27649.98
770.836	27447.05
771.171	27471.9
771.507	27398.46
771.842	27079.82
772.178	27148.07
772.513	27076.89
772.849	27116.21
773.184	26994.4
773.519	27103.33
773.855	27007.06
774.19	26862.43
774.525	26787.18
774.86	26783.56
775.195	26743.11
775.53	26574.53
775.865	26467.64
776.2	26462.21
776.535	26259.51
776.87	26269.9
777.205	26151.26
777.539	26129.57
777.874	26070.36
778.209	25810.25
778.543	25791.5
778.878	25680.54
779.212	25690.03
779.547	25551.28
779.881	25690.48
780.215	25554.44
780.55	25574.55
780.884	25492.07
781.218	25443.71
781.552	25521.22
781.886	25256.6
782.22	25153.1
782.554	25155.58
782.888	24930.73
783.222	24946.32
783.556	24885.08
783.889	24868.13
784.223	24781.58
784.557	24732.99
784.89	24766.67
785.224	24565.09
785.557	24383.4
785.891	24413.45
786.224	24332.33
786.558	24316.28
786.891	24157.42
787.224	24174.82
787.557	24065.44
787.891	24082.84
788.224	24117.42
788.557	24121.03
788.89	23884.65
789.223	23884.65
789.556	23913.13
789.888	23783.87
790.221	23758.1
790.554	23503.87
790.887	23709.97
791.219	23479.02
791.552	23493.48
791.884	23383.2
792.217	23259.81
792.549	23325.12
792.882	23163.54
793.214	23067.27
793.546	23104.56
793.879	23067.27
794.211	22924
794.543	22967.84
794.875	22910.67
795.207	22868.18
795.539	22844.23
795.871	22907.51
796.203	22619.83
796.535	22582.54
796.867	22489.44
797.198	22517.46
797.53	22388.2
797.862	22248.31
798.193	22350.91
798.525	22200.4
798.856	22263.91
799.188	22101.2
799.519	22067.3
799.85	21935.1
800.182	22132.84
800.513	22086.74
800.844	21886.97
801.175	21986.4
801.506	21953.86
801.837	21876.8
802.168	21728.55
802.499	21740.76
802.83	21633.19
803.161	21549.8
803.491	21549.12
803.822	21543.93
804.153	21432.74
804.483	21404.49
804.814	21473.42
805.145	21431.61
805.475	21340.31
805.805	21229.13
806.136	21223.26
806.466	21167.21
806.796	21139.19
807.126	20974.67
807.457	21002.47
807.787	21082.92
808.117	20840.89
808.447	20917.5
808.777	21063.49
809.107	20821.01
809.436	20796.6
809.766	20890.61
810.096	20795.47
810.426	20793.44
810.755	20781.01
811.085	20747.34
811.414	20598.41
811.744	20432.99
812.073	20590.28
812.403	20517.74
812.732	20414.46
813.061	20459.43
813.39	20383.28
813.719	20256.73
814.049	20412.66
814.378	20406.78
814.707	20204.98
815.036	20203.17
815.365	20215.6
815.693	20044.76
816.022	19982.84
816.351	20010.41
816.68	20005.66
817.008	20098.77
817.337	19882.27
817.665	19912.78
817.994	19941.93
818.322	20018.32
818.651	19840.69
818.979	19755.95
819.307	19840.24
819.636	19881.37
819.964	19698.55
820.292	19853.8
820.62	19817.19
820.948	19861.26
821.276	19942.84
821.604	19856.74
821.932	19831.2
822.259	19845.66
822.587	19858.09
822.915	19749.85
823.243	19956.85
823.57	19902.84
823.898	19847.47
824.225	19789.62
824.553	19846.12
824.88	19867.36
825.207	19958.88
825.535	19823.74
825.862	19915.72
826.189	19810.86
826.516	19985.55
826.843	20030.74
827.17	19986.9
827.497	20102.61
827.824	20010.86
828.151	19987.81
828.478	19993.68
828.805	20159.78
829.131	20088.37
829.458	20070.52
829.785	19986.9
830.111	20045.21
830.438	20192.55
830.764	20155.94
831.09	20161.81
831.417	20096.73
831.743	20210.4
832.069	20148.26
832.395	20093.34
832.722	20103.28
833.048	20074.13
833.374	20158.42
833.7	20095.38
834.026	20170.18
834.351	20209.04
834.677	20201.14
835.003	20211.98
835.329	20240
835.654	20207.01
835.98	20069.84
836.306	20209.5
836.631	20111.19
836.956	20091.53
837.282	20142.61
837.607	20130.18
837.932	20004.53
838.258	20073.23
838.583	20070.52
838.908	19870.97
839.233	20056.96
839.558	19969.96
839.883	19849.51
840.208	19865.78
840.533	19849.05
840.858	19931.09
841.182	19883.63
841.507	19919.11
841.832	19738.32
842.156	19729.96
842.481	19763.41
842.805	19795.72
843.13	19776.06
843.454	19803.63
843.778	19767.7
844.103	19748.27
844.427	19595.95
844.751	19637.99
845.075	19618.78
845.399	19429.4
845.723	19480.7
846.047	19555.95
846.371	19377.65
846.695	19446.58
847.019	19272.57
847.343	19346.47
847.666	19159.58
847.99	19104.44
848.313	19046.14
848.637	18820.83
848.96	18896.54
849.284	18859.7
849.607	18764.56
849.931	18708.75
850.254	18585.81
850.577	18513.04
850.9	18498.58
851.223	18540.39
851.546	18418.36
851.869	18301.07
852.192	18414.29
852.515	18167.97
852.838	18066.95
853.161	18134.75
853.483	18053.62
853.806	17963.23
854.129	17955.77
854.451	17908.77
854.774	17868.54
855.096	17769.11
855.419	17770.69
855.741	17784.7
856.063	17748.32
856.385	17810.92
856.708	17678.49
857.03	17586.29
857.352	17622.22
857.674	17646.85
857.996	17492.51
858.318	17415.45
858.64	17400.53
858.961	17315.34
859.283	17286.41
859.605	17210.48
859.926	17307.2
860.248	17294.77
860.57	17269.69
860.891	17171.38
861.212	17187.88
861.534	17089.13
861.855	17157.83
862.176	17161.67
862.498	17137.94
862.819	17033.99
863.14	16965.06
863.461	16985.85
863.782	16966.42
864.103	16913.31
864.424	16986.08
864.745	17027.43
865.065	16927.32
865.386	16933.2
865.707	16829.02
866.027	16975.91
866.348	17052.07
866.668	16969.36
866.989	16828.12
867.309	16636.71
867.63	16650.95
867.95	16678.74
868.27	16718.97
868.59	16736.59
868.91	16758.51
869.23	16840.77
869.55	16685.75
869.87	16796.93
870.19	16692.98
870.51	16775.01
870.83	16654.34
871.15	16625.86
871.469	16626.77
871.789	16820.43
872.109	16674
872.428	16597.16
872.748	16579.54
873.067	16601.91
873.386	16547.9
873.706	16541.34
874.025	16482.82
874.344	16474.23
874.663	16591.06
874.982	16501.12
875.301	16505.87
875.62	16387.22
875.939	16423.83
876.258	16538.18
876.577	16520.55
876.896	16387.9
877.214	16396.04
877.533	16450.95
877.852	16312.2
878.17	16347
878.489	16294.35
878.807	16358.3
879.125	16314.91
879.444	16373.21
879.762	16383.38
880.08	16323.05
880.398	16240.11
880.716	16384.06
881.034	16278.3
881.352	16170.96
881.67	16123.5
881.988	16189.26
882.306	16207.57
882.624	16260.45
882.941	16055.26
883.259	16049.15
883.577	16140.68
883.894	16076.72
884.212	15985.43
884.529	15993.79
884.846	15971.42
885.164	15923.51
885.481	15917.18
885.798	15929.61
886.115	15836.96
886.432	15850.29
886.75	15773.91
887.067	15891.19
887.383	15703.4
887.7	15810.97
888.017	15699.11
888.334	15706.34
888.651	15603.97
888.967	15706.34
889.284	15551.31
889.6	15603.74
889.917	15425.44
890.233	15467.93
890.55	15464.99
890.866	15523.52
891.182	15436.52
891.498	15446.91
891.815	15396.74
892.131	15383.18
892.447	15344.54
892.763	15246.92
893.079	15219.35
893.395	15147.71
893.71	15175.5
894.026	15186.58
894.342	15164.88
894.657	14997.66
894.973	15112
895.289	15023.19
895.604	15054.6
895.92	14877.89
896.235	14825.91
896.55	14867.26
896.865	14791.79
897.181	14780.94
897.496	14763.99
897.811	14788.4
898.126	14609.19
898.441	14642.41
898.756	14644.9
899.071	14557.89
899.386	14508.86
899.7	14336.2
900.015	14328.97
900.33	14250.33
900.644	14229.77
900.959	14263.89
901.273	14259.6
901.588	14171.24
901.902	14138.02
902.216	14202.42
902.531	14119.49
902.845	14036.33
903.159	13995.87
903.473	13924.01
903.787	13943.9
904.101	13871.13
904.415	13832.72
904.729	13861.19
905.042	13701.42
905.356	13748.88
905.67	13693.06
905.984	13619.84
906.297	13686.28
906.611	13533.29
906.924	13526.28
907.237	13440.64
907.551	13383.01
907.864	13389.56
908.177	13357.25
908.491	13279.06
908.804	13208.55
909.117	13228.89
909.43	13120.87
909.743	13061.89
910.056	13070.93
910.368	13018.27
910.681	12861.44
910.994	12901.44
911.307	12882.01
911.619	12681.33
911.932	12770.14
912.244	12742.57
912.557	12722.01
912.869	12636.36
913.181	12676.59
913.494	12564.05
913.806	12440.89
914.118	12516.59
914.43	12452.86
914.742	12415.8
915.054	12368.35
915.366	12290.38
915.678	12172.19
915.99	12242.02
916.302	12080.67
916.613	12005.87
916.925	12081.35
917.236	12108.69
917.548	11965.65
917.859	12023.72
918.171	11961.13
918.482	11774.92
918.794	11880.22
919.105	11860.79
919.416	11672.55
919.727	11737.18
920.038	11690.17
920.349	11510.52
920.66	11534.92
920.971	11490.86
921.282	11432.55
921.593	11436.39
921.903	11386.45
922.214	11409.73
922.525	11360.24
922.835	11248.83
923.146	11184.88
923.456	11077.76
923.767	11105.56
924.077	11042.05
924.387	11018.1
924.697	10930.19
925.008	10911.21
925.318	10876.18
925.628	10913.92
925.938	10815.17
926.248	10810.87
926.558	10774.26
926.867	10753.93
927.177	10661.27
927.487	10667.15
927.796	10553.93
928.106	10501.73
928.416	10535.85
928.725	10562.97
929.034	10497.66
929.344	10466.48
929.653	10476.87
929.962	10316.88
930.271	10322.07
930.581	10291.34
930.89	10261.51
931.199	10087.05
931.508	10164.79
931.817	10100.84
932.125	10086.6
932.434	10074.4
932.743	10043.44
933.051	9925.47
933.36	9966.83
933.669	9866.72
933.977	9878.7
934.286	9826.27
934.594	9792.14
934.902	9734.07
935.21	9765.03
935.519	9627.4
935.827	9615.65
936.135	9607.29
936.443	9536.33
936.751	9502.21
937.059	9451.81
937.367	9435.54
937.674	9467.63
937.982	9438.48
938.29	9324.13
938.597	9347.86
938.905	9166.85
939.213	9194.42
939.52	9203.46
939.827	9219.05
940.135	9149.22
940.442	9113.07
940.749	9044.59
941.056	9102.67
941.363	9010.92
941.67	9000.98
941.977	8926.18
942.284	8920.75
942.591	8860.87
942.898	8889.79
943.205	8813.64
943.511	8702.23
943.818	8741.55
944.125	8657.94
944.431	8651.83
944.738	8677.14
945.044	8584.94
945.35	8561.67
945.657	8512.86
945.963	8502.91
946.269	8448
946.575	8408.23
946.881	8393.08
947.187	8309.92
947.493	8313.09
947.799	8302.24
948.105	8245.29
948.41	8174.11
948.716	8110.83
949.022	8107.67
949.327	8115.58
949.633	8027.67
949.938	8040.55
950.244	8059.99
950.549	7993.55
950.854	7921.91
951.16	7916.94
951.465	7892.98
951.77	7833.33
952.075	7830.61
952.38	7828.81
952.685	7737.06
952.99	7677.4
953.294	7752.42
953.599	7662.71
953.904	7723.95
954.209	7596.04
954.513	7609.83
954.818	7576.83
955.122	7535.03
955.426	7541.36
955.731	7479.44
956.035	7483.96
956.339	7393.34
956.643	7359.67
956.948	7369.38
957.252	7270.18
957.556	7257.07
957.86	7271.98
958.163	7246.22
958.467	7218.43
958.771	7213.91
959.075	7181.82
959.378	7150.18
959.682	7116.73
959.985	7081.93
960.289	7075.38
960.592	6966.23
960.896	6993.8
961.199	6921.94
961.502	6906.8
961.805	6908.38
962.108	6799.23
962.411	6813.69
962.714	6803.52
963.017	6751.77
963.32	6804.88
963.623	6740.47
963.926	6757.2
964.228	6734.37
964.531	6670.42
964.833	6678.78
965.136	6600.82
965.438	6608.05
965.741	6530.76
966.043	6515.17
966.345	6503.42
966.648	6446.92
966.95	6396.98
967.252	6310.43
967.554	6377.32
967.856	6334.16
968.158	6300.26
968.46	6241.73
968.761	6235.18
969.063	6265.23
969.365	6214.61
969.666	6206.02
969.968	6114.05
970.269	6112.69
970.571	6107.49
970.872	6074.5
971.174	6034.28
971.475	6075.18
971.776	6015.07
972.077	6008.51
972.378	5976.2
972.679	6015.52
972.98	5964
973.281	5874.05
973.582	5896.65
973.883	5830.89
974.183	5874.28
974.484	5842.19
974.785	5761.97
975.085	5776.66
975.386	5735.53
975.686	5734.4
975.986	5691.23
976.287	5691.01
976.587	5650.33
976.887	5657.11
977.187	5655.98
977.487	5621.86
977.787	5613.72
978.087	5497.57
978.387	5487.17
978.687	5467.06
978.987	5431.81
979.286	5406.5
979.586	5456.89
979.885	5355.88
980.185	5341.41
980.484	5332.6
980.784	5341.19
981.083	5249.89
981.382	5294.63
981.682	5258.25
981.981	5219.83
982.28	5192.72
982.579	5163.79
982.878	5182.55
983.177	5095.09
983.475	5135.09
983.774	5079.95
984.073	5012.38
984.372	5029.56
984.67	5003.57
984.969	5057.58
985.267	4990.01
985.566	4948.43
985.864	4891.48
986.162	4936.23
986.461	4904.81
986.759	4896.68
987.057	4834.31
987.355	4846.29
987.653	4803.35
987.951	4822.56
988.249	4768.55
988.547	4776.68
988.844	4731.49
989.142	4723.12
989.44	4748.21
989.737	4699.17
990.035	4685.39
990.332	4631.38
990.63	4638.15
990.927	4557.03
991.224	4564.03
991.521	4540.53
991.819	4510.47
992.116	4511.15
992.413	4492.4
992.71	4466.41
993.006	4492.4
993.303	4439.52
993.6	4468.89
993.897	4431.83
994.193	4412.4
994.49	4383.25
994.787	4325.85
995.083	4344.83
995.379	4331.5
995.676	4275
995.972	4252.63
996.268	4253.76
996.565	4203.59
996.861	4203.59
997.157	4175.79
997.453	4137.83
997.749	4161.33
998.044	4108.45
998.34	4109.36
998.636	4075.46
998.932	4057.15
999.227	3993.43
999.523	4015.12
999.818	4018.06
1000.114	3933.77
1000.409	3929.02
1000.704	3885.63
1001	3881.79
1001.295	3878.63
1001.59	3881.79
1001.885	3872.75
1002.18	3831.17
1002.475	3802.47
1002.77	3745.07
1003.065	3726.54
1003.359	3749.36
1003.654	3760.66
1003.949	3724.51
1004.243	3651.74
1004.538	3603.15
1004.832	3657.39
1005.127	3612.19
1005.421	3585.3
1005.715	3607.45
1006.009	3542.82
1006.304	3526.09
1006.598	3525.87
1006.892	3488.58
1007.186	3472.08
1007.48	3465.76
1007.773	3429.37
1008.067	3433.89
1008.361	3421.46
1008.655	3393.89
1008.948	3392.31
1009.242	3399.09
1009.535	3305.08
1009.829	3314.12
1010.122	3249.04
1010.415	3289.72
1010.708	3222.6
1011.001	3231.86
1011.295	3205.2
1011.588	3195.25
1011.881	3151.41
1012.173	3119.78
1012.466	3139.21
1012.759	3092.43
1013.052	3107.57
1013.344	3068.93
1013.637	3088.14
1013.93	3020.57
1014.222	2982.15
1014.514	3028.93
1014.807	2997.52
1015.099	2943.96
1015.391	2940.12
1015.683	2937.18
1015.976	2893.79
1016.268	2900.8
1016.56	2880.46
1016.851	2848.82
1017.143	2817.86
1017.435	2793.68
1017.727	2813.12
1018.018	2782.16
1018.31	2729.05
1018.602	2727.7
1018.893	2691.54
1019.185	2689.96
1019.476	2677.08
1019.767	2674.14
1020.058	2642.95
1020.35	2632.11
1020.641	2609.28
1020.932	2570.86
1021.223	2574.93
1021.514	2541.26
1021.804	2529.96
1022.095	2473.47
1022.386	2474.14
1022.677	2480.02
1022.967	2442.73
1023.258	2411.09
1023.548	2414.71
1023.839	2384.65
1024.129	2340.36
1024.419	2392.79
1024.709	2329.06
1025	2311.89
1025.29	2328.39
1025.58	2276.86
1025.87	2273.02
1026.16	2233.92
1026.449	2278.89
1026.739	2221.72
1027.029	2203.19
1027.319	2216.3
1027.608	2168.39
1027.898	2167.49
1028.187	2135.85
1028.477	2140.82
1028.766	2101.5
1029.055	2090.2
1029.344	2089.52
1029.634	2075.28
1029.923	2043.65
1030.212	2035.96
1030.501	2022.86
1030.79	1991.67
1031.078	1994.16
1031.367	1951.67
1031.656	1974.04
1031.945	1952.35
1032.233	1925.46
1032.522	1918.68
1032.81	1912.58
1033.099	1873.26
1033.387	1872.58
1033.675	1882.75
1033.963	1845.91
1034.251	1830.55
1034.54	1798.46
1034.828	1785.8
1035.116	1805.69
1035.403	1774.95
1035.691	1758.46
1035.979	1755.07
1036.267	1760.49
1036.554	1723.66
1036.842	1686.82
1037.129	1694.05
1037.417	1674.39
1037.704	1664
1037.992	1656.54
1038.279	1647.73
1038.566	1643.43
1038.853	1643.43
1039.14	1643.43
