Data from copper_heatsink_FLMS001491_023.txt Node
Date: Tue Feb 07 10:49:36 GMT 2017
User: dcchb
Spectrometer: FLMS00149
Trigger mode: 0
Integration Time (sec): 2.000000E-2
Scans to average: 10
Electric dark correction enabled: true
Nonlinearity correction enabled: false
Boxcar width: 0
XAxis mode: Wavelengths
Number of Pixels in Spectrum: 2048
>>>>>Begin Spectral Data<<<<<
341.393	-15.35
341.776	-15.35
342.16	-15.35
342.543	-41.57
342.927	-58.74
343.31	-57.39
343.693	-70.27
344.077	-53.09
344.46	-80.21
344.843	-50.61
345.226	-39.98
345.61	-23.26
345.993	-13.54
346.376	-3.15
346.759	1.6
347.142	30.75
347.525	39.79
347.908	52.44
348.291	74.14
348.674	78.88
349.057	113.91
349.44	121.37
349.823	137.86
350.206	161.37
350.588	202.04
350.971	238.88
351.354	234.81
351.737	280.91
352.119	281.14
352.502	274.81
352.884	279.33
353.267	291.53
353.65	305.32
354.032	335.6
354.414	314.36
354.797	333.11
355.179	337.41
355.562	342.83
355.944	355.94
356.326	341.7
356.709	361.36
357.091	340.34
357.473	365.43
357.855	351.64
358.238	373.79
358.62	355.03
359.002	345.32
359.384	335.37
359.766	365.65
360.148	362.04
360.53	353
360.912	366.11
361.294	345.32
361.676	350.06
362.057	357.52
362.439	352.55
362.821	361.59
363.203	362.04
363.584	324.3
363.966	350.06
364.348	364.75
364.729	352.55
365.111	348.25
365.493	368.82
365.874	351.64
366.256	323.17
366.637	333.79
367.019	341.93
367.4	340.57
367.781	344.19
368.163	339.89
368.544	339.21
368.925	352.77
369.306	364.07
369.688	335.6
370.069	329.95
370.45	332.89
370.831	362.72
371.212	332.21
371.593	350.06
371.974	353.45
372.355	355.26
372.736	357.29
373.117	349.84
373.498	345.54
373.879	371.3
374.26	343.28
374.641	343.51
375.021	368.37
375.402	357.07
375.783	342.6
376.163	362.72
376.544	366.56
376.925	389.38
377.305	369.5
377.686	368.82
378.066	386.67
378.447	381.02
378.827	389.38
379.208	380.34
379.588	388.93
379.968	373.56
380.349	402.26
380.729	384.86
381.109	384.86
381.489	375.37
381.87	362.94
382.25	391.64
382.63	410.85
383.01	398.65
383.39	399.1
383.77	380.12
384.15	392.09
384.53	404.07
384.91	403.85
385.29	429.38
385.67	411.08
386.049	419.21
386.429	406.56
386.809	433.9
387.189	409.95
387.568	425.09
387.948	428.48
388.328	416.05
388.707	446.1
389.087	436.84
389.466	457.63
389.846	447.01
390.225	445.65
390.605	451.3
390.984	472.32
391.363	455.37
391.743	467.35
392.122	460.79
392.501	492.66
392.881	481.13
393.26	464.18
393.639	462.83
394.018	477.29
394.397	480.23
394.776	498.98
395.155	501.7
395.534	502.15
395.913	504.63
396.292	493.79
396.671	513.45
397.05	517.97
397.429	517.06
397.808	511.41
398.186	532.2
398.565	507.57
398.944	534.01
399.323	522.71
399.701	535.14
400.08	518.42
400.458	520.68
400.837	576.27
401.215	533.79
401.594	539.66
401.972	559.77
402.351	559.55
402.729	584.86
403.107	556.61
403.486	572.43
403.864	571.3
404.242	605.65
404.62	552.77
404.999	583.28
405.377	600.22
405.755	606.55
406.133	617.4
406.511	586.21
406.889	624.4
407.267	625.31
407.645	637.06
408.023	625.31
408.401	631.86
408.779	656.27
409.156	623.95
409.534	668.7
409.912	650.17
410.29	654.01
410.667	680.45
411.045	687.68
411.422	663.73
411.8	691.97
412.178	700.33
412.555	720.9
412.933	701.92
413.31	716.83
413.687	742.37
414.065	735.14
414.442	757.51
414.819	740.11
415.197	774.68
415.574	805.42
415.951	800.9
416.328	778.52
416.705	784.17
417.082	774.23
417.46	795.7
417.837	819.43
418.214	820.78
418.591	820.33
418.967	835.02
419.344	811.52
419.721	834.79
420.098	835.7
420.475	824.63
420.852	829.37
421.228	846.77
421.605	881.8
421.982	871.4
422.358	894.91
422.735	912.76
423.111	876.6
423.488	913.44
423.864	939.88
424.241	945.98
424.617	925.19
424.994	942.59
425.37	959.76
425.746	977.84
426.123	959.76
426.499	974.68
426.875	986.65
427.251	1019.65
427.627	1016.48
428.003	1042.92
428.379	1030.5
428.756	1029.37
429.132	1065.07
429.507	1052.64
429.883	1081.12
430.259	1098.06
430.635	1099.65
431.011	1129.48
431.387	1138.52
431.763	1150.04
432.138	1154.11
432.514	1180.1
432.89	1190.72
433.265	1230.49
433.641	1226.65
434.016	1240.21
434.392	1241.34
434.767	1281.56
435.143	1290.38
435.518	1281.34
435.894	1303.48
436.269	1329.7
436.644	1319.08
437.02	1331.5
437.395	1354.78
437.77	1363.82
438.145	1370.83
438.52	1387.77
438.895	1442.46
439.271	1390.94
439.646	1463.93
440.021	1464.38
440.395	1470.71
440.77	1458.73
441.145	1490.37
441.52	1505.29
441.895	1517.94
442.27	1510.93
442.645	1538.73
443.019	1497.38
443.394	1540.99
443.769	1550.71
444.143	1592.74
444.518	1586.19
444.892	1577.83
445.267	1612.4
445.641	1618.95
446.016	1620.99
446.39	1676.13
446.764	1647.2
447.139	1650.37
447.513	1667.77
447.887	1708.9
448.262	1698.5
448.636	1706.18
449.01	1714.77
449.384	1741.89
449.758	1755.45
450.132	1756.13
450.506	1789.8
450.88	1775.56
451.254	1821.89
451.628	1831.38
452.002	1850.81
452.376	1855.56
452.75	1902.11
453.123	1912.05
453.497	1949.34
453.871	1930.81
454.244	1955.22
454.618	2011.49
454.992	2043.8
455.365	2020.07
455.739	2098.04
456.112	2117.47
456.486	2135.55
456.859	2152.95
457.232	2176.45
457.606	2193.18
457.979	2203.57
458.352	2258.94
458.725	2282.21
459.099	2316.34
459.472	2328.54
459.845	2377.13
460.218	2382.78
460.591	2427.97
460.964	2411.25
461.337	2511.59
461.71	2522.43
462.083	2555.88
462.456	2579.38
462.829	2590.23
463.201	2660.51
463.574	2663.9
463.947	2680.62
464.32	2731.92
464.692	2784.12
465.065	2799.49
465.438	2853.27
465.81	2893.5
466.183	2887.4
466.555	3005.13
466.928	2991.8
467.3	3006.94
467.672	3040.16
468.045	3129.2
468.417	3121.97
468.789	3183.43
469.161	3218.91
469.534	3283.77
469.906	3312.7
470.278	3371.9
470.65	3376.87
471.022	3437.44
471.394	3505.91
471.766	3555.4
472.138	3629.07
472.51	3689.63
472.882	3764.66
473.253	3761.95
473.625	3854.83
473.997	3906.13
474.369	3919.01
474.74	3973.47
475.112	4024.77
475.484	4124.2
475.855	4197.87
476.227	4224.31
476.598	4330.3
476.97	4400.12
477.341	4513.79
477.713	4527.58
478.084	4586.79
478.455	4691.42
478.827	4772.54
479.198	4877.85
479.569	4911.98
479.94	5021.58
480.311	5022.03
480.682	5189.48
481.053	5281.01
481.424	5332.08
481.795	5412.75
482.166	5571.17
482.537	5608
482.908	5701.11
483.279	5758.05
483.65	5873.08
484.021	5977.26
484.391	6035.11
484.762	6128.44
485.133	6212.28
485.503	6297.25
485.874	6377.7
486.244	6489.56
486.615	6538.37
486.985	6663.12
487.356	6787.41
487.726	6791.47
488.097	6968.19
488.467	7033.73
488.837	7126.38
489.207	7252.03
489.578	7337
489.948	7410.67
490.318	7548.52
490.688	7533.38
491.058	7738.34
491.428	7789.19
491.798	7851.56
492.168	7981.05
492.538	8026.24
492.908	8210.19
493.278	8276.18
493.648	8267.14
494.017	8438.66
494.387	8477.98
494.757	8569.28
495.126	8594.14
495.496	8693.34
495.866	8722.27
496.235	8785.09
496.605	8902.6
496.974	8973.56
497.344	9054.92
497.713	9126.33
498.082	9203.61
498.452	9321.58
498.821	9347.11
499.19	9356.38
499.559	9509.37
499.928	9492.87
500.298	9529.03
500.667	9636.37
501.036	9643.15
501.405	9777.16
501.774	9798.85
502.143	9940.09
502.512	9969.02
502.88	10068
503.249	10076.36
503.618	10167.88
503.987	10217.6
504.356	10270.03
504.724	10363.81
505.093	10272.96
505.462	10493.52
505.83	10513.86
506.199	10648.55
506.567	10768.32
506.936	10817.81
507.304	10879.95
507.672	10928.09
508.041	11046.5
508.409	11082.43
508.777	11149.78
509.145	11289.21
509.514	11283.11
509.882	11357.91
510.25	11415.08
510.618	11473.61
510.986	11586.6
511.354	11661.18
511.722	11682.19
512.09	11898.23
512.458	11893.49
512.826	11974.39
513.193	12059.81
513.561	12123.09
513.929	12297.77
514.297	12322.18
514.664	12422.06
515.032	12474.71
515.4	12598.78
515.767	12620.25
516.135	12772.33
516.502	12690.08
516.869	12956.96
517.237	12976.62
517.604	12982.5
517.972	13125.09
518.339	13245.32
518.706	13280.57
519.073	13418.64
519.44	13501.58
519.808	13644.85
520.175	13603.72
520.542	13791.52
520.909	13905.19
521.276	13948.57
521.643	14153.99
522.009	14168.23
522.376	14339.07
522.743	14397.83
523.11	14505.85
523.477	14757.37
523.843	14855.22
524.21	14982.22
524.577	15058.83
524.943	15132.95
525.31	15260.4
525.676	15328.2
526.043	15487.29
526.409	15521.87
526.776	15808.86
527.142	15796.21
527.508	15868.3
527.874	16136.31
528.241	16144.22
528.607	16240.04
528.973	16378.57
529.339	16382.18
529.705	16510.54
530.071	16719.35
530.437	16878.89
530.803	16852.45
531.169	16992.79
531.535	16924.31
531.901	17128.83
532.267	17200.69
532.632	17320.46
532.998	17377.64
533.364	17547.58
533.73	17630.06
534.095	17792.31
534.461	17816.49
534.826	17952.54
535.192	18029.82
535.557	18115.7
535.923	18172.64
536.288	18267.78
536.653	18306.88
537.019	18315.24
537.384	18430.72
537.749	18654.44
538.114	18675.91
538.479	18612.63
538.845	18812.63
539.21	18823.7
539.575	18968.55
539.94	19021.43
540.305	19082.22
540.67	19197.25
541.034	19276.34
541.399	19370.8
541.764	19562.21
542.129	19630.23
542.494	19634.07
542.858	19808.76
543.223	19884.24
543.587	19951.81
543.952	19976.21
544.316	20104.8
544.681	20189.99
545.045	20301.85
545.41	20391.79
545.774	20552.02
546.138	20530.32
546.503	20606.03
546.867	20612.13
547.231	20963.76
547.595	20939.12
547.959	21093.02
548.324	21252.11
548.688	21167.59
549.052	21361.03
549.416	21508.15
549.779	21471.54
550.143	21671.08
550.507	21850.74
550.871	22036.04
551.235	21942.26
551.599	22276.72
551.962	22290.95
552.326	22482.81
552.689	22627.89
553.053	22612.75
553.417	22793.31
553.78	23081.67
554.143	23002.8
554.507	23232.62
554.87	23436.46
555.234	23745.6
555.597	23642.1
555.96	23895.21
556.323	24083.22
556.686	24101.08
557.05	24432.59
557.413	24517.79
557.776	24642.98
558.139	24991.22
558.502	25054.04
558.865	25245.23
559.228	25543.98
559.59	25663.97
559.953	25795.72
560.316	26116.62
560.679	26258.08
561.041	26560.45
561.404	26666.21
561.767	26899.87
562.129	27032.3
562.492	27503.7
562.854	27540.76
563.217	27648.55
563.579	27945.72
563.941	28195.66
564.304	28366.05
564.666	28855.75
565.028	28887.62
565.39	29140.04
565.753	29352.24
566.115	29603.98
566.477	29907.02
566.839	29968.94
567.201	30380.01
567.563	30550.17
567.925	30921.91
568.287	31124.85
568.648	31138.63
569.01	31651.39
569.372	31847.99
569.734	31903.13
570.095	32410.69
570.457	32581.53
570.819	32891.13
571.18	33000.73
571.542	33311.91
571.903	33413.15
572.265	33751.9
572.626	34024.43
572.987	34266.46
573.349	34517.07
573.71	34670.29
574.071	35017.62
574.432	35221.46
574.794	35598.63
575.155	35719.07
575.516	35903.48
575.877	36147.76
576.238	36182.34
576.599	36559.28
576.96	36829.1
577.32	37057.8
577.681	37255.98
578.042	37587.5
578.403	37604.22
578.763	37910.2
579.124	38140.03
579.485	38389.29
579.845	38664.99
580.206	38651.43
580.566	38928.26
580.927	39047.8
581.287	39370.5
581.648	39387.23
582.008	39632.64
582.368	39714.22
582.728	39932.75
583.089	39987.44
583.449	40123.48
583.809	40296.13
584.169	40470.14
584.529	40722.79
584.889	41007.75
585.249	40894.53
585.609	40883.01
585.969	41393.5
586.329	41289.1
586.688	41649.54
587.048	41552.37
587.408	41800.72
587.768	41938.57
588.127	42092.47
588.487	42089.3
588.846	42550.99
589.206	42335.4
589.565	42484.77
589.925	42905.33
590.284	42809.28
590.643	42930.18
591.003	43155.26
591.362	43365.65
591.721	43240.23
592.08	43459.44
592.44	43688.58
592.799	43761.12
593.158	43928.12
593.517	43976.71
593.876	44261
594.235	44159.98
594.593	44408.56
594.952	44606.75
595.311	44581.21
595.67	44773.53
596.029	45065.27
596.387	45108.88
596.746	45286.28
597.104	45284.25
597.463	45407.41
597.822	45608.08
598.18	45544.58
598.538	45709.55
598.897	46061.4
599.255	45744.57
599.613	46541.39
599.972	46305.92
600.33	46626.13
600.688	46578.68
601.046	46739.35
601.404	46925.79
601.762	46954.94
602.12	47189.06
602.478	47269.28
602.836	47420.91
603.194	47389.28
603.552	47560.35
603.91	47630.4
604.268	47885.76
604.625	47679.21
604.983	48058.41
605.341	47923.27
605.698	48199.2
606.056	48379.08
606.413	48380.21
606.771	48501.56
607.128	48653.65
607.485	48641.9
607.843	48807.54
608.2	49171.6
608.557	49356
608.914	49248.21
609.272	49458.83
609.629	49634.42
609.986	49811.81
610.343	49768.42
610.7	50025.14
611.057	50002.54
611.414	50044.57
611.771	50210.67
612.127	50391.46
612.484	50605.46
612.841	50729.75
613.198	50559.81
613.554	50687.49
613.911	51049.07
614.267	50997.77
614.624	50988.73
614.98	51197.31
615.337	51393.69
615.693	51349.85
616.05	51443.86
616.406	51761.59
616.762	51705.1
617.118	51737.86
617.475	51942.38
617.831	51918.42
618.187	51975.82
618.543	52049.72
618.899	52345.53
619.255	52256.49
619.611	52335.36
619.967	52394.57
620.323	52543.04
620.678	52483.61
621.034	52521.12
621.39	52571.29
621.746	52609.25
622.101	53030.71
622.457	52849.25
622.812	52974.21
623.168	53058.73
623.523	53072.29
623.879	53245.17
624.234	53054.66
624.589	53221.89
624.945	53407.42
625.3	53353.87
625.655	53498.95
626.01	53511.83
626.365	53575.55
626.72	53430.7
627.075	53557.7
627.43	53656.68
627.785	53667.76
628.14	53784.14
628.495	53823.01
628.85	53801.31
629.205	53701.65
629.559	53933.74
629.914	53812.84
630.269	53847.86
630.623	53815.1
630.978	53718.6
631.332	54000.85
631.687	54066.84
632.041	54026.84
632.396	54075.2
632.75	54007.41
633.104	54161.98
633.459	54010.57
633.813	54132.6
634.167	54056.9
634.521	54129.44
634.875	54145.48
635.229	54157.69
635.583	54050.57
635.937	54202.66
636.291	54104.13
636.645	54264.35
636.999	54194.3
637.352	54281.3
637.706	54093.06
638.06	54195.65
638.413	54229.55
638.767	54204.69
639.121	54339.83
639.474	54091.93
639.828	54145.26
640.181	54184.35
640.534	54251.69
640.888	54193.17
641.241	54136.67
641.594	54199.04
641.947	54288.3
642.301	54283.56
642.654	54353.84
643.007	54330.11
643.36	54422.09
643.713	54321.75
644.066	54474.51
644.419	54396.55
644.771	54334.86
645.124	54099.16
645.477	54142.09
645.83	53926.05
646.182	53807.41
646.535	53688.32
646.888	53613.75
647.24	53447.2
647.593	53636.57
647.945	53617.36
648.298	53479.29
648.65	53482.68
649.002	53449.91
649.355	53656
649.707	53729.22
650.059	53987.07
650.411	54434.29
650.763	54306.38
651.115	54595.64
651.467	54532.59
651.819	54503.44
652.171	54611.46
652.523	54529.43
652.875	54607.39
653.227	54563.33
653.578	54694.17
653.93	54579.37
654.282	54538.47
654.633	54531.69
654.985	54585.92
655.337	54596.09
655.688	54643.78
656.039	54687.16
656.391	54473.16
656.742	54626.37
657.094	54601.74
657.445	54813.04
657.796	54727.16
658.147	54665.92
658.498	54705.24
658.849	54750.21
659.2	54765.58
659.551	54736.88
659.902	54856.2
660.253	54825.92
660.604	54909.53
660.955	54738.91
661.306	54921.96
661.656	54888.74
662.007	54952.47
662.358	54907.04
662.708	55030.88
663.059	55018.68
663.409	54817.78
663.76	55006.25
664.11	55013.48
664.461	55058.91
664.811	55058.23
665.161	55065.91
665.511	55001.28
665.862	55073.59
666.212	55092.8
666.562	55180.26
666.912	55182.74
667.262	55243.08
667.612	55222.97
667.962	55217.09
668.312	55207.83
668.662	55349.97
669.011	55286.24
669.361	55327.6
669.711	55327.82
670.06	55336.19
670.41	55321.5
670.76	55391.55
671.109	55495.05
671.459	55377.54
671.808	55291.67
672.157	55387.03
672.507	55272.46
672.856	55366.02
673.205	55422.74
673.554	55512.9
673.904	55447.14
674.253	55565.78
674.602	55523.98
674.951	55175.51
675.3	55066.59
675.649	55569.85
675.998	55498.89
676.346	55548.16
676.695	55796.74
677.044	55467.26
677.393	55621.83
677.741	55642.84
678.09	55651.88
678.438	55636.74
678.787	55632
679.135	55613.69
679.484	55389.52
679.832	55646.69
680.181	55520.81
680.529	55582.73
680.877	55509.29
681.225	55509.29
681.573	55659.12
681.922	55424.09
682.27	55411.44
682.618	55530.08
682.966	55405.11
683.314	55583.19
683.661	55464.32
684.009	55364.89
684.357	55412.57
684.705	55372.34
685.053	55446.47
685.4	55410.99
685.748	55303.42
686.095	55259.8
686.443	55187.49
686.79	55119.47
687.138	55225
687.485	55305.68
687.832	55167.38
688.18	55299.35
688.527	55055.06
688.874	55102.75
689.221	55051.45
689.568	55036.76
689.915	55110.88
690.262	55082.41
690.609	55002.18
690.956	54807.39
691.303	54881.73
691.65	54673.15
691.997	54712.25
692.344	54672.02
692.69	54642.19
693.037	54749.76
693.383	54534.63
693.73	54678.58
694.077	54414.4
694.423	54539.37
694.769	54484.23
695.116	54484.46
695.462	54406.95
695.808	54362.43
696.155	54380.96
696.501	54149.32
696.847	54249.89
697.193	54018.03
697.539	54104.58
697.885	53985.04
698.231	53903.68
698.577	53969.22
698.923	53945.49
699.269	53869.56
699.614	53762.22
699.96	53714.08
700.306	53721.99
700.651	53584.82
700.997	53633.63
701.342	53613.97
701.688	53478.16
702.033	53434.54
702.379	53385.05
702.724	53369.68
703.069	53417.59
703.415	53201.33
703.76	53112.97
704.105	53181.67
704.45	53140.99
704.795	52984.61
705.14	52915.46
705.485	53038.39
705.83	52884.73
706.175	52931.5
706.52	52838.85
706.865	52580.33
707.209	52748.23
707.554	52613.09
707.899	52729.93
708.243	52722.7
708.588	52635.69
708.932	52388.47
709.277	52379.43
709.621	52559.54
709.966	52284.29
710.31	52402.03
710.654	52118.42
710.998	52299.66
711.342	52227.12
711.687	52131.75
712.031	52059.66
712.375	51917.52
712.719	52098.31
713.063	52002.04
713.407	52224.4
713.75	52028.02
714.094	52016.73
714.438	51964.75
714.782	52026.22
715.125	51806.56
715.469	51880.91
715.812	51743.29
716.156	51575.38
716.499	51617.64
716.843	51658.77
717.186	51419.23
717.53	51740.57
717.873	51812.21
718.216	51738.09
718.559	51653.57
718.902	51456.97
719.246	51540.81
719.589	51494.03
719.932	51427.14
720.275	51485.44
720.617	51336.07
720.96	51362.51
721.303	51357.31
721.646	51354.6
721.989	51291.32
722.331	51205.67
722.674	51221.94
723.016	51274.15
723.359	51201.15
723.701	51178.33
724.044	50960.03
724.386	50784.89
724.729	51137.65
725.071	51000.48
725.413	50988.05
725.755	51003.87
726.097	50878.68
726.439	50745.57
726.782	50847.04
727.124	51030.31
727.465	50837.77
727.807	50839.36
728.149	50719.13
728.491	50671
728.833	50720.94
729.175	50667.38
729.516	50554.17
729.858	50657.21
730.199	50616.54
730.541	50655.63
730.882	50588.74
731.224	50675.74
731.565	50380.38
731.906	50562.53
732.248	50590.55
732.589	50668.96
732.93	50403.66
733.271	50365.47
733.612	50508.97
733.953	50452.02
734.294	50284.57
734.635	50345.81
734.976	50431.46
735.317	50291.35
735.658	50285.25
735.999	50317.11
736.339	50219.48
736.68	50300.16
737.021	50193.04
737.361	49995.76
737.702	50198.47
738.042	50153.72
738.383	50034.4
738.723	50338.8
739.063	50096.1
739.404	50243.89
739.744	50131.58
740.084	50018.59
740.424	50111.69
740.764	50009.77
741.104	50090.67
741.444	49959.6
741.784	50052.71
742.124	50075.76
742.464	50032.14
742.804	50024.69
743.143	49811.36
743.483	49887.74
743.823	49769.78
744.162	49684.36
744.502	49946.27
744.841	49843
745.181	49839.38
745.52	49743.56
745.86	49836.44
746.199	49817.01
746.538	49681.87
746.877	49708.09
747.216	49746.95
747.556	49570.69
747.895	49646.62
748.234	49430.13
748.573	49294.09
748.911	49443.23
749.25	49433.06
749.589	49270.81
749.928	49332.95
750.267	49417.7
750.605	49326.85
750.944	49315.33
751.283	49264.93
751.621	49288.89
751.96	49048.22
752.298	49197.14
752.636	49118.5
752.975	49102.9
753.313	49029.23
753.651	49266.52
753.989	49078.95
754.327	49017.71
754.666	48871.27
755.004	48813.42
755.342	48941.78
755.679	48812.06
756.017	48726.64
756.355	48722.57
756.693	48550.6
757.031	48551.51
757.368	48413.88
757.706	48306.31
758.044	48318.07
758.381	48381.34
758.719	48221.35
759.056	48272.87
759.394	48190.61
759.731	48010.73
760.068	48059.09
760.405	48074
760.743	47899.32
761.08	47897.96
761.417	47664.52
761.754	47627.69
762.091	47516.05
762.428	47404.42
762.765	47197.19
763.102	47523.96
763.438	47276.74
763.775	47054.82
764.112	47008.04
764.449	47155.38
764.785	46876.3
765.122	46720.14
765.458	46710.65
765.795	46818.9
766.131	46699.13
766.467	46706.81
766.804	46497.55
767.14	46334.39
767.476	46421.62
767.812	46226.82
768.148	46235.18
768.485	46074.28
768.821	45869.77
769.157	45996.77
769.492	45823.67
769.828	45774.18
770.164	45503.9
770.5	45295.55
770.836	45379.61
771.171	45159.28
771.507	45088.55
771.842	44769.01
772.178	44826.63
772.513	44707.77
772.849	44801.77
773.184	44581.21
773.519	44645.17
773.855	44442.69
774.19	44457.38
774.525	44365.63
774.86	44198.4
775.195	44279.3
775.53	44055.8
775.865	43964.51
776.2	43770.39
776.535	43465.99
776.87	43370.17
777.205	43296.95
777.539	43308.71
777.874	43470.96
778.209	43074.36
778.543	43112.1
778.878	42887.7
779.212	42707.37
779.547	42725.9
779.881	42844.54
780.215	42484.32
780.55	42715.95
780.884	42475.73
781.218	42426.47
781.552	42445.23
781.886	42251.11
782.22	42003.43
782.554	41942.64
782.888	41676.66
783.222	41679.37
783.556	41530
783.889	41529.54
784.223	41378.14
784.557	41256.33
784.89	41163.45
785.224	41064.02
785.557	40894.31
785.891	40922.1
786.224	40850.92
786.558	40856.12
786.891	40421.55
787.224	40329.35
787.557	40355.11
787.891	40316.92
788.224	40213.87
788.557	40181.33
788.89	40111.73
789.223	39969.81
789.556	39615.02
789.888	39530.95
790.221	39540.44
790.554	39235.37
790.887	39297.29
791.219	39358.98
791.552	39206.21
791.884	38983.85
792.217	39073.56
792.549	38996.28
792.882	38785.66
793.214	38693.46
793.546	38831.08
793.879	38627.7
794.211	38328.05
794.543	38575.5
794.875	38555.38
795.207	38511.09
795.539	38357.42
795.871	38297.76
796.203	38083.31
796.535	37991.11
796.867	37804.9
797.198	37897.1
797.53	37941.39
797.862	37734.39
798.193	37783.2
798.525	37551.57
798.856	37679.93
799.188	37130.34
799.519	37095.08
799.85	36967.63
800.182	37111.35
800.513	37200.62
800.844	36777.35
801.175	37066.61
801.506	36957.69
801.837	36686.96
802.168	36639.73
802.499	36606.74
802.83	36556.79
803.161	36511.82
803.491	36445.61
803.822	36428.43
804.153	36268.89
804.483	35975.34
804.814	36113.19
805.145	36020.54
805.475	36117.26
805.805	35861.67
806.136	35954.77
806.466	35975.11
806.796	35933.31
807.126	35551.85
807.457	35486.76
807.787	35575.12
808.117	35499.42
808.447	35337.62
808.777	35552.98
809.107	35277.96
809.436	35207.22
809.766	35265.08
810.096	35254.91
810.426	35159.54
810.755	35068.47
811.085	35009.94
811.414	34995.7
811.744	34839.32
812.073	34814.01
812.403	34771.53
812.732	34399.34
813.061	34701.02
813.39	34578.09
813.719	34436.17
814.049	34626
814.378	34491.76
814.707	34443.4
815.036	34502.16
815.365	34351.88
815.693	33932.46
816.022	34027.37
816.351	34059.01
816.68	33886.58
817.008	33971.32
817.337	33770.2
817.665	33712.12
817.994	33703.31
818.322	33751.22
818.651	33406.59
818.979	33582.18
819.307	33679.13
819.636	33481.39
819.964	33401.17
820.292	33671.22
820.62	33698.79
820.948	33677.32
821.276	33694.72
821.604	33712.35
821.932	33604.78
822.259	33628.73
822.587	33614.5
822.915	33576.53
823.243	33789.86
823.57	33697.89
823.898	33747.83
824.225	33800.93
824.553	33689.75
824.88	33892.23
825.207	34084.77
825.535	33941.95
825.862	34083.86
826.189	34036.86
826.516	34234.14
826.843	34224.65
827.17	34238.66
827.497	34335.83
827.824	34232.11
828.151	34365.44
828.478	34100.59
828.805	34426.45
829.131	34213.8
829.458	34173.8
829.785	34110.3
830.111	34141.94
830.438	34457.41
830.764	34369.28
831.09	34400.24
831.417	34286.12
831.743	34492.44
832.069	34617.41
832.395	34365.89
832.722	34430.07
833.048	34450.86
833.374	34440.01
833.7	34258.55
834.026	34311.88
834.351	34508.94
834.677	34381.26
835.003	34691.98
835.329	34483.63
835.654	34649.5
835.98	34392.56
836.306	34420.35
836.631	34284.54
836.956	34542.38
837.282	34376.74
837.607	34368.38
837.932	34296.29
838.258	34416.74
838.583	34456.74
838.908	34116.18
839.233	34295.16
839.558	34204.76
839.883	34013.81
840.208	34053.81
840.533	34083.41
840.858	34132.45
841.182	34275.27
841.507	34288.83
841.832	34086.35
842.156	34111.43
842.481	33997.54
842.805	33962.51
843.13	33900.14
843.454	33892.68
843.778	33796.19
844.103	33645.68
844.427	33559.81
844.751	33651.11
845.075	33697.66
845.399	33585.57
845.723	33365.46
846.047	33488.85
846.371	33092.25
846.695	33156.66
847.019	32763.9
847.343	32798.02
847.666	32573.62
847.99	32625.6
848.313	32701.75
848.637	32392.38
848.96	32417.47
849.284	32397.35
849.607	32116.23
849.931	32190.58
850.254	31939.51
850.577	31824.94
850.9	31775.22
851.223	31650.48
851.546	31600.09
851.869	31542.46
852.192	31684.38
852.515	31409.13
852.838	31242.81
853.161	31303.82
853.483	31196.03
853.806	31096.82
854.129	31099.54
854.451	30935.47
854.774	30897.51
855.096	30740.67
855.419	30772.31
855.741	30713.56
856.063	30636.04
856.385	30637.4
856.708	30507.46
857.03	30467.69
857.352	30523.73
857.674	30281.25
857.996	30352.89
858.318	30264.98
858.64	30311.99
858.961	30055.04
859.283	30144.98
859.605	29977.08
859.926	30239.45
860.248	30057.3
860.57	29886.23
860.891	29906.8
861.212	29796.97
861.534	29747.03
861.855	29739.57
862.176	29876.06
862.498	29818.67
862.819	29866.57
863.14	29652.57
863.461	29711.78
863.782	29478.79
864.103	29646.24
864.424	29590.65
864.745	29650.76
865.065	29415.96
865.386	29403.53
865.707	29303.88
866.027	29374.83
866.348	29266.59
866.668	29575.96
866.989	29288.96
867.309	29108.18
867.63	29295.74
867.95	29293.03
868.27	29138.01
868.59	29235.63
868.91	29318.34
869.23	29144.33
869.55	29116.08
869.87	29288.51
870.19	29130.1
870.51	29163.99
870.83	29295.74
871.15	29115.41
871.469	29269.08
871.789	29415.74
872.109	29365.12
872.428	29138.01
872.748	29178
873.067	29105.46
873.386	29100.49
873.706	29072.47
874.025	28897.56
874.344	28773.04
874.663	28848.75
874.982	28786.83
875.301	28767.39
875.62	28847.39
875.939	28752.48
876.258	28792.25
876.577	28724.23
876.896	28906.6
877.214	28889.65
877.533	28876.32
877.852	28797.22
878.17	28994.96
878.489	28863.89
878.807	28691.24
879.125	28769.43
879.444	28724.91
879.762	28743.44
880.08	28660.96
880.398	28651.24
880.716	28694.4
881.034	28602.88
881.352	28583.22
881.67	28625.02
881.988	28634.97
882.306	28527.17
882.624	28311.81
882.941	28371.02
883.259	28311.36
883.577	28176.9
883.894	28207.86
884.212	28090.57
884.529	28088.32
884.846	28222.32
885.164	28113.4
885.481	27991.14
885.798	28110.01
886.115	27941.65
886.432	27975.78
886.75	27727.19
887.067	27806.97
887.383	27724.26
887.7	27749.34
888.017	27598.38
888.334	27736.69
888.651	27734.88
888.967	27583.7
889.284	27482
889.6	27402.01
889.917	27364.49
890.233	27371.05
890.55	27291.5
890.866	27336.02
891.182	27295.57
891.498	27245.63
891.815	27235.23
892.131	27122.01
892.447	27145.29
892.763	27063.71
893.079	26877.27
893.395	26992.52
893.71	26850.61
894.026	26678.41
894.342	26700.78
894.657	26519.32
894.973	26681.8
895.289	26605.87
895.604	26582.59
895.92	26322.03
896.235	26260.57
896.55	26279.1
896.865	26328.59
897.181	26377.63
897.496	26197.29
897.811	26065.54
898.126	26042.95
898.441	26091.98
898.756	26076.39
899.071	25919.56
899.386	25845.44
899.7	25639.11
900.015	25637.76
900.33	25456.75
900.644	25391.89
900.959	25347.37
901.273	25346.69
901.588	25297.2
901.902	25324.55
902.216	25208.16
902.531	25210.42
902.845	25127.26
903.159	24987.61
903.473	24987.83
903.787	24936.31
904.101	24739.02
904.415	24920.71
904.729	24673.94
905.042	24529.09
905.356	24375.19
905.67	24237.34
905.984	24250
906.297	24048.65
906.611	24151.7
906.924	24178.36
907.237	24030.34
907.551	24001.42
907.864	24016.11
908.177	23848.88
908.491	23898.59
908.804	23725.49
909.117	23614.31
909.43	23650.69
909.743	23516.68
910.056	23528.66
910.368	23431.71
910.681	23304.71
910.994	23107.43
911.307	23206.64
911.619	22995.57
911.932	23008.22
912.244	22844.39
912.557	22935.23
912.869	22720.32
913.181	22778.62
913.494	22682.36
913.806	22506.99
914.118	22394.45
914.43	22383.15
914.742	22332.31
915.054	22237.17
915.366	22239.88
915.678	22161.01
915.99	21962.6
916.302	21798.76
916.613	21755.6
916.925	21679.44
917.236	21684.87
917.548	21492.1
917.859	21593.34
918.171	21295.5
918.482	21379.11
918.794	21357.19
919.105	21273.13
919.416	21194.49
919.727	21228.16
920.038	21148.38
920.349	21072.45
920.66	20855.74
920.971	20882.4
921.282	20856.19
921.593	20871.33
921.903	20735.06
922.214	20588.17
922.525	20517.67
922.835	20314.06
923.146	20266.83
923.456	20301.63
923.767	20283.77
924.077	20316.54
924.387	20138.02
924.697	20000.84
925.008	20015.31
925.318	19835.2
925.628	19773.05
925.938	19747.29
926.248	19654.64
926.558	19700.29
926.867	19635.43
927.177	19485.83
927.487	19479.5
927.796	19209.45
928.106	19233.41
928.416	19229.34
928.725	19196.57
929.034	19064.15
929.344	19133.07
929.653	18960.87
929.962	18919.97
930.271	18820.08
930.581	18846.75
930.89	18797.03
931.199	18689.47
931.508	18607.21
931.817	18595.68
932.125	18533.54
932.434	18366.76
932.743	18251.51
933.051	18208.35
933.36	18193.21
933.669	18003.61
933.977	18101.23
934.286	17915.02
934.594	17954.8
934.902	17854.01
935.21	17774.46
935.519	17788.47
935.827	17706.22
936.135	17647.23
936.443	17537.63
936.751	17442.04
937.059	17408.82
937.367	17330.63
937.674	17327.69
937.982	17274.36
938.29	17227.81
938.597	17252.44
938.905	17028.04
939.213	17115.27
939.52	16996.63
939.827	16938.33
940.135	16767.26
940.442	16813.58
940.749	16751.44
941.056	16706.92
941.363	16561.16
941.67	16582.85
941.977	16569.75
942.284	16434.16
942.591	16441.84
942.898	16148.74
943.205	16261.06
943.511	16129.31
943.818	16080.95
944.125	15985.36
944.431	15913.49
944.738	15933.61
945.044	15856.32
945.35	15746.94
945.657	15654.52
945.963	15624.24
946.269	15457.91
946.575	15653.84
946.881	15387.86
947.187	15445.26
947.493	15319.84
947.799	15243
948.105	15204.13
948.41	15027.19
948.716	15031.03
949.022	15072.39
949.327	14940.41
949.633	14817.25
949.938	14822.45
950.244	14953.75
950.549	14835.56
950.854	14790.81
951.16	14721.43
951.465	14630.82
951.77	14594.88
952.075	14430.37
952.38	14452.52
952.685	14392.4
952.99	14294.33
953.294	14265.85
953.599	14146.76
953.904	14095.24
954.209	13989.48
954.513	14087.33
954.818	13946.77
955.122	14096.37
955.426	13994.9
955.731	13872.19
956.035	13850.72
956.339	13772.99
956.643	13715.59
956.948	13593.78
957.252	13596.94
957.556	13540.68
957.86	13570.96
958.163	13390.62
958.467	13412.09
958.771	13313.34
959.075	13235.37
959.378	13288.93
959.682	13348.14
959.985	13246.9
960.289	13104.3
960.592	13118.77
960.896	12978.2
961.199	13090.74
961.502	13112.44
961.805	12833.57
962.108	12801.49
962.411	12688.27
962.714	12625.22
963.017	12668.38
963.32	12681.26
963.623	12579.12
963.926	12667.7
964.228	12518.78
964.531	12516.3
964.833	12480.14
965.136	12323.31
965.438	12219.13
965.741	12254.16
966.043	12195.85
966.345	12135.97
966.648	12036.31
966.95	12091
967.252	11988.4
967.554	12010.55
967.856	11824.56
968.158	11868.85
968.46	11849.42
968.761	11785.24
969.063	11696.43
969.365	11657.79
969.666	11626.38
969.968	11540.95
970.269	11439.04
970.571	11461.41
970.872	11430.22
971.174	11327.85
971.475	11340.51
971.776	11305.48
972.077	11221.87
972.378	11316.1
972.679	11173.73
972.98	11161.53
973.281	11104.58
973.582	11145.26
973.883	11028.88
974.183	10919.73
974.484	10917.69
974.785	10876.56
975.085	10809.22
975.386	10872.27
975.686	10733.74
975.986	10687.42
976.287	10643.35
976.587	10569.45
976.887	10595.67
977.187	10512.51
977.487	10578.49
977.787	10415.79
978.087	10417.82
978.387	10384.6
978.687	10365.39
978.987	10305.96
979.286	10176.47
979.586	10212.17
979.885	10144.15
980.185	10085.85
980.484	10091.05
980.784	10013.99
981.083	9932.41
981.382	9978.28
981.682	9879.98
981.981	9795.91
982.28	9760.89
982.579	9709.59
982.878	9783.26
983.177	9711.4
983.475	9608.58
983.774	9632.3
984.073	9604.51
984.372	9519.99
984.67	9543.72
984.969	9506.43
985.267	9466.88
985.566	9388.24
985.864	9376.94
986.162	9370.84
986.461	9294.91
986.759	9268.47
987.057	9084.75
987.355	9144.86
987.653	9211.07
987.951	9128.81
988.249	9106.22
988.547	8992.55
988.844	8987.12
989.142	9012.43
989.44	8902.15
989.737	8780.8
990.035	8761.82
990.332	8760.24
990.63	8749.16
990.927	8694.25
991.224	8680.69
991.521	8627.81
991.819	8597.3
992.116	8572.67
992.413	8491.99
992.71	8442.28
993.006	8398.89
993.303	8343.98
993.6	8347.59
993.897	8269.4
994.193	8259.91
994.49	8202.28
994.787	8235.73
995.083	8114.15
995.379	8091.1
995.676	8077.09
995.972	8046.13
996.268	7936.53
996.565	7959.58
996.861	7897.43
997.157	7920.03
997.453	7780.15
997.749	7781.73
998.044	7741.28
998.34	7734.95
998.636	7694.5
998.932	7665.35
999.227	7535.86
999.523	7568.63
999.818	7546.93
1000.114	7482.3
1000.409	7420.84
1000.704	7369.54
1001	7362.53
1001.295	7338.13
1001.59	7278.47
1001.885	7294.96
1002.18	7182.88
1002.475	7132.93
1002.77	7140.39
1003.065	7126.38
1003.359	7064.46
1003.654	6974.75
1003.949	6951.92
1004.243	6916.22
1004.538	6830.57
1004.832	6814.52
1005.127	6816.33
1005.421	6748.99
1005.715	6786.73
1006.009	6683.23
1006.304	6579.05
1006.598	6544.47
1006.892	6578.15
1007.186	6536.79
1007.48	6529.33
1007.773	6445.27
1008.067	6419.28
1008.361	6399.85
1008.655	6326.18
1008.948	6259.06
1009.242	6246.86
1009.535	6246.86
1009.829	6174.77
1010.122	6186.97
1010.415	6164.15
1010.708	6067.43
1011.001	5975.68
1011.295	6018.61
1011.588	5959.86
1011.881	5857.49
1012.173	5797.83
1012.466	5860.2
1012.759	5842.8
1013.052	5846.41
1013.344	5828.11
1013.637	5733.2
1013.93	5707.89
1014.222	5657.04
1014.514	5670.6
1014.807	5595.35
1015.099	5535.24
1015.391	5507.21
1015.683	5520.32
1015.976	5485.97
1016.268	5363.94
1016.56	5405.52
1016.851	5364.17
1017.143	5277.16
1017.435	5241.91
1017.727	5222.7
1018.018	5259.76
1018.31	5191.29
1018.602	5140.67
1018.893	5119.43
1019.185	5043.95
1019.476	4987
1019.767	4995.81
1020.058	4943.16
1020.35	4935.93
1020.641	4849.6
1020.932	4815.25
1021.223	4845.76
1021.514	4790.85
1021.804	4730.29
1022.095	4691.64
1022.386	4726.9
1022.677	4565.09
1022.967	4613
1023.258	4571.19
1023.548	4559.67
1023.839	4530.29
1024.129	4516.73
1024.419	4464.98
1024.709	4459.78
1025	4416.62
1025.29	4336.62
1025.58	4305.66
1025.87	4249.17
1026.16	4251.65
1026.449	4258.66
1026.739	4203.07
1027.029	4163.97
1027.319	4179.11
1027.608	4114.26
1027.898	4082.39
1028.187	4064.31
1028.477	3979.34
1028.766	4003.07
1029.055	3956.52
1029.344	3938.67
1029.634	3912.23
1029.923	3842.85
1030.212	3833.36
1030.501	3808.73
1030.79	3787.94
1031.078	3772.34
1031.367	3699.35
1031.656	3690.09
1031.945	3667.49
1032.233	3641.05
1032.522	3580.26
1032.81	3521.5
1033.099	3570.77
1033.387	3502.97
1033.675	3507.94
1033.963	3488.74
1034.251	3492.35
1034.54	3426.59
1034.828	3409.64
1035.116	3345.46
1035.403	3318.34
1035.691	3307.72
1035.979	3332.58
1036.267	3267.27
1036.554	3203.77
1036.842	3182.08
1037.129	3159.71
1037.417	3153.6
1037.704	3108.86
1037.992	3109.54
1038.279	3061.85
1038.566	3054.62
1038.853	3054.62
1039.14	3054.62
