Data from copper_heatsink_FLMS001491_088.txt Node
Date: Tue Feb 07 10:50:43 GMT 2017
User: dcchb
Spectrometer: FLMS00149
Trigger mode: 0
Integration Time (sec): 2.000000E-2
Scans to average: 10
Electric dark correction enabled: true
Nonlinearity correction enabled: false
Boxcar width: 0
XAxis mode: Wavelengths
Number of Pixels in Spectrum: 2048
>>>>>Begin Spectral Data<<<<<
341.393	-13.8
341.776	-13.8
342.16	-13.8
342.543	-77.98
342.927	-75.27
343.31	-78.2
343.693	-56.51
344.077	-69.84
344.46	-55.15
344.843	-71.88
345.226	-40.92
345.61	-26.23
345.993	-37.98
346.376	-11.31
346.759	25.3
347.142	20.78
347.525	51.06
347.908	56.93
348.291	89.7
348.674	87.67
349.057	116.59
349.44	101
349.823	142.58
350.206	162.69
350.588	214.67
350.971	228.68
351.354	257.38
351.737	263.03
352.119	257.83
352.502	280.66
352.884	286.08
353.267	286.08
353.65	292.41
354.032	333.54
354.414	308.23
354.797	335.57
355.179	350.71
355.562	339.41
355.944	338.96
356.326	343.03
356.709	371.28
357.091	356.13
357.473	361.11
357.855	356.59
358.238	364.5
358.62	369.69
359.002	349.58
359.384	366.3
359.766	376.7
360.148	366.98
360.53	379.86
360.912	330.6
361.294	350.26
361.676	365.4
362.057	348.45
362.439	364.72
362.821	354.33
363.203	363.14
363.584	338.96
363.966	366.53
364.348	345.06
364.729	363.82
365.111	346.42
365.493	316.36
365.874	350.26
366.256	361.33
366.637	356.81
367.019	357.94
367.4	341.45
367.781	335.34
368.163	331.5
368.544	325.63
368.925	353.42
369.306	352.07
369.688	343.48
370.069	329.02
370.45	363.14
370.831	334.44
371.212	335.12
371.593	356.36
371.974	339.86
372.355	338.96
372.736	347.1
373.117	349.81
373.498	354.1
373.879	357.26
374.26	357.94
374.641	350.26
375.021	351.84
375.402	331.28
375.783	371.5
376.163	383.03
376.544	349.58
376.925	357.04
377.305	356.13
377.686	367.66
378.066	344.16
378.447	364.72
378.827	347.32
379.208	353.42
379.588	358.17
379.968	373.31
380.349	355.23
380.729	406.53
381.109	390.26
381.489	376.02
381.87	376.7
382.25	375.8
382.63	392.29
383.01	393.42
383.39	382.8
383.77	395
384.15	384.16
384.53	383.7
384.91	392.52
385.29	411.27
385.67	393.87
386.049	411.73
386.429	406.08
386.809	408.11
387.189	400.43
387.568	406.08
387.948	435
388.328	409.69
388.707	415.79
389.087	417.15
389.466	425.06
389.846	405.85
390.225	429.35
390.605	410.37
390.984	425.29
391.363	414.44
391.743	446.75
392.122	440.2
392.501	437.71
392.881	461.44
393.26	453.08
393.639	455.57
394.018	438.17
394.397	453.53
394.776	450.82
395.155	444.04
395.534	462.35
395.913	434.78
396.292	460.76
396.671	462.57
397.05	459.41
397.429	472.52
397.808	470.03
398.186	460.99
398.565	474.55
398.944	492.4
399.323	485.85
399.701	497.6
400.08	492.4
400.458	469.58
400.837	507.32
401.215	488.79
401.594	519.52
401.972	500.99
402.351	485.62
402.729	498.96
403.107	504.61
403.486	523.81
403.864	515.9
404.242	521.33
404.62	522.91
404.999	532.18
405.377	537.15
405.755	512.97
406.133	518.16
406.511	543.93
406.889	539.86
407.267	547.54
407.645	556.36
408.023	537.37
408.401	537.37
408.779	541.89
409.156	568.78
409.534	561.33
409.912	552.97
410.29	559.07
410.667	560.88
411.045	566.98
411.422	566.3
411.8	603.59
412.178	630.25
412.555	611.95
412.933	590.7
413.31	622.79
413.687	610.59
414.065	637.71
414.442	617.37
414.819	637.71
415.197	647.88
415.574	656.24
415.951	646.97
416.328	649.69
416.705	633.87
417.082	666.18
417.46	637.94
417.837	662.12
418.214	658.73
418.591	645.62
418.967	671.61
419.344	664.38
419.721	697.82
420.098	682.68
420.475	720.87
420.852	705.05
421.228	696.24
421.605	692.17
421.982	708.22
422.358	711.38
422.735	729.46
423.111	726.29
423.488	741.89
423.864	753.86
424.241	736.92
424.617	744.83
424.994	776.24
425.37	764.49
425.746	759.74
426.123	754.99
426.499	757.25
426.875	782.79
427.251	764.71
427.627	775.33
428.003	810.59
428.379	806.97
428.756	811.26
429.132	839.74
429.507	845.61
429.883	817.82
430.259	861.88
430.635	861.21
431.011	875.22
431.387	846.97
431.763	864.82
432.138	874.99
432.514	913.63
432.89	879.74
433.265	911.37
433.641	918.83
434.016	914.76
434.392	921.54
434.767	936.46
435.143	959.06
435.518	934.42
435.894	980.3
436.269	964.25
436.644	1001.32
437.02	989.56
437.395	972.84
437.77	987.3
438.145	1033.41
438.52	1037.25
438.895	1019.85
439.271	1014.65
439.646	1034.99
440.021	1058.04
440.395	1064.59
440.77	1051.03
441.145	1074.76
441.52	1086.28
441.895	1089.45
442.27	1096.23
442.645	1094.87
443.019	1106.85
443.394	1107.3
443.769	1136
444.143	1128.09
444.518	1123.35
444.892	1106.4
445.267	1154.08
445.641	1147.07
446.016	1138.94
446.39	1143.46
446.764	1163.12
447.139	1170.12
447.513	1195.21
447.887	1161.09
448.262	1183.91
448.636	1198.82
449.01	1197.47
449.384	1214.87
449.758	1234.76
450.132	1231.14
450.506	1217.81
450.88	1234.76
451.254	1275.66
451.628	1265.26
452.002	1305.71
452.376	1290.35
452.75	1302.32
453.123	1324.02
453.497	1331.7
453.871	1320.4
454.244	1376.67
454.618	1373.74
454.992	1368.76
455.365	1369.89
455.739	1440.17
456.112	1424.36
456.486	1432.04
456.859	1456.22
457.232	1493.51
457.606	1513.39
457.979	1465.48
458.352	1539.61
458.725	1531.92
459.099	1541.19
459.472	1593.84
459.845	1566.95
460.218	1583.67
460.591	1611.02
460.964	1613.95
461.337	1632.71
461.71	1662.09
462.083	1707.51
462.456	1717.23
462.829	1696.21
463.201	1735.08
463.574	1740.51
463.947	1744.12
464.32	1799.26
464.692	1833.84
465.065	1801.29
465.438	1834.06
465.81	1849.88
466.183	1891.69
466.555	1935.75
466.928	1909.54
467.3	1921.97
467.672	1966.94
468.045	1998.8
468.417	2010.78
468.789	2077.67
469.161	2072.25
469.534	2072.93
469.906	2135.97
470.278	2128.74
470.65	2177.1
471.022	2198.12
471.394	2252.58
471.766	2242.41
472.138	2285.58
472.51	2301.39
472.882	2347.72
473.253	2363.09
473.625	2424.33
473.997	2463.42
474.369	2497.1
474.74	2503.87
475.112	2535.51
475.484	2559.01
475.855	2589.3
476.227	2647.83
476.598	2705.68
476.97	2723.08
477.341	2774.83
477.713	2827.71
478.084	2837.43
478.455	2906.12
478.827	2939.34
479.198	3014.37
479.569	3033.13
479.94	3105.21
480.311	3152.67
480.682	3191.31
481.053	3245.55
481.424	3317.64
481.795	3326.45
482.166	3401.93
482.537	3491.65
482.908	3486.45
483.279	3550.85
483.65	3619.78
484.021	3674.01
484.391	3694.13
484.762	3764.63
485.133	3772.99
485.503	3878.75
485.874	3926.21
486.244	3909.94
486.615	4023.16
486.985	4022.48
487.356	4110.84
487.726	4169.37
488.097	4234
488.467	4263.38
488.837	4337.5
489.207	4381.11
489.578	4451.85
489.948	4465.41
490.318	4572.07
490.688	4569.36
491.058	4652.52
491.428	4743.14
491.798	4741.33
492.168	4864.49
492.538	4860.42
492.908	4918.05
493.278	4984.26
493.648	4986.3
494.017	5045.5
494.387	5104.94
494.757	5198.72
495.126	5219.28
495.496	5257.02
495.866	5289.11
496.235	5363.91
496.605	5452.72
496.974	5423.57
497.344	5506.51
497.713	5553.74
498.082	5549.67
498.452	5663.79
498.821	5657.24
499.19	5724.58
499.559	5758.25
499.928	5779.95
500.298	5863.33
500.667	5849.1
501.036	5895.88
501.405	5974.07
501.774	5981.52
502.143	6056.32
502.512	6021.97
502.88	6143.55
503.249	6182.2
503.618	6205.25
503.987	6247.96
504.356	6275.98
504.724	6348.29
505.093	6410.89
505.462	6442.53
505.83	6469.19
506.199	6536.76
506.567	6582.86
506.936	6600.04
507.304	6692.24
507.672	6765.91
508.041	6743.54
508.409	6866.7
508.777	6940.37
509.145	6926.13
509.514	6974.72
509.882	7076.41
510.25	7042.96
510.618	7137.43
510.986	7202.28
511.354	7248.83
511.722	7315.73
512.09	7363.86
512.458	7473.01
512.826	7539
513.193	7622.61
513.561	7545.32
513.929	7697.18
514.297	7762.27
514.664	7797.07
515.032	7834.13
515.4	7898.54
515.767	7972.21
516.135	8053.33
516.502	8003.39
516.869	8126.78
517.237	8196.83
517.604	8210.84
517.972	8304.85
518.339	8414.91
518.706	8443.61
519.073	8466.88
519.44	8594.79
519.808	8605.18
520.175	8683.83
520.542	8732.41
520.909	8812.86
521.276	8895.35
521.643	9039.75
522.009	9084.04
522.376	9187.54
522.743	9271.61
523.11	9358.38
523.477	9469.79
523.843	9533.52
524.21	9594.31
524.577	9698.26
524.943	9691.48
525.31	9795.21
525.676	9876.34
526.043	9990.23
526.409	10030.23
526.776	10150.23
527.142	10209.66
527.508	10277.23
527.874	10420.28
528.241	10489.2
528.607	10535.08
528.973	10625.47
529.339	10675.41
529.705	10756.77
530.071	10796.09
530.437	10879.47
530.803	10989.53
531.169	11189.75
531.535	11166.02
531.901	11185.91
532.267	11235.85
532.632	11424.54
532.998	11432.23
533.364	11536.63
533.73	11548.16
534.095	11682.84
534.461	11731.65
534.826	11847.36
535.192	11900.92
535.557	12017.97
535.923	12022.04
536.288	12158.08
536.653	12217.74
537.019	12233.34
537.384	12372.54
537.749	12448.25
538.114	12459.55
538.479	12506.55
538.845	12578.64
539.21	12637.85
539.575	12776.15
539.94	12834.68
540.305	12911.74
540.67	12881
541.034	13024.28
541.399	13124.39
541.764	13155.57
542.129	13279.41
542.494	13252.74
542.858	13449.58
543.223	13432.18
543.587	13584.04
543.952	13636.01
544.316	13679.63
544.681	13793.52
545.045	13794.2
545.41	13967.3
545.774	13953.52
546.138	14087.98
546.503	14148.99
546.867	14223.11
547.231	14436.44
547.595	14430.11
547.959	14521.86
548.324	14649.09
548.688	14684.8
549.052	14841.4
549.416	14884.79
549.779	14994.17
550.143	15062.41
550.507	15281.39
550.871	15288.4
551.235	15398
551.599	15610.87
551.962	15688.39
552.326	15742.17
552.689	15931.09
553.053	16033.46
553.417	16139
553.78	16301.93
554.143	16346.22
554.507	16494.02
554.87	16640.68
555.234	16791.41
555.597	16802.26
555.96	16956.83
556.323	17214.22
556.686	17309.59
557.05	17546.64
557.413	17694.66
557.776	17748.45
558.139	17916.35
558.502	18008.33
558.865	18131.94
559.228	18375.77
559.59	18495.77
559.953	18621.87
560.316	18921.3
560.679	19054.63
561.041	19205.58
561.404	19322.42
561.767	19577.55
562.129	19669.98
562.492	20102.73
562.854	20031.78
563.217	20196.52
563.579	20432.44
563.941	20582.72
564.304	20790.17
564.666	21034.69
565.028	21227
565.39	21358.07
565.753	21658.17
566.115	21783.37
566.477	22059.97
566.839	22201.66
567.201	22428.55
567.563	22640.97
567.925	22855.43
568.287	22961.19
568.648	23138.59
569.01	23489.31
569.372	23777.67
569.734	23792.81
570.095	23937.21
570.457	24267.14
570.819	24430.98
571.18	24742.39
571.542	24856.96
571.903	24967.01
572.265	25238.87
572.626	25546.66
572.987	25706.65
573.349	25808.8
573.71	26058.74
574.071	26329.24
574.432	26444.94
574.794	26861.88
575.155	26828.88
575.516	26972.61
575.877	27184.13
576.238	27368.08
576.599	27697.34
576.96	27691.24
577.32	27772.59
577.681	28008.97
578.042	28226.59
578.403	28455.28
578.763	28599.01
579.124	28696.41
579.485	28789.74
579.845	29169.84
580.206	29256.84
580.566	29341.14
580.927	29429.95
581.287	29714.46
581.648	29737.96
582.008	30084.39
582.368	30138.63
582.728	30268.57
583.089	30325.74
583.449	30598.28
583.809	30463.82
584.169	30774.77
584.529	30844.15
584.889	31126.85
585.249	31047.76
585.609	31173.63
585.969	31518.48
586.329	31453.4
586.688	31435.77
587.048	31653.62
587.408	31658.81
587.768	31776.33
588.127	31956.66
588.487	31878.47
588.846	32199.14
589.206	32231.68
589.565	32124.34
589.925	32551.9
590.284	32615.4
590.643	32708.28
591.003	32818.11
591.362	32966.35
591.721	33100.13
592.08	33089.96
592.44	33304.42
592.799	33367.7
593.158	33365.44
593.517	33374.48
593.876	33519.78
594.235	33584.87
594.593	33769.49
594.952	34033.44
595.311	33952.77
595.67	34042.71
596.029	34403.38
596.387	34446.09
596.746	34625.74
597.104	34454.45
597.463	34546.87
597.822	34839.07
598.18	34752.52
598.538	34789.58
598.897	35167.42
599.255	34990.03
599.613	35425.95
599.972	35300.53
600.33	35537.13
600.688	35436.34
601.046	35742.55
601.404	35905.03
601.762	35878.59
602.12	36237
602.478	36180.73
602.836	36227.06
603.194	36151.35
603.552	36271.35
603.91	36250.56
604.268	36709.76
604.625	36670.66
604.983	36793.14
605.341	36718.12
605.698	36940.48
606.056	37245.79
606.413	37152.91
606.771	37335.28
607.128	37375.5
607.485	37453.01
607.843	37426.57
608.2	37803.51
608.557	38081.24
608.914	37990.4
609.272	38210.96
609.629	38297.96
609.986	38553.1
610.343	38446.88
610.7	38716.26
611.057	38765.29
611.414	38745.86
611.771	38783.15
612.127	39113.31
612.484	39221.33
612.841	39552.17
613.198	39246.19
613.554	39412.73
613.911	39675.1
614.267	39717.81
614.624	39687.3
614.98	39812.27
615.337	40204.58
615.693	40234.86
616.05	40136.78
616.406	40590.56
616.762	40435.31
617.118	40472.82
617.475	40581.74
617.831	40743.77
618.187	40800.72
618.543	40972.69
618.899	41162.07
619.255	41046.36
619.611	41173.59
619.967	41527.48
620.323	41601.15
620.678	41504.21
621.034	41418.11
621.39	41587.82
621.746	41574.49
622.101	41987.81
622.457	41717.08
622.812	41971.09
623.168	42089.73
623.523	42152.32
623.879	42202.72
624.234	42086.11
624.589	42384.63
624.945	42513.9
625.3	42599.77
625.655	42450.62
626.01	42524.74
626.365	42570.62
626.72	42777.84
627.075	42640.9
627.43	42597.06
627.785	42543.27
628.14	42815.36
628.495	43001.12
628.85	42887.45
629.205	42838.86
629.559	43291.73
629.914	42879.99
630.269	43082.69
630.623	43094.22
630.978	43076.59
631.332	43215.57
631.687	43350.48
632.041	43249.47
632.396	43429.8
632.75	43309.36
633.104	43558.39
633.459	43160.43
633.813	43391.39
634.167	43246.98
634.521	43240.43
634.875	43390.94
635.229	43432.74
635.583	43314.55
635.937	43342.12
636.291	43442.91
636.645	43449.46
636.999	43434.78
637.352	43571.72
637.706	43390.71
638.06	43582.34
638.413	43501.67
638.767	43490.37
639.121	43651.27
639.474	43364.72
639.828	43505.06
640.181	43681.1
640.534	43587.09
640.888	43634.32
641.241	43494.44
641.594	43526.3
641.947	43611.95
642.301	43563.13
642.654	43680.65
643.007	43696.01
643.36	43707.31
643.713	43569.91
644.066	44007.19
644.419	43703.02
644.771	43506.64
645.124	43129.7
645.477	43212.86
645.83	43049.02
646.182	42864.85
646.535	42823.49
646.888	42807.22
647.24	42630.73
647.593	42894.45
647.945	42989.14
648.298	42642.03
648.65	42662.82
649.002	42653.78
649.355	42747.56
649.707	42861.46
650.059	43090.38
650.411	43516.81
650.763	43601.55
651.115	44067.98
651.467	43991.6
651.819	43987.76
652.171	43856.69
652.523	43910.7
652.875	44030.24
653.227	43845.39
653.578	44225.49
653.93	44061.65
654.282	44007.19
654.633	43785.5
654.985	44026.4
655.337	43899.85
655.688	44113.4
656.039	44190.01
656.391	43816.01
656.742	44268.2
657.094	44145.49
657.445	44353.4
657.796	44258.71
658.147	44126.74
658.498	44285.15
658.849	44283.57
659.2	44308.2
659.551	44302.78
659.902	44544.13
660.253	44458.93
660.604	44608.08
660.955	44348.2
661.306	44682.88
661.656	44562.66
662.007	44651.92
662.358	44651.24
662.708	44578.7
663.059	44654.4
663.409	44496.22
663.76	44873.83
664.11	44675.65
664.461	44867.73
664.811	44912.93
665.161	44847.62
665.511	44785.25
665.862	44813.5
666.212	45011.68
666.562	45032.02
666.912	44945.92
667.262	45002.64
667.612	45088.74
667.962	45045.36
668.312	44985.7
668.662	45218.46
669.011	45326.03
669.361	45268.17
669.711	45224.56
670.06	45193.83
670.41	45340.04
670.76	45323.31
671.109	45300.49
671.459	45208.29
671.808	45378.23
672.157	45471.78
672.507	45137.1
672.856	45240.6
673.205	45316.08
673.554	45480.37
673.904	45334.39
674.253	45624.1
674.602	45634.04
674.951	45123.77
675.3	44970.78
675.649	45501.61
675.998	45497.77
676.346	45691.89
676.695	45782.28
677.044	45652.12
677.393	45659.12
677.741	45750.87
678.09	45728.95
678.438	45567.38
678.787	45979.34
679.135	45818.67
679.484	45521.27
679.832	45773.7
680.181	45543.87
680.529	45813.7
680.877	45716.07
681.225	45693.02
681.573	45922.62
681.922	45706.13
682.27	45598.33
682.618	45484.44
682.966	45649.18
683.314	45739.8
683.661	45643.31
684.009	45481.95
684.357	45602.85
684.705	45461.62
685.053	45539.81
685.4	45474.72
685.748	45434.27
686.095	45503.42
686.443	45351.34
686.79	45346.36
687.138	45446.93
687.485	45331.22
687.832	45363.31
688.18	45312.69
688.527	45080.61
688.874	45206.93
689.221	45051.91
689.568	44999.48
689.915	44967.17
690.262	45006.94
690.609	45097.11
690.956	44864.34
691.303	44978.92
691.65	44809.66
691.997	44713.39
692.344	44661.86
692.69	44695.76
693.037	44733.95
693.383	44426.16
693.73	44542.32
694.077	44187.3
694.423	44262.1
694.769	44213.51
695.116	44258.03
695.462	44275.66
695.808	44024.14
696.155	44332.61
696.501	44006.96
696.847	44080.18
697.193	43733.3
697.539	43783.02
697.885	43726.52
698.231	43497.15
698.577	43566.98
698.923	43564.49
699.269	43428.9
699.614	43261.22
699.96	43323.37
700.306	43405.4
700.651	43176.48
700.997	43153.88
701.342	43159.3
701.688	43097.84
702.033	42954.34
702.379	43003.37
702.724	42928.8
703.069	43012.64
703.415	42768.58
703.76	42813.78
704.105	42741.23
704.45	42666.43
704.795	42529.04
705.14	42551.86
705.485	42582.6
705.83	42374.69
706.175	42625.76
706.52	42549.15
706.865	42231.19
707.209	42415.37
707.554	42243.17
707.899	42325.2
708.243	42157.3
708.588	42187.35
708.932	42082.27
709.277	41817.64
709.621	42074.59
709.966	41811.77
710.31	41858.32
710.654	41551.89
710.998	41769.06
711.342	41694.03
711.687	41678.66
712.031	41652.22
712.375	41570.42
712.719	41776.06
713.063	41587.37
713.407	41597.76
713.75	41365.45
714.094	41517.99
714.438	41354.6
714.782	41562.51
715.125	41227.38
715.469	41368.39
715.812	41207.49
716.156	41114.16
716.499	41240.26
716.843	41280.03
717.186	41018.79
717.53	41268.73
717.873	41276.19
718.216	41144.89
718.559	40911.68
718.902	40840.72
719.246	40947.84
719.589	40845.24
719.932	40705.58
720.275	40698.8
720.617	40906.25
720.96	40903.09
721.303	40843.43
721.646	41041.39
721.989	40747.84
722.331	40995.07
722.674	40847.73
723.016	40819.48
723.359	40712.81
723.701	40787.84
724.044	40475.98
724.386	40442.99
724.729	40445.48
725.071	40412.93
725.413	40460.16
725.755	40399.83
726.097	40347.85
726.439	40202.09
726.782	40319.83
727.124	40444.12
727.465	40294.97
727.807	40387.62
728.149	40203.22
728.491	40274.63
728.833	40208.65
729.175	40144.47
729.516	40181.75
729.858	40092.72
730.199	40123
730.541	40137.91
730.882	40126.61
731.224	40168.65
731.565	40132.26
731.906	40134.07
732.248	40127.97
732.589	40114.41
732.93	39932.04
733.271	40092.49
733.612	40097.01
733.953	40210.91
734.294	39925.26
734.635	39941.53
734.976	39898.37
735.317	39733.63
735.658	39755.32
735.999	39810.01
736.339	39673.07
736.68	39773.86
737.021	39716.23
737.361	39553.97
737.702	39701.31
738.042	39624.71
738.383	39725.95
738.723	39755.78
739.063	39701.31
739.404	39758.71
739.744	39771.14
740.084	39605.05
740.424	39612.05
740.764	39657.02
741.104	39783.12
741.444	39501.77
741.784	39350.82
742.124	39567.76
742.464	39540.87
742.804	39608.89
743.143	39558.72
743.483	39573.86
743.823	39342.68
744.162	39401.89
744.502	39444.15
744.841	39393.98
745.181	39589.68
745.52	39304.04
745.86	39514.65
746.199	39399.4
746.538	39408.44
746.877	39447.76
747.216	39296.58
747.556	39151.95
747.895	39246.19
748.234	39009.36
748.573	39176.36
748.911	39206.19
749.25	39238.05
749.589	39128.67
749.928	39085.74
750.267	39222.46
750.605	38934.1
750.944	39060.65
751.283	39031.28
751.621	39131.61
751.96	38844.16
752.298	38800.1
752.636	38763.94
752.975	38641.23
753.313	38543.15
753.651	38687.33
753.989	38442.36
754.327	38402.59
754.666	38258.19
755.004	38541.12
755.342	38666.99
755.679	38354.46
756.017	38168.02
756.355	38405.53
756.693	38160.34
757.031	38358.98
757.368	38109.94
757.706	38121.24
758.044	37901.14
758.381	38078.76
758.719	37883.28
759.056	37884.64
759.394	37840.8
759.731	37681.48
760.068	37747.92
760.405	37575.5
760.743	37599.22
761.08	37747.47
761.417	37424.99
761.754	37389.74
762.091	37265.67
762.428	37356.97
762.765	37219.35
763.102	37269.06
763.438	37173.47
763.775	37022.52
764.112	36915.4
764.449	37028.39
764.785	36878.56
765.122	36653.26
765.458	36625.46
765.795	36551.34
766.131	36704.78
766.467	36386.6
766.804	36304.34
767.14	36255.53
767.476	36272.7
767.812	36068.64
768.148	36130.11
768.485	35927.18
768.821	35724.7
769.157	35717.69
769.492	35564.25
769.828	35506.62
770.164	35256.01
770.5	35183.92
770.836	35196.35
771.171	35127.88
771.507	35088.55
771.842	34755.68
772.178	34905.51
772.513	34982.57
772.849	34763.59
773.184	34673.88
773.519	34560.89
773.855	34418.29
774.19	34352.75
774.525	34414.9
774.86	34236.83
775.195	34207.67
775.53	34126.32
775.865	33992.54
776.2	33824.18
776.535	33692.89
776.87	33825.09
777.205	33651.76
777.539	33531.08
777.874	33636.39
778.209	33288.38
778.543	33373.8
778.878	33117.31
779.212	33115.5
779.547	32884.09
779.881	33040.7
780.215	32830.08
780.55	32902.85
780.884	32703.31
781.218	32679.35
781.552	32797.09
781.886	32521.62
782.22	32300.83
782.554	32158.69
782.888	32063.1
783.222	31948.75
783.556	31955.53
783.889	31739.72
784.223	31702.43
784.557	31616.56
784.89	31746.04
785.224	31527.07
785.557	31374.53
785.891	31324.36
786.224	31283.01
786.558	31450.68
786.891	31249.56
787.224	31140.18
787.557	31030.81
787.891	30983.8
788.224	30954.88
788.557	30809.35
788.89	30868.78
789.223	30743.13
789.556	30513.76
789.888	30361.9
790.221	30371.84
790.554	30180.89
790.887	30158.51
791.219	29995.81
791.552	30053.88
791.884	29939.09
792.217	29947.67
792.549	29731.18
792.882	29662.26
793.214	29637.62
793.546	29708.58
793.879	29448.03
794.211	29445.77
794.543	29578.87
794.875	29470.85
795.207	29540
795.539	29512.88
795.871	29429.72
796.203	29100.46
796.535	28979.34
796.867	28961.03
797.198	29005.1
797.53	28902.05
797.862	28704.54
798.193	28802.39
798.525	28647.82
798.856	28710.19
799.188	28423.87
799.519	28361.05
799.85	28168.28
800.182	28319.92
800.513	28362.18
800.844	27985.69
801.175	28388.39
801.506	28181.17
801.837	28021.4
802.168	27921.74
802.499	27818.69
802.83	27795.41
803.161	27844.23
803.491	27732.82
803.822	27634.74
804.153	27622.31
804.483	27489.43
804.814	27376.44
805.145	27365.37
805.475	27237.01
805.805	27185.94
806.136	27185.49
806.466	27337.8
806.796	27121.76
807.126	26996.79
807.457	26950.69
807.787	26983.91
808.117	26801.09
808.447	26827.53
808.777	26994.76
809.107	26884.25
809.436	26690.13
809.766	26744.14
810.096	26742.79
810.426	26565.84
810.755	26656.46
811.085	26548.67
811.414	26537.59
811.744	26485.84
812.073	26467.76
812.403	26475
812.732	26393.64
813.061	26328.56
813.39	26163.37
813.719	26109.13
814.049	26343.25
814.378	26205.62
814.707	26090.37
815.036	25930.6
815.365	25840.21
815.693	25579.2
816.022	25630.05
816.351	25619.65
816.68	25454.68
817.008	25632.98
817.337	25417.17
817.665	25427.11
817.994	25564.51
818.322	25606.32
818.651	25453.55
818.979	25310.28
819.307	25516.15
819.636	25292.65
819.964	25281.58
820.292	25348.92
820.62	25385.31
820.948	25241.58
821.276	25318.87
821.604	25227.12
821.932	25446.32
822.259	25366.1
822.587	25318.42
822.915	25240.9
823.243	25446.55
823.57	25347.12
823.898	25472.54
824.225	25293.56
824.553	25333.11
824.88	25434.8
825.207	25444.51
825.535	25339.66
825.862	25467.11
826.189	25263.28
826.516	25469.82
826.843	25567.22
827.17	25556.6
827.497	25575.36
827.824	25554.57
828.151	25616.26
828.478	25636.6
828.805	25749.82
829.131	25489.03
829.458	25540.33
829.785	25446.55
830.111	25485.19
830.438	25694.68
830.764	25748.69
831.09	25773.09
831.417	25654.68
831.743	25816.71
832.069	25852.19
832.395	25639.09
832.722	25721.57
833.048	25610.84
833.374	25739.87
833.7	25639.54
834.026	25704.39
834.351	25743.94
834.677	25639.31
835.003	25660.78
835.329	25818.97
835.654	25805.64
835.98	25575.36
836.306	25573.78
836.631	25574
836.956	25346.21
837.282	25555.25
837.607	25438.64
837.932	25418.3
838.258	25533.33
838.583	25450.84
838.908	25395.7
839.233	25479.99
839.558	25414.23
839.883	25295.82
840.208	25216.95
840.533	25302.82
840.858	25400.67
841.182	25404.06
841.507	25447.45
841.832	25284.07
842.156	25206.33
842.481	25318.64
842.805	25113.45
843.13	25145.09
843.454	25046.78
843.778	24890.86
844.103	24862.16
844.427	24788.49
844.751	24964.53
845.075	24758.88
845.399	24761.59
845.723	24721.14
846.047	24698.55
846.371	24587.81
846.695	24536.29
847.019	24336.07
847.343	24196.86
847.666	24158.67
847.99	24033.7
848.313	24106.47
848.637	23956.87
848.96	23944.22
849.284	23867.15
849.607	23636.43
849.931	23667.84
850.254	23585.58
850.577	23501.97
850.9	23530.89
851.223	23461.97
851.546	23323.44
851.869	23115.76
852.192	23297.23
852.515	23013.84
852.838	22945.6
853.161	22966.84
853.483	22892.72
853.806	22724.36
854.129	22799.39
854.451	22686.4
854.774	22592.16
855.096	22578.83
855.419	22651.14
855.741	22560.07
856.063	22399.4
856.385	22364.82
856.708	22262.45
857.03	22245.5
857.352	22206.41
857.674	22138.39
857.996	22083.92
858.318	21980.2
858.64	21931.16
858.961	21936.81
859.283	21889.81
859.605	21722.35
859.926	21793.54
860.248	21758.06
860.57	21737.27
860.891	21702.69
861.212	21683.71
861.534	21701.79
861.855	21615.91
862.176	21703.82
862.498	21823.14
862.819	21662.24
863.14	21621.11
863.461	21605.07
863.782	21605.07
864.103	21574.33
864.424	21418.41
864.745	21365.07
865.065	21228.58
865.386	21373.66
865.707	21227.68
866.027	21305.41
866.348	21229.26
866.668	21291.18
866.989	21197.17
867.309	21030.62
867.63	21220.22
867.95	21123.05
868.27	21000.79
868.59	20975.03
868.91	21104.97
869.23	20961.02
869.55	20966.44
869.87	21166.21
870.19	21024.97
870.51	21065.87
870.83	20998.53
871.15	20849.83
871.469	20803.51
871.789	20936.38
872.109	20922.37
872.428	20716.73
872.748	20774.58
873.067	20826.1
873.386	20746.78
873.706	20764.41
874.025	20697.97
874.344	20665.88
874.663	20806.22
874.982	20698.2
875.301	20672.89
875.62	20631.53
875.939	20630.4
876.258	20616.84
876.577	20516.06
876.896	20688.93
877.214	20484.19
877.533	20653
877.852	20606
878.17	20612.1
878.489	20523.51
878.807	20495.49
879.125	20417.3
879.444	20490.75
879.762	20446.45
880.08	20386.34
880.398	20326.01
880.716	20187.7
881.034	20301.15
881.352	20300.92
881.67	20208.04
881.988	20217.99
882.306	20106.8
882.624	20022.74
882.941	19996.3
883.259	19938.9
883.577	19911.55
883.894	19989.29
884.212	19893.47
884.529	19889.18
884.846	19978.9
885.164	19923.53
885.481	19827.04
885.798	19872.23
886.115	19688.96
886.432	19763.76
886.75	19645.35
887.067	19648.06
887.383	19570.77
887.7	19590.21
888.017	19476.76
888.334	19609.64
888.651	19457.1
888.967	19449.87
889.284	19301.4
889.6	19316.54
889.917	19181.18
890.233	19190.67
890.55	19148.41
890.866	19102.53
891.182	19072.7
891.498	18912.26
891.815	19024.12
892.131	18881.52
892.447	18882.43
892.763	18831.58
893.079	18668.42
893.395	18651.25
893.71	18662.55
894.026	18651.92
894.342	18563.11
894.657	18472.27
894.973	18550.46
895.289	18461.42
895.604	18361.31
895.92	18327.87
896.235	18359.73
896.55	18366.51
896.865	18280.86
897.181	18301.43
897.496	18314.08
897.811	18192.95
898.126	18030.25
898.441	18020.08
898.756	18074.76
899.071	17851.27
899.386	17977.82
899.7	17817.82
900.015	17862.34
900.33	17627.32
900.644	17474.33
900.959	17488.57
901.273	17626.19
901.588	17517.27
901.902	17355.24
902.216	17414.22
902.531	17336.71
902.845	17306.88
903.159	17148.46
903.473	17102.14
903.787	17104.62
904.101	17039.54
904.415	17017.39
904.729	17035.7
905.042	16757.06
905.356	16831.41
905.67	16779.43
905.984	16721.81
906.297	16698.08
906.611	16585.09
906.924	16585.99
907.237	16463.96
907.551	16408.59
907.864	16369.27
908.177	16323.85
908.491	16316.84
908.804	16278.43
909.117	16163.18
909.43	16129.05
909.743	15962.5
910.056	16080.47
910.368	16040.69
910.681	15978.1
910.994	15888.38
911.307	15773.81
911.619	15716.41
911.932	15665.56
912.244	15522.52
912.557	15553.02
912.869	15529.07
913.181	15481.61
913.494	15445
913.806	15320.49
914.118	15182.86
914.43	15175.41
914.742	15187.16
915.054	15216.31
915.366	15158.01
915.678	15081.17
915.99	15003.66
916.302	14878.01
916.613	14827.62
916.925	14859.26
917.236	14824.23
917.548	14646.15
917.859	14720.95
918.171	14584.69
918.482	14514.41
918.794	14523.45
919.105	14411.36
919.416	14270.57
919.727	14248.65
920.038	14236.22
920.349	14163.23
920.66	14154.87
920.971	13986.96
921.282	14068.54
921.593	13919.17
921.903	13922.78
922.214	13836.68
922.525	13827.19
922.835	13659.97
923.146	13652.73
923.456	13626.75
923.767	13517.14
924.077	13619.51
924.387	13601.21
924.697	13549.91
925.008	13476.24
925.318	13355.79
925.628	13333.42
925.938	13329.13
926.248	13095.91
926.558	13112.41
926.867	13115.35
927.177	13019.08
927.487	13007.78
927.796	12961.23
928.106	12826.09
928.416	12853.66
928.725	12764.4
929.034	12720.56
929.344	12748.35
929.653	12760.1
929.962	12573.21
930.271	12516.04
930.581	12485.53
930.89	12500.67
931.199	12463.61
931.508	12303.62
931.817	12383.39
932.125	12373.9
932.434	12371.64
932.743	12180.23
933.051	12104.07
933.36	12044.87
933.669	11977.52
933.977	11973.46
934.286	11860.69
934.594	11841.48
934.902	11816.17
935.21	11771.88
935.519	11842.61
935.827	11684.88
936.135	11499.8
936.443	11555.61
936.751	11515.62
937.059	11540.47
937.367	11458.44
937.674	11464.32
937.982	11466.8
938.29	11348.61
938.597	11242.4
938.905	11222.97
939.213	11115.4
939.52	11101.84
939.827	11200.14
940.135	11104.33
940.442	11041.73
940.749	10986.36
941.056	10983.88
941.363	10864.33
941.67	10815.52
941.977	10728.07
942.284	10760.15
942.591	10718.57
942.898	10672.25
943.205	10685.35
943.511	10530.56
943.818	10635.64
944.125	10487.39
944.431	10446.49
944.738	10409.2
945.044	10414.63
945.35	10326.49
945.657	10283.78
945.963	10338.7
946.269	10211.69
946.575	10212.37
946.881	10089.89
947.187	10099.61
947.493	10047.63
947.799	10041.98
948.105	9958.82
948.41	9934.64
948.716	9935.54
949.022	9880.63
949.327	9879.27
949.633	9797.02
949.938	9732.39
950.244	9779.16
950.549	9688.32
950.854	9641.31
951.16	9638.15
951.465	9529.68
951.77	9537.36
952.075	9463.92
952.38	9376.24
952.685	9364.71
952.99	9272.06
953.294	9264.38
953.599	9215.79
953.904	9213.75
954.209	9111.84
954.513	9071.84
954.818	9030.93
955.122	9058.73
955.426	9018.73
955.731	8936.25
956.035	8921.56
956.339	8927.43
956.643	8900.09
956.948	8795.01
957.252	8818.51
957.556	8842.01
957.86	8651.06
958.163	8773.54
958.467	8632.98
958.771	8622.81
959.075	8639.98
959.378	8519.54
959.682	8531.06
959.985	8469.14
960.289	8470.05
960.592	8429.59
960.896	8380.1
961.199	8320.9
961.502	8334
961.805	8235.02
962.108	8167.23
962.411	8163.61
962.714	8133.78
963.017	8110.51
963.32	8154.35
963.623	8019.66
963.926	8062.6
964.228	8028.93
964.531	8046.55
964.833	7951.19
965.136	7947.12
965.438	7878.87
965.741	7901.02
966.043	7821.7
966.345	7783.28
966.648	7741.7
966.95	7714.36
967.252	7686.79
967.554	7652.21
967.856	7596.17
968.158	7533.57
968.46	7549.62
968.761	7562.27
969.063	7478.21
969.365	7385.1
969.666	7352.33
969.968	7370.41
970.269	7284.09
970.571	7280.7
970.872	7274.14
971.174	7209.51
971.475	7215.39
971.776	7177.2
972.077	7123.41
972.378	7153.7
972.679	7098.33
972.98	7007.49
973.281	6995.73
973.582	7006.13
973.883	6960.48
974.183	6970.65
974.484	6881.39
974.785	6846.81
975.085	6864.89
975.386	6860.37
975.686	6753.48
975.986	6765.01
976.287	6772.46
976.587	6678.45
976.887	6656.31
977.187	6637.33
977.487	6643.43
977.787	6572.92
978.087	6595.29
978.387	6522.98
978.687	6563.66
978.987	6468.74
979.286	6442.08
979.586	6384.22
979.885	6360.27
980.185	6425.58
980.484	6371.8
980.784	6276.66
981.083	6302.19
981.382	6242.31
981.682	6246.15
981.981	6283.89
982.28	6146.04
982.579	6199.6
982.878	6190.78
983.177	6085.25
983.475	6061.52
983.774	6028.3
984.073	5976.1
984.372	5900.62
984.67	5938.36
984.969	5953.95
985.267	5944.46
985.566	5880.51
985.864	5873.73
986.162	5812.26
986.461	5790.12
986.759	5775.43
987.057	5689.1
987.355	5706.95
987.653	5681.19
987.951	5680.97
988.249	5651.14
988.547	5638.93
988.844	5596.22
989.142	5581.31
989.44	5530.24
989.737	5507.86
990.035	5420.63
990.332	5462.67
990.63	5452.72
990.927	5450.69
991.224	5409.11
991.521	5410.92
991.819	5346.29
992.116	5344.48
992.413	5308.55
992.71	5286.4
993.006	5246.85
993.303	5204.59
993.6	5156.69
993.897	5163.24
994.193	5182.45
994.49	5170.92
994.787	5051.83
995.083	5022.45
995.379	4986.3
995.676	4979.06
995.972	4977.71
996.268	4970.93
996.565	4941.1
996.861	4941.1
997.157	4883.02
997.453	4871.04
997.749	4855.68
998.044	4813.19
998.34	4837.82
998.636	4790.82
998.932	4718.28
999.227	4650.03
999.523	4740.2
999.818	4699.98
1000.114	4645.74
1000.409	4617.72
1000.704	4596.93
1001	4544.73
1001.295	4528.45
1001.59	4570.26
1001.885	4527.1
1002.18	4458.63
1002.475	4440.1
1002.77	4422.02
1003.065	4326.2
1003.359	4379.08
1003.654	4336.37
1003.949	4286.43
1004.243	4316.26
1004.538	4255.47
1004.832	4245.07
1005.127	4211.63
1005.421	4185.19
1005.715	4163.27
1006.009	4183.38
1006.304	4101.8
1006.598	4042.59
1006.892	4056.83
1007.186	4110.61
1007.48	4045.76
1007.773	4005.98
1008.067	3995.81
1008.361	3946.1
1008.655	3928.24
1008.948	3885.08
1009.242	3912.43
1009.535	3825.87
1009.829	3829.04
1010.122	3820.22
1010.415	3748.59
1010.708	3783.84
1011.001	3792.43
1011.295	3747.46
1011.588	3683.28
1011.881	3636.27
1012.173	3660.45
1012.466	3650.74
1012.759	3629.49
1013.052	3616.61
1013.344	3561.47
1013.637	3517.86
1013.93	3521.7
1014.222	3502.49
1014.514	3487.8
1014.807	3401.7
1015.099	3429.05
1015.391	3383.85
1015.683	3344.76
1015.976	3342.5
1016.268	3346.79
1016.56	3285.32
1016.851	3271.76
1017.143	3291.65
1017.435	3235.83
1017.727	3212.78
1018.018	3192.44
1018.31	3194.7
1018.602	3188.83
1018.893	3141.15
1019.185	3102.28
1019.476	3095.05
1019.767	3090.75
1020.058	3079.68
1020.35	3034.93
1020.641	3014.37
1020.932	2945.67
1021.223	2985.9
1021.514	2976.4
1021.804	2916.97
1022.095	2881.27
1022.386	2890.08
1022.677	2866.35
1022.967	2813.7
1023.258	2828.61
1023.548	2806.24
1023.839	2805.11
1024.129	2810.08
1024.419	2745.9
1024.709	2713.59
1025	2730.76
1025.29	2710.65
1025.58	2660.48
1025.87	2642.4
1026.16	2609.41
1026.449	2614.61
1026.739	2580.26
1027.029	2573.03
1027.319	2556.08
1027.608	2520.82
1027.898	2480.82
1028.187	2467.49
1028.477	2500.49
1028.766	2446.93
1029.055	2387.27
1029.344	2415.52
1029.634	2413.48
1029.923	2398.11
1030.212	2389.53
1030.501	2335.29
1030.79	2309.76
1031.078	2297.1
1031.367	2278.57
1031.656	2278.8
1031.945	2223.43
1032.233	2236.09
1032.522	2202.41
1032.81	2216.2
1033.099	2208.52
1033.387	2180.04
1033.675	2173.26
1033.963	2107.28
1034.251	2142.75
1034.54	2106.15
1034.828	2079.03
1035.116	2038.8
1035.403	2034.06
1035.691	2003.1
1035.979	1998.13
1036.267	1989.54
1036.554	1975.75
1036.842	1991.8
1037.129	1927.84
1037.417	1949.54
1037.704	1936.88
1037.992	1908.86
1038.279	1910.44
1038.566	1871.58
1038.853	1871.58
1039.14	1871.58
