Data from copper_heatsink_FLMS001491_025.txt Node
Date: Tue Feb 07 10:49:36 GMT 2017
User: dcchb
Spectrometer: FLMS00149
Trigger mode: 0
Integration Time (sec): 2.000000E-2
Scans to average: 10
Electric dark correction enabled: true
Nonlinearity correction enabled: false
Boxcar width: 0
XAxis mode: Wavelengths
Number of Pixels in Spectrum: 2048
>>>>>Begin Spectral Data<<<<<
341.393	-21.07
341.776	-21.07
342.16	-21.07
342.543	-68.53
342.927	-50.22
343.31	-69.89
343.693	-71.47
344.077	-64.91
344.46	-60.39
344.843	-45.03
345.226	-61.52
345.61	-34.18
345.993	-19.27
346.376	15.08
346.759	0.4
347.142	31.36
347.525	52.82
347.908	46.95
348.291	75.87
348.674	94.63
349.057	109.55
349.44	121.75
349.823	134.63
350.206	148.64
350.588	215.53
350.971	231.35
351.354	229.09
351.737	260.95
352.119	255.98
352.502	272.25
352.884	283.78
353.267	293.04
353.65	296.21
354.032	309.09
354.414	315.42
354.797	310.67
355.179	338.69
355.562	339.82
355.944	335.08
356.326	346.6
356.709	357.22
357.091	341.4
357.473	341.86
357.855	338.69
358.238	358.58
358.62	364
359.002	381.18
359.384	352.93
359.766	352.48
360.148	345.92
360.53	352.25
360.912	355.41
361.294	351.35
361.676	348.41
362.057	355.19
362.439	378.24
362.821	366.71
363.203	360.16
363.584	336.88
363.966	349.76
364.348	343.89
364.729	347.73
365.111	356.32
365.493	361.06
365.874	333.72
366.256	349.31
366.637	351.57
367.019	347.96
367.4	337.11
367.781	322.42
368.163	334.62
368.544	331.23
368.925	340.95
369.306	336.43
369.688	339.37
370.069	340.95
370.45	349.99
370.831	347.73
371.212	351.8
371.593	355.19
371.974	340.5
372.355	346.38
372.736	369.65
373.117	349.76
373.498	373.49
373.879	341.18
374.26	369.2
374.641	338.24
375.021	355.64
375.402	349.09
375.783	354.74
376.163	347.73
376.544	373.04
376.925	378.24
377.305	363.32
377.686	383.66
378.066	367.84
378.447	380.05
378.827	392.25
379.208	364.91
379.588	358.8
379.968	356.77
380.349	386.37
380.729	415.3
381.109	407.62
381.489	386.6
381.87	391.8
382.25	398.13
382.63	396.77
383.01	416.66
383.39	421.63
383.77	405.58
384.15	427.28
384.53	416.88
384.91	411.23
385.29	408.07
385.67	410.1
386.049	399.71
386.429	411.23
386.809	427.95
387.189	413.49
387.568	427.73
387.948	431.12
388.328	439.93
388.707	441.29
389.087	441.51
389.466	435.86
389.846	443.1
390.225	436.09
390.605	457.78
390.984	451.23
391.363	449.2
391.743	465.02
392.122	482.87
392.501	457.56
392.881	472.93
393.26	483.77
393.639	491
394.018	489.42
394.397	506.82
394.776	502.53
395.155	489.65
395.534	497.33
395.913	488.29
396.292	507.95
396.671	497.78
397.05	515.18
397.429	503.43
397.808	522.87
398.186	512.02
398.565	520.16
398.944	520.83
399.323	515.64
399.701	523.32
400.08	536.43
400.458	527.84
400.837	524.45
401.215	548.4
401.594	541.85
401.972	564.9
402.351	551.12
402.729	557.67
403.107	563.32
403.486	554.28
403.864	596.09
404.242	578.69
404.62	594.05
404.999	582.08
405.377	618.91
405.755	578.46
406.133	614.84
406.511	603.32
406.889	601.51
407.267	615.29
407.645	622.3
408.023	641.28
408.401	630.21
408.779	645.35
409.156	663.65
409.534	641.96
409.912	652.58
410.29	691.22
410.667	667.04
411.045	672.47
411.422	704.78
411.8	712.69
412.178	697.78
412.555	713.6
412.933	728.96
413.31	730.77
413.687	746.59
414.065	755.4
414.442	750.43
414.819	761.73
415.197	751.11
415.574	753.82
415.951	802.18
416.328	765.12
416.705	795.4
417.082	797.21
417.46	816.42
417.837	803.09
418.214	820.26
418.591	807.61
418.967	842.63
419.344	850.54
419.721	864.55
420.098	841.5
420.475	876.3
420.852	856.64
421.228	854.61
421.605	861.39
421.982	890.32
422.358	879.24
422.735	925.79
423.111	887.38
423.488	870.66
423.864	932.12
424.241	945.23
424.617	938.68
424.994	920.15
425.37	940.03
425.746	943.87
426.123	961.27
426.499	987.49
426.875	996.3
427.251	1022.06
427.627	1005.57
428.003	1018.67
428.379	1073.14
428.756	1059.8
429.132	1076.3
429.507	1067.49
429.883	1064.32
430.259	1125.56
430.635	1123.3
431.011	1102.97
431.387	1136.41
431.763	1154.26
432.138	1170.08
432.514	1189.97
432.89	1173.47
433.265	1214.15
433.641	1236.75
434.016	1240.81
434.392	1239.23
434.767	1266.8
435.143	1241.49
435.518	1275.62
435.894	1278.1
436.269	1326.24
436.644	1349.96
437.02	1328.72
437.395	1340.7
437.77	1405.78
438.145	1382.51
438.52	1423.63
438.895	1422.5
439.271	1416.63
439.646	1455.27
440.021	1451.43
440.395	1470.41
440.77	1463.18
441.145	1472.67
441.52	1500.24
441.895	1514.71
442.27	1479.23
442.645	1502.5
443.019	1536.85
443.394	1540.92
443.769	1568.04
444.143	1558.32
444.518	1607.36
444.892	1582.95
445.267	1628.83
445.641	1599.45
446.016	1619.11
446.39	1651.43
446.764	1615.95
447.139	1608.94
447.513	1655.72
447.887	1692.55
448.262	1693.46
448.636	1720.58
449.01	1717.64
449.384	1735.04
449.758	1741.37
450.132	1787.47
450.506	1801.7
450.88	1802.38
451.254	1790.18
451.628	1824.3
452.002	1843.06
452.376	1849.61
452.75	1872.89
453.123	1933.45
453.497	1951.08
453.871	1964.41
454.244	1983.17
454.618	2002.6
454.992	2004.18
455.365	2019.55
455.739	2091.87
456.112	2110.85
456.486	2133.22
456.859	2150.62
457.232	2202.15
457.606	2169.38
457.979	2236.27
458.352	2240.11
458.725	2269.04
459.099	2270.62
459.472	2337.96
459.845	2360.56
460.218	2400.78
460.591	2405.08
460.964	2444.4
461.337	2465.87
461.71	2536.6
462.083	2594.45
462.456	2587.45
462.829	2576.6
463.201	2676.03
463.574	2638.29
463.947	2706.54
464.32	2762.81
464.692	2778.85
465.065	2815.69
465.438	2841.45
465.81	2856.37
466.183	2898.62
466.555	2979.3
466.928	2987.21
467.3	2993.31
467.672	3065.4
468.045	3120.09
468.417	3129.35
468.789	3139.52
469.161	3202.35
469.534	3280.31
469.906	3325.96
470.278	3354.43
470.65	3409.57
471.022	3453.64
471.394	3530.02
471.766	3515.56
472.138	3570.7
472.51	3676.68
472.882	3717.81
473.253	3770.92
473.625	3814.53
473.997	3901.08
474.369	3866.28
474.74	3974.53
475.112	4051.14
475.484	4109.89
475.855	4137.46
476.227	4226.73
476.598	4366.38
476.97	4409.32
477.341	4495.19
477.713	4540.39
478.084	4614.74
478.455	4732.25
478.827	4749.2
479.198	4853.38
479.569	4941.51
479.94	5007.95
480.311	5104.89
480.682	5146.7
481.053	5287.71
481.424	5358.45
481.795	5461.95
482.166	5543.98
482.537	5614.26
482.908	5712.34
483.279	5772.45
483.65	5880.92
484.021	6002.27
484.391	6028.49
484.762	6103.96
485.133	6195.71
485.503	6278.2
485.874	6402.94
486.244	6419.89
486.615	6567.23
486.985	6704.85
487.356	6787.11
487.726	6840.89
488.097	7020.55
488.467	7010.61
488.837	7186.65
489.207	7235.91
489.578	7301.9
489.948	7417.83
490.318	7505.28
490.688	7619.18
491.058	7701.44
491.428	7784.82
491.798	7917.48
492.168	8020.75
492.538	8009.9
492.908	8118.83
493.278	8231.59
493.648	8267.97
494.017	8353.85
494.387	8422.77
494.757	8488.08
495.126	8658.25
495.496	8661.18
495.866	8742.99
496.235	8829.32
496.605	8906.6
496.974	8944.34
497.344	9052.59
497.713	9078.35
498.082	9232.47
498.452	9309.98
498.821	9356.53
499.19	9368.51
499.559	9467.94
499.928	9580.71
500.298	9599.01
500.667	9728.95
501.036	9753.13
501.405	9792
501.774	9802.62
502.143	9917.42
502.512	9962.62
502.88	10065.22
503.249	10007.59
503.618	10127.81
503.987	10201.26
504.356	10259.79
504.724	10350.41
505.093	10386.79
505.462	10499.55
505.83	10563.28
506.199	10605.09
506.567	10805.31
506.936	10745.65
507.304	10899.09
507.672	10983.84
508.041	11031.52
508.409	11130.05
508.777	11174.56
509.145	11217.5
509.514	11340.21
509.882	11403.49
510.25	11517.15
510.618	11500.88
510.986	11472.64
511.354	11721.44
511.722	11854.77
512.09	11900.65
512.458	11933.19
512.826	12022.45
513.193	12075.33
513.561	12137.7
513.929	12249.11
514.297	12304.25
514.664	12474.42
515.032	12617.69
515.4	12595.09
515.767	12699.27
516.135	12736.56
516.502	12739.5
516.869	12910.79
517.237	13009.09
517.604	13018.81
517.972	13160.95
518.339	13230.78
518.706	13296.09
519.073	13399.82
519.44	13548.97
519.808	13675.97
520.175	13671
520.542	13861.95
520.909	13884.78
521.276	13944.21
521.643	14181.04
522.009	14177.88
522.376	14290.87
522.743	14500.35
523.11	14527.7
523.477	14722.04
523.843	14784.41
524.21	14881.81
524.577	15015.37
524.943	15157.51
525.31	15263.27
525.676	15383.04
526.043	15403.61
526.409	15578.06
526.776	15761.56
527.142	15754.78
527.508	15802.92
527.874	16052.63
528.241	16178.95
528.607	16220.76
528.973	16322.68
529.339	16453.52
529.705	16513.41
530.071	16712.5
530.437	16793.63
530.803	16883.34
531.169	17010.57
531.535	16967.63
531.901	17098.93
532.267	17182.99
532.632	17320.17
532.998	17380.5
533.364	17558.35
533.73	17593.38
534.095	17690.1
534.461	17717.67
534.826	18005.57
535.192	17985.46
535.557	18195.85
535.923	18126.92
536.288	18246.92
536.653	18383.41
537.019	18347.26
537.384	18494.15
537.749	18570.08
538.114	18640.13
538.479	18729.62
538.845	18908.6
539.21	18893.68
539.575	18964.87
539.94	19013.23
540.305	19164.86
540.67	19138.88
541.034	19395.59
541.399	19348.36
541.764	19575.25
542.129	19627.9
542.494	19643.04
542.858	19738.63
543.223	19898.4
543.587	19914
543.952	19958.51
544.316	20128
544.681	20083.48
545.045	20286.19
545.41	20436.92
545.774	20494.32
546.138	20512.85
546.503	20571.61
546.867	20753.75
547.231	20934.53
547.595	21016.11
547.959	20972.73
548.324	21137.47
548.688	21231.93
549.052	21426.72
549.416	21411.81
549.779	21610.9
550.143	21701.52
550.507	21941.06
550.871	22105.35
551.235	21956.65
551.599	22259.92
551.962	22418.56
552.326	22444.1
552.689	22652.46
553.053	22601.38
553.417	22821.26
553.78	23169.5
554.143	23117.75
554.507	23284.3
554.87	23470.06
555.234	23798.64
555.597	23659.66
555.96	23889.71
556.323	24096.49
556.686	24171.74
557.05	24489.02
557.413	24507.32
557.776	24675.68
558.139	24895.56
558.502	25012.17
558.865	25229.56
559.228	25585.94
559.59	25543.9
559.953	25747.06
560.316	26214.62
560.679	26279.7
561.041	26510.21
561.404	26726.25
561.767	26960.59
562.129	27118.55
562.492	27436.74
562.854	27559.9
563.217	27703.85
563.579	27852.54
563.941	28227.22
564.304	28436.71
564.666	28856.13
565.028	28791.5
565.39	29040.54
565.753	29412.5
566.115	29636.9
566.477	29814.3
566.839	30007.97
567.201	30344.23
567.563	30587.84
567.925	30985.34
568.287	31104.21
568.648	31229.4
569.01	31480.47
569.372	31958.88
569.734	31936.96
570.095	32295.14
570.457	32587.56
570.819	32842.92
571.18	32905.74
571.542	33242.46
571.903	33514.32
572.265	33690.13
572.626	33964.47
572.987	34114.53
573.349	34564.01
573.71	34645.36
574.071	35025.24
574.432	35168.74
574.794	35491.67
575.155	35628.39
575.516	35769.62
575.877	36189.95
576.238	36370.74
576.599	36604.4
576.96	36763.04
577.32	36998.74
577.681	37213.2
578.042	37500.2
578.403	37742.23
578.763	37814.32
579.124	38041.43
579.485	38438.25
579.845	38549.66
580.206	38708.3
580.566	38899.49
580.927	38957.56
581.287	39239.82
581.648	39273.26
582.008	39694.72
582.368	39712.8
582.728	39894.71
583.089	40171.32
583.449	40215.16
583.809	40299.9
584.169	40480.46
584.529	40506
584.889	41037.51
585.249	40796.84
585.609	40956.61
585.969	41439.31
586.329	41475.46
586.688	41600.21
587.048	41587.32
587.408	41636.36
587.768	41865.96
588.127	42009.46
588.487	42075
588.846	42532.38
589.206	42280.87
589.565	42509.11
589.925	42882.43
590.284	42797.24
590.643	42947.97
591.003	43105.02
591.362	43309.31
591.721	43382.53
592.08	43452.36
592.44	43693.48
592.799	43738.45
593.158	43898.9
593.517	44023.64
593.876	44207.14
594.235	44136.86
594.593	44389.28
594.952	44502.5
595.311	44580.01
595.67	44700.69
596.029	44971.87
596.387	45191.3
596.746	45287.11
597.104	45260.9
597.463	45406.43
597.822	45763.03
598.18	45596.71
598.538	45755.58
598.897	46003.48
599.255	45727.55
599.613	46517.82
599.972	46481.21
600.33	46613.41
600.688	46606.85
601.046	46758.49
601.404	46860.41
601.762	47066.73
602.12	47255.88
602.478	47182.88
602.836	47588.07
603.194	47432.59
603.552	47539.03
603.91	47484.12
604.268	47711.91
604.625	47697.9
604.983	47915.29
605.341	47893.83
605.698	48232.35
606.056	48416.3
606.413	48298.56
606.771	48635.5
607.128	48774.93
607.485	48638.89
607.843	48720.47
608.2	49253.79
608.557	49293.56
608.914	49284.75
609.272	49588.02
609.629	49620.11
609.986	49886.32
610.343	49712.76
610.7	50069.81
611.057	50088.57
611.414	50234.1
611.771	50319.52
612.127	50470.03
612.484	50513.64
612.841	50743.02
613.198	50534.89
613.554	50627.54
613.911	50968.32
614.267	51016.68
614.624	51137.13
614.98	51216.45
615.337	51356.33
615.693	51452.6
616.05	51486.27
616.406	51783.67
616.762	51648.98
617.118	51717.68
617.475	51881.29
617.831	51927.62
618.187	51950.22
618.543	52149.98
618.899	52350.43
619.255	52308.4
619.611	52302.07
619.967	52418
620.323	52590.43
620.678	52481.73
621.034	52500.48
621.39	52642.63
621.746	52615.28
622.101	53025.44
622.457	52764.43
622.812	52997.87
623.168	53036.52
623.523	53126.23
623.879	53183.18
624.234	53115.16
624.589	53329.84
624.945	53340.01
625.3	53426.79
625.655	53475.37
626.01	53546.33
626.365	53515.15
626.72	53498.88
627.075	53591.08
627.43	53622.26
627.785	53600.57
628.14	53733.22
628.495	53794.91
628.85	53809.83
629.205	53797.63
629.559	53944.06
629.914	53821.58
630.269	53886.21
630.623	53842.37
630.978	53790.85
631.332	53957.62
631.687	54061.8
632.041	53942.93
632.396	54104.51
632.75	54014.34
633.104	54119.42
633.459	54024.74
633.813	54121.23
634.167	54035.36
634.521	54061.35
634.875	54195.13
635.229	54127.33
635.583	54043.72
635.937	54140.67
636.291	54225.86
636.645	54170.27
636.999	54071.06
637.352	54286.88
637.706	54100.22
638.06	54279.19
638.413	54260.21
638.767	54173.43
639.121	54316.71
639.474	54186.77
639.828	54199.87
640.181	54328.91
640.534	54284.17
640.888	54234.68
641.241	54188.58
641.594	54267.67
641.947	54393.54
642.301	54325.75
642.654	54358.51
643.007	54364.39
643.36	54411.62
643.713	54323.71
644.066	54487.55
644.419	54421.11
644.771	54309.02
645.124	54189.25
645.477	54151.29
645.83	53950.84
646.182	53796.95
646.535	53638.76
646.888	53649.61
647.24	53386.79
647.593	53704.97
647.945	53616.16
648.298	53496.62
648.65	53516.28
649.002	53519.67
649.355	53644.86
649.707	53721.69
650.059	53995.59
650.411	54372.3
650.763	54431.73
651.115	54577.94
651.467	54591.95
651.819	54542.01
652.171	54547.21
652.523	54631.05
652.875	54619.98
653.227	54552.63
653.578	54704.72
653.93	54620.43
654.282	54455.01
654.633	54512.63
654.985	54592.63
655.337	54624.72
655.688	54689.58
656.039	54747.43
656.391	54516.7
656.742	54654.55
657.094	54614.1
657.445	54803.25
657.796	54718.5
658.147	54624.72
658.498	54738.39
658.849	54736.36
659.2	54773.64
659.551	54722.12
659.902	54850.93
660.253	54782.46
660.604	54852.06
660.955	54710.82
661.306	54831.95
661.656	54894.32
662.007	54955.33
662.358	54952.62
662.708	55032.85
663.059	55008.89
663.409	54806.41
663.76	55049.12
664.11	55006.86
664.461	55053.64
664.811	55106.74
665.161	55067.42
665.511	55059.06
665.862	55062.68
666.212	55215.89
666.562	55260.64
666.912	55219.06
667.262	55144.26
667.612	55296.34
667.962	55312.61
668.312	55227.64
668.662	55368.43
669.011	55295.89
669.361	55349.22
669.711	55300.18
670.06	55441.65
670.41	55280.52
670.76	55393.06
671.109	55568.88
671.459	55465.15
671.808	55376.34
672.157	55430.35
672.507	55225.84
672.856	55307.87
673.205	55408.66
673.554	55534.98
673.904	55401.65
674.253	55589.89
674.602	55591.25
674.951	55213.63
675.3	55023.58
675.649	55517.13
675.998	55515.55
676.346	55630.8
676.695	55701.08
677.044	55482.78
677.393	55591.7
677.741	55652.49
678.09	55566.84
678.438	55623.57
678.787	55686.84
679.135	55632.61
679.484	55482.33
679.832	55678.25
680.181	55524.13
680.529	55563
680.877	55510.35
681.225	55545.15
681.573	55690.91
681.922	55437.58
682.27	55473.97
682.618	55515.32
682.966	55325.04
683.314	55519.84
683.661	55512.61
684.009	55380.86
684.357	55363.01
684.705	55408.88
685.053	55458.6
685.4	55373.63
685.748	55305.16
686.095	55224.93
686.443	55178.61
686.79	55107.87
687.138	55259.28
687.485	55363.46
687.832	55240.52
688.18	55273.29
688.527	55076.24
688.874	55101.09
689.221	55019.97
689.568	55000.08
689.915	55142.67
690.262	55152.62
690.609	55014.99
690.956	54935.22
691.303	54916.01
691.65	54659.98
691.997	54770.48
692.344	54694.78
692.69	54668.79
693.037	54717.37
693.383	54528
693.73	54631.28
694.077	54433.09
694.423	54555.12
694.769	54429.7
695.116	54408
695.462	54422.24
695.808	54305.86
696.155	54343.6
696.501	54125.75
696.847	54139.31
697.193	54085.53
697.539	54188.35
697.885	53965.76
698.231	53904.97
698.577	54022.03
698.923	54028.13
699.269	53841.92
699.614	53742.94
699.96	53759.21
700.306	53761.92
700.651	53594.69
700.997	53674.92
701.342	53584.98
701.688	53474.7
702.033	53327.81
702.379	53442.15
702.724	53353.34
703.069	53434.47
703.415	53160.58
703.76	53136.85
704.105	53242.84
704.45	53106.57
704.795	53057.98
705.14	52993.13
705.485	53073.35
705.83	52854.37
706.175	52878.1
706.52	52815.28
706.865	52704.32
707.209	52723.75
707.554	52630.42
707.899	52836.97
708.243	52567.6
708.588	52613.93
708.932	52401.05
709.277	52431.33
709.621	52512.91
709.966	52336.19
710.31	52424.55
710.654	52166.71
710.998	52288.29
711.342	52274.73
711.687	52131
712.031	52067.05
712.375	52036.32
712.719	52213.94
713.063	52112.25
713.407	52115.86
713.75	52004.23
714.094	51963.32
714.438	51912.25
714.782	52064.34
715.125	51881.97
715.469	51941.4
715.812	51775.08
716.156	51649.43
716.499	51511.58
716.843	51756.1
717.186	51530.11
717.53	51719.04
717.873	51813.27
718.216	51777.57
718.559	51638.36
718.902	51363.79
719.246	51586.38
719.589	51407.18
719.932	51258.93
720.275	51443.79
720.617	51262.78
720.96	51358.59
721.303	51331.02
721.646	51350.23
721.989	51170.8
722.331	51270.91
722.674	51171.93
723.016	51258.48
723.359	51147.98
723.701	51247.64
724.044	51042.22
724.386	50901.2
724.729	51123.57
725.071	51025.49
725.413	51137.81
725.755	51063.23
726.097	50867.08
726.439	50772.62
726.782	50859.17
727.124	51126.96
727.465	50842
727.807	50820.98
728.149	50687.65
728.491	50620.76
728.833	50867.08
729.175	50662.34
729.516	50710.7
729.858	50693.3
730.199	50756.35
730.541	50551.38
730.882	50620.99
731.224	50639.74
731.565	50445.4
731.906	50534.21
732.248	50479.29
732.589	50501.21
732.93	50322.01
733.271	50369.92
733.612	50359.98
733.953	50479.07
734.294	50293.08
734.635	50296.02
734.976	50368.11
735.317	50260.54
735.658	50261.67
735.999	50306.64
736.339	50256.25
736.68	50323.14
737.021	50068.23
737.361	50035.46
737.702	50248.57
738.042	50091.51
738.383	50184.84
738.723	50354.78
739.063	50212.18
739.404	50310.49
739.744	50205.63
740.084	50106.42
740.424	50108.23
740.764	50012.64
741.104	50165.63
741.444	49926.54
741.784	49930.38
742.124	50008.8
742.464	49912.53
742.804	49937.16
743.143	49842.25
743.483	49845.41
743.823	49760.67
744.162	49839.09
744.502	49996.6
744.841	49775.13
745.181	49899.2
745.52	49708.24
745.86	49694.23
746.199	49727.45
746.538	49672.31
746.877	49815.58
747.216	49823.72
747.556	49680.45
747.895	49736.26
748.234	49443.62
748.573	49547.57
748.911	49319.78
749.25	49470.28
749.589	49491.98
749.928	49507.34
750.267	49441.36
750.605	49367.91
750.944	49323.62
751.283	49315.48
751.621	49296.27
751.96	49181.7
752.298	49145.77
752.636	49162.94
752.975	49002.04
753.313	49023.74
753.651	49278.65
753.989	48964.76
754.327	48990.97
754.666	48849.28
755.004	48972.67
755.342	48988.26
755.679	48892.22
756.017	48678.44
756.355	48692.22
756.693	48431.21
757.031	48638.21
757.368	48434.83
757.706	48351.67
758.044	48242.06
758.381	48344.21
758.719	48217.66
759.056	48243.87
759.394	48138.79
759.731	47912.13
760.068	48074.16
760.405	48157.1
760.743	47943.99
761.08	48022.18
761.417	47731.34
761.754	47683.44
762.091	47573.38
762.428	47489.54
762.765	47327.51
763.102	47486.15
763.438	47128.65
763.775	46884.59
764.112	47119.16
764.449	47177.01
764.785	47036.22
765.122	46607.53
765.458	46658.38
765.795	46752.84
766.131	46571.15
766.467	46701.99
766.804	46525.5
767.14	46319.63
767.476	46402.11
767.812	46225.85
768.148	46434.65
768.485	45927.78
768.821	45936.81
769.157	46012.07
769.492	45879.87
769.828	45688.23
770.164	45482.82
770.5	45490.27
770.836	45334.12
771.171	45126.44
771.507	45173.44
771.842	44703.85
772.178	44860.46
772.513	44930.29
772.849	44675.6
773.184	44632.44
773.519	44629.05
773.855	44418.89
774.19	44540.24
774.525	44465.89
774.86	44362.39
775.195	44128.95
775.53	44097.99
775.865	43879.69
776.2	43867.94
776.535	43453.72
776.87	43385.02
777.205	43427.95
777.539	43420.27
777.874	43665.24
778.209	43131.24
778.543	43127.62
778.878	42810.57
779.212	42839.72
779.547	42804.02
779.881	42741.42
780.215	42568.54
780.55	42680.63
780.884	42439.73
781.218	42532.16
781.552	42530.35
781.886	42192.28
782.22	41937.37
782.554	42119.06
782.888	41855.57
783.222	41508.91
783.556	41556.14
783.889	41692.18
784.223	41107.79
784.557	41124.96
784.89	41319.08
785.224	41058.75
785.557	40844.75
785.891	40838.87
786.224	40713
786.558	40930.39
786.891	40520.46
787.224	40442.72
787.557	40325.21
787.891	40373.57
788.224	40218.32
788.557	40089.96
788.89	40071.88
789.223	40020.36
789.556	39663.08
789.888	39515.74
790.221	39583.54
790.554	39267.16
790.887	39438.23
791.219	39199.59
791.552	39213.6
791.884	38939.94
792.217	39082.53
792.549	38964.12
792.882	38850.9
793.214	38627.85
793.546	38731.13
793.879	38591.25
794.211	38348.09
794.543	38546.73
794.875	38408.43
795.207	38633.05
795.539	38375.21
795.871	38294.76
796.203	38011.37
796.535	37876.46
796.867	37981.09
797.198	37863.58
797.53	37859.51
797.862	37644.6
798.193	37825.16
798.525	37480.77
798.856	37567.09
799.188	37218.63
799.519	37077.39
799.85	36930.5
800.182	37049.82
800.513	37175.92
800.844	36846.66
801.175	37113.32
801.506	36949.03
801.837	36843.72
802.168	36765.3
802.499	36527.12
802.83	36429.49
803.161	36485.99
803.491	36528.47
803.822	36451.64
804.153	36271.08
804.483	35986.34
804.814	36025.44
805.145	36116.28
805.475	35834.48
805.805	35923.97
806.136	35948.6
806.466	35921.26
806.796	35833.8
807.126	35637.65
807.457	35385.91
807.787	35470.65
808.117	35497.99
808.447	35367.83
808.777	35637.88
809.107	35378.67
809.436	35201.28
809.766	35197.89
810.096	35158.57
810.426	35157.89
810.755	35060.72
811.085	35123.54
811.414	34913.6
811.744	34738.69
812.073	34753.83
812.403	34759.93
812.732	34438.36
813.061	34463.44
813.39	34556.32
813.719	34483.1
814.049	34631.58
814.378	34625.93
814.707	34363.56
815.036	34491.47
815.365	34416.21
815.693	34014.42
816.022	34073.62
816.351	34041.53
816.68	33825.72
817.008	33985.72
817.337	33808.32
817.665	33783.46
817.994	33913.4
818.322	33646.29
818.651	33724.48
818.979	33527.42
819.307	33817.36
819.636	33558.38
819.964	33503.02
820.292	33670.7
820.62	33777.81
820.948	33538.95
821.276	33775.33
821.604	33667.31
821.932	33614.2
822.259	33595.9
822.587	33703.46
822.915	33580.3
823.243	33845.61
823.57	33691.71
823.898	33707.31
824.225	33817.59
824.553	33894.65
824.88	33960.41
825.207	34103.91
825.535	33943.23
825.862	34081.99
826.189	33957.92
826.516	34053.51
826.843	34186.84
827.17	34169.89
827.497	34293.05
827.824	34310.68
828.151	34334.18
828.478	34227.52
828.805	34465.25
829.131	34262.77
829.458	34114.75
829.785	34071.36
830.111	34245.82
830.438	34365.37
830.764	34356.55
831.09	34235.88
831.417	34107.97
831.743	34455.53
832.069	34460.05
832.395	34301.64
832.722	34547.51
833.048	34275.65
833.374	34399.04
833.7	34176.67
834.026	34423.45
834.351	34508.87
834.677	34406.72
835.003	34669.77
835.329	34561.52
835.654	34472.71
835.98	34347.97
836.306	34408.53
836.631	34393.84
836.956	34375.76
837.282	34514.52
837.607	34311.13
837.932	34363.79
838.258	34410.79
838.583	34227.07
838.908	34141.42
839.233	34393.16
839.558	34310.68
839.883	33975.77
840.208	33989.11
840.533	34112.72
840.858	34079.73
841.182	34390.9
841.507	34257.57
841.832	34052.38
842.156	34194.3
842.481	34023.68
842.805	33924.48
843.13	33907.75
843.454	33924.7
843.778	33787.3
844.103	33655.33
844.427	33589.79
844.751	33739.62
845.075	33589.79
845.399	33484.03
845.723	33303.47
846.047	33382.57
846.371	33198.62
846.695	33163.82
847.019	32984.16
847.343	32859.19
847.666	32687.45
847.99	32583.04
848.313	32603.38
848.637	32417.4
848.96	32482.03
849.284	32404.06
849.607	32126.78
849.931	32197.51
850.254	31863.96
850.577	31791.2
850.9	31584.88
851.223	31767.92
851.546	31737.87
851.869	31543.29
852.192	31720.69
852.515	31420.59
852.838	31278.22
853.161	31325
853.483	31107.6
853.806	31006.13
854.129	30987.83
854.451	31058.56
854.774	30821.28
855.096	30878
855.419	30821.73
855.741	30697.22
856.063	30530.44
856.385	30568.18
856.708	30617.9
857.03	30411.57
857.352	30540.16
857.674	30307.62
857.996	30325.7
858.318	30310.78
858.64	30289.77
858.961	30088.19
859.283	30194.18
859.605	30003.22
859.926	30121.86
860.248	30057.68
860.57	29921.19
860.891	29912.38
861.212	29626.28
861.534	29761.65
861.855	29716.22
862.176	29860.4
862.498	29723.91
862.819	29733.17
863.14	29693.63
863.461	29756.45
863.782	29687.07
864.103	29514.65
864.424	29544.03
864.745	29556
865.065	29399.4
865.386	29444.37
865.707	29276.69
866.027	29445.27
866.348	29421.09
866.668	29328.44
866.989	29374.76
867.309	29091.61
867.63	29306.07
867.95	29365.27
868.27	29144.71
868.59	29288.21
868.91	29177.03
869.23	29193.75
869.55	29018.62
869.87	29226.97
870.19	29142.23
870.51	29212.73
870.83	29329.34
871.15	29146.3
871.469	29347.42
871.789	29285.05
872.109	29208.22
872.428	29155.56
872.748	29275.11
873.067	29182.68
873.386	29177.26
873.706	28969.8
874.025	28959.63
874.344	28792.86
874.663	28839.64
874.982	28701.11
875.301	28830.15
875.62	28788.11
875.939	28742.92
876.258	28764.61
876.577	28708.12
876.896	28990.14
877.214	28851.16
877.533	28943.14
877.852	28809.81
878.17	28898.17
878.489	28903.14
878.807	28728.68
879.125	28790.6
879.444	28777.72
879.762	28770.71
880.08	28685.52
880.398	28636.93
880.716	28692.3
881.034	28596.03
881.352	28680.09
881.67	28615.69
881.988	28644.16
882.306	28556.25
882.624	28471.51
882.941	28342.93
883.259	28299.31
883.577	28259.54
883.894	28070.17
884.212	28179.77
884.529	28255.92
884.846	28102.26
885.164	28201.69
885.481	28089.83
885.798	28179.32
886.115	28016.38
886.432	27880.57
886.75	27799.89
887.067	27844.41
887.383	27668.14
887.7	27819.55
888.017	27710.85
888.334	27646.45
888.651	27701.59
888.967	27711.98
889.284	27470.86
889.6	27474.93
889.917	27335.95
890.233	27321.94
890.55	27324.87
890.866	27422.27
891.182	27363.97
891.498	27308.6
891.815	27342.5
892.131	27149.29
892.447	27062.06
892.763	26865
893.079	26961.04
893.395	26865.68
893.71	26869.52
894.026	26820.26
894.342	26792.46
894.657	26544.56
894.973	26646.7
895.289	26606.7
895.604	26525.8
895.92	26344.79
896.235	26248.97
896.55	26362.87
896.865	26293.04
897.181	26230.89
897.496	26090.56
897.811	26169.65
898.126	26124.91
898.441	26133.95
898.756	26051.91
899.071	25701.41
899.386	25877.91
899.7	25674.97
900.015	25671.36
900.33	25486.05
900.644	25428.88
900.959	25443.12
901.273	25207.87
901.588	25208.77
901.902	25244.48
902.216	25242.67
902.531	25141.66
902.845	25093.07
903.159	25039.06
903.473	24992.51
903.787	24889.01
904.101	24747.77
904.415	24725.85
904.729	24673.19
905.042	24476.36
905.356	24357.72
905.67	24256.25
905.984	24256.03
906.297	24140.55
906.611	24054.45
906.924	24048.8
907.237	23983.04
907.551	24014.91
907.864	23869.15
908.177	23938.07
908.491	23764.74
908.804	23704.4
909.117	23633.22
909.43	23598.65
909.743	23618.76
910.056	23464.41
910.368	23400.91
910.681	23253.8
910.994	23138.54
911.307	23158.66
911.619	23085.66
911.932	22927.93
912.244	22888.61
912.557	22917.08
912.869	22709.63
913.181	22743.53
913.494	22716.41
913.806	22573.14
914.118	22598.9
914.43	22385.57
914.742	22354.38
915.054	22327.27
915.366	22191.22
915.678	22228.74
915.99	22030.78
916.302	21767.73
916.613	21823.78
916.925	21685.48
917.236	21663.78
917.548	21572.03
917.859	21472.83
918.171	21420.85
918.482	21374.75
918.794	21376.56
919.105	21403.9
919.416	21156.45
919.727	21113.06
920.038	21107.19
920.349	20974.31
920.66	20924.14
920.971	20966.62
921.282	20954.87
921.593	20724.37
921.903	20658.84
922.214	20635.79
922.525	20432.85
922.835	20340.65
923.146	20291.84
923.456	20262.01
923.767	20268.34
924.077	20231.73
924.387	20097.04
924.697	20009.59
925.008	20043.94
925.318	19830.61
925.628	19852.98
925.938	19832.87
926.248	19598.52
926.558	19655.02
926.867	19575.25
927.177	19479.21
927.487	19450.28
927.796	19269.49
928.106	19319.21
928.416	19160.12
928.725	19079.22
929.034	19121.25
929.344	19070.63
929.653	19162.83
929.962	18887.58
930.271	18845.55
930.581	18878.09
930.89	18752.44
931.199	18725.78
931.508	18586.8
931.817	18525.33
932.125	18472.9
932.434	18364.43
932.743	18156.75
933.051	18216.64
933.36	18174.38
933.669	18000.83
933.977	17953.82
934.286	18014.39
934.594	17915.63
934.902	17797.44
935.21	17788.85
935.519	17804.67
935.827	17749.53
936.135	17550.22
936.443	17424.12
936.751	17412.37
937.059	17417.34
937.367	17326.49
937.674	17366.27
937.982	17307.06
938.29	17234.97
938.597	17156.78
938.905	17007.18
939.213	17026.84
939.52	16979.16
939.827	17058.03
940.135	16953.4
940.442	16712.27
940.749	16767.64
941.056	16761.08
941.363	16580.98
941.67	16561.77
941.977	16616.46
942.284	16449.91
942.591	16412.17
942.898	16226.86
943.205	16230.93
943.511	16187.09
943.818	16075.45
944.125	15989.58
944.431	15912.29
944.738	15864.84
945.044	15822.58
945.35	15776.93
945.657	15611.51
945.963	15627.33
946.269	15428.69
946.575	15582.58
946.881	15379.65
947.187	15384.17
947.493	15318.64
947.799	15291.07
948.105	15128.36
948.41	15046.55
948.716	15203.16
949.022	15028.25
949.327	15008.81
949.633	14931.98
949.938	14815.6
950.244	14912.55
950.549	14781.48
950.854	14717.75
951.16	14684.76
951.465	14625.1
951.77	14634.81
952.075	14572.89
952.38	14476.17
952.685	14391.43
952.99	14306.23
953.294	14278.44
953.599	14130.19
953.904	14068.95
954.209	14075.51
954.513	14131.55
954.818	14036.18
955.122	13932.68
955.426	13933.81
955.731	13891.78
956.035	13753.93
956.339	13708.96
956.643	13714.16
956.948	13621.73
957.252	13567.04
957.556	13662.18
957.86	13516.88
958.163	13436.88
958.467	13347.16
958.771	13416.31
959.075	13262.65
959.378	13294.28
959.682	13322.53
959.985	13197.11
960.289	13119.15
960.592	13054.06
960.896	12964.57
961.199	13065.36
961.502	12972.03
961.805	12900.85
962.108	12712.15
962.411	12738.82
962.714	12711.25
963.017	12658.37
963.32	12678.93
963.623	12486.17
963.926	12620.18
964.228	12501.31
964.531	12456.11
964.833	12404.14
965.136	12324.14
965.438	12277.81
965.741	12227.64
966.043	12276.68
966.345	12144.48
966.648	12113.98
966.95	12052.73
967.252	11959.86
967.554	11862
967.856	11873.98
968.158	11824.04
968.46	11818.84
968.761	11824.04
969.063	11664.72
969.365	11594.89
969.666	11573.42
969.968	11485.52
970.269	11475.8
970.571	11455.24
970.872	11414.33
971.174	11347.67
971.475	11267.44
971.776	11280.1
972.077	11234.22
972.378	11266.77
972.679	11152.19
972.98	11132.31
973.281	11025.42
973.582	11064.74
973.883	10996.49
974.183	10867.23
974.484	10868.58
974.785	10863.16
975.085	10828.81
975.386	10814.8
975.686	10687.35
975.986	10648.93
976.287	10564.86
976.587	10528.71
976.887	10510.63
977.187	10606.9
977.487	10509.72
977.787	10450.06
978.087	10410.29
978.387	10460.23
978.687	10428.14
978.987	10263.85
979.286	10151.09
979.586	10195.16
979.885	10110.41
980.185	10064.99
980.484	10062.73
980.784	9957.65
981.083	9890.76
981.382	9913.81
981.682	9938.67
981.981	9865.9
982.28	9806.69
982.579	9712.23
982.878	9706.81
983.177	9702.74
983.475	9558.56
983.774	9575.28
984.073	9623.19
984.372	9503.87
984.67	9510.2
984.969	9486.47
985.267	9396.98
985.566	9380.49
985.864	9392.69
986.162	9312.02
986.461	9305.69
986.759	9205.8
987.057	9098.46
987.355	9090.33
987.653	9128.52
987.951	9072.47
988.249	9133.26
988.547	8969.2
988.844	8942.53
989.142	8942.53
989.44	8879.26
989.737	8811.92
990.035	8817.34
990.332	8863.89
990.63	8782.09
990.927	8721.07
991.224	8707.96
991.521	8628.64
991.819	8566.27
992.116	8549.78
992.413	8459.16
992.71	8406.5
993.006	8408.99
993.303	8346.16
993.6	8382.32
993.897	8267.97
994.193	8335.09
994.49	8162.67
994.787	8159.73
995.083	8089
995.379	8140.52
995.676	8126.74
995.972	8015.55
996.268	8003.35
996.565	7901.66
996.861	7954.54
997.157	7895.78
997.453	7829.79
997.749	7746.63
998.044	7749.12
998.34	7651.49
998.636	7724.03
998.932	7661.66
999.227	7607.65
999.523	7571.95
999.818	7536.02
1000.114	7405.17
1000.409	7410.82
1000.704	7390.71
1001	7388.68
1001.295	7296.7
1001.59	7221.67
1001.885	7249.02
1002.18	7225.97
1002.475	7194.56
1002.77	7128.57
1003.065	7091.73
1003.359	6979.65
1003.654	7021.23
1003.949	6959.76
1004.243	6944.85
1004.538	6897.16
1004.832	6832.08
1005.127	6786.66
1005.421	6761.12
1005.715	6739.65
1006.009	6662.14
1006.304	6647.45
1006.598	6603.61
1006.892	6585.76
1007.186	6518.42
1007.48	6527
1007.773	6421.7
1008.067	6405.65
1008.361	6305.31
1008.655	6354.8
1008.948	6336.95
1009.242	6249.5
1009.535	6158.88
1009.829	6162.72
1010.122	6179.89
1010.415	6136.28
1010.708	6090.63
1011.001	6016.28
1011.295	6000.92
1011.588	5987.13
1011.881	5906.68
1012.173	5866.68
1012.466	5827.36
1012.759	5868.04
1013.052	5819.45
1013.344	5734.48
1013.637	5770.87
1013.93	5741.04
1014.222	5673.01
1014.514	5641.6
1014.807	5604.54
1015.099	5516.63
1015.391	5521.15
1015.683	5510.53
1015.976	5479.35
1016.268	5418.33
1016.56	5403.19
1016.851	5319.58
1017.143	5299.47
1017.435	5220.6
1017.727	5210.88
1018.018	5216.53
1018.31	5174.72
1018.602	5125.23
1018.893	5069.41
1019.185	5034.16
1019.476	5025.57
1019.767	4936.54
1020.058	4930.44
1020.35	4919.81
1020.641	4829.2
1020.932	4834.62
1021.223	4772.25
1021.514	4794.39
1021.804	4713.72
1022.095	4736.54
1022.386	4684.79
1022.677	4639.6
1022.967	4606.15
1023.258	4563.21
1023.548	4574.74
1023.839	4553.95
1024.129	4534.29
1024.419	4481.41
1024.709	4435.76
1025	4374.74
1025.29	4354.41
1025.58	4367.29
1025.87	4277.12
1026.16	4282.32
1026.449	4216.1
1026.739	4240.74
1027.029	4217.91
1027.319	4126.39
1027.608	4163.22
1027.898	4085.26
1028.187	4020.85
1028.477	4032.38
1028.766	3971.14
1029.055	3965.94
1029.344	3914.64
1029.634	3895.43
1029.923	3861.76
1030.212	3843.23
1030.501	3837.58
1030.79	3799.84
1031.078	3771.37
1031.367	3703.8
1031.656	3717.81
1031.945	3684.59
1032.233	3673.07
1032.522	3606.85
1032.81	3581.54
1033.099	3582
1033.387	3524.14
1033.675	3557.14
1033.963	3494.77
1034.251	3477.14
1034.54	3463.58
1034.828	3402.11
1035.116	3387.65
1035.403	3352.4
1035.691	3299.52
1035.979	3285.05
1036.267	3266.52
1036.554	3206.19
1036.842	3211.16
1037.129	3220.65
1037.417	3137.49
1037.704	3118.51
1037.992	3106.53
1038.279	3083.7
1038.566	3052.52
1038.853	3052.52
1039.14	3052.52
