Data from copper_heatsink_FLMS001491_100.txt Node
Date: Tue Feb 07 10:50:54 GMT 2017
User: dcchb
Spectrometer: FLMS00149
Trigger mode: 0
Integration Time (sec): 2.000000E-2
Scans to average: 10
Electric dark correction enabled: true
Nonlinearity correction enabled: false
Boxcar width: 0
XAxis mode: Wavelengths
Number of Pixels in Spectrum: 2048
>>>>>Begin Spectral Data<<<<<
341.393	-27.16
341.776	-27.16
342.16	-27.16
342.543	-66.93
342.927	-57.67
343.31	-72.13
343.693	-58.35
344.077	-73.26
344.46	-56.76
344.843	-45.92
345.226	-47.72
345.61	-48.4
345.993	-39.82
346.376	5.38
346.759	25.72
347.142	41.76
347.525	64.14
347.908	44.02
348.291	63.23
348.674	87.64
349.057	110.46
349.44	121.08
349.823	135.77
350.206	161.08
350.588	180.97
350.971	225.04
351.354	222.55
351.737	229.1
352.119	263.45
352.502	252.38
352.884	272.49
353.267	291.25
353.65	282.66
354.032	307.07
354.414	289.89
354.797	301.64
355.179	315.43
355.562	335.09
355.944	331.7
356.326	329.21
356.709	344.58
357.091	330.34
357.473	343.9
357.855	352.94
358.238	344.58
358.62	336.22
359.002	333.28
359.384	335.99
359.766	340.74
360.148	350.46
360.53	352.94
360.912	341.64
361.294	328.99
361.676	345.49
362.057	347.52
362.439	352.72
362.821	334.86
363.203	346.16
363.584	333.73
363.966	325.82
364.348	328.76
364.729	334.64
365.111	325.37
365.493	308.2
365.874	333.28
366.256	316.56
366.637	339.16
367.019	317.69
367.4	336.45
367.781	332.15
368.163	322.21
368.544	313.62
368.925	326.5
369.306	320.85
369.688	301.19
370.069	314.75
370.45	321.76
370.831	305.71
371.212	326.95
371.593	313.62
371.974	297.8
372.355	322.21
372.736	317.01
373.117	323.56
373.498	324.02
373.879	343.23
374.26	325.37
374.641	318.82
375.021	322.89
375.402	331.93
375.783	323.11
376.163	345.49
376.544	338.48
376.925	345.49
377.305	346.84
377.686	345.26
378.066	333.28
378.447	332.15
378.827	356.56
379.208	337.58
379.588	344.81
379.968	352.94
380.349	334.64
380.729	333.73
381.109	364.92
381.489	331.25
381.87	345.26
382.25	341.19
382.63	349.78
383.01	339.16
383.39	338.93
383.77	359.04
384.15	354.52
384.53	354.3
384.91	364.02
385.29	344.13
385.67	356.11
386.049	361.53
386.429	364.24
386.809	366.73
387.189	366.95
387.568	381.64
387.948	360.17
388.328	363.34
388.707	363.11
389.087	380.74
389.466	375.77
389.846	375.77
390.225	380.74
390.605	362.66
390.984	364.69
391.363	392.04
391.743	370.12
392.122	406.95
392.501	374.64
392.881	385.48
393.26	406.27
393.639	386.39
394.018	392.72
394.397	385.26
394.776	397.46
395.155	401.08
395.534	396.78
395.913	407.4
396.292	402.43
396.671	402.66
397.05	387.29
397.429	403.79
397.808	396.56
398.186	394.52
398.565	404.01
398.944	403.11
399.323	402.43
399.701	422.09
400.08	439.49
400.458	405.14
400.837	437.69
401.215	414.86
401.594	430
401.972	420.29
402.351	425.26
402.729	428.65
403.107	450.34
403.486	426.84
403.864	449.44
404.242	439.72
404.62	445.6
404.999	454.18
405.377	435.43
405.755	434.75
406.133	444.47
406.511	464.58
406.889	467.06
407.267	452.6
407.645	461.19
408.023	475.88
408.401	459.38
408.779	464.58
409.156	462.09
409.534	473.39
409.912	487.63
410.29	480.17
410.667	477.23
411.045	472.71
411.422	468.42
411.8	507.29
412.178	499.83
412.555	482.88
412.933	501.41
413.31	505.93
413.687	535.31
414.065	504.8
414.442	521.3
414.819	500.96
415.197	514.52
415.574	520.17
415.951	530.34
416.328	523.56
416.705	533.28
417.082	523.11
417.46	531.7
417.837	549.55
418.214	557.23
418.591	565.82
418.967	529.89
419.344	528.76
419.721	554.52
420.098	551.58
420.475	551.81
420.852	555.42
421.228	540.06
421.605	542.99
421.982	565.82
422.358	570.11
422.735	557.23
423.111	587.51
423.488	571.92
423.864	579.15
424.241	578.47
424.617	582.54
424.994	582.99
425.37	596.55
425.746	607.4
426.123	610.11
426.499	582.77
426.875	605.37
427.251	589.55
427.627	607.4
428.003	615.53
428.379	622.77
428.756	625.48
429.132	633.16
429.507	628.42
429.883	651.47
430.259	656.66
430.635	650.56
431.011	643.33
431.387	667.51
431.763	659.38
432.138	678.13
432.514	700.96
432.89	663.67
433.265	702.99
433.641	708.19
434.016	689.21
434.392	717.68
434.767	727.85
435.143	717
435.518	720.16
435.894	751.8
436.269	740.5
436.644	745.02
437.02	752.93
437.395	738.02
437.77	742.76
438.145	742.31
438.52	750.67
438.895	766.49
439.271	753.38
439.646	782.76
440.021	768.52
440.395	777.79
440.77	790.45
441.145	773.95
441.52	790.9
441.895	789.54
442.27	815.98
442.645	779.37
443.019	817.79
443.394	810.11
443.769	830.44
444.143	801.29
444.518	830.67
444.892	825.25
445.267	832.7
445.641	834.51
446.016	832.48
446.39	841.74
446.764	872.25
447.139	866.15
447.513	859.37
447.887	876.32
448.262	869.31
448.636	872.25
449.01	894.4
449.384	877.22
449.758	920.61
450.132	919.71
450.506	902.98
450.88	908.63
451.254	948.41
451.628	920.61
452.002	931.01
452.376	904.11
452.75	950.67
453.123	967.39
453.497	956.54
453.871	954.28
454.244	952.7
454.618	961.74
454.992	988.18
455.365	970.55
455.739	1038.12
456.112	1045.35
456.486	1001.97
456.859	1048.29
457.232	1044.45
457.606	1029.31
457.979	1068.4
458.352	1061.17
458.725	1078.35
459.099	1088.52
459.472	1088.97
459.845	1100.95
460.218	1133.26
460.591	1124.9
460.964	1137.33
461.337	1142.75
461.71	1203.09
462.083	1191.79
462.456	1199.7
462.829	1193.82
463.201	1222.07
463.574	1212.36
463.947	1235.18
464.32	1244.44
464.692	1254.84
465.065	1273.37
465.438	1271.34
465.81	1282.86
466.183	1318.12
466.555	1379.81
466.928	1349.75
467.3	1339.36
467.672	1371.45
468.045	1380.71
468.417	1390.66
468.789	1404.89
469.161	1394.95
469.534	1438.56
469.906	1459.35
470.278	1485.79
470.65	1492.35
471.022	1539.58
471.394	1523.53
471.766	1532.57
472.138	1565.34
472.51	1602.85
472.882	1636.52
473.253	1610.99
473.625	1640.82
473.997	1682.63
474.369	1694.38
474.74	1713.81
475.112	1735.05
475.484	1743.64
475.855	1806.69
476.227	1786.8
476.598	1841.94
476.97	1890.08
477.341	1899.79
477.713	1914.48
478.084	1926.46
478.455	1970.53
478.827	1956.52
479.198	2036.74
479.569	2029.96
479.94	2069.51
480.311	2121.03
480.682	2180.92
481.053	2217.3
481.424	2251.2
481.795	2294.13
482.166	2302.27
482.537	2302.95
482.908	2372.55
483.279	2386.34
483.65	2450.51
484.021	2453.9
484.391	2497.75
484.762	2508.14
485.133	2549.27
485.503	2568.93
485.874	2618.42
486.244	2686.67
486.615	2678.08
486.985	2697.29
487.356	2734.8
487.726	2801.92
488.097	2827.91
488.467	2885.53
488.837	2883.5
489.207	2947.22
489.578	2973.44
489.948	3012.53
490.318	3028.13
490.688	3053.21
491.058	3100.22
491.428	3147.9
491.798	3178.41
492.168	3217.05
492.538	3220.44
492.908	3280.55
493.278	3361.68
493.648	3368.68
494.017	3389.25
494.387	3420.43
494.757	3454.56
495.126	3492.07
495.496	3494.33
495.866	3546.98
496.235	3565.06
496.605	3586.53
496.974	3631.73
497.344	3632.4
497.713	3652.97
498.082	3710.37
498.452	3739.07
498.821	3757.37
499.19	3783.36
499.559	3804.15
499.928	3866.07
500.298	3878.95
500.667	3888.89
501.036	3932.06
501.405	3912.62
501.774	3973.64
502.143	4009.57
502.512	3987.65
502.88	4066.29
503.249	4103.13
503.618	4129.79
503.987	4150.13
504.356	4178.6
504.724	4150.36
505.093	4202.56
505.462	4230.35
505.83	4297.7
506.199	4284.59
506.567	4325.72
506.936	4367.3
507.304	4431.25
507.672	4468.99
508.041	4473.29
508.409	4556.45
508.777	4559.16
509.145	4545.37
509.514	4640.06
509.882	4626.05
510.25	4668.54
510.618	4737.91
510.986	4740.17
511.354	4798.93
511.722	4813.62
512.09	4868.3
512.458	4874.86
512.826	4912.14
513.193	4951.24
513.561	5001.18
513.929	5020.84
514.297	5038.24
514.664	5077.34
515.032	5113.5
515.4	5171.12
515.767	5243.66
516.135	5177.9
516.502	5273.49
516.869	5326.6
517.237	5327.5
517.604	5339.93
517.972	5419.48
518.339	5462.19
518.706	5469.87
519.073	5525.91
519.44	5542.18
519.808	5620.83
520.175	5615.4
520.542	5688.85
520.909	5730.43
521.276	5769.98
521.643	5856.3
522.009	5908.73
522.376	5888.84
522.743	5944.89
523.11	6040.93
523.477	6026.47
523.843	6115.96
524.21	6202.51
524.577	6265.33
524.943	6283.41
525.31	6342.84
525.676	6430.52
526.043	6414.93
526.409	6501.93
526.776	6594.81
527.142	6597.07
527.508	6634.81
527.874	6750.06
528.241	6758.65
528.607	6779.21
528.973	6867.35
529.339	6850.85
529.705	6928.36
530.071	7016.5
530.437	7034.8
530.803	7035.25
531.169	7124.06
531.535	7138.53
531.901	7153.44
532.267	7210.39
532.632	7327
532.998	7363.15
533.364	7366.32
533.73	7419.65
534.095	7480.89
534.461	7559.98
534.826	7559.31
535.192	7670.72
535.557	7716.36
535.923	7712.07
536.288	7754.56
536.653	7818.74
537.019	7822.8
537.384	7890.37
537.749	7950.94
538.114	7965.4
538.479	8080.65
538.845	8022.57
539.21	8051.72
539.575	8089.91
539.94	8147.77
540.305	8200.42
540.67	8231.61
541.034	8244.26
541.399	8353.64
541.764	8448.1
542.129	8468.21
542.494	8461.43
542.858	8471.6
543.223	8547.98
543.587	8662.78
543.952	8662.78
544.316	8663.01
544.681	8734.42
545.045	8816.45
545.41	8816.22
545.774	8959.5
546.138	8923.79
546.503	8980.96
546.867	9081.98
547.231	9173.05
547.595	9113.16
547.959	9264.35
548.324	9345.25
548.688	9311.58
549.052	9387.96
549.416	9390.9
549.779	9493.95
550.143	9570.1
550.507	9662.3
550.871	9679.7
551.235	9655.52
551.599	9829.53
551.962	9921.05
552.326	10019.81
552.689	9998.56
553.053	10069.3
553.417	10144.78
553.78	10259.57
554.143	10269.74
554.507	10322.17
554.87	10439.46
555.234	10520.13
555.597	10555.84
555.96	10700.02
556.323	10796.06
556.686	10853.46
557.05	10911.54
557.413	11018.42
557.776	11112.21
558.139	11264.29
558.502	11320.56
558.865	11363.27
559.228	11485.31
559.59	11582.03
559.953	11733.89
560.316	11898.4
560.679	11936.37
561.041	12040.32
561.404	12200.99
561.767	12304.49
562.129	12289.58
562.492	12471.27
562.854	12531.15
563.217	12671.26
563.579	12789.23
563.941	12920.52
564.304	13038.48
564.666	13198.48
565.028	13320.29
565.39	13424.24
565.753	13555.08
566.115	13676.21
566.477	13838.46
566.839	13860.16
567.201	14036.65
567.563	14193.71
567.925	14336.76
568.287	14495.4
568.648	14618.78
569.01	14727.25
569.372	14888.83
569.734	14914.14
570.095	15101.26
570.457	15177.86
570.819	15302.83
571.18	15420.34
571.542	15554.58
571.903	15720.45
572.265	15804.06
572.626	15898.07
572.987	16074.34
573.349	16159.76
573.71	16371.05
574.071	16433.2
574.432	16613.98
574.794	16804.94
575.155	16825.05
575.516	16922.45
575.877	17049.68
576.238	17174.65
576.599	17283.34
576.96	17450.8
577.32	17420.29
577.681	17657.57
578.042	17738.02
578.403	17871.8
578.763	17932.59
579.124	18011.24
579.485	18149.31
579.845	18361.06
580.206	18373.71
580.566	18398.12
580.927	18454.61
581.287	18699.58
581.648	18726.92
582.008	18834.26
582.368	18939.57
582.728	18991.55
583.089	19054.82
583.449	19127.36
583.809	19324.87
584.169	19357.41
584.529	19411.2
584.889	19573
585.249	19528.26
585.609	19550.18
585.969	19702.72
586.329	19742.26
586.688	19877.63
587.048	19845.99
587.408	19947.46
587.768	19993.56
588.127	20114.23
588.487	20052.09
588.846	20288.69
589.206	20333.43
589.565	20409.59
589.925	20438.74
590.284	20453.66
590.643	20529.81
591.003	20770.48
591.362	20788.79
591.721	20818.17
592.08	20732.75
592.44	20909.24
592.799	21012.29
593.158	20989.24
593.517	21020.65
593.876	21129.8
594.235	21203.69
594.593	21210.93
594.952	21405.04
595.311	21302
595.67	21469.9
596.029	21646.17
596.387	21625.83
596.746	21773.85
597.104	21674.87
597.463	21846.61
597.822	21939.27
598.18	21796.45
598.538	22025.14
598.897	22081.18
599.255	21984.24
599.613	22434.62
599.972	22292.93
600.33	22382.87
600.688	22347.17
601.046	22455.64
601.404	22574.96
601.762	22555.75
602.12	22793.71
602.478	22827.83
602.836	22758.68
603.194	22751.68
603.552	22842.75
603.91	22838
604.268	23064.44
604.625	23116.41
604.983	23252.91
605.341	23154.83
605.698	23292
606.056	23505.33
606.413	23462.84
606.771	23482.28
607.128	23583.74
607.485	23514.82
607.843	23528.15
608.2	23693.8
608.557	23896.05
608.914	23862.38
609.272	24023.73
609.629	24136.5
609.986	24127.23
610.343	24023.96
610.7	24321.58
611.057	24371.29
611.414	24477.51
611.771	24465.53
612.127	24682.7
612.484	24649.93
612.841	24705.3
613.198	24733.77
613.554	24787.33
613.911	24893.09
614.267	25048.11
614.624	25003.59
614.98	25130.37
615.337	25126.08
615.693	25236.13
616.05	25318.39
616.406	25437.25
616.762	25333.75
617.118	25453.75
617.475	25514.77
617.831	25556.8
618.187	25630.24
618.543	25705.72
618.899	25917.02
619.255	25927.64
619.611	25909.11
619.967	26060.29
620.323	26042.89
620.678	26086.73
621.034	25940.97
621.39	26012.38
621.746	26140.06
622.101	26417.57
622.457	26258.48
622.812	26279.94
623.168	26439.26
623.523	26349.77
623.879	26586.83
624.234	26387.74
624.589	26585.47
624.945	26478.58
625.3	26667.96
625.655	26715.41
626.01	26634.51
626.365	26681.52
626.72	26850.78
627.075	26793.38
627.43	26724.68
627.785	26773.94
628.14	26792.93
628.495	26935.29
628.85	26948.85
629.205	26926.03
629.559	27099.81
629.914	26968.97
630.269	27012.35
630.623	26963.54
630.978	27040.6
631.332	27164.44
631.687	27171.67
632.041	27027.95
632.396	27155.18
632.75	27008.29
633.104	27166.7
633.459	27151.11
633.813	27148.62
634.167	27235.4
634.521	27213.93
634.875	27288.96
635.229	27200.82
635.583	27076.76
635.937	27092.13
636.291	27054.61
636.645	27149.53
636.999	27103.2
637.352	27147.72
637.706	27096.42
638.06	27282.4
638.413	27197.21
638.767	27091
639.121	27286.7
639.474	27241.05
639.828	27206.02
640.181	27224.78
640.534	27360.37
640.888	27187.49
641.241	27130.54
641.594	27164.22
641.947	27281.05
642.301	27161.73
642.654	27310.65
643.007	27241.05
643.36	27257.77
643.713	27157.44
644.066	27456.18
644.419	27199.69
644.771	27104.1
645.124	26767.16
645.477	26695.07
645.83	26524.23
646.182	26500.28
646.535	26538.47
646.888	26690.1
647.24	26540.73
647.593	26700.95
647.945	26746.82
648.298	26555.64
648.65	26638.35
649.002	26529.2
649.355	26597.22
649.707	26610.33
650.059	26563.33
650.411	27013.48
650.763	26907.05
651.115	27338.67
651.467	27259.81
651.819	27208.73
652.171	27147.49
652.523	27248.05
652.875	27246.02
653.227	27089.64
653.578	27436.52
653.93	27269.07
654.282	27143.42
654.633	27064.56
654.985	27188.17
655.337	27293.93
655.688	27334.61
656.039	27364.66
656.391	27266.36
656.742	27189.53
657.094	27420.25
657.445	27523.75
657.796	27460.25
658.147	27183.42
658.498	27249.64
658.849	27477.88
659.2	27397.66
659.551	27219.81
659.902	27386.81
660.253	27336.19
660.604	27425.45
660.955	27373.25
661.306	27525.56
661.656	27399.92
662.007	27492.57
662.358	27403.98
662.708	27412.12
663.059	27556.75
663.409	27316.98
663.76	27653.69
664.11	27714.03
664.461	27724.88
664.811	27592.9
665.161	27675.39
665.511	27617.31
665.862	27674.71
666.212	27813.24
666.562	27824.31
666.912	27738.44
667.262	27662.51
667.612	27591.77
667.962	27773.69
668.312	27636.29
668.662	27809.4
669.011	27801.26
669.361	27723.75
669.711	27698.66
670.06	27793.58
670.41	27715.39
670.76	27677.42
671.109	27959.22
671.459	27861.6
671.808	27741.6
672.157	27846.23
672.507	27685.78
672.856	27731.43
673.205	27852.33
673.554	27986.11
673.904	27883.07
674.253	27975.27
674.602	27866.8
674.951	27470.2
675.3	27411.89
675.649	27955.38
675.998	27970.3
676.346	27982.27
676.695	27987.02
677.044	27832.67
677.393	27841.49
677.741	27928.71
678.09	28011.2
678.438	27818.89
678.787	27923.07
679.135	28014.81
679.484	27663.41
679.832	27794.48
680.181	27699.12
680.529	27950.18
680.877	27800.13
681.225	27774.37
681.573	27994.93
681.922	27839.68
682.27	27774.59
682.618	27731.88
682.966	27726.91
683.314	27723.07
683.661	27715.16
684.009	27530.08
684.357	27549.52
684.705	27536.18
685.053	27608.05
685.4	27543.64
685.748	27535.05
686.095	27480.82
686.443	27413.7
686.79	27285.12
687.138	27411.21
687.485	27517.2
687.832	27349.52
688.18	27331.89
688.527	27193.59
688.874	27282.18
689.221	27206.02
689.568	27229.3
689.915	27260.48
690.262	27215.97
690.609	27122.63
690.956	27013.94
691.303	27027.04
691.65	26796.32
691.997	26831.79
692.344	26790.67
692.69	26781.85
693.037	26857.56
693.383	26475.87
693.73	26767.84
694.077	26637.68
694.423	26639.71
694.769	26571.01
695.116	26467.51
695.462	26548.19
695.808	26428.42
696.155	26423.67
696.501	26298.93
696.847	26304.58
697.193	26129.89
697.539	26213.05
697.885	26043.11
698.231	25999.73
698.577	25965.6
698.923	25936.45
699.269	25960.4
699.614	25761.54
699.96	25807.64
700.306	25790.47
700.651	25723.58
700.997	25687.64
701.342	25698.26
701.688	25787.98
702.033	25703.91
702.379	25557.93
702.724	25491.04
703.069	25515.44
703.415	25264.6
703.76	25322.23
704.105	25363.13
704.45	25360.65
704.795	25075.46
705.14	25111.16
705.485	25059.86
705.83	25143.25
706.175	25161.56
706.52	25095.79
706.865	24892.41
707.209	24908.91
707.554	24873.88
707.899	24956.14
708.243	24759.53
708.588	24765.18
708.932	24686.31
709.277	24760.66
709.621	24746.88
709.966	24603.38
710.31	24647.9
710.654	24540.33
710.998	24540.78
711.342	24548.69
711.687	24566.09
712.031	24478.64
712.375	24290.39
712.719	24289.26
713.063	24211.07
713.407	24346.89
713.75	24195.71
714.094	24272.54
714.438	24053.11
714.782	24122.71
715.125	24105.54
715.469	24094.69
715.812	23970.63
716.156	23906.45
716.499	23898.99
716.843	23995.48
717.186	23810.18
717.53	23955.26
717.873	23889.72
718.216	24043.62
718.559	23842.72
718.902	23710.29
719.246	23807.69
719.589	23718.43
719.932	23577.42
720.275	23604.08
720.617	23658.09
720.96	23701.93
721.303	23734.47
721.646	23678.43
721.989	23601.6
722.331	23472.56
722.674	23543.52
723.016	23549.62
723.359	23468.04
723.701	23576.51
724.044	23523.86
724.386	23348.04
724.729	23402.28
725.071	23300.81
725.413	23345.33
725.755	23286.8
726.097	23287.48
726.439	23144.21
726.782	23304.66
727.124	23334.94
727.465	23097.2
727.807	23140.82
728.149	23115.96
728.491	23117.77
728.833	23247.93
729.175	23233.7
729.516	23197.09
729.858	23141.27
730.199	23144.89
730.541	23051.1
730.882	23012.69
731.224	23130.65
731.565	23006.81
731.906	23022.86
732.248	23016.98
732.589	23071.22
732.93	22993.25
733.271	23001.61
733.612	23033.7
733.953	23056.98
734.294	22950.99
734.635	22900.15
734.976	22950.31
735.317	22840.26
735.658	22850.2
735.999	22865.12
736.339	22732.92
736.68	22875.51
737.021	22795.06
737.361	22672.81
737.702	22828.06
738.042	22680.49
738.383	22743.54
738.723	22706.93
739.063	22625.8
739.404	22639.14
739.744	22604.34
740.084	22608.4
740.424	22692.47
740.764	22606.37
741.104	22752.81
741.444	22525.47
741.784	22526.37
742.124	22592.13
742.464	22643.88
742.804	22566.14
743.143	22471.01
743.483	22513.49
743.823	22333.61
744.162	22355.98
744.502	22405.7
744.841	22226.27
745.181	22377.67
745.52	22289.77
745.86	22388.3
746.199	22262.42
746.538	22208.19
746.877	22299.48
747.216	22222.65
747.556	22225.59
747.895	22231.69
748.234	22178.58
748.573	22223.33
748.911	22085.03
749.25	22141.3
749.589	22089.55
749.928	21994.86
750.267	21998.48
750.605	22006.16
750.944	21925.03
751.283	21878.03
751.621	21930
751.96	21760.97
752.298	21925.03
752.636	21832.6
752.975	21827.41
753.313	21682.33
753.651	21793.28
753.989	21595.1
754.327	21657.92
754.666	21522.56
755.004	21692.27
755.342	21688.43
755.679	21631.71
756.017	21625.15
756.355	21608.2
756.693	21526.4
757.031	21511.26
757.368	21375.89
757.706	21325.05
758.044	21232.62
758.381	21405.72
758.719	21311.26
759.056	21283.69
759.394	21132.51
759.731	20961.21
760.068	20932.51
760.405	20906.53
760.743	20944.49
761.08	21002.34
761.417	20865.4
761.754	20898.84
762.091	20843.7
762.428	20761.9
762.765	20675.8
763.102	20835.79
763.438	20682.58
763.775	20544.28
764.112	20681.9
764.449	20626.76
764.785	20431.51
765.122	20290.72
765.458	20245.53
765.795	20160.78
766.131	20261.35
766.467	20168.47
766.804	20052.09
767.14	20048.92
767.476	20027
767.812	19879.21
768.148	19967.34
768.485	19764.64
768.821	19734.58
769.157	19806.44
769.492	19627.92
769.828	19838.53
770.164	19592.89
770.5	19505.21
770.836	19698.65
771.171	19467.02
771.507	19407.58
771.842	19313.12
772.178	19424.76
772.513	19229.96
772.849	19290.52
773.184	19227.47
773.519	19157.87
773.855	19164.43
774.19	19077.2
774.525	19087.37
774.86	18953.58
775.195	18847.6
775.53	18745.91
775.865	18763.98
776.2	18661.16
776.535	18487.16
776.87	18472.92
777.205	18468.62
777.539	18354.5
777.874	18363.09
778.209	18257.78
778.543	18322.87
778.878	18125.13
779.212	18159.93
779.547	18052.14
779.881	18091.23
780.215	17947.51
780.55	18103.66
780.884	18069.31
781.218	18088.97
781.552	17916.55
781.886	17843.56
782.22	17718.59
782.554	17597.69
782.888	17583.45
783.222	17476.79
783.556	17475.43
783.889	17483.11
784.223	17399.27
784.557	17359.05
784.89	17372.83
785.224	17257.36
785.557	17158.6
785.891	17172.39
786.224	17156.79
786.558	17175.33
786.891	17048.55
787.224	16987.53
787.557	16968.55
787.891	16912.96
788.224	16872.06
788.557	16876.8
788.89	16881.77
789.223	16769.01
789.556	16651.5
789.888	16710.7
790.221	16588.67
790.554	16473.2
790.887	16463.48
791.219	16366.08
791.552	16435.91
791.884	16345.52
792.217	16312.3
792.549	16305.52
792.882	16134
793.214	16087.44
793.546	16131.28
793.879	16001.34
794.211	15900.56
794.543	16001.12
794.875	15943.72
795.207	16016.26
795.539	15903.49
795.871	15782.59
796.203	15777.17
796.535	15751.86
796.867	15705.08
797.198	15658.53
797.53	15640.22
797.862	15560
798.193	15597.29
798.525	15498.99
798.856	15607.46
799.188	15330.63
799.519	15303.06
799.85	15230.07
800.182	15291.76
800.513	15326.33
800.844	15216.51
801.175	15207.47
801.506	15199.78
801.837	15131.76
802.168	15159.56
802.499	15152.55
802.83	14985.78
803.161	14929.96
803.491	14983.52
803.822	14971.09
804.153	14907.36
804.483	14803.86
804.814	14789.17
805.145	14730.87
805.475	14771.77
805.805	14688.16
806.136	14629.63
806.466	14702.4
806.796	14631.66
807.126	14569.07
807.457	14541.5
807.787	14598.22
808.117	14525.68
808.447	14418.79
808.777	14475.96
809.107	14382.18
809.436	14357.55
809.766	14374.95
810.096	14359.35
810.426	14328.17
810.755	14260.37
811.085	14156.2
811.414	14151.9
811.744	14060.38
812.073	14077.1
812.403	14191
812.732	14048.85
813.061	14105.58
813.39	14102.19
813.719	14012.02
814.049	14071.9
814.378	13998.23
814.707	13911.46
815.036	13866.26
815.365	13862.19
815.693	13722.31
816.022	13682.08
816.351	13648.19
816.68	13550.11
817.008	13610.22
817.337	13509.43
817.665	13594.18
817.994	13586.72
818.322	13601.18
818.651	13484.35
818.979	13451.13
819.307	13541.75
819.636	13551.47
819.964	13377.91
820.292	13476.21
820.62	13490.45
820.948	13484.57
821.276	13590.33
821.604	13452.26
821.932	13479.15
822.259	13536.78
822.587	13557.57
822.915	13520.28
823.243	13619.71
823.57	13459.72
823.898	13515.99
824.225	13478.47
824.553	13400.28
824.88	13430.79
825.207	13436.89
825.535	13466.27
825.862	13525.48
826.189	13493.84
826.516	13596.66
826.843	13579.94
827.17	13568.87
827.497	13589.66
827.824	13555.76
828.151	13552.6
828.478	13527.06
828.805	13587.62
829.131	13562.54
829.458	13445.71
829.785	13423.79
830.111	13518.25
830.438	13576.32
830.764	13696.55
831.09	13639.15
831.417	13654.51
831.743	13623.78
832.069	13611.13
832.395	13482.09
832.722	13533.61
833.048	13546.95
833.374	13550.79
833.7	13529.32
834.026	13578.58
834.351	13591.46
834.677	13513.05
835.003	13603.44
835.329	13540.39
835.654	13551.92
835.98	13455.65
836.306	13500.62
836.631	13419.72
836.956	13415.88
837.282	13465.37
837.607	13391.24
837.932	13326.39
838.258	13415.88
838.583	13375.43
838.908	13357.35
839.233	13420.62
839.558	13419.04
839.883	13425.37
840.208	13282.32
840.533	13370.91
840.858	13326.84
841.182	13390.34
841.507	13304.92
841.832	13199.61
842.156	13199.61
842.481	13252.04
842.805	13253.39
843.13	13258.82
843.454	13250.23
843.778	13201.64
844.103	13167.07
844.427	13078.94
844.751	12948.77
845.075	13093.4
845.399	12957.58
845.723	12951.48
846.047	12897.47
846.371	12826.06
846.695	12817.47
847.019	12778.6
847.343	12755.33
847.666	12687.31
847.99	12631.94
848.313	12580.42
848.637	12589.91
848.96	12615.9
849.284	12569.57
849.607	12528.89
849.931	12367.54
850.254	12348.56
850.577	12269.92
850.9	12225.85
851.223	12238.28
851.546	12184.04
851.869	12108.34
852.192	12191.73
852.515	12128.68
852.838	12038.96
853.161	12003.94
853.483	12069.7
853.806	11975.46
854.129	11986.99
854.451	11839.87
854.774	11827.9
855.096	11849.36
855.419	11887.1
855.741	11824.51
856.063	11754
856.385	11688.69
856.708	11685.98
857.03	11607.56
857.352	11619.54
857.674	11563.95
857.996	11515.81
858.318	11519.65
858.64	11544.51
858.961	11465.42
859.283	11547.22
859.605	11403.73
859.926	11507.68
860.248	11411.86
860.57	11277.63
860.891	11354.01
861.212	11245.09
861.534	11278.08
861.855	11134.81
862.176	11264.97
862.498	11307
862.819	11245.09
863.14	11246.22
863.461	11176.61
863.782	11139.33
864.103	11154.01
864.424	11120.57
864.745	11060.01
865.065	11074.92
865.386	10987.69
865.707	11058.65
866.027	11006
866.348	11054.13
866.668	10913.34
866.989	11015.49
867.309	10897.07
867.63	10899.56
867.95	10924.87
868.27	10926.68
868.59	10934.81
868.91	10905.89
869.23	10924.87
869.55	10828.15
869.87	10950.18
870.19	10831.99
870.51	10869.5
870.83	10886.9
871.15	10794.25
871.469	10841.25
871.789	10790.41
872.109	10807.36
872.428	10761.26
872.748	10748.15
873.067	10749.28
873.386	10763.97
873.706	10751.54
874.025	10693.01
874.344	10604.2
874.663	10717.64
874.982	10709.96
875.301	10719.9
875.62	10644.2
875.939	10664.54
876.258	10738.21
876.577	10675.84
876.896	10714.7
877.214	10522.39
877.533	10586.57
877.852	10598.1
878.17	10626.34
878.489	10484.88
878.807	10618.66
879.125	10517.65
879.444	10609.85
879.762	10530.53
880.08	10584.31
880.398	10495.05
880.716	10475.39
881.034	10469.96
881.352	10420.25
881.67	10380.7
881.988	10449.63
882.306	10415.95
882.624	10439.68
882.941	10399.01
883.259	10347.93
883.577	10299.8
883.894	10297.99
884.212	10355.17
884.529	10297.77
884.846	10265.9
885.164	10329.18
885.481	10265.9
885.798	10257.09
886.115	10154.49
886.432	10219.58
886.75	10217.99
887.067	10209.18
887.383	10090.09
887.7	10193.59
888.017	10063.42
888.334	10009.41
888.651	10013.48
888.967	9974.84
889.284	9917.66
889.6	9982.29
889.917	9869.98
890.233	9891
890.55	9877.89
890.866	9914.95
891.182	9845.57
891.498	9813.71
891.815	9783.2
892.131	9805.58
892.447	9759.48
892.763	9698.91
893.079	9722.87
893.395	9703.88
893.71	9664.56
894.026	9627.28
894.342	9670.89
894.657	9607.84
894.973	9630.21
895.289	9615.3
895.604	9665.47
895.92	9444.68
896.235	9514.74
896.55	9517
896.865	9452.36
897.181	9449.2
897.496	9351.58
897.811	9338.7
898.126	9327.4
898.441	9272.48
898.756	9301.18
899.071	9246.04
899.386	9278.81
899.7	9216.66
900.015	9264.35
900.33	9159.94
900.644	9089.89
900.959	9142.09
901.273	9028.42
901.588	8997.01
901.902	8922.89
902.216	8947.52
902.531	8887.18
902.845	8903.9
903.159	8855.54
903.473	8825.71
903.787	8787.07
904.101	8708.88
904.415	8688.54
904.729	8667.53
905.042	8712.72
905.356	8659.62
905.67	8615.78
905.984	8601.31
906.297	8569.68
906.611	8471.15
906.924	8465.5
907.237	8402.9
907.551	8401.77
907.864	8371.49
908.177	8364.03
908.491	8347.53
908.804	8305.28
909.117	8281.32
909.43	8276.8
909.743	8182.34
910.056	8248.1
910.368	8208.56
910.681	8138.27
910.994	8103.93
911.307	8135.11
911.619	8015.34
911.932	8079.52
912.244	7931.05
912.557	8043.81
912.869	7950.71
913.181	8027.77
913.494	7995.68
913.806	7955.68
914.118	7933.76
914.43	7937.6
914.742	7876.81
915.054	7781.45
915.366	7782.35
915.678	7767.66
915.99	7725.4
916.302	7689.02
916.613	7611.06
916.925	7657.38
917.236	7606.09
917.548	7548.01
917.859	7615.58
918.171	7519.99
918.482	7459.2
918.794	7391.85
919.105	7452.19
919.416	7410.38
919.727	7422.14
920.038	7338.97
920.349	7292.2
920.66	7256.72
920.971	7239.99
921.282	7173.33
921.593	7145.31
921.903	7167.23
922.214	7120.9
922.525	7117.28
922.835	7122.93
923.146	7034.12
923.456	7007.01
923.767	6988.93
924.077	6971.3
924.387	7003.39
924.697	6891.75
925.008	6881.81
925.318	6788.71
925.628	6809.27
925.938	6886.56
926.248	6714.81
926.558	6797.52
926.867	6680.23
927.177	6710.06
927.487	6732.44
927.796	6576.06
928.106	6641.59
928.416	6641.36
928.725	6572.44
929.034	6461.71
929.344	6526.79
929.653	6531.31
929.962	6468.49
930.271	6442.73
930.581	6412.67
930.89	6346.01
931.199	6270.08
931.508	6274.14
931.817	6281.83
932.125	6309.4
932.434	6251.32
932.743	6240.47
933.051	6197.08
933.36	6140.81
933.669	6132
933.977	6141.04
934.286	6181.94
934.594	6143.75
934.902	6080.93
935.21	6042.06
935.519	6106.46
935.827	5976.3
936.135	5989.18
936.443	5892.68
936.751	5902.18
937.059	5906.69
937.367	5834.15
937.674	5879.58
937.982	5830.31
938.29	5846.81
938.597	5855.17
938.905	5734.5
939.213	5721.62
939.52	5681.84
939.827	5708.51
940.135	5661.5
940.442	5695.63
940.749	5640.04
941.056	5654.95
941.363	5607.49
941.67	5638.23
941.977	5569.75
942.284	5480.72
942.591	5512.81
942.898	5534.28
943.205	5446.14
943.511	5444.79
943.818	5407.05
944.125	5366.82
944.431	5359.82
944.738	5353.49
945.044	5340.83
945.35	5354.85
945.657	5348.52
945.963	5260.38
946.269	5227.62
946.575	5231.23
946.881	5174.51
947.187	5144
947.493	5131.35
947.799	5165.25
948.105	5152.36
948.41	5115.3
948.716	5115.08
949.022	5111.01
949.327	5061.75
949.633	5014.29
949.938	5049.09
950.244	4989.88
950.549	4994.4
950.854	4942.88
951.16	4971.58
951.465	4927.96
951.77	4913.5
952.075	4844.12
952.38	4832.82
952.685	4855.88
952.99	4839.83
953.294	4772.94
953.599	4701.75
953.904	4764.58
954.209	4720.74
954.513	4701.53
954.818	4639.16
955.122	4661.76
955.426	4685.03
955.731	4608.42
956.035	4575.43
956.339	4613.62
956.643	4566.62
956.948	4533.17
957.252	4546.73
957.556	4500.63
957.86	4523
958.163	4538.14
958.467	4498.37
958.771	4419.73
959.075	4446.62
959.378	4385.61
959.682	4398.71
959.985	4376.57
960.289	4356.45
960.592	4349.45
960.896	4325.49
961.199	4319.17
961.502	4298.38
961.805	4277.13
962.108	4239.17
962.411	4176.12
962.714	4191.94
963.017	4223.12
963.32	4183.58
963.623	4150.13
963.926	4198.72
964.228	4120.08
964.531	4143.8
964.833	4116.91
965.136	4073.52
965.438	4058.83
965.741	4026.29
966.043	4079.17
966.345	4016.35
966.648	3992.62
966.95	4018.16
967.252	3977.71
967.554	3907.65
967.856	3919.63
968.158	3958.27
968.46	3885.05
968.761	3881.89
969.063	3906.97
969.365	3885.73
969.666	3878.05
969.968	3847.77
970.269	3810.7
970.571	3810.48
970.872	3843.25
971.174	3767.99
971.475	3771.16
971.776	3735.45
972.077	3727.32
972.378	3752.4
972.679	3729.8
972.98	3659.07
973.281	3730.26
973.582	3745.85
973.883	3674.66
974.183	3623.37
974.484	3666.3
974.785	3613.42
975.085	3575
975.386	3593.31
975.686	3568
975.986	3530.94
976.287	3565.29
976.587	3517.15
976.887	3519.87
977.187	3497.94
977.487	3480.09
977.787	3480.32
978.087	3483.26
978.387	3465.4
978.687	3470.15
978.987	3448.23
979.286	3402.58
979.586	3411.39
979.885	3354.9
980.185	3358.74
980.484	3327.55
980.784	3304.5
981.083	3272.64
981.382	3256.6
981.682	3308.35
981.981	3251.62
982.28	3261.57
982.579	3229.48
982.878	3265.86
983.177	3209.14
983.475	3196.94
983.774	3143.38
984.073	3142.93
984.372	3139.54
984.67	3073.1
984.969	3094.34
985.267	3135.02
985.566	3069.93
985.864	3074.68
986.162	3067.9
986.461	3089.82
986.759	3041.69
987.057	3036.94
987.355	3003.49
987.653	3029.71
987.951	3019.54
988.249	2941.12
988.547	2956.04
988.844	2971.63
989.142	2927.11
989.44	2936.6
989.737	2934.57
990.035	2902.93
990.332	2860.9
990.63	2887.34
990.927	2845.53
991.224	2868.81
991.521	2835.36
991.819	2834.69
992.116	2812.99
992.413	2802.37
992.71	2756.72
993.006	2784.07
993.303	2768.25
993.6	2772.09
993.897	2684.63
994.193	2707.91
994.49	2697.51
994.787	2656.16
995.083	2685.08
995.379	2683.28
995.676	2609.61
995.972	2617.29
996.268	2639.89
996.565	2631.53
996.861	2572.77
997.157	2616.61
997.453	2598.76
997.749	2558.76
998.044	2561.25
998.34	2582.94
998.636	2549.27
998.932	2554.92
999.227	2500.91
999.523	2491.64
999.818	2473.34
1000.114	2449.16
1000.409	2449.61
1000.704	2440.8
1001	2383.62
1001.295	2424.75
1001.59	2385.21
1001.885	2402.83
1002.18	2369.16
1002.475	2371.87
1002.77	2368.26
1003.065	2351.31
1003.359	2337.3
1003.654	2319.22
1003.949	2299.78
1004.243	2291.87
1004.538	2264.53
1004.832	2256.62
1005.127	2256.17
1005.421	2263.85
1005.715	2208.04
1006.009	2229.73
1006.304	2197.19
1006.598	2194.48
1006.892	2198.77
1007.186	2132.78
1007.48	2151.31
1007.773	2144.08
1008.067	2153.57
1008.361	2109.51
1008.655	2093.91
1008.948	2088.26
1009.242	2084.2
1009.535	2052.56
1009.829	2044.42
1010.122	2073.8
1010.415	2035.61
1010.708	2073.35
1011.001	2019.34
1011.295	2017.31
1011.588	2018.44
1011.881	1965.33
1012.173	1971.21
1012.466	1971.21
1012.759	1973.47
1013.052	1921.26
1013.344	1907.03
1013.637	1914.26
1013.93	1941.38
1014.222	1873.81
1014.514	1900.47
1014.807	1859.57
1015.099	1857.99
1015.391	1871.32
1015.683	1833.58
1015.976	1860.47
1016.268	1822.28
1016.56	1815.96
1016.851	1821.6
1017.143	1754.04
1017.435	1762.4
1017.727	1723.08
1018.018	1742.51
1018.31	1707.26
1018.602	1737.77
1018.893	1726.24
1019.185	1688.95
1019.476	1665.22
1019.767	1660.03
1020.058	1671.33
1020.35	1683.76
1020.641	1656.19
1020.932	1616.41
1021.223	1602.18
1021.514	1597.66
1021.804	1589.75
1022.095	1594.27
1022.386	1602.85
1022.677	1614.6
1022.967	1580.93
1023.258	1535.28
1023.548	1534.38
1023.839	1538.22
1024.129	1532.12
1024.419	1536.41
1024.709	1509.97
1025	1495.29
1025.29	1492.8
1025.58	1439.24
1025.87	1465.46
1026.16	1466.81
1026.449	1448.96
1026.739	1453.93
1027.029	1431.11
1027.319	1408.51
1027.608	1420.26
1027.898	1404.89
1028.187	1410.54
1028.477	1366.48
1028.766	1392.69
1029.055	1361.28
1029.344	1374.61
1029.634	1340.71
1029.923	1347.94
1030.212	1320.37
1030.501	1317.89
1030.79	1308.17
1031.078	1296.42
1031.367	1279.7
1031.656	1284.22
1031.945	1297.78
1032.233	1283.54
1032.522	1248.96
1032.81	1215.07
1033.099	1243.54
1033.387	1239.7
1033.675	1209.64
1033.963	1191.11
1034.251	1222.52
1034.54	1187.5
1034.828	1168.74
1035.116	1165.58
1035.403	1179.59
1035.691	1179.14
1035.979	1148.85
1036.267	1121.06
1036.554	1110.44
1036.842	1130.1
1037.129	1129.87
1037.417	1123.54
1037.704	1117.89
1037.992	1105.01
1038.279	1108.18
1038.566	1099.36
1038.853	1099.36
1039.14	1099.36
