Data from copper_heatsink_FLMS001491_072.txt Node
Date: Tue Feb 07 10:50:32 GMT 2017
User: dcchb
Spectrometer: FLMS00149
Trigger mode: 0
Integration Time (sec): 2.000000E-2
Scans to average: 10
Electric dark correction enabled: true
Nonlinearity correction enabled: false
Boxcar width: 0
XAxis mode: Wavelengths
Number of Pixels in Spectrum: 2048
>>>>>Begin Spectral Data<<<<<
341.393	-23.63
341.776	-23.63
342.16	-23.63
342.543	-59.33
342.927	-69.5
343.31	-69.05
343.693	-67.47
344.077	-63.4
344.46	-69.5
344.843	-53.69
345.226	-39.45
345.61	-32.67
345.993	-20.69
346.376	-25.66
346.759	10.04
347.142	25.41
347.525	50.94
347.908	52.75
348.291	85.75
348.674	98.63
349.057	118.06
349.44	114.22
349.823	155.35
350.206	172.75
350.588	236.25
350.971	235.8
351.354	245.74
351.737	281
352.119	289.13
352.502	287.55
352.884	293.65
353.267	304.72
353.65	309.92
354.032	337.27
354.414	347.43
354.797	350.82
355.179	362.12
355.562	349.24
355.944	363.48
356.326	376.13
356.709	363.48
357.091	356.25
357.473	369.81
357.855	368.68
358.238	371.16
358.62	370.03
359.002	377.72
359.384	371.84
359.766	382.91
360.148	372.74
360.53	378.62
360.912	388.34
361.294	359.64
361.676	374.78
362.057	364.84
362.439	375.23
362.821	335.01
363.203	375.23
363.584	352.41
363.966	360.99
364.348	360.09
364.729	349.69
365.111	369.35
365.493	335.23
365.874	348.79
366.256	345.85
366.637	375.91
367.019	359.86
367.4	364.61
367.781	352.63
368.163	359.86
368.544	382.24
368.925	355.12
369.306	369.58
369.688	359.19
370.069	343.59
370.45	385.85
370.831	340.88
371.212	359.19
371.593	359.19
371.974	347.66
372.355	340.43
372.736	380.65
373.117	352.86
373.498	355.8
373.879	370.48
374.26	344.72
374.641	365.96
375.021	367.32
375.402	359.41
375.783	363.48
376.163	389.69
376.544	386.3
376.925	384.95
377.305	384.72
377.686	386.08
378.066	379.52
378.447	394.21
378.827	383.59
379.208	388.79
379.588	378.39
379.968	375.46
380.349	389.02
380.729	404.16
381.109	382.91
381.489	407.32
381.87	396.7
382.25	415.46
382.63	385.85
383.01	413.2
383.39	402.57
383.77	417.26
384.15	400.09
384.53	400.54
384.91	420.43
385.29	402.8
385.67	434.21
386.049	411.39
386.429	409.35
386.809	436.47
387.189	433.99
387.568	424.04
387.948	451.84
388.328	417.94
388.707	447.54
389.087	443.25
389.466	445.28
389.846	448
390.225	470.59
390.605	458.62
390.984	443.48
391.363	478.73
391.743	457.94
392.122	467.88
392.501	469.01
392.881	471.95
393.26	471.72
393.639	492.97
394.018	486.87
394.397	506.07
394.776	471.95
395.155	493.87
395.534	483.48
395.913	491.39
396.292	485.28
396.671	510.82
397.05	491.16
397.429	478.05
397.808	515.79
398.186	515.57
398.565	504.04
398.944	498.62
399.323	510.14
399.701	536.81
400.08	520.31
400.458	516.92
400.837	506.3
401.215	525.96
401.594	524.83
401.972	530.93
402.351	549.46
402.729	537.71
403.107	542.46
403.486	572.74
403.864	581.1
404.242	553.08
404.62	576.13
404.999	578.61
405.377	590.37
405.755	579.74
406.133	595.56
406.511	592.85
406.889	607.99
407.267	633.98
407.645	612.29
408.023	603.92
408.401	618.16
408.779	613.64
409.156	615.68
409.534	646.86
409.912	629.69
410.29	656.35
410.667	655.67
411.045	670.82
411.422	685.28
411.8	691.15
412.178	661.55
412.555	698.39
412.933	695.67
413.31	692.06
413.687	705.17
414.065	698.61
414.442	708.33
414.819	718.72
415.197	736.35
415.574	713.53
415.951	745.62
416.328	755.56
416.705	742.9
417.082	744.26
417.46	762.34
417.837	770.7
418.214	811.83
418.591	788.55
418.967	790.59
419.344	798.95
419.721	815.22
420.098	810.02
420.475	788.78
420.852	837.82
421.228	826.97
421.605	836.24
421.982	816.12
422.358	838.95
422.735	864.03
423.111	847.31
423.488	860.19
423.864	899.06
424.241	892.28
424.617	908.1
424.994	895.22
425.37	916.91
425.746	909.23
426.123	912.62
426.499	931.15
426.875	945.84
427.251	960.3
427.627	991.71
428.003	993.29
428.379	1000.07
428.756	1005.72
429.132	985.16
429.507	992.62
429.883	1021.77
430.259	1009.11
430.635	1047.75
431.011	1057.25
431.387	1056.12
431.763	1084.14
432.138	1095.21
432.514	1125.94
432.89	1105.83
433.265	1160.75
433.641	1177.47
434.016	1159.84
434.392	1163.91
434.767	1195.55
435.143	1180.86
435.518	1188.77
435.894	1217.47
436.269	1232.83
436.644	1251.82
437.02	1253.17
437.395	1288.43
437.77	1298.6
438.145	1271.48
438.52	1301.99
438.895	1316.45
439.271	1337.01
439.646	1363
440.021	1334.3
440.395	1377.92
440.77	1361.42
441.145	1364.36
441.52	1400.06
441.895	1378.37
442.27	1405.71
442.645	1409.55
443.019	1416.78
443.394	1470.79
443.769	1439.38
444.143	1422.43
444.518	1461.98
444.892	1467.18
445.267	1472.38
445.641	1500.85
446.016	1481.19
446.39	1528.65
446.764	1529.32
447.139	1534.97
447.513	1537.91
447.887	1544.69
448.262	1541.75
448.636	1553.96
449.01	1588.31
449.384	1593.73
449.758	1612.03
450.132	1672.37
450.506	1643.9
450.88	1650.45
451.254	1647.29
451.628	1681.64
452.002	1705.59
452.376	1727.06
452.75	1745.14
453.123	1740.17
453.497	1763.22
453.871	1820.39
454.244	1818.58
454.618	1807.51
454.992	1860.16
455.365	1850.22
455.739	1894.29
456.112	1949.2
456.486	1951.46
456.859	1966.15
457.232	2025.81
457.606	1993.94
457.979	2018.12
458.352	2036.88
458.725	2067.62
459.099	2097.9
459.472	2132.02
459.845	2128.4
460.218	2172.02
460.591	2206.59
460.964	2180.38
461.337	2245.92
461.71	2271.45
462.083	2320.49
462.456	2300.6
462.829	2340.6
463.201	2390.77
463.574	2391.67
463.947	2426.48
464.32	2432.8
464.692	2506.02
465.065	2487.94
465.438	2546.02
465.81	2601.39
466.183	2582.86
466.555	2675.28
466.928	2732.46
467.3	2673.02
467.672	2738.56
468.045	2796.86
468.417	2798.9
468.789	2839.57
469.161	2831.44
469.534	2859.68
469.906	2946.91
470.278	3005.9
470.65	3021.71
471.022	3066.46
471.394	3113.69
471.766	3120.02
472.138	3177.64
472.51	3247.7
472.882	3315.94
473.253	3330.41
473.625	3409.73
473.997	3433
474.369	3508.03
474.74	3508.93
475.112	3577.63
475.484	3623.51
475.855	3654.47
476.227	3732.88
476.598	3837.74
476.97	3830.51
477.341	3992.76
477.713	3961.58
478.084	4041.12
478.455	4147.56
478.827	4218.29
479.198	4262.59
479.569	4300.55
479.94	4410.83
480.311	4467.1
480.682	4530.6
481.053	4635.46
481.424	4708
481.795	4766.53
482.166	4830.93
482.537	4897.37
482.908	5008.33
483.279	5023.02
483.65	5138.49
484.021	5219.17
484.391	5256.01
484.762	5314.54
485.133	5395.21
485.503	5508.43
485.874	5572.16
486.244	5687.86
486.615	5769.89
486.985	5804.47
487.356	5904.8
487.726	6022.09
488.097	6115.87
488.467	6092.14
488.837	6252.36
489.207	6288.07
489.578	6431.34
489.948	6444.9
490.318	6510.21
490.688	6636.08
491.058	6680.83
491.428	6874.27
491.798	6906.58
492.168	7035.39
492.538	7059.8
492.908	7115.39
493.278	7224.77
493.648	7274.48
494.017	7361.04
494.387	7415.05
494.757	7543.4
495.126	7597.41
495.496	7632.67
495.866	7698.2
496.235	7770.06
496.605	7857.97
496.974	7926.67
497.344	8062.49
497.713	8100.22
498.082	8116.27
498.452	8185.19
498.821	8259.99
499.19	8368.47
499.559	8418.41
499.928	8440.1
500.298	8502.93
500.667	8579.76
501.036	8654.56
501.405	8700.21
501.774	8838.06
502.143	8836.02
502.512	8898.62
502.88	8983.59
503.249	8991.27
503.618	9081.89
503.987	9177.71
504.356	9187.43
504.724	9286.18
505.093	9353.07
505.462	9431.49
505.83	9448.21
506.199	9561.88
506.567	9762.1
506.936	9728.2
507.304	9840.52
507.672	9904.25
508.041	9969.55
508.409	10063.11
508.777	10115.77
509.145	10266.95
509.514	10319.83
509.882	10383.1
510.25	10403.44
510.618	10557.79
510.986	10547.84
511.354	10606.37
511.722	10757.33
512.09	10895.63
512.458	10899.02
512.826	11075.29
513.193	11117.77
513.561	11191.89
513.929	11246.36
514.297	11344.21
514.664	11427.6
515.032	11519.34
515.4	11628.72
515.767	11768.38
516.135	11810.64
516.502	11782.84
516.869	12003.63
517.237	12108.93
517.604	12084.53
517.972	12243.39
518.339	12398.64
518.706	12383.05
519.073	12521.8
519.44	12592.08
519.808	12786.2
520.175	12853.55
520.542	12983.71
520.909	13044.73
521.276	13178.96
521.643	13157.94
522.009	13387.32
522.376	13548.44
522.743	13654.88
523.11	13855.78
523.477	13975.78
523.843	14068.66
524.21	14166.96
524.577	14299.61
524.943	14414.18
525.31	14459.61
525.676	14663.22
526.043	14892.36
526.409	14871.8
526.776	15076.31
527.142	15149.31
527.508	15327.83
527.874	15436.3
528.241	15539.35
528.607	15662.51
528.973	15774.83
529.339	15854.37
529.705	15965.78
530.071	16193.8
530.437	16270.41
530.803	16370.74
531.169	16517.63
531.535	16626.55
531.901	16620.23
532.267	16784.29
532.632	16950.61
532.998	17060.44
533.364	17201.45
533.73	17275.58
534.095	17452.52
534.461	17541.56
534.826	17685.28
535.192	17706.75
535.557	17928.89
535.923	18036.69
536.288	18077.59
536.653	18241.43
537.019	18217.25
537.384	18381.31
537.749	18537.24
538.114	18618.14
538.479	18685.26
538.845	18857.23
539.21	18789.21
539.575	19017.23
539.94	19157.79
540.305	19236.88
540.67	19327.73
541.034	19451.56
541.399	19607.94
541.764	19648.62
542.129	19844.55
542.494	19887.49
542.858	19990.53
543.223	20113.47
543.587	20310.3
543.952	20410.41
544.316	20437.98
544.681	20550.07
545.045	20785.54
545.41	20950.28
545.774	21120.45
546.138	21108.92
546.503	21277.73
546.867	21365.64
547.231	21688.57
547.595	21736.48
547.959	21920.2
548.324	22048.78
548.688	22108.22
549.052	22347.76
549.416	22408.78
549.779	22459.85
550.143	22622.78
550.507	22927.41
550.871	23037.23
551.235	23182.09
551.599	23424.57
551.962	23483.55
552.326	23661.17
552.689	23921.28
553.053	23901.17
553.417	24121.05
553.78	24579.57
554.143	24524.65
554.507	24786.34
554.87	24899.78
555.234	25319.66
555.597	25254.35
555.96	25588.8
556.323	25877.16
556.686	25948.8
557.05	26190.82
557.413	26497.03
557.776	26638.27
558.139	26876.68
558.502	27017.69
558.865	27383.33
559.228	27493.61
559.59	27776.77
559.953	28110.55
560.316	28429.41
560.679	28570.42
561.041	28983.97
561.404	29306.45
561.767	29613.33
562.129	29608.81
562.492	30137.39
562.854	30258.74
563.217	30531.05
563.579	30830.93
563.941	31234.08
564.304	31474.07
564.666	31728.08
565.028	32033.38
565.39	32333.71
565.753	32684.44
566.115	32905
566.477	33169.62
566.839	33441.48
567.201	33889.6
567.563	34118.52
567.925	34506.08
568.287	34819.97
568.648	35067.43
569.01	35471.26
569.372	35795.77
569.734	35790.8
570.095	36405.92
570.457	36696.54
570.819	36995.06
571.18	37237.99
571.542	37629.84
571.903	37774.25
572.265	38191.19
572.626	38460.78
572.987	38670.27
573.349	39148.67
573.71	39385.5
574.071	39691.26
574.432	40057.35
574.794	40415.53
575.155	40605.58
575.516	40597
575.877	41080.6
576.238	41368.95
576.599	41686.69
576.96	41989.5
577.32	42101.82
577.681	42492.99
578.042	42705.19
578.403	43041.9
578.763	43312.41
579.124	43457.26
579.485	43974.76
579.845	44052.5
580.206	44184.47
580.566	44341.08
580.927	44709.88
581.287	44905.58
581.648	44924.79
582.008	45321.62
582.368	45282.98
582.728	45675.51
583.089	45642.51
583.449	45949.4
583.809	46134.48
584.169	46361.59
584.529	46435.71
584.889	46896.27
585.249	46728.81
585.609	46968.58
585.969	47247.67
586.329	47353.66
586.688	47366.76
587.048	47601.33
587.408	47720.65
587.768	47766.98
588.127	47946.18
588.487	48061.21
588.846	48415.55
589.206	48249.23
589.565	48547.97
589.925	48929.89
590.284	48732.6
590.643	48915.2
591.003	49148.86
591.362	49436.54
591.721	49440.61
592.08	49599.47
592.44	49613.48
592.799	49859.13
593.158	49919.69
593.517	50039.24
593.876	50201.72
594.235	50213.02
594.593	50361.03
594.952	50511.77
595.311	50566.68
595.67	50708.37
596.029	51028.14
596.387	51156.72
596.746	51270.39
597.104	51335.7
597.463	51274
597.822	51523.49
598.18	51541.79
598.538	51553.55
598.897	51902.91
599.255	51789.47
599.613	52316.46
599.972	52102.01
600.33	52287.09
600.688	52292.74
601.046	52481.88
601.404	52661.09
601.762	52629
602.12	52913.28
602.478	52902.89
602.836	53072.83
603.194	52983.56
603.552	53158.93
603.91	53167.51
604.268	53529.54
604.625	53439.15
604.983	53644.79
605.341	53651.12
605.698	53763.43
606.056	53903.99
606.413	53972.47
606.771	54217.88
607.128	54217.66
607.485	54220.37
607.843	54249.97
608.2	54608.15
608.557	54762.95
608.914	54730.41
609.272	54917.07
609.629	54989.61
609.986	55200
610.343	55163.17
610.7	55376.5
611.057	55410.17
611.414	55389.38
611.771	55590.5
612.127	55808.57
612.484	55787.78
612.841	55896.26
613.198	55821.68
613.554	55970.6
613.911	56153.65
614.267	56216.25
614.624	56243.59
614.98	56356.81
615.337	56558.16
615.693	56624.37
616.05	56595.9
616.406	56798.61
616.762	56806.06
617.118	56922.44
617.475	56982.1
617.831	57097.58
618.187	57134.42
618.543	57176.22
618.899	57439.27
619.255	57386.61
619.611	57409.66
619.967	57617.11
620.323	57674.97
620.678	57588.64
621.034	57688.75
621.39	57735.53
621.746	57766.26
622.101	57997.9
622.457	57913.83
622.812	57997.67
623.168	58134.62
623.523	58148.63
623.879	58311.56
624.234	58161.96
624.589	58351.33
624.945	58396.76
625.3	58481.05
625.655	58504.55
626.01	58521.72
626.365	58600.14
626.72	58586.36
627.075	58753.58
627.43	58725.33
627.785	58811.66
628.14	58922.17
628.495	58966.91
628.85	58876.74
629.205	58846.24
629.559	59027.93
629.914	58989.06
630.269	59079.22
630.623	59013.01
630.978	59042.61
631.332	59198.54
631.687	59330.06
632.041	59170.07
632.396	59282.16
632.75	59220.24
633.104	59349.27
633.459	59265.21
633.813	59307.92
634.167	59374.36
634.521	59393.57
634.875	59457.74
635.229	59432.43
635.583	59377.97
635.937	59374.58
636.291	59472.89
636.645	59547.69
636.999	59466.33
637.352	59600.11
637.706	59514.01
638.06	59705.65
638.413	59665.2
638.767	59639.21
639.121	59718.98
639.474	59550.17
639.828	59618.64
640.181	59769.6
640.534	59796.27
640.888	59743.16
641.241	59677.63
641.594	59794.46
641.947	59867
642.301	59871.29
642.654	59884.17
643.007	59912.2
643.36	59921.69
643.713	59894.8
644.066	59991.29
644.419	59896.38
644.771	59897.96
645.124	59752.65
645.477	59800.56
645.83	59582.71
646.182	59546.33
646.535	59430.63
646.888	59479.66
647.24	59309.27
647.593	59516.73
647.945	59490.29
648.298	59437.63
648.65	59395.15
649.002	59404.19
649.355	59544.07
649.707	59640.79
650.059	59804.18
650.411	60149.03
650.763	60152.87
651.115	60381.79
651.467	60374.56
651.819	60412.3
652.171	60380.21
652.523	60355.8
652.875	60351.73
653.227	60386.53
653.578	60568.9
653.93	60494.78
654.282	60522.35
654.633	60501.33
654.985	60580.65
655.337	60612.74
655.688	60647.54
656.039	60741.33
656.391	60570.03
656.742	60668.33
657.094	60771.83
657.445	60801.66
657.796	60772.06
658.147	60795.34
658.498	60836.69
658.849	60882.79
659.2	60876.46
659.551	60852.96
659.902	60959.85
660.253	60922.79
660.604	61042.34
660.955	61046.4
661.306	61105.84
661.656	61066.52
662.007	61107.19
662.358	61125.72
662.708	61150.36
663.059	61200.52
663.409	61100.87
663.76	61278.04
664.11	61331.37
664.461	61374.08
664.811	61296.57
665.161	61379.73
665.511	61353.97
665.862	61459.05
666.212	61486.84
666.562	61554.86
666.912	61538.82
667.262	61498.37
667.612	61556.9
667.962	61592.6
668.312	61630.79
668.662	61799.6
669.011	61711.24
669.361	61751.24
669.711	61793.28
670.06	61815.2
670.41	61823.11
670.76	61795.54
671.109	61870.79
671.459	61945.14
671.808	61889.09
672.157	62035.98
672.507	61849.55
672.856	61921.41
673.205	62007.96
673.554	62111.46
673.904	62000.05
674.253	62161.18
674.602	62109.65
674.951	61844.8
675.3	61771.13
675.649	62188.52
675.998	62122.53
676.346	62164.11
676.695	62286.82
677.044	62146.71
677.393	62289.31
677.741	62278.91
678.09	62305.13
678.438	62258.12
678.787	62362.53
679.135	62367.5
679.484	62278.91
679.832	62339.25
680.181	62282.3
680.529	62360.49
680.877	62400.04
681.225	62329.31
681.573	62461.96
681.922	62342.19
682.27	62308.29
682.618	62378.57
682.966	62377.44
683.314	62428.29
683.661	62413.83
684.009	62346.93
684.357	62301.74
684.705	62282.76
685.053	62384.67
685.4	62398.01
685.748	62308.07
686.095	62390.1
686.443	62319.14
686.79	62317.78
687.138	62409.08
687.485	62434.62
687.832	62361.85
688.18	62415.63
688.527	62297.67
688.874	62370.66
689.221	62378.57
689.568	62339.48
689.915	62242.98
690.262	62341.06
690.609	62279.82
690.956	62226.71
691.303	62250.89
691.65	62140.39
691.997	62118.92
692.344	62021.29
692.69	62061.29
693.037	62100.84
693.383	61940.84
693.73	62075.08
694.077	61915.76
694.423	61951.01
694.769	61978.36
695.116	61874.63
695.462	61904.01
695.808	61919.37
696.155	61961.63
696.501	61833.05
696.847	61805.25
697.193	61844.35
697.539	61884.57
697.885	61822.43
698.231	61791.24
698.577	61810.68
698.923	61874.18
699.269	61707.4
699.614	61651.36
699.96	61589.67
700.306	61659.72
700.651	61489.33
700.997	61471.7
701.342	61472.83
701.688	61498.14
702.033	61519.84
702.379	61464.02
702.724	61467.64
703.069	61583.34
703.415	61363.91
703.76	61408.65
704.105	61473.96
704.45	61428.09
704.795	61256.34
705.14	61222.22
705.485	61206.85
705.83	61182.22
706.175	61207.98
706.52	61262.67
706.865	61121.66
707.209	61183.57
707.554	61156.46
707.899	61185.38
708.243	61134.31
708.588	61092.96
708.932	60989.68
709.277	60974.31
709.621	61091.37
709.966	60957.14
710.31	61086.4
710.654	60878.05
710.998	60927.76
711.342	60972.06
711.687	60918.5
712.031	60879.18
712.375	60902.68
712.719	60860.19
713.063	60873.53
713.407	60990.36
713.75	60816.58
714.094	60847.76
714.438	60758.5
714.782	60745.39
715.125	60708.79
715.469	60860.19
715.812	60682.57
716.156	60645.74
716.499	60665.85
716.843	60776.13
717.186	60662.91
717.53	60797.37
717.873	60801.44
718.216	60742.68
718.559	60631.95
718.902	60452.52
719.246	60620.88
719.589	60586.08
719.932	60628.11
720.275	60583.59
720.617	60564.38
720.96	60620.65
721.303	60573.42
721.646	60603.03
721.989	60519.41
722.331	60565.74
722.674	60433.31
723.016	60593.08
723.359	60575.91
723.701	60516.47
724.044	60424.95
724.386	60375.69
724.729	60525.74
725.071	60493.2
725.413	60489.58
725.755	60461.79
726.097	60406.42
726.439	60279.87
726.782	60352.41
727.124	60522.8
727.465	60360.09
727.807	60363.71
728.149	60316.93
728.491	60369.58
728.833	60435.57
729.175	60401.22
729.516	60367.1
729.858	60363.48
730.199	60449.58
730.541	60359.87
730.882	60389.02
731.224	60507.21
731.565	60251.4
731.906	60312.41
732.248	60381.79
732.589	60301.56
732.93	60229.25
733.271	60332.07
733.612	60286.65
733.953	60426.76
734.294	60320.55
734.635	60290.94
734.976	60337.04
735.317	60240.55
735.658	60331.62
735.999	60315.58
736.339	60235.13
736.68	60389.47
737.021	60239.87
737.361	60237.16
737.702	60276.25
738.042	60234.22
738.383	60204.62
738.723	60264.73
739.063	60198.06
739.404	60337.5
739.744	60292.75
740.084	60239.19
740.424	60305.18
740.764	60279.87
741.104	60384.73
741.444	60242.36
741.784	60201.45
742.124	60272.86
742.464	60229.02
742.804	60213.88
743.143	60096.82
743.483	60244.39
743.823	60060.21
744.162	60139.31
744.502	60137.27
744.841	60088.46
745.181	60243.49
745.52	60098.86
745.86	60289.81
746.199	60219.53
746.538	60191.28
746.877	60221.57
747.216	60242.36
747.556	60217.95
747.895	60229.48
748.234	60140.89
748.573	60090.04
748.911	60192.19
749.25	60157.16
749.589	60096.6
749.928	60111.51
750.267	60177.5
750.605	60049.59
750.944	60027.22
751.283	59973.89
751.621	60111.74
751.96	59836.94
752.298	59855.7
752.636	59947.9
752.975	59787.68
753.313	59814.57
753.651	59920.11
753.989	59780.22
754.327	59720.34
754.666	59683.05
755.004	59784.97
755.342	59798.3
755.679	59730.05
756.017	59633.11
756.355	59815.48
756.693	59606.89
757.031	59740.9
757.368	59573.22
757.706	59483.96
758.044	59459.55
758.381	59466.56
758.719	59353.11
759.056	59514.47
759.394	59404.41
759.731	59318.31
760.068	59364.87
760.405	59289.16
760.743	59287.35
761.08	59291.2
761.417	59011.88
761.754	59111.31
762.091	59041.71
762.428	58983.86
762.765	58878.1
763.102	59027.47
763.438	58879.68
763.775	58825.44
764.112	58895.73
764.449	58916.97
764.785	58899.12
765.122	58738.67
765.458	58656.18
765.795	58608.05
766.131	58637.2
766.467	58550.42
766.804	58492.57
767.14	58442.18
767.476	58415.96
767.812	58347.72
768.148	58427.04
768.485	58255.52
768.821	58165.35
769.157	58145.46
769.492	58142.52
769.828	58165.12
770.164	57921.97
770.5	57895.98
770.836	57876.54
771.171	57816.43
771.507	57762.65
771.842	57586.83
772.178	57674.29
772.513	57610.79
772.849	57545.93
773.184	57452.83
773.519	57496.89
773.855	57359.27
774.19	57284.47
774.525	57270.01
774.86	57194.98
775.195	57140.29
775.53	57128.09
775.865	56955.66
776.2	56862.78
776.535	56792.05
776.87	56757.25
777.205	56657.14
777.539	56498.05
777.874	56553.64
778.209	56403.59
778.543	56346.19
778.878	56265.96
779.212	56354.1
779.547	56102.13
779.881	56367.66
780.215	56126.53
780.55	56214.44
780.884	56021.9
781.218	55922.92
781.552	56098.96
781.886	56000.66
782.22	55876.6
782.554	55668.01
782.888	55434.8
783.222	55484.29
783.556	55396.38
783.889	55358.64
784.223	55217.86
784.557	55233.67
784.89	55173.79
785.224	54959.11
785.557	54874.36
785.891	54896.06
786.224	54784.2
786.558	54824.87
786.891	54661.94
787.224	54566.12
787.557	54527.48
787.891	54478.67
788.224	54547.59
788.557	54536.97
788.89	54468.27
789.223	54483.86
789.556	54242.74
789.888	54306.02
790.221	54189.63
790.554	53917.55
790.887	53970.43
791.219	53926.82
791.552	53829.19
791.884	53658.57
792.217	53600.27
792.549	53554.85
792.882	53371.58
793.214	53157.12
793.546	53388.75
793.879	53121.87
794.211	53079.61
794.543	53154.86
794.875	53131.58
795.207	53266.95
795.539	53163.22
795.871	53110.34
796.203	52817.02
796.535	52746.96
796.867	52779.05
797.198	52600.52
797.53	52658.38
797.862	52487.31
798.193	52556.01
798.525	52363.92
798.856	52466.06
799.188	52043.25
799.519	51944.95
799.85	51870.15
800.182	52012.06
800.513	51914.67
800.844	51699.08
801.175	51919.64
801.506	51928.23
801.837	51720.32
802.168	51673.32
802.499	51595.13
802.83	51389.48
803.161	51283.04
803.491	51392.19
803.822	51541.57
804.153	51335.47
804.483	51062.03
804.814	50883.51
805.145	50763.51
805.475	50851.19
805.805	50757.18
806.136	50937.29
806.466	51037.4
806.796	50865.88
807.126	50560.58
807.457	50543.18
807.787	50641.25
808.117	50320.13
808.447	50319.68
808.777	50347.48
809.107	50248.04
809.436	50207.82
809.766	50241.72
810.096	50032
810.426	50003.3
810.755	50065.45
811.085	49855.06
811.414	49797.43
811.744	49652.13
812.073	49635.18
812.403	49669.3
812.732	49495.75
813.061	49572.58
813.39	49423.43
813.719	49599.02
814.049	49811.67
814.378	49491.23
814.707	49448.29
815.036	49230.22
815.365	49104.57
815.693	48955.2
816.022	49147.96
816.351	49062.31
816.68	48782.55
817.008	48955.87
817.337	48695.99
817.665	48630.68
817.994	48704.13
818.322	48617.13
818.651	48498.26
818.979	48410.13
819.307	48645.6
819.636	48588.2
819.964	48330.81
820.292	48547.07
820.62	48394.53
820.948	48348.66
821.276	48532.38
821.604	48366.96
821.932	48455.77
822.259	48580.52
822.587	48618.93
822.915	48376
823.243	48694.19
823.57	48635.66
823.898	48587.52
824.225	48609.22
824.553	48548.43
824.88	48771.92
825.207	48853.28
825.535	48656.45
825.862	48796.33
826.189	48637.92
826.516	48839.27
826.843	49079.26
827.17	49093.95
827.497	49135.3
827.824	49034.74
828.151	49121.07
828.478	49042.43
828.805	49154.74
829.131	48907.97
829.458	48862.54
829.785	48789.78
830.111	48942.99
830.438	49243.1
830.764	49104.57
831.09	49299.37
831.417	49045.36
831.743	49289.42
832.069	49265.47
832.395	49111.35
832.722	49211.23
833.048	49194.96
833.374	49340.72
833.7	49170.78
834.026	49284
834.351	49319.71
834.677	49211.69
835.003	49221.86
835.329	49222.53
835.654	49053.27
835.98	48960.62
836.306	49109.32
836.631	49008.3
836.956	49177.11
837.282	49217.34
837.607	49162.42
837.932	49018.92
838.258	48984.12
838.583	48873.84
838.908	48693.28
839.233	48978.02
839.558	48689.21
839.883	48664.81
840.208	48647.18
840.533	48837.23
840.858	48752.26
841.182	48743
841.507	48640.18
841.832	48439.96
842.156	48509.11
842.481	48414.42
842.805	48338.26
843.13	48195.67
843.454	48221.2
843.778	48118.16
844.103	48021.66
844.427	47931.72
844.751	47872.96
845.075	47801.1
845.399	47787.99
845.723	47613.31
846.047	47831.16
846.371	47475.01
846.695	47594.33
847.019	47402.02
847.343	47335.58
847.666	47127.9
847.99	46922.71
848.313	46893.1
848.637	46482.27
848.96	46470.97
849.284	46468.03
849.607	46071.2
849.931	46061.03
850.254	46002.05
850.577	45899.01
850.9	45582.86
851.223	45426.02
851.546	45226.03
851.869	45104
852.192	45399.81
852.515	44990.33
852.838	44879.82
853.161	44970.67
853.483	44885.7
853.806	44699.26
854.129	44646.16
854.451	44595.08
854.774	44329.55
855.096	44435.09
855.419	44206.17
855.741	44222.66
856.063	43816.8
856.385	43986.29
856.708	43787.87
857.03	43728.89
857.352	43660.19
857.674	43576.13
857.996	43451.39
858.318	43188.57
858.64	43284.16
858.961	43155.57
859.283	43191.05
859.605	43017.27
859.926	43128.68
860.248	42957.16
860.57	42891.63
860.891	42879.88
861.212	42699.32
861.534	42587.68
861.855	42496.83
862.176	42556.04
862.498	42574.35
862.819	42759.2
863.14	42480.11
863.461	42480.79
863.782	42261.81
864.103	42333
864.424	42355.14
864.745	42543.16
865.065	42278.54
865.386	42185.66
865.707	42262.72
866.027	42243.51
866.348	42136.39
866.668	42152.66
866.989	42009.84
867.309	41778.89
867.63	41854.14
867.95	41980.01
868.27	41755.84
868.59	41806.01
868.91	41840.35
869.23	41551.77
869.55	41601.26
869.87	41804.2
870.19	41733.46
870.51	41655.73
870.83	41654.14
871.15	41278.11
871.469	41445.11
871.789	41671.77
872.109	41613.47
872.428	41404.89
872.748	41561.04
873.067	41543.87
873.386	41444.21
873.706	41350.42
874.025	41173.03
874.344	41155.85
874.663	41341.84
874.982	41339.8
875.301	41249.86
875.62	41138.9
875.939	41055.06
876.258	40963.99
876.577	40950.21
876.896	41027.95
877.214	40713.83
877.533	40936.42
877.852	40839.48
878.17	40750.67
878.489	40919.02
878.807	40864.34
879.125	40755.86
879.444	40638.8
879.762	40417.34
880.08	40520.84
880.398	40405.14
880.716	40412.82
881.034	40465.48
881.352	40541.18
881.67	40342.77
881.988	40459.83
882.306	40279.04
882.624	40273.16
882.941	39977.13
883.259	39959.27
883.577	40025.71
883.894	40031.36
884.212	40098.48
884.529	39775.78
884.846	39869.56
885.164	39833.18
885.481	39594.54
885.798	39641.32
886.115	39224.38
886.432	39319.97
886.75	39241.78
887.067	39243.59
887.383	39066.42
887.7	39106.19
888.017	38895.8
888.334	38974.22
888.651	39011.28
888.967	38818.51
889.284	38727.89
889.6	38679.99
889.917	38468.92
890.233	38436.6
890.55	38422.59
890.866	38435.47
891.182	38153.45
891.498	37954.58
891.815	37969.5
892.131	37991.19
892.447	37853.79
892.763	37606.12
893.079	37505.78
893.395	37535.38
893.71	37336.29
894.026	37199.57
894.342	37295.62
894.657	37060.14
894.973	37142.17
895.289	37146.92
895.604	37054.72
895.92	36808.4
896.235	36727.49
896.55	36852.69
896.865	36648.63
897.181	36687.04
897.496	36624.67
897.811	36572.92
898.126	36482.3
898.441	36263.1
898.756	36106.04
899.071	36102.88
899.386	36112.82
899.7	35695.66
900.015	35674.42
900.33	35568.88
900.644	35383.35
900.959	35395.78
901.273	35292.28
901.588	35140.64
901.902	35138.84
902.216	35079.63
902.531	34884.83
902.845	34965.06
903.159	34593.77
903.473	34549.47
903.787	34345.86
904.101	34197.62
904.415	34268.58
904.729	34150.16
905.042	33989.04
905.356	33877.4
905.67	33873.78
905.984	33834.69
906.297	33590.63
906.611	33294.82
906.924	33438.54
907.237	33343.4
907.551	33230.64
907.864	33277.87
908.177	33158.78
908.491	32945
908.804	32658.68
909.117	32599.47
909.43	32435.18
909.743	32373.03
910.056	32301.85
910.368	32134.17
910.681	32149.54
910.994	31847.85
911.307	32090.1
911.619	31747.74
911.932	31766.95
912.244	31561.75
912.557	31512.04
912.869	31169.45
913.181	31386.84
913.494	31016.91
913.806	30934.88
914.118	31030.02
914.43	30623.25
914.742	30673.19
915.054	30410.15
915.366	30383.25
915.678	30226.42
915.99	30225.74
916.302	30105.3
916.613	29982.36
916.925	30010.61
917.236	29918.18
917.548	29767
917.859	29858.75
918.171	29614.69
918.482	29444.07
918.794	29313.45
919.105	29327.92
919.416	29100.8
919.727	29120.01
920.038	28946.46
920.349	28752.79
920.66	28532.91
920.971	28568.84
921.282	28433.48
921.593	28252.69
921.903	28171.11
922.214	28148.29
922.525	28025.58
922.835	27984.67
923.146	27826.03
923.456	27774.96
923.767	27549.43
924.077	27591.92
924.387	27519.83
924.697	27360.96
925.008	27299.72
925.318	27272.6
925.628	27207.97
925.938	27024.02
926.248	26651.15
926.558	26771.6
926.867	26598.04
927.177	26535.67
927.487	26342.23
927.796	26005.74
928.106	26097.49
928.416	25922.81
928.725	25887.1
929.034	25817.5
929.344	25874.67
929.653	25842.13
929.962	25609.59
930.271	25378.41
930.581	25421.13
930.89	25268.81
931.199	25180
931.508	25148.59
931.817	25107.69
932.125	24950.18
932.434	24944.53
932.743	24554.71
933.051	24500.47
933.36	24461.38
933.669	24320.36
933.977	24247.14
934.286	24330.08
934.594	24163.53
934.902	23955.63
935.21	23898
935.519	23883.76
935.827	23829.98
936.135	23766.71
936.443	23658.69
936.751	23331.24
937.059	23418.92
937.367	23430.44
937.674	23477.67
937.982	23391.35
938.29	23311.35
938.597	23165.14
938.905	22851.93
939.213	22789.56
939.52	22678.37
939.827	22627.53
940.135	22449.9
940.442	22468.21
940.749	22359.74
941.056	22541.43
941.363	22312.51
941.67	22121.33
941.977	22127.65
942.284	21904.83
942.591	21826.64
942.898	21707.55
943.205	21690.6
943.511	21524.05
943.818	21477.5
944.125	21411.74
944.431	21252.65
944.738	21194.34
945.044	21047.23
945.35	21043.61
945.657	20932.43
945.963	20898.08
946.269	20686.33
946.575	20690.63
946.881	20626.9
947.187	20398.43
947.493	20445.66
947.799	20356.63
948.105	20164.99
948.41	20160.47
948.716	20027.14
949.022	19974.94
949.327	20056.29
949.633	19828.28
949.938	19811.33
950.244	19685.01
950.549	19480.04
950.854	19422.64
951.16	19424.22
951.465	19350.55
951.77	19281.4
952.075	19159.37
952.38	19085.7
952.685	19109.88
952.99	18985.36
953.294	18900.62
953.599	18884.8
953.904	18744.24
954.209	18666.5
954.513	18664.69
954.818	18384.25
955.122	18400.74
955.426	18452.72
955.731	18286.17
956.035	18180.86
956.339	18158.04
956.643	18012.51
956.948	17958.95
957.252	17893.41
957.556	17842.57
957.86	17669.01
958.163	17672.85
958.467	17568.9
958.771	17490.94
959.075	17440.77
959.378	17242.13
959.682	17281.23
959.985	17190.16
960.289	17164.62
960.592	17007.56
960.896	16916.04
961.199	16927.34
961.502	16984.96
961.805	16837.85
962.108	16731.64
962.411	16747
962.714	16643.73
963.017	16617.29
963.32	16634.69
963.623	16518.76
963.926	16409.16
964.228	16269.73
964.531	16184.53
964.833	16299.56
965.136	16063.41
965.438	16042.39
965.741	16039.9
966.043	16041.03
966.345	15850.3
966.648	15807.59
966.95	15731.21
967.252	15576.64
967.554	15521.95
967.856	15483.76
968.158	15424.55
968.46	15391.11
968.761	15370.77
969.063	15246.25
969.365	15097.1
969.666	15076.99
969.968	14919.93
970.269	14936.2
970.571	14866.6
970.872	14843.1
971.174	14683.55
971.475	14709.32
971.776	14629.77
972.077	14479.27
972.378	14526.27
972.679	14399.27
972.98	14348.42
973.281	14229.56
973.582	14192.27
973.883	14084.25
974.183	13920.86
974.484	13986.17
974.785	13973.52
975.085	13984.82
975.386	13863.01
975.686	13746.63
975.986	13782.79
976.287	13689.91
976.587	13585.5
976.887	13453.08
977.187	13577.14
977.487	13486.07
977.787	13318.39
978.087	13333.76
978.387	13254.21
978.687	13198.17
978.987	13085.63
979.286	12944.62
979.586	13035.69
979.885	12985.07
980.185	12757.5
980.484	12874.34
980.784	12717.73
981.083	12758.41
981.382	12635.02
981.682	12558.86
981.981	12532.2
982.28	12522.03
982.579	12445.2
982.878	12470.05
983.177	12380.34
983.475	12354.12
983.774	12221.25
984.073	12279.78
984.372	12059.22
984.67	12167.01
984.969	12066
985.267	12034.36
985.566	11937.19
985.864	11867.58
986.162	11875.49
986.461	11795.49
986.759	11769.96
987.057	11657.42
987.355	11518.89
987.653	11523.64
987.951	11487.25
988.249	11347.6
988.547	11343.53
988.844	11306.69
989.142	11336.3
989.44	11146.02
989.737	11163.65
990.035	11059.24
990.332	11070.54
990.63	10990.09
990.927	10919.59
991.224	10923.43
991.521	10864.22
991.819	10826.25
992.116	10760.04
992.413	10724.56
992.71	10603.66
993.006	10563.89
993.303	10575.87
993.6	10470.78
993.897	10414.06
994.193	10405.02
994.49	10228.53
994.787	10292.03
995.083	10248.87
995.379	10193.28
995.676	10097.23
995.972	10065.6
996.268	9941.08
996.565	9964.36
996.861	9914.19
997.157	9791.71
997.453	9832.83
997.749	9713.74
998.044	9673.52
998.34	9691.14
998.636	9573.63
998.932	9549
999.227	9459.74
999.523	9446.86
999.818	9482.56
1000.114	9287.31
1000.409	9245.96
1000.704	9231.72
1001	9180.65
1001.295	9130.93
1001.59	9142.01
1001.885	9077.15
1002.18	9032.86
1002.475	8916.47
1002.77	8874.67
1003.065	8814.56
1003.359	8795.12
1003.654	8702.69
1003.949	8687.55
1004.243	8637.16
1004.538	8559.42
1004.832	8545.41
1005.127	8422.25
1005.421	8411.18
1005.715	8402.36
1006.009	8300.9
1006.304	8302.03
1006.598	8247.57
1006.892	8150.39
1007.186	8100.9
1007.48	8092.77
1007.773	8040.11
1008.067	7933
1008.361	7868.59
1008.655	7865.88
1008.948	7815.26
1009.242	7791.31
1009.535	7685.09
1009.829	7658.65
1010.122	7610.75
1010.415	7493.01
1010.708	7480.13
1011.001	7414.82
1011.295	7368.49
1011.588	7382.96
1011.881	7256.63
1012.173	7217.54
1012.466	7221.6
1012.759	7139.8
1013.052	7064.32
1013.344	7021.16
1013.637	7034.26
1013.93	6958.11
1014.222	6943.87
1014.514	6919.24
1014.807	6844.89
1015.099	6803.08
1015.391	6814.83
1015.683	6763.54
1015.976	6646.93
1016.268	6624.56
1016.56	6578.46
1016.851	6487.84
1017.143	6505.46
1017.435	6437.44
1017.727	6404.9
1018.018	6408.74
1018.31	6356.32
1018.602	6322.42
1018.893	6259.14
1019.185	6176.66
1019.476	6080.16
1019.767	6137.79
1020.058	6052.82
1020.35	5992.48
1020.641	5919.27
1020.932	5880.17
1021.223	5836.78
1021.514	5783.45
1021.804	5719.04
1022.095	5740.74
1022.386	5696.67
1022.677	5646.28
1022.967	5611.7
1023.258	5599.73
1023.548	5523.57
1023.839	5508.43
1024.129	5401.99
1024.419	5361.54
1024.709	5319.73
1025	5288.1
1025.29	5269.79
1025.58	5180.53
1025.87	5183.01
1026.16	5165.16
1026.449	5161.32
1026.739	5131.04
1027.029	5047.2
1027.319	5035.67
1027.608	4952.74
1027.898	4938.73
1028.187	4929.69
1028.477	4834.32
1028.766	4824.15
1029.055	4751.84
1029.344	4776.92
1029.634	4697.38
1029.923	4639.07
1030.212	4655.34
1030.501	4591.16
1030.79	4544.16
1031.078	4545.52
1031.367	4428.23
1031.656	4416.93
1031.945	4439.98
1032.233	4355.69
1032.522	4320.44
1032.81	4343.04
1033.099	4308.01
1033.387	4221.23
1033.675	4166.54
1033.963	4159.09
1034.251	4186.43
1034.54	4098.07
1034.828	4064.4
1035.116	4047.45
1035.403	4022.14
1035.691	3996.6
1035.979	3940.33
1036.267	3852.65
1036.554	3879.54
1036.842	3867.34
1037.129	3769.72
1037.417	3782.82
1037.704	3712.09
1037.992	3689.95
1038.279	3687.69
1038.566	3642.94
1038.853	3642.94
1039.14	3642.94
