Data from copper_heatsink_FLMS001491_040.txt Node
Date: Tue Feb 07 10:49:51 GMT 2017
User: dcchb
Spectrometer: FLMS00149
Trigger mode: 0
Integration Time (sec): 2.000000E-2
Scans to average: 10
Electric dark correction enabled: true
Nonlinearity correction enabled: false
Boxcar width: 0
XAxis mode: Wavelengths
Number of Pixels in Spectrum: 2048
>>>>>Begin Spectral Data<<<<<
341.393	-29
341.776	-29
342.16	-29
342.543	-55.66
342.927	-76
343.31	-64.48
343.693	-74.87
344.077	-42.78
344.46	-58.83
344.843	-63.57
345.226	-44.14
345.61	-23.35
345.993	-33.74
346.376	-16.34
346.759	14.17
347.142	50.78
347.525	33.15
347.908	54.17
348.291	67.95
348.674	87.61
349.057	114.28
349.44	127.61
349.823	145.91
350.206	160.15
350.588	222.75
350.971	236.53
351.354	251.45
351.737	240.83
352.119	275.18
352.502	271.56
352.884	293.26
353.267	284.89
353.65	291.67
354.032	315.4
354.414	330.09
354.797	305.91
355.179	326.93
355.562	359.92
355.944	353.82
356.326	346.59
356.709	346.36
357.091	362.41
357.473	382.07
357.855	355.4
358.238	354.04
358.62	352.46
359.002	356.98
359.384	361.5
359.766	355.4
360.148	361.73
360.53	354.72
360.912	352.91
361.294	347.26
361.676	347.94
362.057	356.98
362.439	371.22
362.821	348.17
363.203	344.33
363.584	338.9
363.966	335.51
364.348	354.95
364.729	331.67
365.111	335.97
365.493	342.29
365.874	349.3
366.256	332.8
366.637	320.37
367.019	342.97
367.4	335.29
367.781	343.42
368.163	338.45
368.544	327.15
368.925	333.71
369.306	346.13
369.688	335.06
370.069	343.2
370.45	305.23
370.831	328.28
371.212	341.16
371.593	338.68
371.974	309.98
372.355	353.59
372.736	328.51
373.117	336.87
373.498	357.21
373.879	346.36
374.26	347.72
374.641	332.35
375.021	344.78
375.402	333.71
375.783	340.71
376.163	348.62
376.544	363.54
376.925	367.6
377.305	361.95
377.686	350.88
378.066	367.83
378.447	353.59
378.827	358.79
379.208	372.12
379.588	358.79
379.968	339.58
380.349	383.65
380.729	358.34
381.109	357.43
381.489	364.21
381.87	359.92
382.25	363.31
382.63	403.31
383.01	374.38
383.39	399.01
383.77	387.49
384.15	385
384.53	365.57
384.91	392.01
385.29	397.21
385.67	388.62
386.049	383.87
386.429	382.74
386.809	378.22
387.189	386.81
387.568	385
387.948	389.98
388.328	384.1
388.707	398.11
389.087	410.54
389.466	398.56
389.846	394.27
390.225	399.92
390.605	419.58
390.984	413.93
391.363	392.01
391.743	390.65
392.122	413.25
392.501	405.79
392.881	419.58
393.26	425
393.639	416.42
394.018	424.1
394.397	440.82
394.776	425
395.155	431.78
395.534	435.62
395.913	429.97
396.292	439.01
396.671	451.22
397.05	446.25
397.429	438.79
397.808	428.62
398.186	434.72
398.565	451.89
398.944	453.7
399.323	463.65
399.701	474.49
400.08	464.78
400.458	470.88
400.837	469.52
401.215	466.13
401.594	486.02
401.972	478.11
402.351	476.98
402.729	470.2
403.107	492.35
403.486	471.56
403.864	478.56
404.242	472.91
404.62	488.28
404.999	473.14
405.377	481.95
405.755	491.22
406.133	503.64
406.511	518.33
406.889	513.14
407.267	501.61
407.645	502.29
408.023	509.07
408.401	525.11
408.779	511.33
409.156	519.01
409.534	522.18
409.912	529.18
410.29	545.68
410.667	550.65
411.045	529.41
411.422	530.99
411.8	531.21
412.178	568.05
412.555	558.78
412.933	543.87
413.31	546.58
413.687	560.59
414.065	566.69
414.442	566.69
414.819	567.15
415.197	565.34
415.574	584.77
415.951	610.99
416.328	594.04
416.705	588.16
417.082	607.6
417.46	593.13
417.837	606.47
418.214	615.51
418.591	603.53
418.967	623.87
419.344	604.21
419.721	617.31
420.098	641.95
420.475	648.5
420.852	611.44
421.228	627.94
421.605	656.64
421.982	650.99
422.358	639.46
422.735	660.25
423.111	656.18
423.488	654.15
423.864	677.2
424.241	665.9
424.617	667.48
424.994	660.25
425.37	683.75
425.746	706.58
426.123	700.02
426.499	722.17
426.875	700.7
427.251	724.43
427.627	731.44
428.003	724.88
428.379	744.54
428.756	709.29
429.132	735.05
429.507	751.77
429.883	712.45
430.259	756.97
430.635	786.35
431.011	776.18
431.387	793.13
431.763	764.2
432.138	778.67
432.514	794.48
432.89	807.59
433.265	824.77
433.641	841.04
434.016	825.67
434.392	834.48
434.767	841.72
435.143	848.49
435.518	867.03
435.894	855.05
436.269	875.39
436.644	883.97
437.02	873.8
437.395	884.88
437.77	895.95
438.145	875.61
438.52	899.34
438.895	926.46
439.271	918.1
439.646	909.51
440.021	923.52
440.395	951.32
440.77	949.73
441.145	945.22
441.52	944.76
441.895	954.25
442.27	957.87
442.645	973.01
443.019	997.87
443.394	959.9
443.769	962.39
444.143	983.41
444.518	1005.55
444.892	1015.95
445.267	997.42
445.641	1021.15
446.016	1028.15
446.39	1010.3
446.764	1057.3
447.139	1054.36
447.513	1043.29
447.887	1041.26
448.262	1048.04
448.636	1049.85
449.01	1069.51
449.384	1071.31
449.758	1100.92
450.132	1102.05
450.506	1103.86
450.88	1095.95
451.254	1109.96
451.628	1131.2
452.002	1141.14
452.376	1157.19
452.75	1132.33
453.123	1140.69
453.497	1169.39
453.871	1168.71
454.244	1203.74
454.618	1200.8
454.992	1192.44
455.365	1229.5
455.739	1213.23
456.112	1223.85
456.486	1258.43
456.859	1271.76
457.232	1285.77
457.606	1260.91
457.979	1304.98
458.352	1334.81
458.725	1342.49
459.099	1329.84
459.472	1340.91
459.845	1387.01
460.218	1368.71
460.591	1405.99
460.964	1432.21
461.337	1443.73
461.71	1464.07
462.083	1496.84
462.456	1483.73
462.829	1497.74
463.201	1508.59
463.574	1516.5
463.947	1520.34
464.32	1554.24
464.692	1575.26
465.065	1573.22
465.438	1610.06
465.81	1648.7
466.183	1647.34
466.555	1666.33
466.928	1653.22
467.3	1675.59
467.672	1709.26
468.045	1759.43
468.417	1727.57
468.789	1789.94
469.161	1791.29
469.534	1808.02
469.906	1860.67
470.278	1872.2
470.65	1890.05
471.022	1927.11
471.394	1963.95
471.766	1983.15
472.138	1989.71
472.51	2020.44
472.882	2076.94
473.253	2076.94
473.625	2087.11
473.997	2134.56
474.369	2172.75
474.74	2201.45
475.112	2236.03
475.484	2262.02
475.855	2296.14
476.227	2323.71
476.598	2381.56
476.97	2403.48
477.341	2448.68
477.713	2481.45
478.084	2506.53
478.455	2579.97
478.827	2598.73
479.198	2676.7
479.569	2662.23
479.94	2733.19
480.311	2798.95
480.682	2815
481.053	2894.32
481.424	2900.42
481.795	2961.21
482.166	3053.41
482.537	3045.05
482.908	3108.32
483.279	3142.45
483.65	3226.96
484.021	3253.63
484.391	3297.7
484.762	3368.88
485.133	3351.25
485.503	3410.01
485.874	3476.67
486.244	3504.24
486.615	3575.88
486.985	3638.25
487.356	3712.37
487.726	3719.38
488.097	3847.96
488.467	3863.33
488.837	3928.64
489.207	4000.28
489.578	4049.99
489.948	4054.51
490.318	4129.76
490.688	4164.57
491.058	4194.17
491.428	4251.34
491.798	4356.88
492.168	4429.19
492.538	4397.1
492.908	4490.43
493.278	4566.81
493.648	4556.19
494.017	4653.82
494.387	4686.36
494.757	4746.7
495.126	4754.15
495.496	4835.51
495.866	4856.3
496.235	4932.91
496.605	4952.34
496.974	5002.06
497.344	5082.06
497.713	5093.35
498.082	5152.79
498.452	5237.31
498.821	5241.83
499.19	5287.25
499.559	5375.83
499.928	5388.71
500.298	5422.39
500.667	5482.72
501.036	5518.88
501.405	5556.39
501.774	5574.7
502.143	5691.53
502.512	5681.14
502.88	5734.92
503.249	5773.56
503.618	5824.63
503.987	5909.38
504.356	5924.75
504.724	5939.66
505.093	6009.71
505.462	6079.54
505.83	6116.6
506.199	6176.94
506.567	6231.18
506.936	6299.88
507.304	6355.02
507.672	6445.86
508.041	6470.04
508.409	6483.15
508.777	6542.13
509.145	6668.45
509.514	6650.6
509.882	6702.13
510.25	6732.18
510.618	6831.61
510.986	6861.22
511.354	6952.97
511.722	7031.61
512.09	7085.62
512.458	7102.12
512.826	7244.03
513.193	7279.96
513.561	7294.65
513.929	7360.64
514.297	7434.54
514.664	7537.36
515.032	7590.24
515.4	7681.31
515.767	7699.39
516.135	7790.46
516.502	7761.53
516.869	7923.11
517.237	7969.21
517.604	7965.82
517.972	8084.46
518.339	8161.75
518.706	8175.99
519.073	8201.07
519.44	8325.59
519.808	8447.62
520.175	8435.41
520.542	8627.73
520.909	8625.01
521.276	8664.79
521.643	8867.72
522.009	8855.06
522.376	8966.25
522.743	9099.13
523.11	9165.56
523.477	9224.32
523.843	9301.38
524.21	9390.19
524.577	9501.15
524.943	9560.13
525.31	9719
525.676	9744.98
526.043	9791.54
526.409	9950.63
526.776	10071.3
527.142	10065.43
527.508	10212.54
527.874	10222.71
528.241	10406.44
528.607	10373.89
528.973	10507.68
529.339	10547.45
529.705	10703.15
530.071	10745.64
530.437	10865.86
530.803	10986.53
531.169	11040.32
531.535	11072.41
531.901	11152.18
532.267	11237.37
532.632	11387.2
532.998	11363.25
533.364	11585.16
533.73	11591.49
534.095	11733.63
534.461	11746.97
534.826	11827.19
535.192	11854.31
535.557	12028.99
535.923	12047.3
536.288	12086.84
536.653	12313.96
537.019	12194.41
537.384	12331.58
537.749	12445.7
538.114	12513.5
538.479	12555.08
538.845	12600.05
539.21	12678.69
539.575	12754.17
539.94	12792.81
540.305	12889.76
540.67	13024.22
541.034	13102.18
541.399	13154.84
541.764	13279.81
542.129	13371.33
542.494	13428.05
542.858	13479.35
543.223	13637.31
543.587	13739.91
543.952	13688.83
544.316	13828.72
544.681	13830.98
545.045	14020.35
545.41	14127.02
545.774	14123.85
546.138	14222.15
546.503	14284.75
546.867	14351.19
547.231	14619.66
547.595	14702.82
547.959	14740.78
548.324	14829.6
548.688	14835.25
549.052	15038.63
549.416	15129.93
549.779	15171.96
550.143	15336.02
550.507	15440.88
550.871	15535.34
551.235	15624.38
551.599	15666.64
551.962	15864.82
552.326	15970.13
552.689	16246.73
553.053	16227.75
553.417	16338.26
553.78	16572.37
554.143	16601.98
554.507	16841.75
554.87	16936.66
555.234	17018.69
555.597	17185.24
555.96	17405.35
556.323	17434.5
556.686	17558.11
557.05	17766.47
557.413	17961.04
557.776	18100.92
558.139	18195.84
558.502	18440.8
558.865	18443.06
559.228	18732.77
559.59	18929.6
559.953	19093.89
560.316	19269.71
560.679	19414.11
561.041	19674.21
561.404	19804.61
561.767	20107.88
562.129	20085.5
562.492	20438.49
562.854	20617.01
563.217	20718.71
563.579	20904.92
563.941	21174.74
564.304	21416.99
564.666	21623.09
565.028	21784.89
565.39	22073.25
565.753	22251.32
566.115	22485.44
566.477	22738.77
566.839	22848.82
567.201	23102.37
567.563	23438.86
567.925	23562.93
568.287	23818.74
568.648	24009.02
569.01	24306.41
569.372	24629.34
569.734	24606.51
570.095	24994.75
570.457	25162.66
570.819	25394.52
571.18	25607.62
571.542	25847.61
571.903	26145
572.265	26364.21
572.626	26563.52
572.987	26840.13
573.349	27007.81
573.71	27206.22
574.071	27545.19
574.432	27624.06
574.794	27951.96
575.155	28205.97
575.516	28358.28
575.877	28613.64
576.238	28819.28
576.599	29025.15
576.96	29246.84
577.32	29326.16
577.681	29509.89
578.042	29982.64
578.403	29905.81
578.763	30218.8
579.124	30402.07
579.485	30688.84
579.845	30875.5
580.206	31070.07
580.566	31132.44
580.927	31315.49
581.287	31559.1
581.648	31691.98
582.008	32124.51
582.368	32073.21
582.728	32246.09
583.089	32281.34
583.449	32406.76
583.809	32649.69
584.169	32800.65
584.529	32802.23
584.889	33371.03
585.249	33221.2
585.609	33302.56
585.969	33693.28
586.329	33637.46
586.688	33859.38
587.048	33870.9
587.408	34082.65
587.768	34084.23
588.127	34331
588.487	34376.88
588.846	34844.21
589.206	34581.84
589.565	34691.67
589.925	35027.48
590.284	34932.34
590.643	35285.1
591.003	35464.08
591.362	35554.02
591.721	35853.22
592.08	35747.92
592.44	35956.72
592.799	36057.06
593.158	36255.25
593.517	36252.31
593.876	36428.12
594.235	36375.7
594.593	36597.16
594.952	36838.06
595.311	36794.67
595.67	36973.42
596.029	37238.5
596.387	37387.19
596.746	37625.15
597.104	37581.99
597.463	37637.81
597.822	37879.61
598.18	37911.7
598.538	37926.84
598.897	38323.67
599.255	38212.71
599.613	38749.42
599.972	38606.15
600.33	38871
600.688	38607.95
601.046	39080.03
601.404	39186.02
601.762	39067.15
602.12	39476.86
602.478	39610.87
602.836	39653.35
603.194	39590.53
603.552	39777.41
603.91	39901.93
604.268	40185.31
604.625	40058.31
604.983	40319.55
605.341	40148.48
605.698	40625.98
606.056	40588.69
606.413	40706.66
606.771	41111.62
607.128	41166.98
607.485	41084.72
607.843	41211.73
608.2	41545.05
608.557	41598.61
608.914	41762
609.272	41896.45
609.629	42070.91
609.986	42289.21
610.343	42155.43
610.7	42588.87
611.057	42546.61
611.414	42580.05
611.771	42771.01
612.127	43039.93
612.484	43168.51
612.841	43420.03
613.198	43370.54
613.554	43410.99
613.911	43610.08
614.267	43775.73
614.624	43770.98
614.98	44037.19
615.337	44333.68
615.693	44261.82
616.05	44350.85
616.406	44747
616.762	44520.79
617.118	44791.07
617.475	44794.01
617.831	44827.68
618.187	44950.39
618.543	45084.17
618.899	45344.73
619.255	45542.23
619.611	45441.22
619.967	45684.15
620.323	45719.63
620.678	45790.59
621.034	45879.4
621.39	45721.21
621.746	45884.37
622.101	46474.19
622.457	46042.11
622.812	46361.87
623.168	46386.96
623.523	46506.5
623.879	46660.62
624.234	46443.45
624.589	46694.97
624.945	46730.68
625.3	46792.6
625.655	46838.25
626.01	46822.2
626.365	46907.4
626.72	47039.82
627.075	47035.98
627.43	47100.39
627.785	47028.98
628.14	47287.73
628.495	47364.33
628.85	47348.97
629.205	47391.68
629.559	47558.45
629.914	47456.99
630.269	47640.94
630.623	47552.58
630.978	47598.9
631.332	47750.99
631.687	47860.59
632.041	47561.39
632.396	47720.03
632.75	47678.45
633.104	47890.65
633.459	47806.36
633.813	47784.44
634.167	47739.01
634.521	47900.82
634.875	47997.09
635.229	47904.43
635.583	47705.57
635.937	47889.97
636.291	47809.52
636.645	47921.16
636.999	47857.88
637.352	47952.57
637.706	47936.52
638.06	48150.08
638.413	48023.3
638.767	48120.02
639.121	48122.51
639.474	48093.13
639.828	47991.66
640.181	47962.51
640.534	48164.31
640.888	48000.02
641.241	48030.53
641.594	48061.04
641.947	48222.84
642.301	48101.94
642.654	48245.44
643.007	48222.62
643.36	48189.17
643.713	48235.72
644.066	48331.99
644.419	48191.88
644.771	47897.2
645.124	47667.38
645.477	47595.74
645.83	47428.74
646.182	47313.04
646.535	47356.2
646.888	47461.51
647.24	47354.16
647.593	47697.43
647.945	47554.61
648.298	47409.76
648.65	47373.6
649.002	47291.79
649.355	47440.04
649.707	47446.59
650.059	47552.8
650.411	47855.62
650.763	48001.83
651.115	48592.32
651.467	48441.14
651.819	48502.83
652.171	48390.75
652.523	48447.7
652.875	48539.22
653.227	48327.02
653.578	48641.81
653.93	48526.79
654.282	48423.74
654.633	48329.96
654.985	48547.13
655.337	48549.84
655.688	48561.59
656.039	48639.33
656.391	48376.06
656.742	48492.21
657.094	48675.49
657.445	48672.1
657.796	48681.59
658.147	48761.59
658.498	48831.19
658.849	48834.13
659.2	48810.85
659.551	48631.42
659.902	48999.54
660.253	48837.97
660.604	48901.24
660.955	48753.68
661.306	48902.6
661.656	48742.6
662.007	48899.21
662.358	48923.16
662.708	49028.02
663.059	48995.48
663.409	48683.4
663.76	49122.03
664.11	49006.55
664.461	49098.75
664.811	49061.01
665.161	49134.23
665.511	49053.33
665.862	49295.36
666.212	49260.33
666.562	49115.93
666.912	49119.32
667.262	49155.47
667.612	49176.72
667.962	49316.82
668.312	49240.89
668.662	49451.06
669.011	49403.15
669.361	49494
669.711	49419.42
670.06	49304.85
670.41	49336.49
670.76	49355.24
671.109	49525.86
671.459	49371.96
671.808	49449.93
672.157	49689.7
672.507	49341.68
672.856	49384.39
673.205	49498.29
673.554	49565.18
673.904	49519.31
674.253	49621.68
674.602	49501
674.951	49057.85
675.3	48968.59
675.649	49532.86
675.998	49513.88
676.346	49580.32
676.695	49794.1
677.044	49423.94
677.393	49649.02
677.741	49604.5
678.09	49552.98
678.438	49484.5
678.787	49752.52
679.135	49686.76
679.484	49526.31
679.832	49587.78
680.181	49556.37
680.529	49633.65
680.877	49513.2
681.225	49343.72
681.573	49509.59
681.922	49496.71
682.27	49414
682.618	49478.18
682.966	49384.17
683.314	49530.38
683.661	49249.03
684.009	49097.4
684.357	49177.17
684.705	49105.76
685.053	49216.04
685.4	49240.67
685.748	49133.55
686.095	49051.97
686.443	48966.33
686.79	48868.93
687.138	48973.56
687.485	49208.58
687.832	49035.93
688.18	48886.33
688.527	48685.43
688.874	48703.28
689.221	48761.59
689.568	48767.91
689.915	48617.41
690.262	48720.46
690.609	48642.49
690.956	48426.23
691.303	48374.02
691.65	48326.79
691.997	48272.11
692.344	48089.74
692.69	48113.47
693.037	48160.92
693.383	47872.57
693.73	48100.59
694.077	47815.85
694.423	47876.18
694.769	47868.95
695.116	47725.45
695.462	47774.49
695.808	47661.73
696.155	47842.29
696.501	47487.72
696.847	47530.21
697.193	47346.93
697.539	47317.33
697.885	47208.86
698.231	47012.03
698.577	47195.75
698.923	47095.64
699.269	47003.89
699.614	46861.3
699.96	46778.13
700.306	46741.53
700.651	46605.03
700.997	46680.28
701.342	46571.81
701.688	46442.55
702.033	46413.4
702.379	46375.66
702.724	46185.61
703.069	46374.53
703.415	45876.69
703.76	45847.76
704.105	45911.04
704.45	45768.44
704.795	45596.24
705.14	45751.27
705.485	45480.99
705.83	45342.24
706.175	45413.65
706.52	45432.41
706.865	45296.59
707.209	45629.69
707.554	45261.56
707.899	45322.13
708.243	45137.5
708.588	45227.21
708.932	44853.44
709.277	44909.93
709.621	44909.03
709.966	44687.34
710.31	44684.86
710.654	44458.2
710.998	44643.05
711.342	44637.4
711.687	44493.22
712.031	44390.17
712.375	44300.69
712.719	44331.87
713.063	44367.35
713.407	44503.84
713.75	44168.49
714.094	44161.48
714.438	44130.52
714.782	44176.17
715.125	43947.93
715.469	44056.62
715.812	43872.45
716.156	43640.59
716.499	43650.99
716.843	43795.84
717.186	43512.68
717.53	43779.12
717.873	43782.51
718.216	43622.74
718.559	43474.27
718.902	43146.59
719.246	43425.68
719.589	43137.33
719.932	43133.48
720.275	43118.12
720.617	43276.98
720.96	43106.14
721.303	43117.89
721.646	43272.46
721.989	43032.24
722.331	43231.11
722.674	43088.06
723.016	43013.49
723.359	43047.16
723.701	43094.16
724.044	42892.81
724.386	42676.32
724.729	42804
725.071	42646.04
725.413	42741.4
725.755	42726.04
726.097	42652.37
726.439	42375.09
726.782	42416.67
727.124	42715.19
727.465	42454.18
727.807	42524.01
728.149	42462.32
728.491	42303.45
728.833	42383
729.175	42247.18
729.516	42213.96
729.858	42132.15
730.199	42108.43
730.541	41989.79
730.882	41860.75
731.224	42190.91
731.565	41767.64
731.906	41849.68
732.248	42155.43
732.589	41853.97
732.93	41741.88
733.271	41896.23
733.612	41964.7
733.953	41823.46
734.294	41796.8
734.635	41591.83
734.976	41671.83
735.317	41539.18
735.658	41507.99
735.999	41435.22
736.339	41255.12
736.68	41467.54
737.021	41308.45
737.361	41213.08
737.702	41373.98
738.042	41164.72
738.383	41244.95
738.723	41314.55
739.063	41241.33
739.404	41261.22
739.744	41207.43
740.084	40975.8
740.424	41197.04
740.764	41044.27
741.104	41323.36
741.444	40888.8
741.784	40773.32
742.124	40875.46
742.464	41023.94
742.804	40878.63
743.143	40841.79
743.483	40820.55
743.823	40610.39
744.162	40636.6
744.502	40784.39
744.841	40661.23
745.181	40827.56
745.52	40550.05
745.86	40534
746.199	40452.65
746.538	40468.92
746.877	40571.74
747.216	40441.58
747.556	40354.12
747.895	40404.06
748.234	40282.03
748.573	40165.43
748.911	40186.67
749.25	40100.12
749.589	39932.21
749.928	40032.1
750.267	40127.46
750.605	40091.08
750.944	39846.34
751.283	39810.41
751.621	39829.62
751.96	39766.34
752.298	39752.56
752.636	39823.52
752.975	39521.6
753.313	39437.08
753.651	39502.62
753.989	39249.07
754.327	39288.84
754.666	39108.05
755.004	39233.02
755.342	39180.59
755.679	39101.5
756.017	39044.33
756.355	39220.37
756.693	39001.84
757.031	38983.09
757.368	38724.11
757.706	38931.79
758.044	38495.19
758.381	38634.17
758.719	38425.59
759.056	38491.57
759.394	38351.24
759.731	37987.41
760.068	38131.81
760.405	37983.56
760.743	37958.48
761.08	37967.07
761.417	37791.7
761.754	37785.83
762.091	37667.41
762.428	37521.65
762.765	37417.25
763.102	37483.24
763.438	37388.78
763.775	37106.52
764.112	37221.1
764.449	37116.69
764.785	36968.67
765.122	36826.31
765.458	36812.07
765.795	36773.43
766.131	36497.27
766.467	36546.99
766.804	36511.74
767.14	36314
767.476	36369.82
767.812	36249.82
768.148	36495.47
768.485	36116.95
768.821	35976.38
769.157	35933.67
769.492	35854.58
769.828	35708.37
770.164	35506.79
770.5	35445.78
770.836	35247.14
771.171	35189.96
771.507	35223.18
771.842	34833.59
772.178	34815.06
772.513	34748.85
772.849	34503.2
773.184	34558.79
773.519	34557.89
773.855	34389.53
774.19	34382.53
774.525	34168.52
774.86	34261.4
775.195	33971.47
775.53	34046.04
775.865	33809.66
776.2	33521.53
776.535	33363.8
776.87	33577.8
777.205	33322.22
777.539	33176.01
777.874	33351.82
778.209	32997.48
778.543	32933.07
778.878	32733.53
779.212	32704.83
779.547	32601.11
779.881	32589.81
780.215	32473.43
780.55	32425.52
780.884	32315.01
781.218	32428.91
781.552	32306.2
781.886	32023.04
782.22	31900.11
782.554	31840
782.888	31670.28
783.222	31580.12
783.556	31388.03
783.889	31275.94
784.223	30954.37
784.557	31118.89
784.89	31264.64
785.224	31102.16
785.557	31020.58
785.891	30789.18
786.224	30859
786.558	30766.58
786.891	30624.21
787.224	30482.07
787.557	30350.09
787.891	30312.8
788.224	30228.97
788.557	30185.35
788.89	30000.72
789.223	30020.61
789.556	29720.5
789.888	29709.88
790.221	29759.15
790.554	29490.45
790.887	29507.18
791.219	29495.2
791.552	29431.92
791.884	29247.52
792.217	29110.35
792.549	29202.55
792.882	28929.79
793.214	28861.77
793.546	28884.37
793.879	28711.72
794.211	28578.39
794.543	28722.56
794.875	28532.51
795.207	28589.69
795.539	28354.66
795.871	28437.6
796.203	28205.29
796.535	28205.97
796.867	28174.56
797.198	28106.31
797.53	28068.8
797.862	27857.5
798.193	27909.7
798.525	27589.94
798.856	27699.09
799.188	27382.71
799.519	27397.18
799.85	27375.93
800.182	27184.53
800.513	27250.96
800.844	27010.52
801.175	27153.57
801.506	27020.01
801.837	26848.71
802.168	26956.06
802.499	26738.44
802.83	26720.36
803.161	26666.57
803.491	26671.77
803.822	26803.07
804.153	26490.76
804.483	26484.43
804.814	26187.26
805.145	26442.62
805.475	26382.29
805.805	26188.17
806.136	26112.69
806.466	26076.31
806.796	26063.42
807.126	25962.41
807.457	25795.86
807.787	25923.77
808.117	25717.22
808.447	25754.28
808.777	25903.66
809.107	25813.71
809.436	25656.88
809.766	25621.18
810.096	25484.68
810.426	25392.26
810.755	25419.37
811.085	25349.09
811.414	25292.6
811.744	25215.99
812.073	25122.43
812.403	25137.35
812.732	24970.35
813.061	25191.81
813.39	24833.4
813.719	24756.57
814.049	24911.14
814.378	24790.24
814.707	24656.91
815.036	24729.9
815.365	24596.34
815.693	24270.25
816.022	24316.13
816.351	24315.22
816.68	24195.45
817.008	24319.52
817.337	24052.86
817.665	24027.77
817.994	24228.9
818.322	24166.75
818.651	24077.94
818.979	23903.71
819.307	24057.6
819.636	23907.55
819.964	23766.08
820.292	23966.3
820.62	23922.46
820.948	23879.75
821.276	24033.42
821.604	23839.3
821.932	23917.94
822.259	23814.67
822.587	23833.65
822.915	23744.39
823.243	23988.9
823.57	23720.66
823.898	23893.54
824.225	23826.65
824.553	23762.02
824.88	23765.86
825.207	23759.3
825.535	23844.05
825.862	23726.54
826.189	23732.19
826.516	23983.03
826.843	23985.51
827.17	23874.1
827.497	24004.04
827.824	23863.93
828.151	24142.12
828.478	23975.34
828.805	24109.8
829.131	23993.87
829.458	23949.36
829.785	23911.17
830.111	23939.41
830.438	24054.44
830.764	24053.76
831.09	24131.05
831.417	23856.25
831.743	24074.78
832.069	23950.94
832.395	23822.81
832.722	24057.15
833.048	23923.59
833.374	23958.85
833.7	23840.66
834.026	23855.8
834.351	23897.38
834.677	23787.33
835.003	23836.36
835.329	23729.25
835.654	23798.63
835.98	23679.98
836.306	23748.23
836.631	23570.38
836.956	23603.38
837.282	23640.89
837.607	23460.56
837.932	23515.24
838.258	23667.33
838.583	23616.03
838.908	23382.37
839.233	23479.09
839.558	23375.36
839.883	23334.68
840.208	23359.32
840.533	23348.24
840.858	23421.91
841.182	23345.08
841.507	23306.66
841.832	23209.49
842.156	23236.61
842.481	23190.96
842.805	23241.58
843.13	23077.06
843.454	23079.77
843.778	22917.52
844.103	22835.04
844.427	22796.62
844.751	22723.63
845.075	22662.61
845.399	22727.47
845.723	22611.54
846.047	22646.79
846.371	22496.06
846.695	22440.47
847.019	22220.81
847.343	22235.5
847.666	22110.31
847.99	22142.85
848.313	22076.19
848.637	21912.8
848.96	21828.28
849.284	21783.54
849.607	21576.99
849.931	21674.61
850.254	21399.82
850.577	21421.06
850.9	21267.39
851.223	21264.91
851.546	21308.75
851.869	21227.62
852.192	21241.86
852.515	21028.75
852.838	20895.43
853.161	20928.42
853.483	20741.76
853.806	20748.31
854.129	20705.37
854.451	20611.36
854.774	20533.17
855.096	20461.76
855.419	20527.75
855.741	20478.71
856.063	20351.26
856.385	20357.36
856.708	20302.9
857.03	20278.49
857.352	20248.21
857.674	19987.43
857.996	20038.05
858.318	19704.27
858.64	19809.58
858.961	19707.21
859.283	19652.52
859.605	19603.03
859.926	19709.92
860.248	19636.48
860.57	19677.38
860.891	19603.48
861.212	19532.98
861.534	19476.93
861.855	19452.75
862.176	19514.67
862.498	19553.99
862.819	19426.76
863.14	19355.8
863.461	19384.5
863.782	19284.17
864.103	19350.61
864.424	19326.88
864.745	19330.27
865.065	19208.69
865.386	19264.06
865.707	19343.6
866.027	19228.58
866.348	19079.2
866.668	19141.35
866.989	19032.88
867.309	19004.18
867.63	19062.93
867.95	19013.21
868.27	18836.27
868.59	18867.68
868.91	18828.81
869.23	18726.67
869.55	18639.89
869.87	18718.53
870.19	18710.85
870.51	18704.3
870.83	18776.84
871.15	18532.78
871.469	18599.67
871.789	18718.76
872.109	18622.94
872.428	18486.45
872.748	18665.65
873.067	18499.56
873.386	18564.19
873.706	18587.46
874.025	18463.85
874.344	18331.88
874.663	18528.71
874.982	18450.97
875.301	18408.94
875.62	18302.95
875.939	18345.89
876.258	18396.73
876.577	18293.46
876.896	18293.01
877.214	18158.32
877.533	18226.79
877.852	18275.38
878.17	18234.25
878.489	18116.52
878.807	18231.77
879.125	18121.49
879.444	18135.5
879.762	18076.29
880.08	18047.59
880.398	17993.35
880.716	17940.02
881.034	17864.09
881.352	17855.96
881.67	17785.45
881.988	17798.33
882.306	17721.5
882.624	17725.11
882.941	17656.87
883.259	17704.1
883.577	17684.66
883.894	17546.36
884.212	17516.3
884.529	17548.85
884.846	17487.15
885.164	17511.11
885.481	17432.01
885.798	17488.74
886.115	17324.22
886.432	17329.42
886.75	17255.29
887.067	17245.58
887.383	17149.76
887.7	17296.2
888.017	17171.23
888.334	17202.41
888.651	17078.58
888.967	17098.24
889.284	16993.38
889.6	16785.02
889.917	16841.75
890.233	16960.84
890.55	16833.39
890.866	16829.77
891.182	16845.59
891.498	16734.86
891.815	16683.56
892.131	16646.72
892.447	16599.72
892.763	16602.43
893.079	16517.91
893.395	16441.76
893.71	16341.19
894.026	16348.2
894.342	16314.98
894.657	16220.52
894.973	16289.67
895.289	16227.3
895.604	16201.99
895.92	16098.94
896.235	15999.06
896.55	15967.42
896.865	15893.75
897.181	15879.06
897.496	15865.95
897.811	15810.59
898.126	15751.15
898.441	15725.84
898.756	15752.74
899.071	15593.42
899.386	15623.7
899.7	15466.64
900.015	15465.96
900.33	15389.81
900.644	15265.29
900.959	15324.72
901.273	15242.92
901.588	15190.72
901.902	15136.71
902.216	15041.12
902.531	15051.96
902.845	15021.23
903.159	15001.34
903.473	14890.16
903.787	14854.91
904.101	14771.52
904.415	14715.93
904.729	14697.62
905.042	14614.91
905.356	14582.82
905.67	14471.64
905.984	14510.96
906.297	14507.34
906.611	14408.82
906.924	14409.27
907.237	14318.2
907.551	14220.12
907.864	14193.45
908.177	14197.3
908.491	14096.96
908.804	14071.65
909.117	13971.09
909.43	13932.44
909.743	13969.28
910.056	13926.57
910.368	13818.1
910.681	13695.61
910.994	13669.63
911.307	13635.73
911.619	13550.99
911.932	13663.75
912.244	13462.63
912.557	13566.35
912.869	13359.35
913.181	13393.7
913.494	13359.8
913.806	13173.59
914.118	13286.36
914.43	13187.38
914.742	13174.72
915.054	13039.59
915.366	12956.42
915.678	12925.24
915.99	12885.01
916.302	12793.04
916.613	12737.22
916.925	12677.56
917.236	12708.52
917.548	12674.4
917.859	12621.97
918.171	12546.94
918.482	12439.15
918.794	12431.01
919.105	12435.08
919.416	12191.47
919.727	12314.18
920.038	12226.5
920.349	12137.69
920.66	12124.58
920.971	12159.61
921.282	12136.11
921.593	11985.6
921.903	11941.08
922.214	11960.97
922.525	11863.8
922.835	11779.73
923.146	11698.6
923.456	11695.67
923.767	11653.63
924.077	11644.14
924.387	11710.58
924.697	11620.19
925.008	11507.88
925.318	11420.65
925.628	11392.62
925.938	11420.65
926.248	11315.11
926.558	11279.18
926.867	11244.38
927.177	11173.19
927.487	11064.05
927.796	11042.12
928.106	11011.17
928.416	10988.57
928.725	10946.53
929.034	10934.33
929.344	10946.53
929.653	10847.33
929.962	10721.46
930.271	10656.6
930.581	10557.17
930.89	10603.49
931.199	10581.12
931.508	10495.25
931.817	10424.97
932.125	10468.35
932.434	10386.1
932.743	10280.11
933.051	10315.59
933.36	10263.84
933.669	10256.16
933.977	10234.91
934.286	10181.13
934.594	10128.48
934.902	10037.18
935.21	10054.58
935.519	10010.51
935.827	9959.67
936.135	9937.07
936.443	9842.38
936.751	9756.28
937.059	9735.72
937.367	9734.59
937.674	9672.22
937.982	9628.83
938.29	9632.44
938.597	9594.03
938.905	9467.7
939.213	9466.35
939.52	9382.28
939.827	9437.2
940.135	9399.46
940.442	9340.93
940.749	9323.98
941.056	9283.98
941.363	9167.6
941.67	9145.45
941.977	9158.78
942.284	9053.02
942.591	9089.41
942.898	9025
943.205	9036.75
943.511	8913.82
943.818	8948.39
944.125	8827.27
944.431	8855.06
944.738	8794.27
945.044	8766.48
945.35	8762.41
945.657	8727.84
945.963	8655.07
946.269	8652.81
946.575	8588.63
946.881	8521.06
947.187	8518.12
947.493	8494.62
947.799	8486.49
948.105	8366.72
948.41	8353.83
948.716	8334.4
949.022	8274.97
949.327	8193.39
949.633	8135.08
949.938	8155.87
950.244	8210.33
950.549	8141.18
950.854	8053.05
951.16	7976.44
951.465	8011.24
951.77	7919.27
952.075	7945.26
952.38	7905.03
952.685	7903
952.99	7820.74
953.294	7803.34
953.599	7735.77
953.904	7733.29
954.209	7637.92
954.513	7625.94
954.818	7598.15
955.122	7617.36
955.426	7583.91
955.731	7535.78
956.035	7398.38
956.339	7394.76
956.643	7429.34
956.948	7371.04
957.252	7370.58
957.556	7398.6
957.86	7360.64
958.163	7339.85
958.467	7284.03
958.771	7250.13
959.075	7184.15
959.378	7200.42
959.682	7136.01
959.985	7173.3
960.289	7109.12
960.592	7009.46
960.896	7033.64
961.199	6975.34
961.502	7004.72
961.805	6913.65
962.108	6855.12
962.411	6830.71
962.714	6816.93
963.017	6795.23
963.32	6810.15
963.623	6745.06
963.926	6732.41
964.228	6701
964.531	6653.99
964.833	6615.12
965.136	6585.52
965.438	6543.49
965.741	6474.79
966.043	6517.05
966.345	6478.4
966.648	6394.56
966.95	6406.31
967.252	6391.4
967.554	6345.3
967.856	6279.76
968.158	6253.32
968.46	6282.25
968.761	6277.96
969.063	6231.4
969.365	6212.42
969.666	6208.13
969.968	6052.65
970.269	6069.6
970.571	6115.25
970.872	6090.16
971.174	6018.3
971.475	6021.01
971.776	6021.47
972.077	6009.26
972.378	5999.77
972.679	5985.76
972.98	5953.45
973.281	5926.1
973.582	5907.34
973.883	5875.93
974.183	5797.07
974.484	5755.94
974.785	5817.63
975.085	5744.86
975.386	5684.07
975.686	5677.52
975.986	5603.85
976.287	5614.25
976.587	5637.75
976.887	5558.88
977.187	5539.67
977.487	5509.62
977.787	5434.36
978.087	5410.86
978.387	5450.86
978.687	5398.43
978.987	5373.57
979.286	5388.49
979.586	5310.07
979.885	5289.51
980.185	5331.31
980.484	5282.05
980.784	5219.23
981.083	5254.71
981.382	5281.37
981.682	5186.23
981.981	5115.5
982.28	5139.46
982.579	5030.98
982.878	5094.03
983.177	5038.21
983.475	5023.07
983.774	4994.37
984.073	4987.82
984.372	5000.48
984.67	4964.09
984.969	4904.43
985.267	4950.76
985.566	4955.73
985.864	4884.09
986.162	4843.64
986.461	4789.18
986.759	4786.7
987.057	4763.87
987.355	4718.9
987.653	4716.64
987.951	4720.26
988.249	4710.99
988.547	4677.09
988.844	4628.73
989.142	4648.85
989.44	4601.39
989.737	4576.31
990.035	4528.62
990.332	4520.49
990.63	4474.84
990.927	4472.81
991.224	4473.71
991.521	4459.93
991.819	4401.85
992.116	4360.94
992.413	4330.44
992.71	4316.43
993.006	4342.87
993.303	4355.52
993.6	4277.78
993.897	4249.31
994.193	4268.07
994.49	4256.09
994.787	4247.05
995.083	4176.99
995.379	4174.28
995.676	4143.55
995.972	4141.74
996.268	4107.17
996.565	4104.91
996.861	4063.33
997.157	4042.31
997.453	4014.74
997.749	4033.27
998.044	3985.59
998.34	3958.02
998.636	3957.79
998.932	3945.59
999.227	3933.16
999.523	3899.71
999.818	3861.07
1000.114	3850.22
1000.409	3836.44
1000.704	3816.33
1001	3776.78
1001.295	3731.13
1001.59	3734.07
1001.885	3771.81
1002.18	3711.24
1002.475	3687.74
1002.77	3674.41
1003.065	3624.69
1003.359	3617.91
1003.654	3573.17
1003.949	3541.53
1004.243	3534.3
1004.538	3480.97
1004.832	3493.17
1005.127	3485.26
1005.421	3463.34
1005.715	3464.02
1006.009	3441.19
1006.304	3441.87
1006.598	3386.96
1006.892	3366.85
1007.186	3351.93
1007.48	3340.86
1007.773	3280.97
1008.067	3284.59
1008.361	3248.88
1008.655	3247.98
1008.948	3239.62
1009.242	3241.88
1009.535	3186.74
1009.829	3104.48
1010.122	3181.54
1010.415	3129.56
1010.708	3108.77
1011.001	3100.64
1011.295	3048.66
1011.588	3059.28
1011.881	3026.52
1012.173	3003.24
1012.466	3033.07
1012.759	2967.99
1013.052	2939.06
1013.344	2920.53
1013.637	2904.49
1013.93	2857.03
1014.222	2841.66
1014.514	2848.44
1014.807	2845.96
1015.099	2818.16
1015.391	2793.53
1015.683	2821.55
1015.976	2773.64
1016.268	2744.49
1016.56	2729.35
1016.851	2710.82
1017.143	2725.73
1017.435	2664.94
1017.727	2660.88
1018.018	2664.27
1018.31	2622.91
1018.602	2586.08
1018.893	2579.07
1019.185	2567.55
1019.476	2536.59
1019.767	2507.66
1020.058	2530.03
1020.35	2497.49
1020.641	2456.36
1020.932	2466.53
1021.223	2445.06
1021.514	2451.16
1021.804	2395.8
1022.095	2354.44
1022.386	2390.83
1022.677	2351.96
1022.967	2312.41
1023.258	2305.18
1023.548	2335.24
1023.839	2297.27
1024.129	2269.7
1024.419	2261.34
1024.709	2245.52
1025	2223.15
1025.29	2225.41
1025.58	2183.83
1025.87	2141.79
1026.16	2163.71
1026.449	2156.93
1026.739	2130.95
1027.029	2117.84
1027.319	2106.09
1027.608	2077.39
1027.898	2067.22
1028.187	2044.62
1028.477	2056.37
1028.766	2041.91
1029.055	2006.43
1029.344	2002.81
1029.634	1982.7
1029.923	1953.1
1030.212	1955.13
1030.501	1922.14
1030.79	1927.56
1031.078	1899.09
1031.367	1889.82
1031.656	1867.45
1031.945	1870.61
1032.233	1867.22
1032.522	1838.53
1032.81	1788.81
1033.099	1826.1
1033.387	1824.51
1033.675	1836.72
1033.963	1792.88
1034.251	1770.5
1034.54	1789.94
1034.828	1745.42
1035.116	1742.03
1035.403	1710.62
1035.691	1700.68
1035.979	1691.41
1036.267	1672.88
1036.554	1648.25
1036.842	1631.3
1037.129	1647.34
1037.417	1608.25
1037.704	1620.23
1037.992	1598.31
1038.279	1577.52
1038.566	1557.18
1038.853	1557.18
1039.14	1557.18
