Data from copper_heatsink_FLMS001491_059.txt Node
Date: Tue Feb 07 10:50:12 GMT 2017
User: dcchb
Spectrometer: FLMS00149
Trigger mode: 0
Integration Time (sec): 2.000000E-2
Scans to average: 10
Electric dark correction enabled: true
Nonlinearity correction enabled: false
Boxcar width: 0
XAxis mode: Wavelengths
Number of Pixels in Spectrum: 2048
>>>>>Begin Spectral Data<<<<<
341.393	-2.7
341.776	-2.7
342.16	-2.7
342.543	-52.87
342.927	-36.14
343.31	-71.62
343.693	-69.81
344.077	-62.36
344.46	-83.6
344.843	-52.41
345.226	-35.92
345.61	-27.56
345.993	-33.43
346.376	-22.13
346.759	21.03
347.142	19.45
347.525	38.66
347.908	81.37
348.291	87.92
348.674	117.75
349.057	92.67
349.44	85.44
349.823	150.07
350.206	162.95
350.588	225.54
350.971	223.06
351.354	234.13
351.737	260.8
352.119	254.02
352.502	274.58
352.884	292.89
353.267	297.41
353.65	306.45
354.032	295.37
354.414	329.72
354.797	311.42
355.179	331.3
355.562	340.57
355.944	345.77
356.326	337.18
356.709	341.25
357.091	355.49
357.473	375.37
357.855	349.38
358.238	357.52
358.62	343.96
359.002	351.87
359.384	340.8
359.766	352.1
360.148	364.52
360.53	365.65
360.912	363.85
361.294	353.23
361.676	350.97
362.057	348.48
362.439	349.84
362.821	346.22
363.203	347.8
363.584	341.7
363.966	338.76
364.348	338.31
364.729	340.57
365.111	330.85
365.493	366.56
365.874	343.96
366.256	328.82
366.637	333.11
367.019	332.66
367.4	343.51
367.781	326.11
368.163	325.2
368.544	326.56
368.925	337.41
369.306	322.94
369.688	341.02
370.069	343.51
370.45	357.29
370.831	345.77
371.212	351.64
371.593	347.12
371.974	340.57
372.355	348.93
372.736	346.9
373.117	357.52
373.498	339.44
373.879	330.4
374.26	332.66
374.641	347.12
375.021	329.27
375.402	346.45
375.783	333.56
376.163	351.19
376.544	344.41
376.925	367.01
377.305	374.47
377.686	346.45
378.066	366.78
378.447	352.1
378.827	350.51
379.208	348.48
379.588	348.25
379.968	369.72
380.349	383.28
380.729	375.37
381.109	377.86
381.489	390.06
381.87	365.43
382.25	390.51
382.63	378.99
383.01	363.62
383.39	385.54
383.77	360.23
384.15	382.15
384.53	381.92
384.91	372.89
385.29	381.7
385.67	386.9
386.049	392.77
386.429	390.06
386.809	389.61
387.189	378.08
387.568	398.65
387.948	394.58
388.328	408.59
388.707	405.65
389.087	395.26
389.466	430.51
389.846	427.8
390.225	416.05
390.605	409.27
390.984	426.22
391.363	407.01
391.743	414.69
392.122	435.26
392.501	419.21
392.881	428.25
393.26	401.59
393.639	424.18
394.018	407.01
394.397	461.7
394.776	431.64
395.155	425.09
395.534	441.13
395.913	443.62
396.292	448.59
396.671	452.88
397.05	445.2
397.429	423.96
397.808	458.31
398.186	467.57
398.565	467.57
398.944	438.19
399.323	442.49
399.701	464.86
400.08	462.15
400.458	453.11
400.837	497.4
401.215	473.45
401.594	483.62
401.972	467.12
402.351	469.83
402.729	477.06
403.107	493.56
403.486	502.83
403.864	506.22
404.242	508.48
404.62	505.09
404.999	496.95
405.377	509.38
405.755	515.71
406.133	522.26
406.511	504.41
406.889	531.98
407.267	522.94
407.645	521.58
408.023	521.36
408.401	538.08
408.779	535.59
409.156	533.11
409.534	544.86
409.912	542.37
410.29	552.09
410.667	557.97
411.045	540.56
411.422	558.19
411.8	547.57
412.178	576.27
412.555	578.3
412.933	553.9
413.31	586.67
413.687	596.83
414.065	590.28
414.442	591.41
414.819	609.04
415.197	622.6
415.574	622.37
415.951	612.2
416.328	612.88
416.705	619.21
417.082	624.4
417.46	623.5
417.837	615.37
418.214	630.28
418.591	631.64
418.967	635.7
419.344	641.58
419.721	621.01
420.098	660.56
420.475	659.21
420.852	655.82
421.228	655.14
421.605	674.57
421.982	668.7
422.358	678.87
422.735	694.23
423.111	674.57
423.488	678.41
423.864	698.3
424.241	712.09
424.617	710.05
424.994	715.7
425.37	711.63
425.746	733.55
426.123	705.08
426.499	736.49
426.875	742.82
427.251	764.97
427.627	761.35
428.003	774.68
428.379	759.09
428.756	755.02
429.132	756.38
429.507	773.1
429.883	802.48
430.259	804.96
430.635	786.89
431.011	816.26
431.387	820.56
431.763	844.96
432.138	841.8
432.514	833.66
432.89	856.26
433.265	857.84
433.641	845.42
434.016	875.25
434.392	899.43
434.767	898.3
435.143	894.91
435.518	927.45
435.894	919.54
436.269	921.57
436.644	928.13
437.02	956.6
437.395	935.58
437.77	952.08
438.145	942.59
438.52	948.24
438.895	937.39
439.271	983.04
439.646	991.17
440.021	980.33
440.395	1000.21
440.77	994.11
441.145	1023.04
441.52	1023.26
441.895	1015.81
442.27	1041.57
442.645	1019.42
443.019	1045.18
443.394	1044.51
443.769	1046.09
444.143	1047.44
444.518	1089.48
444.892	1036.82
445.267	1064.17
445.641	1084.05
446.016	1102.13
446.39	1083.6
446.764	1074.11
447.139	1087.9
447.513	1110.95
447.887	1112.53
448.262	1116.14
448.636	1103.04
449.01	1135.35
449.384	1121.34
449.758	1149.14
450.132	1176.71
450.506	1174.9
450.88	1168.34
451.254	1181.23
451.628	1174.22
452.002	1218.29
452.376	1197.04
452.75	1232.98
453.123	1215.35
453.497	1228.23
453.871	1235.91
454.244	1272.75
454.618	1237.27
454.992	1306.42
455.365	1313.43
455.739	1298.96
456.112	1325.4
456.486	1367.21
456.859	1351.84
457.232	1385.74
457.606	1364.5
457.979	1376.93
458.352	1402.46
458.725	1417.38
459.099	1454.44
459.472	1461.9
459.845	1467.55
460.218	1505.96
460.591	1490.37
460.964	1523.36
461.337	1535.79
461.71	1546.87
462.083	1567.43
462.456	1576.24
462.829	1574.44
463.201	1611.95
463.574	1619.18
463.947	1641.55
464.32	1680.2
464.692	1711.83
465.065	1690.14
465.438	1707.99
465.81	1735.79
466.183	1769.01
466.555	1780.53
466.928	1770.14
467.3	1794.77
467.672	1833.64
468.045	1842
468.417	1857.37
468.789	1879.96
469.161	1914.99
469.534	1917.03
469.906	1960.41
470.278	1970.58
470.65	2000.87
471.022	2019.17
471.394	2080.86
471.766	2087.87
472.138	2127.87
472.51	2167.41
472.882	2199.96
473.253	2211.03
473.625	2234.98
473.997	2266.85
474.369	2282.89
474.74	2328.54
475.112	2352.27
475.484	2386.62
475.855	2414.41
476.227	2438.14
476.598	2535.54
476.97	2549.1
477.341	2584.35
477.713	2591.81
478.084	2615.76
478.455	2688.08
478.827	2740.28
479.198	2778.02
479.569	2796.1
479.94	2869.54
480.311	2895.76
480.682	2972.59
481.053	3032.02
481.424	3045.13
481.795	3074.28
482.166	3161.29
482.537	3187.95
482.908	3247.61
483.279	3253.94
483.65	3278.12
484.021	3365.12
484.391	3404.9
484.762	3424.1
485.133	3474.05
485.503	3464.33
485.874	3618.45
486.244	3652.8
486.615	3675.85
486.985	3748.16
487.356	3802.63
487.726	3834.72
488.097	3909.29
488.467	3925.33
488.837	4017.54
489.207	4035.16
489.578	4129.62
489.948	4152.9
490.318	4193.12
490.688	4215.72
491.058	4313.12
491.428	4312.9
491.798	4424.3
492.168	4494.59
492.538	4520.35
492.908	4529.39
493.278	4560.57
493.648	4613.23
494.017	4678.08
494.387	4705.88
494.757	4815.48
495.126	4811.87
495.496	4884.41
495.866	4871.75
496.235	4959.88
496.605	4987
496.974	5001.46
497.344	5077.85
497.713	5082.14
498.082	5097.73
498.452	5190.84
498.821	5241.01
499.19	5253.21
499.559	5307.22
499.928	5339.53
500.298	5358.97
500.667	5407.56
501.036	5475.58
501.405	5472.64
501.774	5554.67
502.143	5588.79
502.512	5636.02
502.88	5655.46
503.249	5655.68
503.618	5732.07
503.987	5773.87
504.356	5813.19
504.724	5872.18
505.093	5859.52
505.462	5891.16
505.83	5911.27
506.199	5966.18
506.567	6080.53
506.936	6104.26
507.304	6143.81
507.672	6233.97
508.041	6217.93
508.409	6286.18
508.777	6320.98
509.145	6419.05
509.514	6373.18
509.882	6475.32
510.25	6473.97
510.618	6591.48
510.986	6589.45
511.354	6681.19
511.722	6722.55
512.09	6784.24
512.458	6781.3
512.826	6849.78
513.193	6904.24
513.561	6942.2
513.929	6974.29
514.297	7101.97
514.664	7180.62
515.032	7205.93
515.4	7241.18
515.767	7287.96
516.135	7379.26
516.502	7311.23
516.869	7509.87
517.237	7561.17
517.604	7468.29
517.972	7597.55
518.339	7717.33
518.706	7696.31
519.073	7798.68
519.44	7814.5
519.808	7918.22
520.175	7937.21
520.542	7973.14
520.909	8056.3
521.276	8135.85
521.643	8191.66
522.009	8286.8
522.376	8416.97
522.743	8442.28
523.11	8479.79
523.477	8588.49
523.843	8672.78
524.21	8787.58
524.577	8814.47
524.943	8908.03
525.31	8967.91
525.676	9113.45
526.043	9055.82
526.409	9244.97
526.776	9310.5
527.142	9355.93
527.508	9423.72
527.874	9536.71
528.241	9494
528.607	9586.88
528.973	9680.66
529.339	9712.75
529.705	9853.31
530.071	9882.47
530.437	10006.3
530.803	10073.87
531.169	10137.83
531.535	10157.04
531.901	10173.08
532.267	10337.14
532.632	10330.82
532.998	10482.45
533.364	10540.53
533.73	10533.97
534.095	10685.61
534.461	10750.69
534.826	10763.8
535.192	10912.95
535.557	10987.75
535.923	11007.63
536.288	10980.97
536.653	11114.52
537.019	11106.61
537.384	11186.84
537.749	11277.91
538.114	11377.34
538.479	11384.12
538.845	11462.09
539.21	11447.17
539.575	11548.19
539.94	11665.7
540.305	11690.78
540.67	11751.12
541.034	11860.95
541.399	11917.21
541.764	12014.61
542.129	12021.84
542.494	12089.41
542.858	12199.92
543.223	12202.86
543.587	12356.75
543.952	12337.32
544.316	12454.38
544.681	12450.31
545.045	12667.48
545.41	12704.31
545.774	12786.12
546.138	12723.07
546.503	12895.04
546.867	12915.83
547.231	13158.99
547.595	13161.93
547.959	13204.64
548.324	13274.47
548.688	13360.79
549.052	13410.96
549.416	13508.59
549.779	13549.71
550.143	13672.2
550.507	13830.38
550.871	13860.67
551.235	13971.17
551.599	14135.24
551.962	14100.66
552.326	14294.78
552.689	14369.13
553.053	14384.27
553.417	14522.34
553.78	14758.27
554.143	14791.26
554.507	14918.27
554.87	14956.23
555.234	15123.23
555.597	15188.77
555.96	15256.34
556.323	15444.58
556.686	15535.65
557.05	15770.9
557.413	15895.42
557.776	15980.84
558.139	16149.87
558.502	16285.01
558.865	16376.76
559.228	16625.57
559.59	16727.26
559.953	16849.06
560.316	17097.19
560.679	17102.84
561.041	17260.13
561.404	17470.29
561.767	17687.46
562.129	17725.2
562.492	18040.44
562.854	18127.22
563.217	18233.21
563.579	18385.07
563.941	18613.54
564.304	18686.75
564.666	18940.99
565.028	19051.72
565.39	19213.52
565.753	19392.27
566.115	19660.51
566.477	19777.8
566.839	19961.75
567.201	20278.35
567.563	20471.34
567.925	20529.42
568.287	20740.26
568.648	20795.63
569.01	21047.14
569.372	21240.13
569.734	21418.66
570.095	21662.95
570.457	21834.92
570.819	21992.88
571.18	22181.35
571.542	22316.72
571.903	22555.58
572.265	22712.64
572.626	22879.19
572.987	22933.2
573.349	23144.72
573.71	23403.69
574.071	23603.69
574.432	23810.91
574.794	24074.18
575.155	24126.16
575.516	24190.56
575.877	24565.47
576.238	24608.86
576.599	24816.99
576.96	24812.92
577.32	25046.81
577.681	25314.15
578.042	25467.37
578.403	25410.65
578.763	25795.04
579.124	25769.96
579.485	26052.89
579.845	26285.65
580.206	26239.32
580.566	26317.97
580.927	26449.94
581.287	26688.35
581.648	26774.45
582.008	26968.34
582.368	27035.91
582.728	27220.54
583.089	27037.27
583.449	27345.96
583.809	27380.76
584.169	27620.3
584.529	27571.04
584.889	27870.47
585.249	27989.56
585.609	27965.61
585.969	28074.98
586.329	28162.21
586.688	28380.06
587.048	28410.11
587.408	28463.22
587.768	28613.95
588.127	28781.63
588.487	28812.36
588.846	29004.9
589.206	28895.07
589.565	29106.82
589.925	29191.34
590.284	29228.85
590.643	29342.75
591.003	29525.11
591.362	29604.43
591.721	29612.79
592.08	29704.32
592.44	29852.56
592.799	30008.72
593.158	30006.23
593.517	30195.15
593.876	30228.37
594.235	30338.88
594.593	30401.7
594.952	30503.17
595.311	30555.37
595.67	30713.33
596.029	30931.4
596.387	30937.51
596.746	30982.93
597.104	31080.1
597.463	31124.62
597.822	31370.49
598.18	31184.73
598.538	31463.37
598.897	31619.07
599.255	31466.53
599.613	31906.97
599.972	31687.32
600.33	31961.89
600.688	32021.55
601.046	32215.89
601.404	32364.59
601.762	32411.14
602.12	32622.66
602.478	32634.86
602.836	32805.25
603.194	32517.35
603.552	32808.64
603.91	32743.56
604.268	33024.68
604.625	32987.17
604.983	33098.13
605.341	33168.63
605.698	33393.03
606.056	33468.06
606.413	33582.41
606.771	33739.92
607.128	33930.42
607.485	33775.85
607.843	33894.04
608.2	34126.35
608.557	34472.78
608.914	34382.84
609.272	34445.44
609.629	34598.2
609.986	34568.82
610.343	34539.9
610.7	34969.26
611.057	34943.5
611.414	35063.05
611.771	35157.96
612.127	35296.26
612.484	35313.66
612.841	35600.89
613.198	35489.25
613.554	35484.96
613.911	35825.06
614.267	35891.05
614.624	35827.32
614.98	35996.13
615.337	36264.6
615.693	36325.61
616.05	36282.45
616.406	36638.37
616.762	36439.28
617.118	36575.55
617.475	36684.7
617.831	36950.45
618.187	37032.03
618.543	36925.82
618.899	37200.17
619.255	37288.98
619.611	37336.43
619.967	37311.12
620.323	37574.17
620.678	37526.03
621.034	37531
621.39	37640.83
621.746	37680.61
622.101	38076.53
622.457	37852.13
622.812	37895.97
623.168	38201.95
623.523	38121.95
623.879	38174.38
624.234	37987.04
624.589	38117.88
624.945	38413.02
625.3	38462.28
625.655	38397.87
626.01	38608.49
626.365	38593.8
626.72	38549.51
627.075	38568.04
627.43	38723.06
627.785	38588.38
628.14	38737.3
628.495	38889.39
628.85	39037.63
629.205	38841.48
629.559	39168.02
629.914	38978.65
630.269	39016.39
630.623	39088.7
630.978	38997.86
631.332	39182.03
631.687	39360.11
632.041	39143.39
632.396	39324.4
632.75	39130.51
633.104	39311.52
633.459	39266.33
633.813	39312.88
634.167	39257.51
634.521	39330.96
634.875	39384.74
635.229	39326.66
635.583	39162.6
635.937	39309.26
636.291	39329.83
636.645	39449.6
636.999	39441.69
637.352	39571.4
637.706	39293.44
638.06	39521.01
638.413	39377.96
638.767	39304.74
639.121	39462.48
639.474	39396.04
639.828	39492.99
640.181	39495.7
640.534	39605.53
640.888	39455.47
641.241	39295.7
641.594	39540.67
641.947	39577.73
642.301	39572.53
642.654	39668.8
643.007	39745.64
643.36	39666.32
643.713	39555.81
644.066	39742.02
644.419	39505.64
644.771	39423.84
645.124	39175.03
645.477	39230.17
645.83	38862.72
646.182	38789.28
646.535	38753.57
646.888	38751.99
647.24	38502.73
647.593	38909.27
647.945	38790.86
648.298	38720.8
648.65	38540.24
649.002	38743.85
649.355	38690.97
649.707	38795.38
650.059	38870.86
650.411	39495.02
650.763	39531.18
651.115	39852.07
651.467	39781.79
651.819	39911.06
652.171	39851.62
652.523	39846.88
652.875	39807.78
653.227	39849.36
653.578	40053.2
653.93	39948.79
654.282	40008.45
654.633	39860.89
654.985	40045.29
655.337	40207.77
655.688	40194.44
656.039	40322.57
656.391	39902.69
656.742	40076.47
657.094	40069.24
657.445	40249.8
657.796	40261.78
658.147	40293.87
658.498	40179.07
658.849	40261.33
659.2	40337.48
659.551	40442.34
659.902	40387.43
660.253	40435.34
660.604	40398.95
660.955	40351.27
661.306	40256.13
661.656	40413.64
662.007	40463.81
662.358	40375.9
662.708	40592.85
663.059	40707.42
663.409	40457.93
663.76	40671.04
664.11	40724.59
664.461	40820.86
664.811	40908.32
665.161	40772.95
665.511	40704.25
665.862	40753.97
666.212	41008.2
666.562	40972.27
666.912	40864.48
667.262	40856.79
667.612	40839.84
667.962	40995.55
668.312	41033.29
668.662	41327.97
669.011	41235.99
669.361	41152.38
669.711	41300.85
670.06	41247.52
670.41	41073.74
670.76	41077.13
671.109	41241.42
671.459	41232.6
671.808	41170.23
672.157	41412.03
672.507	41257.46
672.856	41163
673.205	41329.77
673.554	41424.01
673.904	41394.18
674.253	41680.5
674.602	41514.85
674.951	40887.75
675.3	40957.36
675.649	41509.21
675.998	41640.5
676.346	41652.03
676.695	41707.17
677.044	41429.43
677.393	41717.11
677.741	41721.85
678.09	41632.14
678.438	41555.31
678.787	41681.18
679.135	41708.75
679.484	41434.18
679.832	41643.66
680.181	41487.96
680.529	41597.34
680.877	41667.85
681.225	41486.83
681.573	41685.7
681.922	41594.17
682.27	41440.96
682.618	41631.01
682.966	41558.02
683.314	41750.33
683.661	41623.78
684.009	41414.74
684.357	41510.11
684.705	41208.65
685.053	41443.22
685.4	41486.38
685.748	41128.42
686.095	41291.36
686.443	41233.96
686.79	41085.04
687.138	41247.97
687.485	41177.46
687.832	41240.06
688.18	41171.59
688.527	40950.35
688.874	41123
689.221	40934.53
689.568	40851.6
689.915	40744.71
690.262	40704.25
690.609	40811.37
690.956	40656.57
691.303	40775.67
691.65	40568.66
691.997	40617.7
692.344	40469.91
692.69	40556.91
693.037	40637.14
693.383	40335.68
693.73	40566.41
694.077	40327.99
694.423	40348.56
694.769	40297.03
695.116	40286.19
695.462	40252.74
695.808	40002.35
696.155	40031.96
696.501	39941.34
696.847	39772.53
697.193	39529.37
697.539	39832.41
697.885	39645.07
698.231	39520.1
698.577	39698.18
698.923	39638.52
699.269	39377.74
699.614	39328.92
699.96	39280.79
700.306	39294.12
700.651	39203.28
700.997	39156.27
701.342	39129.15
701.688	39194.69
702.033	38877.18
702.379	39042.38
702.724	38920.12
703.069	39132.77
703.415	38762.16
703.76	38790.86
704.105	38978.65
704.45	38792.21
704.795	38584.54
705.14	38576.85
705.485	38537.98
705.83	38400.36
706.175	38429.06
706.52	38344.77
706.865	38236.52
707.209	38225.22
707.554	38315.84
707.899	38438.1
708.243	38269.52
708.588	38255.28
708.932	37993.37
709.277	37848.28
709.621	38119.69
709.966	37723.54
710.31	37925.8
710.654	37590.89
710.998	37755.18
711.342	37952.24
711.687	37783.2
712.031	37750.89
712.375	37694.39
712.719	37825.23
713.063	37622.98
713.407	37704.33
713.75	37516.99
714.094	37440.39
714.438	37349.54
714.782	37317.68
715.125	37209.66
715.469	37388.64
715.812	37294.17
716.156	37126.95
716.499	37264.35
716.843	37383.21
717.186	37065.03
717.53	37310.45
717.873	37240.62
718.216	37241.29
718.559	37144.57
718.902	37058.47
719.246	37056.21
719.589	36805.83
719.932	36784.13
720.275	36898.25
720.617	37010.79
720.96	36868.42
721.303	36883.79
721.646	36861.64
721.989	36941.64
722.331	36894.64
722.674	36875.88
723.016	36805.83
723.359	36808.31
723.701	36877.91
724.044	36641.99
724.386	36443.58
724.729	36643.34
725.071	36642.89
725.413	36675.66
725.755	36634.76
726.097	36446.74
726.439	36339.62
726.782	36409.45
727.124	36503.01
727.465	36255.56
727.807	36276.12
728.149	36303.69
728.491	36247.2
728.833	36379.4
729.175	36258.27
729.516	36171.94
729.858	36205.39
730.199	36376.46
730.541	36190.7
730.882	36130.36
731.224	36332.17
731.565	35877.94
731.906	35989.35
732.248	36181.44
732.589	35981.67
732.93	36017.15
733.271	35901.22
733.612	35837.04
733.953	36109.8
734.294	35977.83
734.635	35892.4
734.976	36025.51
735.317	35893.53
735.658	35796.81
735.999	35978.73
736.339	35892.86
736.68	36044.26
737.021	35926.3
737.361	35690.6
737.702	35878.84
738.042	35796.14
738.383	35759.3
738.723	35759.3
739.063	35620.55
739.404	35791.84
739.744	35482.92
740.084	35416.48
740.424	35694.44
740.764	35610.15
741.104	35708.68
741.444	35578.51
741.784	35570.15
742.124	35611.73
742.464	35640.21
742.804	35597.72
743.143	35437.73
743.483	35477.05
743.823	35256.49
744.162	35292.19
744.502	35423.94
744.841	35329.71
745.181	35458.29
745.52	35399.99
745.86	35524.28
746.199	35403.83
746.538	35338.75
746.877	35432.53
747.216	35579.19
747.556	35416.48
747.895	35475.69
748.234	35200.9
748.573	35272.31
748.911	35378.97
749.25	35287.22
749.589	35066.21
749.928	35249.26
750.267	35236.38
750.605	35130.16
750.944	35028.92
751.283	34964.29
751.621	34996.83
751.96	34941.92
752.298	34802.94
752.636	35049.04
752.975	34824.18
753.313	34672.55
753.651	34867.8
753.989	34722.72
754.327	34621.25
754.666	34602.72
755.004	34719.78
755.342	34688.37
755.679	34707.12
756.017	34394.82
756.355	34553
756.693	34343.74
757.031	34451.31
757.368	34286.34
757.706	34389.62
758.044	34212
758.381	34276.63
758.719	34197.31
759.056	34247.02
759.394	34170.87
759.731	33837.09
760.068	33973.81
760.405	33744.21
760.743	33603.65
761.08	33693.37
761.417	33478
761.754	33593.26
762.091	33394.39
762.428	33387.16
762.765	33277.78
763.102	33518
763.438	33169.99
763.775	33120.95
764.112	32993.72
764.449	33193.94
764.785	32963.89
765.122	32734.52
765.458	32772.03
765.795	32720.06
766.131	32703.34
766.467	32523.9
766.804	32417.47
767.14	32249.79
767.476	32292.05
767.812	32261.99
768.148	32294.76
768.485	32052.96
768.821	32008.44
769.157	31923.02
769.492	31877.14
769.828	32057.7
770.164	31790.59
770.5	31547.21
770.836	31578.84
771.171	31406.87
771.507	31398.74
771.842	31321.45
772.178	31380.43
772.513	31175.69
772.849	31176.6
773.184	31088.01
773.519	31124.39
773.855	30888.02
774.19	30857.06
774.525	30749.04
774.86	30821.58
775.195	30797.17
775.53	30626.55
775.865	30596.05
776.2	30351.98
776.535	30310.18
776.87	30097.08
777.205	30042.84
777.539	29958.32
777.874	30083.52
778.209	29676.07
778.543	29731.89
778.878	29660.7
779.212	29738.89
779.547	29538.22
779.881	29584.77
780.215	29339.36
780.55	29392.46
780.884	29259.81
781.218	29144.11
781.552	29142.98
781.886	29046.48
782.22	28996.09
782.554	28835.41
782.888	28714.97
783.222	28601.97
783.556	28599.71
783.889	28570.34
784.223	28455.54
784.557	28310.46
784.89	28295.32
785.224	28151.36
785.557	28036.34
785.891	28101.65
786.224	28089.22
786.558	28031.14
786.891	27812.16
787.224	27686.29
787.557	27628.89
787.891	27603.81
788.224	27712.05
788.557	27627.54
788.89	27533.53
789.223	27434.55
789.556	27315.91
789.888	27333.98
790.221	27309.13
790.554	27010.15
790.887	27122.46
791.219	27109.58
791.552	26845.64
791.884	26761.12
792.217	26701.68
792.549	26656.26
792.882	26451.75
793.214	26441.35
793.546	26518.64
793.879	26493.33
794.211	26218.08
794.543	26344.18
794.875	26331.3
795.207	26429.83
795.539	26282.03
795.871	26217.4
796.203	26022.83
796.535	25933.12
796.867	25856.96
797.198	25779.22
797.53	25774.7
797.862	25513.47
798.193	25737.42
798.525	25527.03
798.856	25545.78
799.188	25259.91
799.519	25275.28
799.85	25147.15
800.182	25098.11
800.513	25188.73
800.844	24953.03
801.175	25225.79
801.506	25094.27
801.837	24803.2
802.168	24986.93
802.499	24878.46
802.83	24871.22
803.161	24855.63
803.491	24792.13
803.822	24745.8
804.153	24624.45
804.483	24472.82
804.814	24469.88
805.145	24377.45
805.475	24371.35
805.805	24383.33
806.136	24288.19
806.466	24288.64
806.796	24382.88
807.126	24169.55
807.457	24125.26
807.787	24121.87
808.117	23995.77
808.447	24120.96
808.777	24059.27
809.107	23872.38
809.436	23736.79
809.766	23798.26
810.096	23745.83
810.426	23617.47
810.755	23558.49
811.085	23683.01
811.414	23592.16
811.744	23434.88
812.073	23451.15
812.403	23574.99
812.732	23411.83
813.061	23352.62
813.39	23207.54
813.719	23221.78
814.049	23236.69
814.378	23210.7
814.707	23188.56
815.036	23155.56
815.365	23025.4
815.693	22924.61
816.022	22946.3
816.351	22810.49
816.68	22613.43
817.008	22857.72
817.337	22678.97
817.665	22576.82
817.994	22636.26
818.322	22757.61
818.651	22664.05
818.979	22696.37
819.307	22733.65
819.636	22586.76
819.964	22408.69
820.292	22606.65
820.62	22554.68
820.948	22500.67
821.276	22612.3
821.604	22633.77
821.932	22430.16
822.259	22502.02
822.587	22416.83
822.915	22410.05
823.243	22585.86
823.57	22417.05
823.898	22483.04
824.225	22441.68
824.553	22472.42
824.88	22501.34
825.207	22619.31
825.535	22549.7
825.862	22665.41
826.189	22578.63
826.516	22574.11
826.843	22758.96
827.17	22692.3
827.497	22705.63
827.824	22756.7
828.151	22867.21
828.478	22710.38
828.805	22826.76
829.131	22607.56
829.458	22624.28
829.785	22515.35
830.111	22665.18
830.438	22723.48
830.764	22785.4
831.09	22760.09
831.417	22708.8
831.743	22740.66
832.069	22958.51
832.395	22813.2
832.722	23014.32
833.048	22771.17
833.374	22961.44
833.7	22910.82
834.026	22916.7
834.351	22869.92
834.677	22904.04
835.003	22915.34
835.329	22861.56
835.654	22851.84
835.98	22823.14
836.306	22852.75
836.631	22650.72
836.956	22824.5
837.282	22833.76
837.607	22631.74
837.932	22535.92
838.258	22584.96
838.583	22582.02
838.908	22408.69
839.233	22512.19
839.558	22451.63
839.883	22520.55
840.208	22340.67
840.533	22471.06
840.858	22504.96
841.182	22550.16
841.507	22477.16
841.832	22447.56
842.156	22319.65
842.481	22276.49
842.805	22297.28
843.13	22294.8
843.454	22208.7
843.778	22180.45
844.103	22194.01
844.427	22196.72
844.751	22085.54
845.075	22083.5
845.399	22041.92
845.723	21918.31
846.047	21886.44
846.371	21718.09
846.695	21812.32
847.019	21773
847.343	21613.01
847.666	21377.76
847.99	21339.57
848.313	21312.45
848.637	21264.09
848.96	21369.62
849.284	21257.99
849.607	21046.92
849.931	21060.7
850.254	20874.72
850.577	20853.93
850.9	20770.54
851.223	20644.22
851.546	20510.21
851.869	20505.46
852.192	20636.31
852.515	20424.34
852.838	20326.94
853.161	20293.94
853.483	20241.74
853.806	20167.62
854.129	20216.66
854.451	20172.14
854.774	20071.35
855.096	20091.01
855.419	20110.45
855.741	20050.11
856.063	19865.25
856.385	19913.16
856.708	19853.96
857.03	19720.17
857.352	19854.63
857.674	19660.74
857.996	19644.47
858.318	19553.17
858.64	19546.17
858.961	19526.28
859.283	19354.08
859.605	19357.02
859.926	19430.69
860.248	19431.82
860.57	19261.2
860.891	19297.59
861.212	19206.97
861.534	19162.67
861.855	19097.59
862.176	19115.22
862.498	19179.62
862.819	19132.84
863.14	19108.66
863.461	19093.3
863.782	18964.26
864.103	18962.91
864.424	18917.93
864.745	19060.76
865.065	18934.66
865.386	18999.51
865.707	18921.1
866.027	18959.06
866.348	18879.97
866.668	18897.6
866.989	18840.2
867.309	18731.95
867.63	18791.61
867.95	18786.86
868.27	18717.26
868.59	18662.8
868.91	18624.61
869.23	18430.49
869.55	18579.86
869.87	18609.92
870.19	18567.21
870.51	18566.08
870.83	18617.6
871.15	18392.3
871.469	18507.32
871.789	18568.11
872.109	18559.98
872.428	18357.5
872.748	18388.01
873.067	18338.74
873.386	18472.3
873.706	18515.46
874.025	18345.97
874.344	18286.99
874.663	18463.26
874.982	18418.74
875.301	18379.64
875.62	18290.83
875.939	18336.48
876.258	18306.88
876.577	18211.96
876.896	18235.92
877.214	18272.98
877.533	18202.02
877.852	18254.68
878.17	18264.17
878.489	18210.83
878.807	18143.27
879.125	18012.87
879.444	18100.33
879.762	17992.76
880.08	17998.18
880.398	17943.72
880.716	17971.29
881.034	17918.41
881.352	17937.4
881.67	17947.11
881.988	17949.6
882.306	17891.3
882.624	17792.54
882.941	17823.95
883.259	17738.53
883.577	17721.58
883.894	17669.61
884.212	17803.16
884.529	17628.25
884.846	17722.03
885.164	17657.4
885.481	17555.71
885.798	17638.42
886.115	17539.67
886.432	17558.87
886.75	17534.24
887.067	17584.18
887.383	17498.31
887.7	17437.75
888.017	17430.97
888.334	17529.27
888.651	17317.52
888.967	17325.89
889.284	17172.67
889.6	17179.9
889.917	17011.77
890.233	17058.77
890.55	16925.9
890.866	17093.8
891.182	16976.97
891.498	16988.49
891.815	16922.73
892.131	16842.96
892.447	16845.67
892.763	16753.25
893.079	16703.3
893.395	16716.64
893.71	16732.68
894.026	16670.31
894.342	16513.25
894.657	16515.74
894.973	16430.99
895.289	16465.57
895.604	16521.84
895.92	16249.08
896.235	16355.06
896.55	16422.63
896.865	16340.15
897.181	16301.73
897.496	16221.73
897.811	16174.96
898.126	16175.63
898.441	16000.5
898.756	15884.79
899.071	15836.43
899.386	15928.41
899.7	15803.67
900.015	15699.71
900.33	15615.42
900.644	15639.83
900.959	15565.03
901.273	15588.98
901.588	15508.98
901.902	15350.57
902.216	15444.58
902.531	15378.14
902.845	15400.29
903.159	15325.26
903.473	15261.08
903.787	15128.66
904.101	15105.83
904.415	15091.59
904.729	15078.04
905.042	15049.34
905.356	15019.28
905.67	14906.97
905.984	14925.27
906.297	14802.34
906.611	14785.16
906.924	14816.35
907.237	14729.57
907.551	14702.9
907.864	14657.03
908.177	14527.99
908.491	14464.27
908.804	14428.56
909.117	14371.16
909.43	14318.28
909.743	14259.75
910.056	14310.37
910.368	14235.8
910.681	14053.66
910.994	14076.48
911.307	13986.31
911.619	13899.99
911.932	13952.42
912.244	13856.6
912.557	13826.09
912.869	13748.35
913.181	13790.16
913.494	13713.55
913.806	13644.63
914.118	13664.97
914.43	13551.97
914.742	13571.63
915.054	13438.98
915.366	13425.88
915.678	13371.87
915.99	13367.12
916.302	13301.13
916.613	13207.35
916.925	13184.75
917.236	13128.26
917.548	13177.29
917.859	13206.45
918.171	13034.47
918.482	12975.27
918.794	12962.39
919.105	12937.3
919.416	12801.49
919.727	12766.68
920.038	12750.64
920.349	12582.06
920.66	12675.84
920.971	12675.61
921.282	12547.48
921.593	12534.37
921.903	12489.4
922.214	12394.49
922.525	12386.81
922.835	12394.04
923.146	12215.51
923.456	12233.14
923.767	12098.23
924.077	12107.27
924.387	12004.22
924.697	11895.97
925.008	11968.51
925.318	11916.31
925.628	11898.68
925.938	11773.04
926.248	11792.25
926.558	11673.15
926.867	11673.15
927.177	11649.43
927.487	11590.44
927.796	11505.47
928.106	11524.23
928.416	11394.29
928.725	11464.35
929.034	11273.39
929.344	11402.2
929.653	11331.92
929.962	11195.43
930.271	11235.65
930.581	11216.89
930.89	11089.89
931.199	11026.62
931.508	11055.99
931.817	11158.36
932.125	11039.27
932.434	10968.54
932.743	10861.65
933.051	10852.61
933.36	10835.66
933.669	10700.07
933.977	10756.57
934.286	10726.29
934.594	10701.88
934.902	10624.14
935.21	10507.53
935.519	10577.59
935.827	10570.81
936.135	10483.35
936.443	10357.93
936.751	10319.29
937.059	10298.05
937.367	10293.98
937.674	10358.16
937.982	10266.86
938.29	10160.42
938.597	10172.4
938.905	10034.33
939.213	9945.52
939.52	9862.81
939.827	9957.04
940.135	9985.97
940.442	9912.07
940.749	9941.9
941.056	9814.22
941.363	9714.33
941.67	9764.5
941.977	9644.73
942.284	9582.36
942.591	9641.57
942.898	9566.32
943.205	9517.73
943.511	9473.21
943.818	9349.15
944.125	9368.81
944.431	9382.14
944.738	9298.07
945.044	9356.15
945.35	9303.05
945.657	9243.61
945.963	9276.15
946.269	9169.72
946.575	9176.95
946.881	9062.37
947.187	9119.1
947.493	9030.74
947.799	8918.42
948.105	8936.28
948.41	8864.87
948.716	8817.18
949.022	8786.45
949.327	8820.35
949.633	8808.82
949.938	8793.68
950.244	8791.65
950.549	8692.67
950.854	8632.56
951.16	8595.95
951.465	8582.61
951.77	8503.07
952.075	8569.51
952.38	8446.8
952.685	8472.79
952.99	8428.49
953.294	8327.48
953.599	8349.85
953.904	8294.26
954.209	8258.33
954.513	8219.46
954.818	8222.17
955.122	8145.56
955.426	8117.54
955.731	8083.87
956.035	8026.02
956.339	7969.07
956.643	7964.32
956.948	7926.59
957.252	7934.95
957.556	8023.76
957.86	7904.21
958.163	7903.08
958.467	7806.81
958.771	7834.84
959.075	7713.71
959.378	7672.35
959.682	7712.13
959.985	7706.7
960.289	7609.53
960.592	7570.21
960.896	7551.23
961.199	7525.69
961.502	7543.32
961.805	7436.65
962.108	7465.13
962.411	7418.35
962.714	7389.2
963.017	7392.36
963.32	7400.05
963.623	7265.13
963.926	7239.6
964.228	7192.14
964.531	7145.14
964.833	7202.54
965.136	7068.08
965.438	7057
965.741	7052.26
966.043	7033.5
966.345	6981.98
966.648	6941.3
966.95	6944.69
967.252	6896.33
967.554	6908.08
967.856	6910.57
968.158	6878.03
968.46	6828.31
968.761	6701.98
969.063	6755.99
969.365	6763.9
969.666	6671.25
969.968	6610.46
970.269	6608.2
970.571	6607.52
970.872	6655.43
971.174	6516.9
971.475	6559.62
971.776	6529.11
972.077	6478.71
972.378	6499.28
972.679	6421.09
972.98	6402.78
973.281	6300.41
973.582	6369.11
973.883	6356.91
974.183	6297.25
974.484	6307.19
974.785	6264.71
975.085	6231.26
975.386	6206.4
975.686	6151.04
975.986	6120.53
976.287	6084.15
976.587	6018.61
976.887	6030.59
977.187	6081.89
977.487	6040.08
977.787	5992.85
978.087	6000.08
978.387	5930.25
978.687	5992.17
978.987	5927.09
979.286	5868.11
979.586	5855.91
979.885	5824.27
980.185	5798.05
980.484	5775.23
980.784	5767.32
981.083	5731.61
981.382	5728.45
981.682	5777.26
981.981	5688.68
982.28	5664.95
982.579	5589.7
982.878	5561.45
983.177	5544.05
983.475	5570.72
983.774	5497.04
984.073	5508.57
984.372	5415.92
984.67	5397.16
984.969	5422.92
985.267	5410.95
985.566	5393.77
985.864	5302.02
986.162	5340.44
986.461	5293.43
986.759	5276.49
987.057	5215.7
987.355	5205.53
987.653	5172.99
987.951	5185.41
988.249	5147.22
988.547	5136.38
988.844	5044.4
989.142	5055.93
989.44	5062.93
989.737	5008.24
990.035	4986.32
990.332	5009.15
990.63	4936.83
990.927	4930.96
991.224	4947.45
991.521	4892.09
991.819	4858.87
992.116	4846.44
992.413	4816.61
992.71	4801.92
993.006	4808.7
993.303	4816.61
993.6	4792.88
993.897	4725.31
994.193	4729.61
994.49	4725.09
994.787	4674.92
995.083	4652.77
995.379	4672.21
995.676	4641.93
995.972	4570.29
996.268	4564.64
996.565	4509.95
996.861	4478.31
997.157	4522.61
997.453	4467.69
997.749	4461.37
998.044	4431.31
998.34	4464.08
998.636	4436.06
998.932	4343.63
999.227	4307.92
999.523	4295.95
999.818	4254.59
1000.114	4249.62
1000.409	4266.57
1000.704	4226.8
1001	4197.64
1001.295	4177.98
1001.59	4147.93
1001.885	4099.12
1002.18	4064.77
1002.475	4064.09
1002.77	4106.35
1003.065	4004.65
1003.359	3988.61
1003.654	3995.62
1003.949	3987.25
1004.243	3926.69
1004.538	3929.18
1004.832	3879.46
1005.127	3894.38
1005.421	3883.53
1005.715	3824.55
1006.009	3825.22
1006.304	3825.22
1006.598	3764.66
1006.892	3752.91
1007.186	3746.81
1007.48	3710.88
1007.773	3681.95
1008.067	3664.1
1008.361	3656.64
1008.655	3632.46
1008.948	3646.47
1009.242	3621.84
1009.535	3515.63
1009.829	3542.75
1010.122	3549.53
1010.415	3519.02
1010.708	3430.21
1011.001	3463.2
1011.295	3482.86
1011.588	3410.09
1011.881	3397.21
1012.173	3372.13
1012.466	3352.47
1012.759	3308.63
1013.052	3334.16
1013.344	3323.54
1013.637	3290.78
1013.93	3236.77
1014.222	3217.78
1014.514	3197.9
1014.807	3196.09
1015.099	3177.33
1015.391	3163.55
1015.683	3148.63
1015.976	3116.77
1016.268	3114.96
1016.56	3057.79
1016.851	3053.95
1017.143	3022.08
1017.435	3008.07
1017.727	2975.53
1018.018	2961.74
1018.31	2963.33
1018.602	2986.83
1018.893	2888.53
1019.185	2873.84
1019.476	2877.45
1019.767	2867.96
1020.058	2841.52
1020.35	2786.38
1020.641	2783.9
1020.932	2778.25
1021.223	2741.86
1021.514	2788.64
1021.804	2708.87
1022.095	2733.28
1022.386	2706.16
1022.677	2672.49
1022.967	2624.8
1023.258	2639.27
1023.548	2590.68
1023.839	2569.66
1024.129	2564.92
1024.419	2539.61
1024.709	2512.72
1025	2492.83
1025.29	2509.55
1025.58	2486.05
1025.87	2428.2
1026.16	2463.23
1026.449	2402.21
1026.739	2428.88
1027.029	2396.56
1027.319	2358.14
1027.608	2354.75
1027.898	2351.59
1028.187	2283.8
1028.477	2304.81
1028.766	2289.67
1029.055	2249.9
1029.344	2261.42
1029.634	2214.87
1029.923	2228.88
1030.212	2246.06
1030.501	2180.3
1030.79	2138.94
1031.078	2152.95
1031.367	2136.91
1031.656	2094.87
1031.945	2085.16
1032.233	2122.67
1032.522	2063.69
1032.81	2036.12
1033.099	2046.97
1033.387	2013.07
1033.675	2015.33
1033.963	2008.32
1034.251	2003.58
1034.54	1989.11
1034.828	1962.9
1035.116	1936.91
1035.403	1928.78
1035.691	1897.59
1035.979	1899.17
1036.267	1893.3
1036.554	1882.68
1036.842	1893.75
1037.129	1836.12
1037.417	1829.34
1037.704	1819.85
1037.992	1804.71
1038.279	1803.13
1038.566	1786.18
1038.853	1786.18
1039.14	1786.18
