Data from copper_heatsink_FLMS001491_098.txt Node
Date: Tue Feb 07 10:50:53 GMT 2017
User: dcchb
Spectrometer: FLMS00149
Trigger mode: 0
Integration Time (sec): 2.000000E-2
Scans to average: 10
Electric dark correction enabled: true
Nonlinearity correction enabled: false
Boxcar width: 0
XAxis mode: Wavelengths
Number of Pixels in Spectrum: 2048
>>>>>Begin Spectral Data<<<<<
341.393	1.65
341.776	1.65
342.16	1.65
342.543	-65.01
342.927	-64.56
343.31	-58.91
343.693	-66.59
344.077	-52.81
344.46	-32.24
344.843	-40.38
345.226	-44.22
345.61	-38.12
345.993	-28.4
346.376	-24.79
346.759	7.08
347.142	24.93
347.525	42.78
347.908	52.05
348.291	72.16
348.674	87.75
349.057	99.73
349.44	111.25
349.823	145.83
350.206	155.32
350.588	194.64
350.971	216.34
351.354	253.17
351.737	258.14
352.119	254.75
352.502	277.13
352.884	281.65
353.267	285.71
353.65	294.75
354.032	304.7
354.414	294.53
354.797	304.7
355.179	315.54
355.562	325.03
355.944	318.03
356.326	341.08
356.709	332.04
357.091	319.84
357.473	323.45
357.855	328.42
358.238	349.21
358.62	351.7
359.002	340.63
359.384	351.25
359.766	333.4
360.148	337.46
360.53	339.04
360.912	333.62
361.294	353.06
361.676	349.67
362.057	348.99
362.439	330.91
362.821	326.62
363.203	323.68
363.584	344.47
363.966	332.04
364.348	321.19
364.729	307.18
365.111	352.38
365.493	330.91
365.874	344.47
366.256	313.28
366.637	342.21
367.019	332.49
367.4	324.58
367.781	308.54
368.163	316.22
368.544	315.99
368.925	322.32
369.306	313.51
369.688	290.91
370.069	336.56
370.45	315.99
370.831	314.19
371.212	325.03
371.593	311.93
371.974	337.24
372.355	341.76
372.736	331.59
373.117	338.82
373.498	325.94
373.879	339.72
374.26	290.46
374.641	311.7
375.021	327.29
375.402	341.08
375.783	340.85
376.163	346.5
376.544	341.3
376.925	339.5
377.305	346.05
377.686	336.78
378.066	351.02
378.447	339.27
378.827	351.02
379.208	339.27
379.588	333.4
379.968	348.54
380.349	369.33
380.729	348.08
381.109	361.42
381.489	346.5
381.87	337.69
382.25	347.18
382.63	336.78
383.01	370
383.39	353.28
383.77	346.73
384.15	370.46
384.53	349.67
384.91	371.36
385.29	362.09
385.67	346.28
386.049	371.13
386.429	366.84
386.809	366.61
387.189	380.85
387.568	385.15
387.948	373.39
388.328	379.95
388.707	376.33
389.087	381.3
389.466	379.04
389.846	380.4
390.225	381.08
390.605	402.55
390.984	386.73
391.363	391.7
391.743	393.51
392.122	383.34
392.501	393.73
392.881	397.8
393.26	372.72
393.639	384.92
394.018	400.29
394.397	408.87
394.776	383.11
395.155	383.34
395.534	390.34
395.913	404.81
396.292	430.34
396.671	409.55
397.05	396.22
397.429	408.87
397.808	413.62
398.186	410
398.565	411.59
398.944	415.43
399.323	418.14
399.701	434.18
400.08	429.44
400.458	434.18
400.837	449.1
401.215	427.86
401.594	421.08
401.972	420.17
402.351	431.92
402.729	444.8
403.107	443.45
403.486	428.31
403.864	429.89
404.242	430.34
404.62	445.26
404.999	445.48
405.377	435.31
405.755	462.21
406.133	456.1
406.511	464.01
406.889	439.83
407.267	462.88
407.645	454.75
408.023	466.05
408.401	475.54
408.779	476.67
409.156	461.98
409.534	486.61
409.912	470.11
410.29	501.3
410.667	471.47
411.045	497.01
411.422	489.78
411.8	505.37
412.178	502.2
412.555	502.2
412.933	497.46
413.31	498.36
413.687	505.37
414.065	515.99
414.442	512.83
414.819	516.89
415.197	508.31
415.574	528.87
415.951	520.06
416.328	536.55
416.705	540.17
417.082	515.99
417.46	519.83
417.837	536.33
418.214	535.88
418.591	568.19
418.967	548.53
419.344	557.12
419.721	561.19
420.098	538.36
420.475	570.23
420.852	581.98
421.228	568.87
421.605	562.99
421.982	567.29
422.358	551.02
422.735	569.55
423.111	570.68
423.488	590.79
423.864	579.26
424.241	606.16
424.617	595.08
424.994	611.13
425.37	591.24
425.746	602.09
426.123	602.77
426.499	606.16
426.875	622.88
427.251	605.25
427.627	643.67
428.003	624.01
428.379	644.8
428.756	623.33
429.132	635.99
429.507	620.39
429.883	655.87
430.259	680.05
430.635	654.29
431.011	660.17
431.387	685.93
431.763	654.06
432.138	680.5
432.514	672.82
432.89	670.11
433.265	685.93
433.641	687.06
434.016	707.62
434.392	709.43
434.767	725.02
435.143	725.48
435.518	746.04
435.894	727.28
436.269	760.95
436.644	727.06
437.02	725.93
437.395	746.49
437.77	765.7
438.145	776.55
438.52	770.45
438.895	786.49
439.271	759.6
439.646	783.78
440.021	786.26
440.395	773.84
440.77	770.67
441.145	792.59
441.52	791.01
441.895	796.21
442.27	796.43
442.645	829.88
443.019	824
443.394	820.16
443.769	824
444.143	821.74
444.518	813.83
444.892	846.15
445.267	846.15
445.641	827.17
446.016	849.54
446.39	859.26
446.764	859.26
447.139	872.82
447.513	871.23
447.887	881.63
448.262	873.95
448.636	847.73
449.01	868.3
449.384	894.51
449.758	863.32
450.132	911.46
450.506	906.04
450.88	914.4
451.254	908.75
451.628	919.14
452.002	914.4
452.376	959.59
452.75	929.76
453.123	939.25
453.497	951.91
453.871	982.87
454.244	957.56
454.618	999.37
454.992	984.9
455.365	1008.18
455.739	1029.42
456.112	1017.22
456.486	1032.13
456.859	1061.74
457.232	1039.37
457.606	1053.38
457.979	1056.54
458.352	1099.93
458.725	1082.75
459.099	1092.47
459.472	1105.13
459.845	1131.34
460.218	1127.27
460.591	1118.46
460.964	1174.95
461.337	1154.84
461.71	1162.98
462.083	1187.61
462.456	1181.73
462.829	1210.89
463.201	1216.99
463.574	1225.35
463.947	1221.06
464.32	1234.61
464.692	1233.94
465.065	1280.71
465.438	1263.31
465.81	1301.28
466.183	1308.74
466.555	1310.32
466.928	1362.75
467.3	1369.3
467.672	1366.59
468.045	1377.89
468.417	1383.99
468.789	1367.94
469.161	1387.83
469.534	1430.09
469.906	1476.42
470.278	1505.57
470.65	1498.56
471.022	1508.28
471.394	1518.22
471.766	1541.5
472.138	1581.27
472.51	1596.41
472.882	1620.82
473.253	1621.27
473.625	1653.13
473.997	1703.53
474.369	1693.59
474.74	1707.6
475.112	1732.91
475.484	1774.94
475.855	1825.33
476.227	1795.05
476.598	1859.23
476.97	1867.59
477.341	1868.5
477.713	1923.64
478.084	1942.62
478.455	1976.29
478.827	1964.99
479.198	2014.71
479.569	2066.46
479.94	2073.24
480.311	2115.04
480.682	2147.81
481.053	2222.61
481.424	2246.11
481.795	2266.9
482.166	2307.35
482.537	2348.03
482.908	2359.56
483.279	2363.85
483.65	2450.63
484.021	2434.13
484.391	2470.29
484.762	2458.09
485.133	2516.39
485.503	2587.8
485.874	2615.37
486.244	2673.9
486.615	2726.1
486.985	2710.28
487.356	2752.31
487.726	2807.91
488.097	2834.12
488.467	2846.55
488.837	2932.87
489.207	2964.29
489.578	3036.83
489.948	3044.74
490.318	3018.07
490.688	3100.78
491.058	3066.2
491.428	3167.44
491.798	3227.56
492.168	3233.88
492.538	3246.76
492.908	3266.2
493.278	3305.75
493.648	3366.31
494.017	3427.78
494.387	3449.25
494.757	3451.73
495.126	3484.72
495.496	3498.51
495.866	3556.59
496.235	3573.31
496.605	3602.46
496.974	3617.83
497.344	3662.8
497.713	3692.63
498.082	3717.71
498.452	3776.69
498.821	3782.34
499.19	3789.12
499.559	3853.75
499.928	3833.87
500.298	3879.29
500.667	3954.54
501.036	3914.77
501.405	3980.08
501.774	3995.67
502.143	4023.24
502.512	4038.16
502.88	4067.31
503.249	4098.49
503.618	4125.16
503.987	4095.33
504.356	4185.72
504.724	4196.57
505.093	4209
505.462	4225.95
505.83	4274.53
506.199	4328.09
506.567	4369.22
506.936	4359.05
507.304	4458.26
507.672	4441.76
508.041	4442.89
508.409	4536.67
508.777	4560.85
509.145	4590.68
509.514	4587.52
509.882	4647.18
510.25	4641.76
510.618	4718.36
510.986	4744.58
511.354	4785.71
511.722	4810.11
512.09	4836.55
512.458	4897.57
512.826	4872.26
513.193	4965.14
513.561	5000.17
513.929	5063.67
514.297	5026.15
514.664	5119.03
515.032	5121.74
515.4	5161.97
515.767	5227.28
516.135	5292.81
516.502	5282.42
516.869	5327.16
517.237	5386.6
517.604	5355.64
517.972	5450.32
518.339	5458.46
518.706	5483.09
519.073	5484.45
519.44	5569.42
519.808	5638.79
520.175	5653.48
520.542	5768.28
520.909	5778.68
521.276	5784.1
521.643	5853.48
522.009	5897.99
522.376	5929.41
522.743	5949.74
523.11	6050.31
523.477	6095.5
523.843	6141.6
524.21	6195.39
524.577	6303.41
524.943	6290.53
525.31	6292.11
525.676	6370.98
526.043	6422.73
526.409	6518.77
526.776	6577.98
527.142	6549.73
527.508	6598.54
527.874	6713.34
528.241	6728.48
528.607	6789.04
528.973	6825.43
529.339	6845.99
529.705	6925.31
530.071	7051.18
530.437	7033.78
530.803	7089.15
531.169	7170.5
531.535	7121.01
531.901	7191.52
532.267	7283.04
532.632	7285.3
532.998	7357.39
533.364	7320.56
533.73	7450.95
534.095	7437.84
534.461	7548.12
534.826	7584.5
535.192	7629.25
535.557	7741.11
535.923	7757.83
536.288	7713.99
536.653	7843.71
537.019	7806.42
537.384	7948.79
537.749	7975.23
538.114	7948.56
538.479	8058.39
538.845	8080.08
539.21	7997.15
539.575	8104.72
539.94	8115.79
540.305	8224.94
540.67	8269.46
541.034	8298.61
541.399	8353.75
541.764	8431.71
542.129	8438.27
542.494	8482.33
542.858	8528.43
543.223	8559.62
543.587	8663.8
543.952	8636
544.316	8791.03
544.681	8746.51
545.045	8743.57
545.41	8798.26
545.774	8934.52
546.138	8988.53
546.503	9044.13
546.867	9074.63
547.231	9154.41
547.595	9179.26
547.959	9214.29
548.324	9315.98
548.688	9339.71
549.052	9406.15
549.416	9430.78
549.779	9428.07
550.143	9562.31
550.507	9693.15
550.871	9684.34
551.235	9740.15
551.599	9873.03
551.962	9878.68
552.326	9934.72
552.689	10044.1
553.053	9965.01
553.417	10139.47
553.78	10313.92
554.143	10259.69
554.507	10343.75
554.87	10416.97
555.234	10588.72
555.597	10602.73
555.96	10691.31
556.323	10781.03
556.686	10819.22
557.05	10935.6
557.413	10959.33
557.776	11093.34
558.139	11264.18
558.502	11318.42
558.865	11417.17
559.228	11462.14
559.59	11563.16
559.953	11734.45
560.316	11848.57
560.679	11898.29
561.041	12011.05
561.404	12156.59
561.767	12294.89
562.129	12365.85
562.492	12548.44
562.854	12651.49
563.217	12631.6
563.579	12793.41
563.941	12929.9
564.304	12989.79
564.666	13178.93
565.028	13321.98
565.39	13405.14
565.753	13627.06
566.115	13701.86
566.477	13810.1
566.839	13852.59
567.201	14076.99
567.563	14086.25
567.925	14261.84
568.287	14457.54
568.648	14528.28
569.01	14757.2
569.372	14848.27
569.734	14927.81
570.095	15061.82
570.457	15202.38
570.819	15177.07
571.18	15405.77
571.542	15641.69
571.903	15784.51
572.265	15848.92
572.626	15851.41
572.987	16102.47
573.349	16176.37
573.71	16485.74
574.071	16572.97
574.432	16656.36
574.794	16810.93
575.155	16835.33
575.516	16914.88
575.877	17089.11
576.238	17155.78
576.599	17320.75
576.96	17434.19
577.32	17536.11
577.681	17718.93
578.042	17744.24
578.403	17859.71
578.763	17917.11
579.124	17979.26
579.485	18198.46
579.845	18339.02
580.206	18397.1
580.566	18404.56
580.927	18564.78
581.287	18765.9
581.648	18636.64
582.008	18861.95
582.368	18870.99
582.728	18995.96
583.089	19118.89
583.449	19079.34
583.809	19292.9
584.169	19431.42
584.529	19336.96
584.889	19519.78
585.249	19514.36
585.609	19597.3
585.969	19822.37
586.329	19682.26
586.688	19848.36
587.048	19962.94
587.408	19891.75
587.768	19945.99
588.127	20119.54
588.487	20112.54
588.846	20243.83
589.206	20216.49
589.565	20354.56
589.925	20435.92
590.284	20412.87
590.643	20571.73
591.003	20672.75
591.362	20877.26
591.721	20804.5
592.08	20937.6
592.44	20940.08
592.799	21045.39
593.158	20971.5
593.517	21049.01
593.876	21151.38
594.235	21187.99
594.593	21264.37
594.952	21361.32
595.311	21370.13
595.67	21513.63
596.029	21624.59
596.387	21649.44
596.746	21787.07
597.104	21786.84
597.463	21728.54
597.822	21883.79
598.18	21882.66
598.538	21856.45
598.897	22123.33
599.255	22022.32
599.613	22333.04
599.972	22242.65
600.33	22329.43
600.688	22367.84
601.046	22515.18
601.404	22625.01
601.762	22493.26
602.12	22741.17
602.478	22691.23
602.836	22761.73
603.194	22729.42
603.552	22858.9
603.91	22900.49
604.268	23166.47
604.625	22970.77
604.983	23183.19
605.341	23119.91
605.698	23413.69
606.056	23448.49
606.413	23350.87
606.771	23566.91
607.128	23648.71
607.485	23545.44
607.843	23596.74
608.2	23789.5
608.557	23957.41
608.914	23816.39
609.272	24031.53
609.629	24048.93
609.986	24167.57
610.343	24136.16
610.7	24359.2
611.057	24360.11
611.414	24506.09
611.771	24483.95
612.127	24563.04
612.484	24753.54
612.841	24695.69
613.198	24762.81
613.554	24825.18
613.911	25012.75
614.267	24962.58
614.624	25098.17
614.98	25056.59
615.337	25210.48
615.693	25118.05
616.05	25209.58
616.406	25416.13
616.762	25378.39
617.118	25510.59
617.475	25525.95
617.831	25565.05
618.187	25694.08
618.543	25724.37
618.899	25913.51
619.255	25890.69
619.611	25924.81
619.967	26040.97
620.323	26063.34
620.678	26075.54
621.034	26050.91
621.39	26159.16
621.746	26123
622.101	26478.47
622.457	26246.16
622.812	26354.18
623.168	26552.82
623.523	26488.41
623.879	26494.06
624.234	26434.63
624.589	26504.68
624.945	26543.1
625.3	26581.97
625.655	26640.73
626.01	26690.89
626.365	26708.97
626.72	26840.04
627.075	26699.48
627.43	26883.21
627.785	26770.89
628.14	26803.43
628.495	26946.48
628.85	26921.85
629.205	26827.84
629.559	27009.98
629.914	26916.88
630.269	27023.31
630.623	27084.33
630.978	27061.28
631.332	27174.5
631.687	27182.86
632.041	27090.66
632.396	27243.2
632.75	27172.92
633.104	27208.39
633.459	27116.65
633.813	27127.94
634.167	27239.13
634.521	27165.91
634.875	27292.01
635.229	27231.67
635.583	27069.19
635.937	27056.53
636.291	27243.2
636.645	27129.3
636.999	27186.25
637.352	27276.87
637.706	27097.66
638.06	27275.96
638.413	27109.64
638.767	27174.27
639.121	27260.6
639.474	27201.62
639.828	27169.98
640.181	27183.08
640.534	27248.17
640.888	27220.82
641.241	27193.03
641.594	27212.69
641.947	27388.73
642.301	27230.54
642.654	27316.87
643.007	27361.39
643.36	27348.05
643.713	27300.14
644.066	27431.89
644.419	27292.46
644.771	27074.61
645.124	26706.04
645.477	26773.15
645.83	26554.63
646.182	26470.79
646.535	26546.49
646.888	26682.76
647.24	26480.96
647.593	26821.29
647.945	26741.74
648.298	26633.49
648.65	26658.13
649.002	26614.96
649.355	26653.16
649.707	26477.34
650.059	26500.62
650.411	26889.53
650.763	26970.43
651.115	27319.13
651.467	27313.25
651.819	27253.14
652.171	27272.57
652.523	27291.56
652.875	27194.84
653.227	27226.47
653.578	27341.5
653.93	27294.04
654.282	27167.49
654.633	27147.15
654.985	27211.78
655.337	27180.37
655.688	27274.61
656.039	27380.37
656.391	27308.73
656.742	27285.91
657.094	27410.2
657.445	27461.5
657.796	27467.82
658.147	27331.78
658.498	27340.82
658.849	27419.46
659.2	27304.89
659.551	27198.68
659.902	27411.78
660.253	27415.39
660.604	27427.6
660.955	27358
661.306	27395.28
661.656	27433.7
662.007	27526.35
662.358	27574.03
662.708	27491.78
663.059	27557.54
663.409	27292.46
663.76	27734.93
664.11	27582.62
664.461	27702.85
664.811	27737.19
665.161	27706.01
665.511	27645.22
665.862	27670.98
666.212	27798.21
666.562	27746.69
666.912	27809.73
667.262	27723.86
667.612	27731.32
667.962	27891.09
668.312	27722.96
668.662	27842.05
669.011	27906
669.361	27865.78
669.711	27888.38
670.06	27811.54
670.41	27598.22
670.76	27743.97
671.109	27810.41
671.459	27857.87
671.808	27745.56
672.157	27901.26
672.507	27741.71
672.856	27766.12
673.205	27912.33
673.554	28044.3
673.904	27878.66
674.253	28083.17
674.602	27944.65
674.951	27655.61
675.3	27462.85
675.649	27850.19
675.998	27931.54
676.346	27940.58
676.695	28108.71
677.044	27880.02
677.393	27992.33
677.741	27975.38
678.09	27954.59
678.438	27900.13
678.787	28004.53
679.135	27891.09
679.484	27863.97
679.832	27950.52
680.181	27776.52
680.529	27892.9
680.877	27868.04
681.225	27861.26
681.573	28031.42
681.922	27852.45
682.27	27716.18
682.618	27840.47
682.966	27702.62
683.314	27810.86
683.661	27694.48
684.009	27539.69
684.357	27539.69
684.705	27539.69
685.053	27661.04
685.4	27548.72
685.748	27533.81
686.095	27492.23
686.443	27462.17
686.79	27410.65
687.138	27401.38
687.485	27465.79
687.832	27377.2
688.18	27297.88
688.527	27228.96
688.874	27314.83
689.221	27341.05
689.568	27284.1
689.915	27122.97
690.262	27331.56
690.609	27181.05
690.956	27041.39
691.303	26966.59
691.65	26893.6
691.997	26850.44
692.344	26969.98
692.69	26889.99
693.037	26915.97
693.383	26585.13
693.73	26714.17
694.077	26551.01
694.423	26671.23
694.769	26552.14
695.116	26509.2
695.462	26496.1
695.808	26405.7
696.155	26442.77
696.501	26337.01
696.847	26388.3
697.193	26155.77
697.539	26155.09
697.885	26040.52
698.231	26034.19
698.577	25960.29
698.923	25925.94
699.269	25910.8
699.614	25890.24
699.96	25900.63
700.306	25763.91
700.651	25660.86
700.997	25589.68
701.342	25753.97
701.688	25824.7
702.033	25528.21
702.379	25558.95
702.724	25595.1
703.069	25589.23
703.415	25240.08
703.76	25336.35
704.105	25422.68
704.45	25258.39
704.795	25135.23
705.14	25221.33
705.485	25201.44
705.83	25198.5
706.175	25141.1
706.52	25050.03
706.865	24993.76
707.209	24957.15
707.554	24892.98
707.899	24931.39
708.243	24931.62
708.588	24769.14
708.932	24714.45
709.277	24697.05
709.621	24780.44
709.966	24566.43
710.31	24765.97
710.654	24442.37
710.998	24569.14
711.342	24568.69
711.687	24554.68
712.031	24449.82
712.375	24338.41
712.719	24321.92
713.063	24230.39
713.407	24435.59
713.75	24279.43
714.094	24193.78
714.438	24091.19
714.782	24228.13
715.125	24112.66
715.469	24218.64
715.812	24057.07
716.156	24002.6
716.499	24006.67
716.843	24062.26
717.186	23789.73
717.53	23934.58
717.873	23930.97
718.216	23867.47
718.559	23845.77
718.902	23778.65
719.246	23874.02
719.589	23728.26
719.932	23680.13
720.275	23679.45
720.617	23729.84
720.96	23726
721.303	23683.06
721.646	23788.37
721.989	23582.73
722.331	23708.6
722.674	23604.2
723.016	23621.14
723.359	23523.29
723.701	23651.65
724.044	23476.52
724.386	23401.26
724.729	23509.96
725.071	23476.74
725.413	23485.33
725.755	23410.53
726.097	23328.95
726.439	23375.28
726.782	23355.61
727.124	23379.79
727.465	23273.13
727.807	23215.96
728.149	23320.81
728.491	23253.92
728.833	23291.21
729.175	23245.79
729.516	23202.62
729.858	23174.38
730.199	23170.31
730.541	23012.35
730.882	23147.03
731.224	23147.03
731.565	23085.57
731.906	23114.94
732.248	23133.7
732.589	22996.3
732.93	22923.76
733.271	22984.33
733.612	23029.97
733.953	23092.57
734.294	23055.51
734.635	22969.64
734.976	22978
735.317	22907.94
735.658	22817.32
735.999	22879.24
736.339	22766.25
736.68	22816.19
737.021	22721.96
737.361	22617.56
737.702	22878.57
738.042	22755.63
738.383	22786.14
738.723	22760.83
739.063	22630.89
739.404	22776.87
739.744	22695.75
740.084	22607.61
740.424	22675.18
740.764	22717.89
741.104	22721.06
741.444	22665.01
741.784	22617.1
742.124	22655.52
742.464	22598.12
742.804	22599.48
743.143	22519.25
743.483	22565.58
743.823	22397.9
744.162	22365.36
744.502	22361.06
744.841	22394.06
745.181	22423.44
745.52	22430.44
745.86	22395.41
746.199	22353.16
746.538	22215.08
746.877	22362.65
747.216	22291.46
747.556	22244.68
747.895	22202.88
748.234	22276.1
748.573	22216.89
748.911	22139.38
749.25	22215.53
749.589	22103.44
749.928	22011.7
750.267	22088.98
750.605	21960.85
750.944	21923.56
751.283	21888.76
751.621	22009.66
751.96	21803.57
752.298	21805.82
752.636	21914.3
752.975	21781.42
753.313	21756.33
753.651	21771.48
753.989	21685.15
754.327	21566.28
754.666	21588.88
755.004	21642.21
755.342	21768.76
755.679	21580.52
756.017	21516.57
756.355	21680.18
756.693	21505.95
757.031	21547.98
757.368	21329
757.706	21332.84
758.044	21345.72
758.381	21431.37
758.719	21313.86
759.056	21234.77
759.394	21115.67
759.731	21027.99
760.068	20964.04
760.405	20868.22
760.743	20990.03
761.08	21072.96
761.417	21022.34
761.754	20890.59
762.091	20819.41
762.428	20828.45
762.765	20717.72
763.102	20794.78
763.438	20664.84
763.775	20646.31
764.112	20631.39
764.449	20621.22
764.785	20425.3
765.122	20442.92
765.458	20310.72
765.795	20275.47
766.131	20213.78
766.467	20180.56
766.804	20087.9
767.14	19969.49
767.476	20006.32
767.812	19936.04
768.148	20082.71
768.485	19875.71
768.821	19738.76
769.157	19796.16
769.492	19767.23
769.828	19793
770.164	19628.26
770.5	19639.55
770.836	19743.28
771.171	19515.94
771.507	19584.41
771.842	19391.88
772.178	19386.23
772.513	19272.33
772.849	19322.5
773.184	19249.51
773.519	19288.15
773.855	19116.86
774.19	19114.14
774.525	18961.15
774.86	18957.54
775.195	18879.12
775.53	18811.55
775.865	18708.73
776.2	18535.85
776.535	18513.93
776.87	18461.51
777.205	18518.91
777.539	18408.85
777.874	18437.78
778.209	18311.45
778.543	18286.82
778.878	18195.3
779.212	18217.22
779.547	18201.17
779.881	18202.3
780.215	18075.3
780.55	18218.57
780.884	18066.49
781.218	17948.53
781.552	17960.05
781.886	17904.46
782.22	17755.31
782.554	17740.62
782.888	17609.1
783.222	17542.89
783.556	17535.65
783.889	17546.5
784.223	17410.69
784.557	17382.89
784.89	17379.27
785.224	17258.15
785.557	17247.98
785.891	17272.84
786.224	17207.98
786.558	17145.16
786.891	17005.95
787.224	17019.96
787.557	17029.23
787.891	16972.96
788.224	16960.3
788.557	16816.13
788.89	16831.27
789.223	16751.95
789.556	16717.6
789.888	16716.69
790.221	16647.99
790.554	16426.31
790.887	16501.11
791.219	16488.9
791.552	16366.87
791.884	16264.05
792.217	16299.3
792.549	16264.73
792.882	16196.48
793.214	16139.99
793.546	16127.56
793.879	16034.23
794.211	15947
794.543	16022.7
794.875	16018.41
795.207	15991.97
795.539	15899.31
795.871	15873.78
796.203	15819.54
796.535	15688.25
796.867	15680.11
797.198	15703.39
797.53	15685.08
797.862	15550.17
798.193	15648.92
798.525	15558.98
798.856	15591.3
799.188	15314.24
799.519	15336.39
799.85	15275.6
800.182	15320.12
800.513	15289.84
800.844	15175.49
801.175	15248.03
801.506	15175.72
801.837	15130.52
802.168	15102.95
802.499	15107.7
802.83	15002.61
803.161	15018.88
803.491	15090.97
803.822	14994.48
804.153	14916.51
804.483	14731.89
804.814	14750.42
805.145	14730.3
805.475	14769.63
805.805	14758.1
806.136	14595.85
806.466	14679.23
806.796	14622.74
807.126	14440.14
807.457	14592.68
807.787	14606.69
808.117	14565.79
808.447	14530.99
808.777	14542.74
809.107	14417.09
809.436	14375.29
809.766	14366.92
810.096	14343.65
810.426	14325.57
810.755	14257.32
811.085	14182.3
811.414	14187.49
811.744	14106.14
812.073	14161.05
812.403	14209.87
812.732	14085.35
813.061	14162.86
813.39	14025.69
813.719	13981.17
814.049	14118.8
814.378	13941.17
814.707	13940.72
815.036	13914.06
815.365	13904.34
815.693	13784.34
816.022	13805.58
816.351	13592.93
816.68	13582.31
817.008	13678.36
817.337	13581.86
817.665	13586.61
817.994	13646.04
818.322	13638.13
818.651	13522.65
818.979	13522.2
819.307	13618.24
819.636	13422.32
819.964	13470.45
820.292	13532.37
820.62	13480.62
820.948	13442.2
821.276	13643.78
821.604	13553.61
821.932	13547.51
822.259	13527.4
822.587	13592.71
822.915	13526.95
823.243	13655.3
823.57	13554.97
823.898	13494.86
824.225	13463.9
824.553	13487.4
824.88	13463.9
825.207	13543.9
825.535	13520.85
825.862	13539.38
826.189	13498.02
826.516	13599.26
826.843	13629.54
827.17	13520.85
827.497	13591.13
827.824	13470.9
828.151	13618.92
828.478	13584.12
828.805	13572.37
829.131	13534.18
829.458	13519.49
829.785	13439.94
830.111	13579.15
830.438	13584.8
830.764	13710.22
831.09	13700.05
831.417	13571.92
831.743	13641.97
832.069	13662.76
832.395	13568.98
832.722	13614.18
833.048	13562.65
833.374	13654.63
833.7	13459.38
834.026	13448.98
834.351	13531.24
834.677	13581.63
835.003	13572.14
835.329	13630.45
835.654	13566.04
835.98	13487.4
836.306	13593.16
836.631	13546.38
836.956	13525.14
837.282	13439.04
837.607	13421.86
837.932	13424.35
838.258	13471.13
838.583	13368.08
838.908	13446.5
839.233	13471.58
839.558	13381.64
839.883	13310.23
840.208	13387.97
840.533	13304.81
840.858	13307.52
841.182	13309.78
841.507	13365.59
841.832	13230.68
842.156	13172.83
842.481	13303
842.805	13284.92
843.13	13326.95
843.454	13299.83
843.778	13151.59
844.103	13100.07
844.427	13114.3
844.751	13047.64
845.075	13009.9
845.399	13034.76
845.723	13014.42
846.047	13016.23
846.371	12829.11
846.695	12878.83
847.019	12723.58
847.343	12771.71
847.666	12781.66
847.99	12618.04
848.313	12606.74
848.637	12624.6
848.96	12618.95
849.284	12611.72
849.607	12512.06
849.931	12438.16
850.254	12279.07
850.577	12280.88
850.9	12272.74
851.223	12263.25
851.546	12192.07
851.869	12116.36
852.192	12222.35
852.515	12085.63
852.838	12134.67
853.161	12082.46
853.483	12055.8
853.806	12087.44
854.129	11929.47
854.451	11870.94
854.774	11888.57
855.096	11877.95
855.419	11852.87
855.741	11857.61
856.063	11724.06
856.385	11775.13
856.708	11712.76
857.03	11636.37
857.352	11626.88
857.674	11566.09
857.996	11502.59
858.318	11473.22
858.64	11563.83
858.961	11505.76
859.283	11601.35
859.605	11396.61
859.926	11483.38
860.248	11410.17
860.57	11336.72
860.891	11388.47
861.212	11252.43
861.534	11297.4
861.855	11296.95
862.176	11338.53
862.498	11314.58
862.819	11330.62
863.14	11233
863.461	11202.94
863.782	11207.23
864.103	11205.65
864.424	11224.18
864.745	11130.4
865.065	11132.89
865.386	11018.54
865.707	11051.08
866.027	11066.45
866.348	10996.62
866.668	11113.9
866.989	11037.29
867.309	10970.18
867.63	10917.07
867.95	10945.32
868.27	10934.92
868.59	10942.16
868.91	10902.61
869.23	10941.93
869.55	10816.51
869.87	11031.87
870.19	10847.02
870.51	10852.21
870.83	10911.42
871.15	10786.45
871.469	10752.33
871.789	10910.97
872.109	10876.62
872.428	10707.59
872.748	10795.04
873.067	10740.58
873.386	10769.28
873.706	10800.69
874.025	10659.9
874.344	10711.88
874.663	10738.55
874.982	10741.71
875.301	10800.24
875.62	10675.27
875.939	10716.85
876.258	10673.01
876.577	10667.81
876.896	10708.94
877.214	10679.56
877.533	10577.42
877.852	10656.29
878.17	10595.95
878.489	10602.28
878.807	10611.77
879.125	10561.37
879.444	10598.66
879.762	10607.93
880.08	10511.43
880.398	10559.57
880.716	10542.84
881.034	10475.05
881.352	10470.76
881.67	10482.28
881.988	10570.64
882.306	10432.56
882.624	10408.38
882.941	10393.47
883.259	10411.77
883.577	10311.89
883.894	10314.15
884.212	10291.55
884.529	10340.14
884.846	10346.69
885.164	10310.76
885.481	10312.57
885.798	10279.35
886.115	10280.25
886.432	10263.76
886.75	10209.29
887.067	10279.35
887.383	10162.29
887.7	10167.94
888.017	10054.72
888.334	10113.48
888.651	10037.77
888.967	9999.13
889.284	9994.16
889.6	9980.6
889.917	9881.84
890.233	9941.5
890.55	9966.14
890.866	9894.27
891.182	9995.74
891.498	9952.58
891.815	9761.17
892.131	9785.8
892.447	9816.76
892.763	9814.95
893.079	9716.65
893.395	9761.62
893.71	9725.01
894.026	9680.72
894.342	9634.39
894.657	9637.11
894.973	9583.1
895.289	9561.85
895.604	9594.39
895.92	9472.82
896.235	9484.57
896.55	9493.83
896.865	9433.72
897.181	9342.88
897.496	9386.04
897.811	9350.56
898.126	9319.6
898.441	9258.58
898.756	9275.53
899.071	9242.09
899.386	9320.28
899.7	9264.46
900.015	9251.8
900.33	9142.43
900.644	9136.1
900.959	9070.34
901.273	9021.53
901.588	8956.9
901.902	8919.16
902.216	8928.42
902.531	8947.41
902.845	8883.9
903.159	8910.57
903.473	8863.79
903.787	8854.3
904.101	8772.5
904.415	8772.5
904.729	8746.96
905.042	8634.65
905.356	8654.31
905.67	8671.93
905.984	8607.08
906.297	8545.61
906.611	8509.9
906.924	8471.03
907.237	8524.82
907.551	8472.62
907.864	8440.75
908.177	8409.12
908.491	8353.52
908.804	8313.3
909.117	8244.83
909.43	8221.32
909.743	8182.45
910.056	8150.14
910.368	8188.33
910.681	8194.43
910.994	8157.37
911.307	8125.96
911.619	8110.37
911.932	8125.05
912.244	8041.67
912.557	8032.85
912.869	8014.78
913.181	7973.87
913.494	7998.28
913.806	7944.27
914.118	7918.96
914.43	7914.21
914.742	7861.11
915.054	7818.17
915.366	7803.03
915.678	7796.48
915.99	7742.47
916.302	7700.89
916.613	7698.17
916.925	7658.85
917.236	7666.31
917.548	7584.28
917.859	7595.8
918.171	7554.22
918.482	7511.29
918.794	7470.83
919.105	7474.45
919.416	7433.32
919.727	7370.72
920.038	7379.31
920.349	7252.54
920.66	7243.72
920.971	7188.81
921.282	7162.82
921.593	7131.63
921.903	7142.03
922.214	7164.18
922.525	7129.37
922.835	7080.79
923.146	7029.04
923.456	7067.68
923.767	6954.46
924.077	6975.48
924.387	6925.54
924.697	6889.16
925.008	6898.42
925.318	6910.85
925.628	6838.08
925.938	6805.99
926.248	6795.6
926.558	6735.49
926.867	6730.97
927.177	6720.8
927.487	6666.56
927.796	6634.25
928.106	6631.53
928.416	6625.43
928.725	6560.12
929.034	6555.38
929.344	6552.67
929.653	6594.47
929.962	6464.99
930.271	6414.14
930.581	6416.4
930.89	6369.39
931.199	6344.54
931.508	6314.25
931.817	6299.34
932.125	6318.77
932.434	6286.01
932.743	6246.91
933.051	6238.55
933.36	6174.37
933.669	6159
933.977	6083.75
934.286	6107.25
934.594	6139.12
934.902	6026.35
935.21	6093.02
935.519	6019.8
935.827	6042.17
936.135	6022.51
936.443	5913.59
936.751	5909.52
937.059	5893.02
937.367	5913.59
937.674	5905.23
937.982	5867.03
938.29	5779.81
938.597	5853.02
938.905	5781.61
939.213	5743.87
939.52	5723.31
939.827	5766.47
940.135	5684.89
940.442	5665.68
940.749	5714.95
941.056	5699.58
941.363	5672.24
941.67	5624.78
941.977	5606.02
942.284	5572.81
942.591	5575.52
942.898	5572.35
943.205	5504.56
943.511	5412.58
943.818	5451.45
944.125	5394.28
944.431	5434.73
944.738	5380.04
945.044	5382.08
945.35	5316.32
945.657	5289.88
945.963	5263.44
946.269	5281.74
946.575	5237.22
946.881	5214.62
947.187	5195.19
947.493	5201.29
947.799	5117.45
948.105	5179.37
948.41	5107.51
948.716	5095.98
949.022	5069.32
949.327	5044.01
949.633	4999.04
949.938	5030.9
950.244	5013.5
950.549	4990
950.854	4992.48
951.16	4952.26
951.465	4885.82
951.77	4912.48
952.075	4856.44
952.38	4855.76
952.685	4842.66
952.99	4857.12
953.294	4861.19
953.599	4750.23
953.904	4731.47
954.209	4744.13
954.513	4689.21
954.818	4713.17
955.122	4609.89
955.426	4643.34
955.731	4618.93
956.035	4620.74
956.339	4620.74
956.643	4573.51
956.948	4557.92
957.252	4558.59
957.556	4588.42
957.86	4529.44
958.163	4546.17
958.467	4515.21
958.771	4411.71
959.075	4438.6
959.378	4423.68
959.682	4410.12
959.985	4375.55
960.289	4364.02
960.592	4361.99
960.896	4325.83
961.199	4341.2
961.502	4329.22
961.805	4308.21
962.108	4260.52
962.411	4256.46
962.714	4216.46
963.017	4225.04
963.32	4183.69
963.623	4156.35
963.926	4156.57
964.228	4131.94
964.531	4198.38
964.833	4156.12
965.136	4098.95
965.438	4111.37
965.741	4060.08
966.043	4062.56
966.345	4053.98
966.648	4000.19
966.95	3998.16
967.252	3966.29
967.554	3928.1
967.856	3960.87
968.158	3951.38
968.46	3942.11
968.761	3951.83
969.063	3914.09
969.365	3936.24
969.666	3887.2
969.968	3888.33
970.269	3834.09
970.571	3814.43
970.872	3831.16
971.174	3787.09
971.475	3736.02
971.776	3765.4
972.077	3692.4
972.378	3743.93
972.679	3692.85
972.98	3749.12
973.281	3728.56
973.582	3720.42
973.883	3673.65
974.183	3617.83
974.484	3667.09
974.785	3549.81
975.085	3590.03
975.386	3604.5
975.686	3616.47
975.986	3552.97
976.287	3557.04
976.587	3517.72
976.887	3504.61
977.187	3508.68
977.487	3483.14
977.787	3499.19
978.087	3464.61
978.387	3472.75
978.687	3453.77
978.987	3422.13
979.286	3412.18
979.586	3371.51
979.885	3365.41
980.185	3338.74
980.484	3315.24
980.784	3345.97
981.083	3316.59
981.382	3290.83
981.682	3303.71
981.981	3272.53
982.28	3238.63
982.579	3222.58
982.878	3212.64
983.177	3209.25
983.475	3160.21
983.774	3172.87
984.073	3159.54
984.372	3119.08
984.67	3084.96
984.969	3117.28
985.267	3126.99
985.566	3102.36
985.864	3101.01
986.162	3065.75
986.461	3108.01
986.759	3032.53
987.057	3024.85
987.355	3024.62
987.653	3011.52
987.951	3007.9
988.249	2977.39
988.547	3015.36
988.844	2946.66
989.142	2963.38
989.44	2929.49
989.737	2915.25
990.035	2912.54
990.332	2900.33
990.63	2863.27
990.927	2861.01
991.224	2815.59
991.521	2844.06
991.819	2816.95
992.116	2815.59
992.413	2775.14
992.71	2783.5
993.006	2771.3
993.303	2789.38
993.6	2778.08
993.897	2737.4
994.193	2715.25
994.49	2741.47
994.787	2678.64
995.083	2688.59
995.379	2689.04
995.676	2653.11
995.972	2682.03
996.268	2660.11
996.565	2639.78
996.861	2588.7
997.157	2630.96
997.453	2581.7
997.749	2607.69
998.044	2605.43
998.34	2574.24
998.636	2541.92
998.932	2564.75
999.227	2534.69
999.523	2514.81
999.818	2475.26
1000.114	2468.25
1000.409	2465.54
1000.704	2431.65
1001	2462.38
1001.295	2455.6
1001.59	2417.18
1001.885	2390.52
1002.18	2354.58
1002.475	2399.33
1002.77	2363.85
1003.065	2389.39
1003.359	2341.48
1003.654	2349.16
1003.949	2325.66
1004.243	2313.68
1004.538	2284.98
1004.832	2277.75
1005.127	2227.13
1005.421	2219.67
1005.715	2261.93
1006.009	2245.89
1006.304	2215.15
1006.598	2205.66
1006.892	2184.42
1007.186	2157.53
1007.48	2179.9
1007.773	2147.81
1008.067	2092.67
1008.361	2130.64
1008.655	2122.27
1008.948	2112.33
1009.242	2101.71
1009.535	2082.28
1009.829	2051.09
1010.122	2042.28
1010.415	2051.54
1010.708	2026.46
1011.001	2018.1
1011.295	2007.7
1011.588	2024.65
1011.881	1981.71
1012.173	1981.04
1012.466	1960.02
1012.759	1959.34
1013.052	1929.29
1013.344	1921.38
1013.637	1933.81
1013.93	1908.27
1014.222	1883.41
1014.514	1861.49
1014.807	1872.56
1015.099	1845.67
1015.391	1833.47
1015.683	1822.4
1015.976	1837.54
1016.268	1830.3
1016.56	1797.31
1016.851	1817.42
1017.143	1809.06
1017.435	1802.28
1017.727	1739.69
1018.018	1744.21
1018.31	1751.66
1018.602	1755.96
1018.893	1719.35
1019.185	1743.53
1019.476	1695.62
1019.767	1682.96
1020.058	1684.32
1020.35	1679.35
1020.641	1645.23
1020.932	1632.12
1021.223	1630.76
1021.514	1614.72
1021.804	1612.23
1022.095	1576.07
1022.386	1575.17
1022.677	1564.78
1022.967	1568.62
1023.258	1558.67
1023.548	1565.23
1023.839	1551.22
1024.129	1543.53
1024.419	1546.47
1024.709	1504.66
1025	1531.33
1025.29	1483.42
1025.58	1483.87
1025.87	1458.34
1026.16	1464.66
1026.449	1468.05
1026.739	1469.41
1027.029	1453.37
1027.319	1424.89
1027.608	1430.32
1027.898	1432.12
1028.187	1402.52
1028.477	1399.81
1028.766	1387.83
1029.055	1334.72
1029.344	1363.42
1029.634	1334.05
1029.923	1346.48
1030.212	1336.76
1030.501	1337.21
1030.79	1306.93
1031.078	1328.85
1031.367	1302.18
1031.656	1271.22
1031.945	1270.09
1032.233	1246.37
1032.522	1253.15
1032.81	1251.56
1033.099	1254.95
1033.387	1238.46
1033.675	1223.77
1033.963	1226.48
1034.251	1231.68
1034.54	1192.13
1034.828	1171.34
1035.116	1183.77
1035.403	1172.02
1035.691	1196.65
1035.979	1158.01
1036.267	1180.6
1036.554	1158.91
1036.842	1128.18
1037.129	1136.54
1037.417	1112.58
1037.704	1106.26
1037.992	1109.19
1038.279	1099.7
1038.566	1089.08
1038.853	1089.08
1039.14	1089.08
