Data from copper_heatsink_FLMS001491_080.txt Node
Date: Tue Feb 07 10:50:34 GMT 2017
User: dcchb
Spectrometer: FLMS00149
Trigger mode: 0
Integration Time (sec): 2.000000E-2
Scans to average: 10
Electric dark correction enabled: true
Nonlinearity correction enabled: false
Boxcar width: 0
XAxis mode: Wavelengths
Number of Pixels in Spectrum: 2048
>>>>>Begin Spectral Data<<<<<
341.393	-17.41
341.776	-17.41
342.16	-17.41
342.543	-63.52
342.927	-60.58
343.31	-69.84
343.693	-56.96
344.077	-72.1
344.46	-74.36
344.843	-58.32
345.226	-61.03
345.61	-24.87
345.993	-21.93
346.376	10.16
346.759	14.67
347.142	22.36
347.525	37.95
347.908	59.19
348.291	89.7
348.674	93.77
349.057	111.62
349.44	118.85
349.823	147.78
350.206	176.25
350.588	225.52
350.971	237.04
351.354	239.53
351.737	272.07
352.119	249.92
352.502	293.31
352.884	295.35
353.267	316.14
353.65	317.27
354.032	316.81
354.414	346.64
354.797	356.59
355.179	351.16
355.562	357.72
355.944	357.49
356.326	349.81
356.709	364.95
357.091	361.11
357.473	358.62
357.855	387.77
358.238	364.27
358.62	382.12
359.002	374.89
359.384	374.21
359.766	352.74
360.148	371.73
360.53	373.31
360.912	382.12
361.294	378.73
361.676	368.34
362.057	367.21
362.439	355.23
362.821	342.58
363.203	364.95
363.584	361.78
363.966	357.94
364.348	349.58
364.729	347.77
365.111	372.63
365.493	364.5
365.874	352.97
366.256	361.56
366.637	350.49
367.019	350.49
367.4	353.87
367.781	352.29
368.163	356.36
368.544	370.37
368.925	361.33
369.306	367.66
369.688	337.15
370.069	364.5
370.45	368.56
370.831	357.26
371.212	372.63
371.593	355.46
371.974	330.37
372.355	345.51
372.736	367.21
373.117	388
373.498	376.47
373.879	363.59
374.26	360.2
374.641	348.9
375.021	359.98
375.402	353.87
375.783	384.38
376.163	382.12
376.544	372.63
376.925	382.8
377.305	371.73
377.686	389.35
378.066	375.12
378.447	378.96
378.827	380.77
379.208	412.63
379.588	390.26
379.968	407.43
380.349	374.67
380.729	397.04
381.109	398.39
381.489	393.2
381.87	395.91
382.25	374.89
382.63	391.84
383.01	404.27
383.39	391.61
383.77	413.76
384.15	434.32
384.53	422.8
384.91	423.48
385.29	423.03
385.67	420.99
386.049	420.99
386.429	444.04
386.809	432.29
387.189	414.66
387.568	431.84
387.948	441.78
388.328	452.63
388.707	426.42
389.087	445.4
389.466	440.43
389.846	449.47
390.225	454.21
390.605	452.18
390.984	462.57
391.363	451.05
391.743	458.5
392.122	472.29
392.501	468.67
392.881	474.32
393.26	480.43
393.639	475.23
394.018	473.42
394.397	491.27
394.776	477.26
395.155	479.3
395.534	477.94
395.913	494.21
396.292	473.87
396.671	492.85
397.05	476.58
397.429	487.88
397.808	504.15
398.186	492.4
398.565	513.87
398.944	518.62
399.323	528.11
399.701	507.32
400.08	510.03
400.458	519.75
400.837	516.81
401.215	528.56
401.594	536.24
401.972	539.18
402.351	536.69
402.729	558.84
403.107	545.06
403.486	545.28
403.864	567.2
404.242	578.05
404.62	557.49
404.999	541.67
405.377	584.15
405.755	563.36
406.133	575.11
406.511	599.97
406.889	578.5
407.267	609.91
407.645	609.46
408.023	626.41
408.401	624.38
408.779	609.69
409.156	618.95
409.534	634.77
409.912	648.56
410.29	665.73
410.667	629.35
411.045	656.92
411.422	637.94
411.8	660.99
412.178	675.67
412.555	682.68
412.933	697.14
413.31	691.04
413.687	704.6
414.065	704.37
414.442	722.9
414.819	712.51
415.197	715
415.574	728.78
415.951	739.18
416.328	778.95
416.705	760.87
417.082	760.19
417.46	784.6
417.837	771.27
418.214	765.84
418.591	778.27
418.967	795.22
419.344	788.67
419.721	798.16
420.098	803.35
420.475	827.99
420.852	809.68
421.228	854.88
421.605	825.05
421.982	828.44
422.358	866.63
422.735	840.64
423.111	842
423.488	851.49
423.864	878.83
424.241	892.39
424.617	905.72
424.994	882
425.37	880.41
425.746	922
426.123	936.23
426.499	910.24
426.875	920.41
427.251	959.28
427.627	998.38
428.003	957.47
428.379	971.49
428.756	993.18
429.132	999.28
429.507	999.06
429.883	1027.3
430.259	1049.9
430.635	1041.09
431.011	1030.02
431.387	1055.55
431.763	1082.44
432.138	1069.79
432.514	1115.44
432.89	1105.72
433.265	1127.87
433.641	1141.2
434.016	1151.82
434.392	1165.38
434.767	1194.3
435.143	1183.68
435.518	1170.8
435.894	1207.41
436.269	1251.7
436.644	1232.72
437.02	1253.74
437.395	1246.51
437.77	1280.63
438.145	1295.77
438.52	1303.68
438.895	1285.6
439.271	1309.1
439.646	1363.11
440.021	1342.32
440.395	1361.98
440.77	1364.02
441.145	1378.48
441.52	1402.43
441.895	1383.68
442.27	1425.71
442.645	1411.25
443.019	1420.97
443.394	1436.78
443.769	1457.8
444.143	1460.51
444.518	1457.12
444.892	1478.59
445.267	1484.24
445.641	1499.61
446.016	1502.55
446.39	1518.82
446.764	1556.1
447.139	1531.47
447.513	1565.59
447.887	1566.5
448.262	1589.1
448.636	1564.46
449.01	1578.48
449.384	1615.08
449.758	1620.73
450.132	1615.76
450.506	1629.77
450.88	1644.24
451.254	1655.54
451.628	1684.46
452.002	1696.44
452.376	1711.13
452.75	1740.73
453.123	1723.56
453.497	1741.86
453.871	1763.33
454.244	1807.17
454.618	1830.45
454.992	1837
455.365	1845.14
455.739	1894.17
456.112	1912.93
456.486	1943.44
456.859	1937.11
457.232	1976.88
457.606	1952.93
457.979	1986.37
458.352	2079.48
458.725	2073.15
459.099	2068.41
459.472	2137.56
459.845	2168.29
460.218	2178.46
460.591	2198.12
460.964	2212.81
461.337	2265.91
461.71	2295.29
462.083	2307.95
462.456	2321.51
462.829	2338.23
463.201	2368.96
463.574	2370.32
463.947	2413.71
464.32	2490.09
464.692	2446.48
465.065	2466.14
465.438	2544.55
465.81	2546.59
466.183	2593.59
466.555	2660.93
466.928	2626.13
467.3	2725.79
467.672	2705.9
468.045	2754.26
468.417	2786.35
468.789	2858.44
469.161	2853.24
469.534	2900.25
469.906	2935.73
470.278	2968.5
470.65	3025.22
471.022	3077.65
471.394	3154.48
471.766	3154.48
472.138	3216.85
472.51	3239.45
472.882	3302.5
473.253	3325.77
473.625	3396.51
473.997	3393.79
474.369	3454.13
474.74	3505.88
475.112	3536.84
475.484	3672.21
475.855	3681.25
476.227	3730.06
476.598	3847.34
476.97	3853.9
477.341	3969.37
477.713	3988.81
478.084	4000.56
478.455	4093.66
478.827	4165.75
479.198	4257.73
479.569	4279.65
479.94	4363.03
480.311	4439.42
480.682	4523.03
481.053	4648.9
481.424	4718.28
481.795	4755.12
482.166	4841.21
482.537	4856.58
482.908	4985.84
483.279	4984.71
483.65	5133.41
484.021	5213.18
484.391	5298.83
484.762	5375.21
485.133	5381.31
485.503	5446.62
485.874	5586.05
486.244	5654.98
486.615	5704.47
486.985	5783.79
487.356	5930.9
487.726	5927.51
488.097	6100.62
488.467	6172.7
488.837	6269.2
489.207	6325.24
489.578	6376.54
489.948	6444.11
490.318	6573.37
490.688	6612.92
491.058	6707.15
491.428	6768.17
491.798	6914.15
492.168	7012.46
492.538	7028.73
492.908	7129.52
493.278	7194.6
493.648	7233.02
494.017	7381.94
494.387	7419.9
494.757	7480.92
495.126	7623.29
495.496	7645.89
495.866	7693.34
496.235	7767.24
496.605	7848.59
496.974	7891.08
497.344	8018.98
497.713	8086.78
498.082	8177.62
498.452	8211.97
498.821	8304.17
499.19	8236.83
499.559	8410.84
499.928	8461.23
500.298	8516.82
500.667	8629.36
501.036	8626.2
501.405	8757.95
501.774	8757.95
502.143	8849.47
502.512	8888.34
502.88	8990.48
503.249	9024.61
503.618	9068.9
503.987	9209.01
504.356	9208.78
504.724	9257.6
505.093	9337.14
505.462	9387.54
505.83	9500.08
506.199	9582.78
506.567	9679.96
506.936	9672.73
507.304	9829.11
507.672	9878.37
508.041	9939.61
508.409	9948.2
508.777	10220.73
509.145	10182.09
509.514	10257.8
509.882	10365.82
510.25	10401.75
510.618	10513.61
510.986	10560.16
511.354	10665.02
511.722	10803.77
512.09	10927.16
512.458	10971.45
512.826	11064.1
513.193	11149.52
513.561	11167.6
513.929	11278.79
514.297	11422.51
514.664	11523.98
515.032	11487.82
515.4	11624.76
515.767	11735.5
516.135	11821.6
516.502	11806.68
516.869	12019.1
517.237	12079.67
517.604	12143.62
517.972	12324.86
518.339	12370.06
518.706	12384.97
519.073	12586.1
519.44	12534.35
519.808	12849.59
520.175	12812.53
520.542	13010.49
520.909	13094.1
521.276	13104.5
521.643	13200.32
522.009	13382.01
522.376	13503.59
522.743	13609.12
523.11	13755.1
523.477	13915.55
523.843	13932.05
524.21	14174.98
524.577	14311.93
524.943	14412.26
525.31	14480.74
525.676	14701.07
526.043	14783.78
526.409	14892.25
526.776	15056.54
527.142	15175.41
527.508	15256.53
527.874	15406.81
528.241	15499.92
528.607	15554.83
528.973	15810.42
529.339	15856.97
529.705	16015.16
530.071	16178.32
530.437	16310.74
530.803	16398.65
531.169	16517.52
531.535	16522.94
531.901	16640.9
532.267	16808.36
532.632	16998.18
532.998	16915.7
533.364	17247.44
533.73	17234.56
534.095	17437.49
534.461	17475.68
534.826	17603.14
535.192	17733.76
535.557	17906.18
535.923	17970.36
536.288	18113.63
536.653	18263.23
537.019	18279.51
537.384	18383.91
537.749	18495.32
538.114	18529.89
538.479	18719.27
538.845	18885.82
539.21	18898.47
539.575	18958.13
539.94	19151.35
540.305	19306.14
540.67	19269.08
541.034	19541.84
541.399	19641.05
541.764	19678.79
542.129	19789.75
542.494	19897.99
542.858	19973.7
543.223	20143.64
543.587	20364.2
543.952	20412.56
544.316	20542.72
544.681	20542.04
545.045	20825.43
545.41	20943.39
545.774	21073.33
546.138	21118.3
546.503	21237.62
546.867	21293.66
547.231	21638.74
547.595	21769.36
547.959	21830.37
548.324	21884.38
548.688	22035.34
549.052	22253.64
549.416	22352.17
549.779	22430.13
550.143	22616.79
550.507	22974.3
550.871	22998.25
551.235	23196.44
551.599	23359.82
551.962	23584.22
552.326	23773.6
552.689	24005.68
553.053	24055.85
553.417	24037.77
553.78	24630.75
554.143	24461.04
554.507	24779.67
554.87	24975.6
555.234	25244.97
555.597	25216.05
555.96	25601.57
556.323	25707.33
556.686	25956.37
557.05	26255.11
557.413	26399.97
557.776	26574.65
558.139	26967.86
558.502	27119.27
558.865	27333.28
559.228	27626.83
559.59	27855.3
559.953	27999.25
560.316	28497.99
560.679	28662.06
561.041	28950.19
561.404	29225.88
561.767	29595.37
562.129	29668.36
562.492	30229.25
562.854	30248.46
563.217	30489.13
563.579	30894.54
563.941	31204.82
564.304	31367.97
564.666	31710.56
565.028	32022.42
565.39	32370.21
565.753	32620.37
566.115	32928.16
566.477	33192.79
566.839	33629.84
567.201	33897.17
567.563	34125.19
567.925	34530.15
568.287	34747.09
568.648	35005.39
569.01	35394.54
569.372	35901.41
569.734	35991.58
570.095	36397.9
570.457	36643.77
570.819	36909.52
571.18	37187.48
571.542	37654.36
571.903	37795.38
572.265	38144.97
572.626	38457.28
572.987	38750.38
573.349	39192.18
573.71	39285.96
574.071	39627.19
574.432	39916.45
574.794	40421.07
575.155	40647.28
575.516	40728.63
575.877	40988.51
576.238	41388.28
576.599	41772.9
576.96	42008.82
577.32	42127.01
577.681	42484.97
578.042	42798.63
578.403	42918.63
578.763	43210.83
579.124	43517.26
579.485	43747.31
579.845	44027.53
580.206	44036.34
580.566	44417.35
580.927	44689.66
581.287	44983.44
581.648	44837.23
582.008	45306.14
582.368	45278.8
582.728	45598.79
583.089	45735.05
583.449	45854.37
583.809	46144.76
584.169	46374.36
584.529	46380.69
584.889	46847.57
585.249	46756.27
585.609	46869.26
585.969	47111.97
586.329	47343.37
586.688	47471.05
587.048	47589.92
587.408	47630.37
587.768	47844.38
588.127	47883.92
588.487	48087.31
588.846	48491.59
589.206	48400.52
589.565	48480.75
589.925	48795.76
590.284	48810.45
590.643	49000.96
591.003	49182.2
591.362	49280.05
591.721	49493.15
592.08	49579.25
592.44	49668.74
592.799	49875.96
593.158	49854.72
593.517	50029.63
593.876	50143.07
594.235	50339.23
594.593	50392.79
594.952	50511.65
595.311	50582.38
595.67	50747.35
596.029	51012.43
596.387	51010.4
596.746	51220.11
597.104	51172.65
597.463	51373.55
597.822	51529.25
598.18	51452.42
598.538	51633.2
598.897	51923.82
599.255	51801.79
599.613	52291.72
599.972	52028.9
600.33	52265.96
600.688	52248.78
601.046	52567.19
601.404	52751.59
601.762	52641.99
602.12	52947.07
602.478	53036.33
602.836	53084.24
603.194	53023.9
603.552	53228.42
603.91	53270.22
604.268	53452.82
604.625	53334.85
604.983	53706.14
605.341	53456.21
605.698	53872.24
606.056	53849.64
606.413	54027.94
606.771	54224.77
607.128	54315.62
607.485	54202.18
607.843	54333.02
608.2	54609.4
608.557	54726
608.914	54794.25
609.272	54884.87
609.629	54960.12
609.986	55189.5
610.343	55110.63
610.7	55327.34
611.057	55364.18
611.414	55432.43
611.771	55551.97
612.127	55733.89
612.484	55794.68
612.841	55956.93
613.198	55825.41
613.554	55887.1
613.911	56215.91
614.267	56279.41
614.624	56226.98
614.98	56375.23
615.337	56528.22
615.693	56574.32
616.05	56591.27
616.406	56838.04
616.762	56880.75
617.118	56864.48
617.475	56923.01
617.831	57140.18
618.187	57109.44
618.543	57259.05
618.899	57395.99
619.255	57331.13
619.611	57417.46
619.967	57491.13
620.323	57675.31
620.678	57612.26
621.034	57665.81
621.39	57757.56
621.746	57741.97
622.101	58071.23
622.457	57900.16
622.812	57933.38
623.168	58053.15
623.523	58137.21
623.879	58312.8
624.234	58181.96
624.589	58339.92
624.945	58402.97
625.3	58474.61
625.655	58419.92
626.01	58509.41
626.365	58671.44
626.72	58609.74
627.075	58706.69
627.43	58868.04
627.785	58736.97
628.14	58877.99
628.495	58920.24
628.85	58922.73
629.205	58925.22
629.559	59062.16
629.914	58988.04
630.269	59037.98
630.623	58983.75
630.978	59043.63
631.332	59196.62
631.687	59300.57
632.041	59218.99
632.396	59283.4
632.75	59203.4
633.104	59345.77
633.459	59258.31
633.813	59289.73
634.167	59293.79
634.521	59402.04
634.875	59465.09
635.229	59443.62
635.583	59334.47
635.937	59386.67
636.291	59408.14
636.645	59557.97
636.999	59461.02
637.352	59605.42
637.706	59480
638.06	59681.13
638.413	59672.54
638.767	59610.85
639.121	59621.7
639.474	59532.21
639.828	59642.49
640.181	59762.26
640.534	59738.3
640.888	59712.77
641.241	59676.61
641.594	59778.08
641.947	59875.25
642.301	59873.44
642.654	59878.41
643.007	59937.84
643.36	59921.57
643.713	59920.67
644.066	59986.21
644.419	59964.51
644.771	59956.38
645.124	59750.28
645.477	59781.46
645.83	59678.19
646.182	59509.83
646.535	59414.92
646.888	59453.34
647.24	59327.24
647.593	59471.64
647.945	59498.31
648.298	59461.7
648.65	59424.41
649.002	59373.79
649.355	59551.64
649.707	59597.06
650.059	59786.44
650.411	60115.69
650.763	60162.92
651.115	60398.4
651.467	60340.55
651.819	60358.85
652.171	60443.37
652.523	60435.23
652.875	60447.44
653.227	60360.66
653.578	60499.64
653.93	60516.13
654.282	60474.1
654.633	60503.71
654.985	60601.1
655.337	60594.55
655.688	60642.01
656.039	60767.2
656.391	60562.91
656.742	60659.63
657.094	60728.11
657.445	60843.81
657.796	60842
658.147	60773.76
658.498	60867.31
658.849	60873.19
659.2	60786.18
659.551	60847.2
659.902	60963.81
660.253	61013.97
660.604	61073.41
660.955	60941.43
661.306	61039.74
661.656	61022.79
662.007	61116.8
662.358	61149.34
662.708	61150.24
663.059	61191.6
663.409	61100.98
663.76	61301.88
664.11	61284.02
664.461	61310.69
664.811	61341.65
665.161	61373.74
665.511	61276.11
665.862	61417.35
666.212	61491.93
666.562	61609.89
666.912	61555.88
667.262	61504.81
667.612	61600.63
667.962	61548.42
668.312	61581.19
668.662	61775.54
669.011	61734.63
669.361	61710.23
669.711	61776.67
670.06	61769.66
670.41	61784.35
670.76	61753.39
671.109	61921.75
671.459	61934.63
671.808	61907.51
672.157	62032.48
672.507	61813.73
672.856	61893.05
673.205	61976.21
673.554	62052.14
673.904	62013.72
674.253	62152.93
674.602	62143.89
674.951	61805.37
675.3	61715.43
675.649	62131.69
675.998	62129.2
676.346	62220.04
676.695	62262.53
677.044	62153.38
677.393	62271.34
677.741	62321.96
678.09	62269.76
678.438	62225.24
678.787	62327.39
679.135	62363.54
679.484	62277.9
679.832	62421.62
680.181	62290.33
680.529	62382.75
680.877	62255.52
681.225	62357.22
681.573	62478.12
681.922	62351.11
682.27	62291.91
682.618	62342.98
682.966	62380.04
683.314	62460.49
683.661	62392.92
684.009	62346.37
684.357	62288.97
684.705	62324.67
685.053	62385.69
685.4	62389.31
685.748	62334.62
686.095	62394.05
686.443	62342.98
686.79	62374.84
687.138	62362.64
687.485	62391.57
687.832	62393.6
688.18	62401.28
688.527	62356.76
688.874	62405.35
689.221	62350.21
689.568	62274.05
689.915	62271.79
690.262	62332.13
690.609	62282.42
690.956	62257.11
691.303	62248.74
691.65	62085.59
691.997	62097.34
692.344	62054.17
692.69	62025.7
693.037	62110.22
693.383	61914.52
693.73	62085.13
694.077	61940.96
694.423	61932.59
694.769	61955.87
695.116	61928.75
695.462	61896.66
695.808	61861.41
696.155	62014.4
696.501	61853.95
696.847	61835.87
697.193	61803.78
697.539	61934.18
697.885	61812.82
698.231	61787.29
698.577	61844.24
698.923	61779.15
699.269	61747.06
699.614	61674.3
699.96	61601.53
700.306	61643.11
700.651	61511.14
700.997	61446.28
701.342	61465.94
701.688	61494.41
702.033	61451.25
702.379	61483.79
702.724	61494.19
703.069	61560.4
703.415	61323.35
703.76	61410.35
704.105	61477.69
704.45	61448.77
704.795	61337.81
705.14	61223.69
705.485	61260.07
705.83	61178.94
706.175	61228.88
706.52	61213.29
706.865	61156.57
707.209	61149.34
707.554	61104.59
707.899	61232.95
708.243	61089.23
708.588	61151.82
708.932	60988.44
709.277	61000.19
709.621	61099.62
709.966	60982.79
710.31	61116.12
710.654	60891.04
710.998	60936.91
711.342	60962
711.687	60907.54
712.031	60886.52
712.375	60843.13
712.719	60923.81
713.063	60895.56
713.407	60960.19
713.75	60808.33
714.094	60862.11
714.438	60731.5
714.782	60799.07
715.125	60731.04
715.469	60804.49
715.812	60726.3
716.156	60599.07
716.499	60635
716.843	60723.59
717.186	60709.35
717.53	60817.37
717.873	60714.32
718.216	60779.4
718.559	60663.25
718.902	60434.78
719.246	60625.74
719.589	60580.09
719.932	60534.21
720.275	60550.48
720.617	60614.66
720.96	60624.61
721.303	60629.35
721.646	60625.06
721.989	60486.76
722.331	60593.19
722.674	60484.95
723.016	60606.3
723.359	60505.29
723.701	60583.93
724.044	60490.82
724.386	60345.29
724.729	60533.76
725.071	60421
725.413	60400.21
725.755	60473.65
726.097	60429.36
726.439	60355.46
726.782	60419.41
727.124	60550.03
727.465	60384.16
727.807	60279.98
728.149	60394.78
728.491	60334.9
728.833	60482.92
729.175	60406.76
729.516	60443.37
729.858	60332.64
730.199	60425.29
730.541	60388.45
730.882	60400.21
731.224	60476.81
731.565	60269.14
731.906	60333.99
732.248	60376.48
732.589	60322.02
732.93	60249.7
733.271	60290.6
733.612	60326.99
733.953	60396.82
734.294	60283.37
734.635	60314.56
734.976	60342.35
735.317	60210.38
735.658	60269.14
735.999	60279.76
736.339	60270.72
736.68	60298.06
737.021	60315.46
737.361	60207.22
737.702	60336.25
738.042	60205.86
738.383	60183.71
738.723	60265.75
739.063	60226.88
739.404	60242.47
739.744	60271.17
740.084	60263.94
740.424	60353.65
740.764	60305.07
741.104	60381.45
741.444	60250.15
741.784	60212.41
742.124	60280.89
742.464	60229.36
742.804	60208.57
743.143	60141.68
743.483	60219.42
743.823	60108.24
744.162	60153.66
744.502	60163.15
744.841	60110.04
745.181	60200.44
745.52	60172.42
745.86	60261.23
746.199	60173.54
746.538	60185.97
746.877	60259.87
747.216	60173.54
747.556	60195.69
747.895	60243.15
748.234	60082.7
748.573	60188.01
748.911	60191.17
749.25	60158.18
749.589	59993.89
749.928	60073.66
750.267	60167.9
750.605	60074.56
750.944	60021.68
751.283	59968.8
751.621	60048.12
751.96	59855.14
752.298	59826.44
752.636	59947.79
752.975	59778.3
753.313	59824.4
753.651	59879.54
753.989	59681.81
754.327	59717.96
754.666	59631.64
755.004	59779.66
755.342	59742.82
755.679	59805.64
756.017	59631.64
756.355	59775.36
756.693	59638.42
757.031	59724.97
757.368	59570.17
757.706	59503.51
758.044	59463.28
758.381	59445.88
758.719	59425.32
759.056	59513
759.394	59429.84
759.731	59303.51
760.068	59379.44
760.405	59300.35
760.743	59329.05
761.08	59313
761.417	59083.63
761.754	59064.65
762.091	59050.18
762.428	59002.28
762.765	58917.53
763.102	59032.78
763.438	58864.88
763.775	58863.75
764.112	58869.17
764.449	58929.96
764.785	58868.27
765.122	58685
765.458	58647.26
765.795	58592.12
766.131	58632.79
766.467	58564.55
766.804	58463.99
767.14	58327.94
767.476	58376.76
767.812	58299.92
768.148	58383.99
768.485	58163.65
768.821	58087.95
769.157	58116.2
769.492	58115.52
769.828	58056.54
770.164	57871.01
770.5	57838.47
770.836	57887.96
771.171	57801.63
771.507	57736.55
771.842	57595.53
772.178	57633.95
772.513	57638.24
772.849	57513.95
773.184	57502.43
773.519	57465.59
773.855	57417.01
774.19	57324.13
774.525	57149.22
774.86	57187.18
775.195	57161.19
775.53	57109.67
775.865	57013.18
776.2	56844.37
776.535	56746.06
776.87	56803.46
777.205	56659.74
777.539	56553.08
777.874	56571.38
778.209	56382.91
778.543	56271.95
778.878	56234.44
779.212	56293.42
779.547	56142.92
779.881	56302.69
780.215	56149.02
780.55	56220.65
780.884	56118.51
781.218	56076.25
781.552	56133.65
781.886	55916.93
782.22	55792.87
782.554	55693.89
782.888	55466.1
783.222	55501.13
783.556	55390.85
783.889	55423.61
784.223	55190.63
784.557	55216.61
784.89	55163.51
785.224	54946.34
785.557	54837.87
785.891	54873.35
786.224	54730.75
786.558	54702.95
786.891	54696.85
787.224	54528.95
787.557	54460.02
787.891	54455.73
788.224	54439.23
788.557	54482.4
788.89	54433.81
789.223	54439.91
789.556	54221.16
789.888	54261.84
790.221	54179.8
790.554	53954.27
790.887	53958.79
791.219	53869.08
791.552	53829.76
791.884	53676.77
792.217	53620.72
792.549	53544.79
792.882	53459.6
793.214	53281.07
793.546	53351.13
793.879	53178.7
794.211	53043.56
794.543	53228.42
794.875	53115.88
795.207	53162.88
795.539	53121.75
795.871	53187.29
796.203	52896.67
796.535	52711.82
796.867	52723.8
797.198	52518.83
797.53	52690.13
797.862	52458.27
798.193	52454.2
798.525	52330.81
798.856	52403.58
799.188	52122.68
799.519	52003.59
799.85	51875.68
800.182	52018.96
800.513	51940.32
800.844	51725.18
801.175	51990.48
801.506	51866.19
801.837	51728.34
802.168	51678.4
802.499	51569.48
802.83	51272.08
803.161	51238.19
803.491	51392.31
803.822	51343.04
804.153	51320.67
804.483	50924.07
804.814	50819.67
805.145	50865.54
805.475	50819.67
805.805	50697.18
806.136	50951.64
806.466	50927.91
806.796	50859.44
807.126	50501.03
807.457	50541.93
807.787	50534.02
808.117	50370.86
808.447	50308.49
808.777	50400.69
809.107	50212.22
809.436	50108.95
809.766	50248.61
810.096	50057.43
810.426	50002.51
810.755	49921.61
811.085	49761.16
811.414	49888.39
811.744	49593.03
812.073	49695.18
812.403	49709.64
812.732	49558.68
813.061	49594.84
813.39	49426.93
813.719	49503.32
814.049	49724.1
814.378	49461.06
814.707	49420.38
815.036	49249.54
815.365	49126.6
815.693	48887.29
816.022	49106.72
816.351	49020.84
816.68	48751.25
817.008	49079.37
817.337	48551.03
817.665	48677.58
817.994	48746.27
818.322	48637.35
818.651	48457.47
818.979	48284.14
819.307	48635.77
819.636	48527.07
819.964	48339.28
820.292	48445.49
820.62	48445.72
820.948	48369.79
821.276	48392.16
821.604	48264.03
821.932	48382.89
822.259	48386.74
822.587	48448.2
822.915	48363.01
823.243	48597.35
823.57	48586.96
823.898	48605.94
824.225	48631.02
824.553	48613.85
824.88	48592.38
825.207	48815.2
825.535	48620.85
825.862	48780.4
826.189	48664.02
826.516	48900.85
826.843	49040.28
827.17	48979.26
827.497	49107.17
827.824	49056.55
828.151	49131.35
828.478	49095.42
828.805	49222.42
829.131	48867.18
829.458	48898.36
829.785	48903.56
830.111	48997.34
830.438	49220.61
830.764	49051.58
831.09	49266.04
831.417	48974.97
831.743	49177.45
832.069	49165.47
832.395	49076.21
832.722	49319.37
833.048	49252.25
833.374	49331.57
833.7	49071.69
834.026	49240.05
834.351	49327.5
834.677	49076.21
835.003	49083.67
835.329	49125.02
835.654	49073.72
835.98	49103.55
836.306	49320.27
836.631	49019.04
836.956	49138.58
837.282	49239.14
837.607	49027.62
837.932	49038.24
838.258	48932.03
838.583	48830.34
838.908	48589.44
839.233	48748.08
839.558	48749.66
839.883	48734.75
840.208	48628.54
840.533	48618.14
840.858	48736.11
841.182	48860.4
841.507	48635.77
841.832	48437.81
842.156	48408.43
842.481	48412.5
842.805	48406.4
843.13	48392.61
843.454	48302.22
843.778	48036.46
844.103	48037.59
844.427	48000.53
844.751	47944.26
845.075	47681.67
845.399	47804.83
845.723	47748.33
846.047	47813.19
846.371	47513.54
846.695	47553.09
847.019	47330.27
847.343	47309.93
847.666	47032.2
847.99	46775.93
848.313	46809.38
848.637	46525.99
848.96	46401.25
849.284	46383.63
849.607	46071.32
849.931	46038.55
850.254	45765.79
850.577	45827.71
850.9	45779.12
851.223	45358.79
851.546	45344.33
851.869	45144.79
852.192	45461.84
852.515	45063.43
852.838	44775.76
853.161	45113.15
853.483	44730.56
853.806	44771.01
854.129	44578.25
854.451	44550.68
854.774	44382.1
855.096	44227.98
855.419	44306.17
855.741	44152.72
856.063	43853.52
856.385	43749.12
856.708	43888.32
857.03	43679.74
857.352	43677.26
857.674	43535.34
857.996	43485.62
858.318	43287.44
858.64	43337.15
858.961	43234.56
859.283	42909.37
859.605	42835.47
859.926	43224.16
860.248	42877.95
860.57	42923.6
860.891	42900.1
861.212	42620.33
861.534	42597.96
861.855	42554.35
862.176	42633.22
862.498	42608.36
862.819	42616.72
863.14	42488.36
863.461	42350.06
863.782	42498.53
864.103	42470.73
864.424	42337.18
864.745	42315.48
865.065	42369.49
865.386	42125.43
865.707	42246.56
866.027	42301.7
866.348	42172.89
866.668	42088.14
866.989	42042.95
867.309	41871.43
867.63	41922.73
867.95	41917.75
868.27	41763.18
868.59	41889.96
868.91	41901.03
869.23	41625.11
869.55	41702.62
869.87	41780.36
870.19	41570.87
870.51	41665.78
870.83	41523.87
871.15	41286.81
871.469	41435.28
871.789	41635.73
872.109	41516.86
872.428	41456.07
872.748	41538.78
873.067	41444.55
873.386	41481.61
873.706	41373.81
874.025	41309.63
874.344	41195.96
874.663	41319.35
874.982	41207.72
875.301	41325
875.62	41113.03
875.939	41002.07
876.258	40938.57
876.577	40965.24
876.896	40848.4
877.214	40836.2
877.533	40941.73
877.852	40902.41
878.17	40920.94
878.489	40967.72
878.807	40726.6
879.125	40695.19
879.444	40664.45
879.762	40398.02
880.08	40587.17
880.398	40455.87
880.716	40477.34
881.034	40527.73
881.352	40444.8
881.67	40364.12
881.988	40573.38
882.306	40290.45
882.624	40172.04
882.941	39845.04
883.259	39970.23
883.577	39922.78
883.894	39859.95
884.212	39942.44
884.529	39814.31
884.846	39816.79
885.164	39761.2
885.481	39617.48
885.798	39638.49
886.115	39199.86
886.432	39213.64
886.75	39233.98
887.067	39231.72
887.383	39026.3
887.7	39249.58
888.017	38921.9
888.334	38953.99
888.651	38841.9
888.967	38956.02
889.284	38689.14
889.6	38718.74
889.917	38477.17
890.233	38371.41
890.55	38284.18
890.866	38402.37
891.182	38081.7
891.498	38029.95
891.815	37878.31
892.131	37848.26
892.447	37810.52
892.763	37631.54
893.079	37625.44
893.395	37567.81
893.71	37320.81
894.026	37364.88
894.342	37283.07
894.657	36965.79
894.973	37099.12
895.289	37080.37
895.604	37026.58
895.92	36826.59
896.235	36769.41
896.55	36681.51
896.865	36786.36
897.181	36617.1
897.496	36560.38
897.811	36401.74
898.126	36357.22
898.441	36235.42
898.756	35974.63
899.071	35977.34
899.386	36112.03
899.7	35753.85
900.015	35705.49
900.33	35539.62
900.644	35375.78
900.959	35265.05
901.273	35336.68
901.588	35237.48
901.902	35107.54
902.216	34944.6
902.531	34906.19
902.845	34809.24
903.159	34618.51
903.473	34577.16
903.787	34465.29
904.101	34222.59
904.415	34273.21
904.729	34027.79
905.042	33806.33
905.356	33794.58
905.67	33926.1
905.984	33710.29
906.297	33757.06
906.611	33397.07
906.924	33345.1
907.237	33217.64
907.551	33233.01
907.864	33238.89
908.177	33138.78
908.491	32755.51
908.804	32725
909.117	32518.9
909.43	32557.55
909.743	32373.15
910.056	32215.64
910.368	32162.98
910.681	32103.77
910.994	32030.56
911.307	31948.07
911.619	31784.23
911.932	31805.93
912.244	31433.96
912.557	31499.04
912.869	31187.87
913.181	31213.85
913.494	31165.72
913.806	30971.15
914.118	30906.74
914.43	30589.69
914.742	30507.43
915.054	30510.37
915.366	30267.66
915.678	30301.79
915.99	30225.63
916.302	29968.69
916.613	29993.32
916.925	29839.43
917.236	29844.85
917.548	29774.8
917.859	29759.66
918.171	29531.41
918.482	29510.85
918.794	29405.54
919.105	29286.9
919.416	29088.26
919.727	28990.41
920.038	29008.26
920.349	28739.12
920.66	28677.65
920.971	28667.71
921.282	28477.43
921.593	28351.56
921.903	28171.67
922.214	28160.6
922.525	28060.49
922.835	27865.69
923.146	27963.54
923.456	27674.74
923.767	27529.21
924.077	27561.97
924.387	27512.03
924.697	27315.88
925.008	27343
925.318	27196.78
925.628	27147.29
925.938	26949.11
926.248	26680.64
926.558	26769
926.867	26500.08
927.177	26452.62
927.487	26400.87
927.796	26087.44
928.106	25969.25
928.416	25940.55
928.725	26019.64
929.034	25704.39
929.344	25925.86
929.653	25740.55
929.962	25565.64
930.271	25545.53
930.581	25345.31
930.89	25185.76
931.199	25251.53
931.508	25038.65
931.817	25022.15
932.125	24949.39
932.434	24823.06
932.743	24623.07
933.051	24556.4
933.36	24517.08
933.669	24331.1
933.977	24381.72
934.286	24261.49
934.594	24081.39
934.902	23819.47
935.21	23939.7
935.519	23863.09
935.827	23981.05
936.135	23786.93
936.443	23756.65
936.751	23422.87
937.059	23412.25
937.367	23359.82
937.674	23363.44
937.982	23474.62
938.29	23150.56
938.597	23029.21
938.905	22846.39
939.213	22796.9
939.52	22750.8
939.827	22549.9
940.135	22434.88
940.442	22319.17
940.749	22334.77
941.056	22397.14
941.363	22209.12
941.67	22171.38
941.977	22105.85
942.284	21926.41
942.591	21796.93
942.898	21675.12
943.205	21686.2
943.511	21426.54
943.818	21408.01
944.125	21312.19
944.431	21366.2
944.738	21245.75
945.044	21091.18
945.35	21116.27
945.657	20906.78
945.963	20848.7
946.269	20726.9
946.575	20740.91
946.881	20587.69
947.187	20489.62
947.493	20432.22
947.799	20360.58
948.105	20239.91
948.41	20145.44
948.716	20046.46
949.022	19949.29
949.327	19972.79
949.633	19694.61
949.938	19670.43
950.244	19748.17
950.549	19441.06
950.854	19449.42
951.16	19493.26
951.465	19332.58
951.77	19335.75
952.075	19145.92
952.38	19128.3
952.685	19157.45
952.99	19017.34
953.294	18918.58
953.599	18762.43
953.904	18775.76
954.209	18592.72
954.513	18615.99
954.818	18534.64
955.122	18333.52
955.426	18325.15
955.731	18260.07
956.035	18203.12
956.339	18169.45
956.643	18123.58
956.948	17940.53
957.252	17896.69
957.556	17870.48
957.86	17666.19
958.163	17590.71
958.467	17488.79
958.771	17531.73
959.075	17437.49
959.378	17299.42
959.682	17292.19
959.985	17177.16
960.289	17126.99
960.592	17027.33
960.896	17002.7
961.199	16928.58
961.502	16868.69
961.805	16907.11
962.108	16748.02
962.411	16674.8
962.714	16625.54
963.017	16559.1
963.32	16643.84
963.623	16352.78
963.926	16425.77
964.228	16289.05
964.531	16175.61
964.833	16304.87
965.136	16081.82
965.438	16089.05
965.741	16064.42
966.043	15889.51
966.345	15868.72
966.648	15795.95
966.95	15732.91
967.252	15573.14
967.554	15582.63
967.856	15461.5
968.158	15304.67
968.46	15359.58
968.761	15345.12
969.063	15179.93
969.365	15116.65
969.666	15046.14
969.968	14955.98
970.269	14954.17
970.571	14906.94
970.872	14898.35
971.174	14635.76
971.475	14684.8
971.776	14522.99
972.077	14491.36
972.378	14464.46
972.679	14513.05
972.98	14405.93
973.281	14236.67
973.582	14174.98
973.883	14053.63
974.183	13965.95
974.484	14036.68
974.785	13896.8
975.085	13898.38
975.386	13920.07
975.686	13766.63
975.986	13799.85
976.287	13657.03
976.587	13575.22
976.887	13502.46
977.187	13505.39
977.487	13473.53
977.787	13346.98
978.087	13271.5
978.387	13248.9
978.687	13252.52
978.987	13068.12
979.286	12977.95
979.586	13081.45
979.885	12928.69
980.185	12822.47
980.484	12843.94
980.784	12712.65
981.083	12734.79
981.382	12550.39
981.682	12655.47
981.981	12560.33
982.28	12574.34
982.579	12422.03
982.878	12472.65
983.177	12400.11
983.475	12431.52
983.774	12256.39
984.073	12220.91
984.372	12124.19
984.67	12152.43
984.969	12115.6
985.267	11978.2
985.566	11956.06
985.864	11857.3
986.162	11814.82
986.461	11710.41
986.759	11744.08
987.057	11592
987.355	11583.64
987.653	11554.26
987.951	11536.86
988.249	11399.01
988.547	11407.37
988.844	11250.99
989.142	11307.26
989.44	11219.35
989.737	11105.23
990.035	11038.11
990.332	11070.43
990.63	10964.67
990.927	10934.16
991.224	10859.59
991.521	10874.05
991.819	10754.28
992.116	10726.03
992.413	10655.07
992.71	10624.79
993.006	10621.63
993.303	10571.46
993.6	10487.62
993.897	10433.16
994.193	10341.18
994.49	10286.5
994.787	10295.76
995.083	10210.56
995.379	10228.42
995.676	10179.83
995.972	10066.84
996.268	10020.51
996.565	9881.76
996.861	9877.69
997.157	9833.17
997.453	9750.46
997.749	9677.02
998.044	9633.63
998.34	9650.58
998.636	9557.25
998.932	9512.96
999.227	9509.79
999.523	9406.97
999.818	9372.17
1000.114	9370.13
1000.409	9240.19
1000.704	9178.95
1001	9168.78
1001.295	9138.05
1001.59	9143.47
1001.885	9107.54
1002.18	8985.06
1002.475	8945.97
1002.77	8887.21
1003.065	8840.88
1003.359	8847.66
1003.654	8723.37
1003.949	8608.12
1004.243	8664.84
1004.538	8555.69
1004.832	8469.14
1005.127	8472.31
1005.421	8400.44
1005.715	8380.33
1006.009	8345.53
1006.304	8331.07
1006.598	8155.48
1006.892	8169.94
1007.186	8069.38
1007.48	8032.77
1007.773	7995.03
1008.067	7978.99
1008.361	7865.09
1008.655	7898.08
1008.948	7820.12
1009.242	7792.32
1009.535	7680.46
1009.829	7622.84
1010.122	7582.16
1010.415	7609.05
1010.708	7464.2
1011.001	7415.61
1011.295	7391.43
1011.588	7329.28
1011.881	7250.42
1012.173	7202.96
1012.466	7219.68
1012.759	7238.21
1013.052	7085.9
1013.344	7093.58
1013.637	6999.35
1013.93	7018.56
1014.222	6945.11
1014.514	6870.99
1014.807	6808.17
1015.099	6800.26
1015.391	6729.3
1015.683	6731.79
1015.976	6728.85
1016.268	6646.59
1016.56	6551
1016.851	6552.36
1017.143	6501.28
1017.435	6462.64
1017.727	6420.61
1018.018	6423.77
1018.31	6357.33
1018.602	6239.6
1018.893	6185.59
1019.185	6140.62
1019.476	6077.79
1019.767	6052.03
1020.058	5995.31
1020.35	5922.77
1020.641	5968.64
1020.932	5916.44
1021.223	5820.4
1021.514	5813.62
1021.804	5747.18
1022.095	5725.71
1022.386	5715.32
1022.677	5616.79
1022.967	5550.35
1023.258	5540.18
1023.548	5448.88
1023.839	5476.45
1024.129	5386.51
1024.419	5437.58
1024.709	5324.37
1025	5303.8
1025.29	5244.82
1025.58	5160.08
1025.87	5172.51
1026.16	5166.86
1026.449	5105.84
1026.739	5077.14
1027.029	5058.84
1027.319	5019.51
1027.608	4963.02
1027.898	4918.05
1028.187	4905.62
1028.477	4836.92
1028.766	4778.62
1029.055	4743.36
1029.344	4696.59
1029.634	4674.21
1029.923	4601.45
1030.212	4618.62
1030.501	4582.24
1030.79	4547.89
1031.078	4539.08
1031.367	4459.76
1031.656	4466.76
1031.945	4451.85
1032.233	4356.48
1032.522	4299.99
1032.81	4288.46
1033.099	4285.3
1033.387	4263.6
1033.675	4187.22
1033.963	4139.99
1034.251	4163.04
1034.54	4066.09
1034.828	4000.56
1035.116	4026.09
1035.403	3988.81
1035.691	3987.23
1035.979	3936.38
1036.267	3885.31
1036.554	3853.44
1036.842	3838.53
1037.129	3821.35
1037.417	3753.33
1037.704	3755.14
1037.992	3745.88
1038.279	3701.81
1038.566	3667.69
1038.853	3667.69
1039.14	3667.69
