Data from copper_heatsink_FLMS001491_049.txt Node
Date: Tue Feb 07 10:50:01 GMT 2017
User: dcchb
Spectrometer: FLMS00149
Trigger mode: 0
Integration Time (sec): 2.000000E-2
Scans to average: 10
Electric dark correction enabled: true
Nonlinearity correction enabled: false
Boxcar width: 0
XAxis mode: Wavelengths
Number of Pixels in Spectrum: 2048
>>>>>Begin Spectral Data<<<<<
341.393	1.67
341.776	1.67
342.16	1.67
342.543	-51.44
342.927	-73.59
343.31	-69.07
343.693	-67.26
344.077	-77.65
344.46	-72
344.843	-53.7
345.226	-23.64
345.61	-33.36
345.993	-5.11
346.376	4.15
346.759	-2.63
347.142	18.84
347.525	50.7
347.908	51.38
348.291	87.54
348.674	87.54
349.057	104.26
349.44	130.93
349.823	154.66
350.206	182
350.588	209.12
350.971	224.71
351.354	248.89
351.737	264.94
352.119	272.85
352.502	266.52
352.884	284.82
353.267	292.28
353.65	308.33
354.032	340.41
354.414	304.71
354.797	316.46
355.179	347.42
355.562	356.91
355.944	352.84
356.326	349.45
356.709	346.06
357.091	362.56
357.473	366.85
357.855	388.1
358.238	354.88
358.62	360.08
359.002	369.57
359.384	356.46
359.766	369.57
360.148	373.86
360.53	355.33
360.912	372.28
361.294	351.04
361.676	381.77
362.057	345.39
362.439	344.71
362.821	367.08
363.203	351.94
363.584	337.25
363.966	354.43
364.348	360.75
364.729	357.14
365.111	331.6
365.493	354.88
365.874	353.97
366.256	342
366.637	341.54
367.019	351.94
367.4	343.8
367.781	344.03
368.163	339.74
368.544	352.62
368.925	345.39
369.306	353.75
369.688	357.14
370.069	339.51
370.45	357.59
370.831	370.02
371.212	341.77
371.593	364.37
371.974	348.1
372.355	351.49
372.736	353.52
373.117	339.74
373.498	346.74
373.879	323.47
374.26	349.23
374.641	356.46
375.021	363.01
375.402	363.92
375.783	365.05
376.163	371.6
376.544	365.95
376.925	357.59
377.305	360.53
377.686	350.58
378.066	351.49
378.447	361.43
378.827	380.64
379.208	375.22
379.588	374.99
379.968	364.14
380.349	368.44
380.729	382
381.109	375.89
381.489	371.15
381.87	377.93
382.25	385.61
382.63	364.14
383.01	368.89
383.39	380.64
383.77	403.69
384.15	401.66
384.53	376.35
384.91	404.59
385.29	410.02
385.67	417.25
386.049	425.16
386.429	401.43
386.809	390.81
387.189	399.17
387.568	411.37
387.948	382.67
388.328	432.16
388.707	407.53
389.087	403.24
389.466	413.86
389.846	423.35
390.225	421.99
390.605	407.31
390.984	429
391.363	434.2
391.743	426.97
392.122	440.3
392.501	436.23
392.881	445.27
393.26	426.97
393.639	442.11
394.018	447.08
394.397	433.52
394.776	437.81
395.155	469.22
395.534	446.17
395.913	441.88
396.292	478.49
396.671	458.15
397.05	459.28
397.429	480.07
397.808	462.9
398.186	464.93
398.565	483.24
398.944	487.76
399.323	494.54
399.701	482.11
400.08	459.28
400.458	500.64
400.837	504.03
401.215	461.54
401.594	482.78
401.972	500.64
402.351	499.28
402.729	509
403.107	496.34
403.486	492.5
403.864	511.03
404.242	511.03
404.62	501.31
404.999	513.07
405.377	508.55
405.755	520.3
406.133	519.85
406.511	545.61
406.889	523.23
407.267	536.79
407.645	556
408.023	571.82
408.401	538.6
408.779	564.14
409.156	565.95
409.534	551.26
409.912	572.27
410.29	561.43
410.667	600.75
411.045	583.8
411.422	589.9
411.8	591.93
412.178	597.58
412.555	609.33
412.933	607.98
413.31	607.07
413.687	584.02
414.065	618.6
414.442	614.08
414.819	629.9
415.197	624.7
415.574	620.18
415.951	675.1
416.328	657.69
416.705	644.36
417.082	650.24
417.46	660.63
417.837	675.1
418.214	678.71
418.591	698.15
418.967	677.58
419.344	670.8
419.721	682.33
420.098	691.59
420.475	683.91
420.852	708.54
421.228	703.34
421.605	715.32
421.982	732.49
422.358	735.43
422.735	720.07
423.111	723.68
423.488	723.23
423.864	721.42
424.241	758.71
424.617	751.03
424.994	754.87
425.37	754.64
425.746	778.82
426.123	785.83
426.499	775.43
426.875	794.41
427.251	788.31
427.627	800.06
428.003	808.88
428.379	821.98
428.756	800.29
429.132	838.25
429.507	839.16
429.883	851.59
430.259	848.2
430.635	869.89
431.011	862.89
431.387	875.54
431.763	885.71
432.138	914.19
432.514	901.76
432.89	925.71
433.265	911.02
433.641	932.26
434.016	925.71
434.392	937.91
434.767	989.21
435.143	942.43
435.518	966.39
435.894	989.89
436.269	1007.29
436.644	1017.01
437.02	1020.17
437.395	986.05
437.77	1053.84
438.145	1057.68
438.52	1052.94
438.895	1077.8
439.271	1059.27
439.646	1068.53
440.021	1061.53
440.395	1094.29
440.77	1106.27
441.145	1087.97
441.52	1095.88
441.895	1085.25
442.27	1133.84
442.645	1132.26
443.019	1148.3
443.394	1131.58
443.769	1143.33
444.143	1162.09
444.518	1150.79
444.892	1181.3
445.267	1152.37
445.641	1159.6
446.016	1184.69
446.39	1219.71
446.764	1187.17
447.139	1202.09
447.513	1235.31
447.887	1209.54
448.262	1227.85
448.636	1236.66
449.01	1260.16
449.384	1245.7
449.758	1240.28
450.132	1293.61
450.506	1270.11
450.88	1327.96
451.254	1320.28
451.628	1330.45
452.002	1317.56
452.376	1346.04
452.75	1358.69
453.123	1368.86
453.497	1366.38
453.871	1376.77
454.244	1427.39
454.618	1450.67
454.992	1421.74
455.365	1458.58
455.739	1485.24
456.112	1498.8
456.486	1475.98
456.859	1546.48
457.232	1530.67
457.606	1532.7
457.979	1551
458.352	1580.38
458.725	1605.69
459.099	1587.61
459.472	1627.84
459.845	1643.43
460.218	1664.45
460.591	1693.37
460.964	1691.34
461.337	1746.93
461.71	1721.4
462.083	1777.89
462.456	1767.27
462.829	1805.69
463.201	1835.97
463.574	1841.17
463.947	1851.34
464.32	1877.55
464.692	1865.8
465.065	1897.44
465.438	1943.54
465.81	1971.11
466.183	1974.95
466.555	2022.86
466.928	2043.87
467.3	2051.78
467.672	2045.91
468.045	2115.74
468.417	2100.59
468.789	2137.2
469.161	2141.27
469.534	2190.76
469.906	2253.36
470.278	2257.65
470.65	2272.34
471.022	2312.34
471.394	2353.92
471.766	2416.29
472.138	2389.4
472.51	2455.84
472.882	2483.18
473.253	2528.61
473.625	2549.4
473.997	2610.41
474.369	2628.72
474.74	2649.05
475.112	2681.37
475.484	2761.82
475.855	2792.55
476.227	2785.77
476.598	2850.86
476.97	2898.77
477.341	2970.4
477.713	3021.47
478.084	3026.22
478.455	3150.74
478.827	3158.87
479.198	3231.19
479.569	3217.4
479.94	3307.57
480.311	3328.81
480.682	3428.24
481.053	3506.66
481.424	3593.89
481.795	3583.04
482.166	3656.94
482.537	3688.58
482.908	3772.19
483.279	3826.65
483.65	3905.52
484.021	3955.23
484.391	3992.97
484.762	4083.37
485.133	4109.13
485.503	4156.81
485.874	4261.22
486.244	4346.86
486.615	4406.07
486.985	4429.12
487.356	4535.56
487.726	4539.17
488.097	4625.27
488.467	4666.85
488.837	4768.77
489.207	4884.02
489.578	4924.25
489.948	4977.58
490.318	5042.66
490.688	5066.62
491.058	5172.38
491.428	5210.34
491.798	5273.39
492.168	5345.25
492.538	5451.01
492.908	5552.48
493.278	5629.32
493.648	5605.36
494.017	5732.36
494.387	5782.76
494.757	5885.13
495.126	5843.55
495.496	5945.69
495.866	5976.42
496.235	6053.48
496.605	6145.46
496.974	6138.45
497.344	6306.81
497.713	6253.48
498.082	6305.68
498.452	6408.73
498.821	6467.94
499.19	6506.81
499.559	6582.28
499.928	6659.8
500.298	6739.34
500.667	6815.27
501.036	6862.73
501.405	6930.07
501.774	6933.69
502.143	7030.63
502.512	7138.88
502.88	7111.08
503.249	7149.95
503.618	7203.06
503.987	7272.89
504.356	7307.01
504.724	7493
505.093	7425.43
505.462	7578.64
505.83	7607.34
506.199	7704.51
506.567	7807.34
506.936	7816.38
507.304	7908.8
507.672	8031.29
508.041	8013.89
508.409	8112.41
508.777	8203.26
509.145	8323.71
509.514	8325.97
509.882	8350.83
510.25	8463.59
510.618	8607.54
510.986	8593.31
511.354	8682.12
511.722	8766.63
512.09	8896.8
512.458	8861.32
512.826	9038.04
513.193	9066.51
513.561	9137.7
513.929	9239.84
514.297	9376.56
514.664	9366.84
515.032	9539.72
515.4	9550.79
515.767	9705.59
516.135	9771.35
516.502	9722.77
516.869	9839.37
517.237	9944.23
517.604	10010.67
517.972	10164.79
518.339	10228.52
518.706	10315.07
519.073	10369.08
519.44	10468.51
519.808	10588.05
520.175	10680.93
520.542	10867.14
520.909	10917.31
521.276	11009.51
521.643	11105.33
522.009	11221.94
522.376	11307.58
522.743	11454.92
523.11	11544.19
523.477	11749.83
523.843	11751.19
524.21	11936.49
524.577	12082.48
524.943	12214.68
525.31	12284.51
525.676	12300.1
526.043	12490.38
526.409	12538.29
526.776	12756.36
527.142	12825.74
527.508	12922.91
527.874	13039.97
528.241	13239.28
528.607	13248.78
528.973	13449.67
529.339	13396.57
529.705	13612.61
530.071	13743.23
530.437	13791.81
530.803	13989.32
531.169	14057.34
531.535	14107.74
531.901	14208.98
532.267	14366.03
532.632	14474.51
532.998	14617.1
533.364	14611.9
533.73	14823.2
534.095	14944.55
534.461	14896.87
534.826	15073.13
535.192	15196.75
535.557	15442.16
535.923	15433.35
536.288	15565.1
536.653	15684.87
537.019	15794.02
537.384	15786.56
537.749	15970.96
538.114	16078.31
538.479	16082.83
538.845	16291.18
539.21	16251.63
539.575	16378.19
539.94	16441.91
540.305	16634
540.67	16749.47
541.034	16752.86
541.399	16895.69
541.764	17029.24
542.129	17157.15
542.494	17310.82
542.858	17369.8
543.223	17398.72
543.587	17725.27
543.952	17721.43
544.316	17839.84
544.681	17844.36
545.045	18059.04
545.41	18163.9
545.774	18280.51
546.138	18296.78
546.503	18562.31
546.867	18651.35
547.231	18786.03
547.595	18939.7
547.959	19070.32
548.324	19211.11
548.688	19225.79
549.052	19472.79
549.416	19509.85
549.779	19546.92
550.143	19803.41
550.507	19997.3
550.871	20218.76
551.235	20277.07
551.599	20564.29
551.962	20590.05
552.326	20763.15
552.689	20993.88
553.053	21066.42
553.417	21169.47
553.78	21573.98
554.143	21565.85
554.507	21876.57
554.87	21966.96
555.234	22314.98
555.597	22167.86
555.96	22450.34
556.323	22665.25
556.686	22856.21
557.05	23179.14
557.413	23349.3
557.776	23433.14
558.139	23752.23
558.502	23949.29
558.865	24077.64
559.228	24416.84
559.59	24669.27
559.953	24872.65
560.316	25194.45
560.679	25350.83
561.041	25753.31
561.404	25925.5
561.767	26195.55
562.129	26440.29
562.492	26764.13
562.854	26822.88
563.217	27127.96
563.579	27326.37
563.941	27745.34
564.304	28061.95
564.666	28236.86
565.028	28477.08
565.39	28766.79
565.753	29078.64
566.115	29429.59
566.477	29646.31
566.839	29929.92
567.201	30371.26
567.563	30444.26
567.925	30858.71
568.287	31146.84
568.648	31349.54
569.01	31787.27
569.372	32208.5
569.734	32257.09
570.095	32661.6
570.457	33009.84
570.819	33291.19
571.18	33522.37
571.542	33892.75
571.903	34196.93
572.265	34355.79
572.626	34796.91
572.987	34977.47
573.349	35243.45
573.71	35591.92
574.071	35909.2
574.432	36231.67
574.794	36627.37
575.155	36827.59
575.516	36941.49
575.877	37323.62
576.238	37746.66
576.599	37800.9
576.96	38178.52
577.32	38428.23
577.681	38633.87
578.042	39074.31
578.403	39228.66
578.763	39517.01
579.124	39806.5
579.485	40020.73
579.845	40298.91
580.206	40558.34
580.566	40554.95
580.927	40868.84
581.287	41338.88
581.648	41375.95
582.008	41737.74
582.368	41846.22
582.728	42104.51
583.089	42219.31
583.449	42440.1
583.809	42665.63
584.169	42931.84
584.529	42785.85
584.889	43418.6
585.249	43371.37
585.609	43367.31
585.969	43822.44
586.329	43944.01
586.688	44179.49
587.048	44264.01
587.408	44229.88
587.768	44577.67
588.127	44668.29
588.487	44741.73
588.846	45259.23
589.206	45080.26
589.565	45298.33
589.925	45677.53
590.284	45630.07
590.643	45848.6
591.003	45990.74
591.362	46242.26
591.721	46405.64
592.08	46626.2
592.44	46752.98
592.799	46944.16
593.158	46937.16
593.517	47193.42
593.876	47362
594.235	47425.96
594.593	47613.52
594.952	47771.71
595.311	47867.75
595.67	47890.12
596.029	48349.1
596.387	48495.98
596.746	48648.98
597.104	48554.29
597.463	48660.95
597.822	48906.37
598.18	48964.67
598.538	49038.8
598.897	49442.63
599.255	49089.42
599.613	49802.17
599.972	49758.1
600.33	50042.38
600.688	49955.38
601.046	50230.4
601.404	50451.64
601.762	50404.18
602.12	50618.87
602.478	50652.76
602.836	50870.61
603.194	50821.35
603.552	51108.57
603.91	50973.21
604.268	51333.65
604.625	51256.82
604.983	51471.95
605.341	51417.72
605.698	51827.42
606.056	51875.1
606.413	51956.91
606.771	52032.61
607.128	52168.43
607.485	52231.71
607.843	52384.92
608.2	52745.82
608.557	52817.91
608.914	52803.89
609.272	53091.12
609.629	53146.03
609.986	53199.59
610.343	53238.23
610.7	53429.87
611.057	53510.77
611.414	53622.18
611.771	53680.26
612.127	53896.97
612.484	53915.73
612.841	54167.7
613.198	54154.37
613.554	54218.77
613.911	54513.68
614.267	54474.36
614.624	54488.37
614.98	54631.19
615.337	54860.34
615.693	54874.57
616.05	54942.82
616.406	55162.25
616.762	55108.92
617.118	55201.12
617.475	55246.77
617.831	55355.01
618.187	55496.48
618.543	55620.09
618.899	55741.9
619.255	55848.11
619.611	55850.14
619.967	56036.13
620.323	56099.4
620.678	56070.93
621.034	56023.02
621.39	56179.4
621.746	56173.52
622.101	56604.47
622.457	56312.73
622.812	56485.15
623.168	56631.59
623.523	56799.04
623.879	56802.21
624.234	56694.87
624.589	56849.21
624.945	56924.69
625.3	56951.13
625.655	57033.16
626.01	57116.32
626.365	57143.22
626.72	57182.99
627.075	57161.75
627.43	57171.69
627.785	57229.99
628.14	57286.94
628.495	57456.2
628.85	57491.68
629.205	57308.63
629.559	57617.78
629.914	57434.96
630.269	57521.51
630.623	57542.98
630.978	57640.83
631.332	57694.61
631.687	57829.98
632.041	57745.23
632.396	57820.26
632.75	57751.11
633.104	57865.91
633.459	57816.19
633.813	57823.42
634.167	57879.01
634.521	57929.86
634.875	58020.25
635.229	57992.46
635.583	57927.38
635.937	57968.05
636.291	57977.77
636.645	58004.66
636.999	57962.63
637.352	58101.16
637.706	58005.34
638.06	58139.8
638.413	58126.01
638.767	58091.21
639.121	58150.65
639.474	58097.31
639.828	58182.74
640.181	58199.01
640.534	58196.52
640.888	58196.29
641.241	58204.43
641.594	58295.28
641.947	58389.74
642.301	58394.48
642.654	58431.99
643.007	58445.33
643.36	58452.79
643.713	58413.46
644.066	58548.6
644.419	58478.77
644.771	58468.38
645.124	58323.3
645.477	58281.94
645.83	58137.09
646.182	57971.67
646.535	57887.15
646.888	57901.16
647.24	57804.67
647.593	58022.97
647.945	57904.78
648.298	57787.49
648.65	57825.68
649.002	57740.26
649.355	58029.29
649.707	57924.66
650.059	58196.07
650.411	58579.34
650.763	58625.66
651.115	58830.85
651.467	58899.1
651.819	58826.11
652.171	58799.89
652.523	58766.45
652.875	58857.29
653.227	58784.53
653.578	58954.69
653.93	58907.24
654.282	58863.62
654.633	58800.57
654.985	58937.29
655.337	58926.44
655.688	58935.26
656.039	59029.72
656.391	58932.32
656.742	59010.28
657.094	59053.22
657.445	59213.22
657.796	59165.08
658.147	59099.32
658.498	59109.72
658.849	59147
659.2	59137.51
659.551	59047.57
659.902	59241.46
660.253	59192.65
660.604	59285.08
660.955	59165.76
661.306	59317.85
661.656	59260
662.007	59355.59
662.358	59353.78
662.708	59342.25
663.059	59407.11
663.409	59341.12
663.76	59445.3
664.11	59433.78
664.461	59484.4
664.811	59520.1
665.161	59508.12
665.511	59420.9
665.862	59536.82
666.212	59690.49
666.562	59716.25
666.912	59679.87
667.262	59706.09
667.612	59744.73
667.962	59722.58
668.312	59740.43
668.662	59880.54
669.011	59935.91
669.361	59933.42
669.711	59903.82
670.06	59910.37
670.41	59898.85
670.76	59953.99
671.109	60033.99
671.459	60067.43
671.808	59939.07
672.157	60014.55
672.507	59888.23
672.856	59940.66
673.205	60028.34
673.554	60126.64
673.904	60088
674.253	60157.15
674.602	60144.94
674.951	59763.49
675.3	59757.38
675.649	60199.18
675.998	60160.08
676.346	60215
676.695	60331.38
677.044	60134.77
677.393	60253.42
677.741	60287.31
678.09	60171.61
678.438	60236.47
678.787	60214.09
679.135	60239.63
679.484	60100.43
679.832	60266.75
680.181	60089.35
680.529	60312.62
680.877	60296.8
681.225	60227.65
681.573	60429.91
681.922	60215.22
682.27	60196.47
682.618	60258.16
682.966	60176.58
683.314	60283.47
683.661	60205.51
684.009	60161.67
684.357	60119.18
684.705	60193.98
685.053	60258.16
685.4	60210.93
685.748	60079.86
686.095	60124.15
686.443	60021.78
686.79	60069.92
687.138	60146.53
687.485	60148.11
687.832	60101.1
688.18	60126.41
688.527	59960.54
688.874	59970.26
689.221	59842.58
689.568	59885.97
689.915	59886.65
690.262	60023.14
690.609	59848.45
690.956	59850.26
691.303	59846.65
691.65	59636.26
691.997	59731.4
692.344	59648.23
692.69	59704.73
693.037	59673.32
693.383	59559.65
693.73	59659.08
694.077	59462.93
694.423	59449.6
694.769	59506.32
695.116	59422.25
695.462	59447.34
695.808	59404.62
696.155	59460.89
696.501	59289.83
696.847	59340.22
697.193	59151.75
697.539	59262.93
697.885	59128.47
698.231	59026.56
698.577	59083.73
698.923	59055.71
699.269	58889.84
699.614	58865.2
699.96	58876.05
700.306	58894.36
700.651	58793.12
700.997	58874.24
701.342	58831.31
701.688	58782.72
702.033	58723.51
702.379	58760.35
702.724	58651.88
703.069	58714.25
703.415	58388.83
703.76	58497.53
704.105	58469.96
704.45	58529.17
704.795	58300.25
705.14	58428.83
705.485	58337.53
705.83	58194.49
706.175	58241.27
706.52	58184.54
706.865	58189.29
707.209	58123.3
707.554	58086.24
707.899	58212.11
708.243	58100.7
708.588	58089.18
708.932	57882.4
709.277	57935.06
709.621	57950.2
709.966	57802.63
710.31	57917.21
710.654	57693.48
710.998	57739.36
711.342	57762.63
711.687	57797.89
712.031	57739.58
712.375	57530.32
712.719	57619.59
713.063	57570.77
713.407	57755.63
713.75	57565.8
714.094	57560.61
714.438	57464.34
714.782	57540.94
715.125	57415.07
715.469	57467.5
715.812	57475.86
716.156	57254.17
716.499	57366.26
716.843	57362.19
717.186	57237.45
717.53	57375.75
717.873	57356.32
718.216	57362.87
718.559	57258.47
718.902	57153.16
719.246	57282.42
719.589	57051.69
719.932	57037.91
720.275	57061.18
720.617	57053.5
720.96	56967.63
721.303	56968.3
721.646	56855.09
721.989	56809.44
722.331	56957.01
722.674	56902.32
723.016	56973.73
723.359	56973.28
723.701	57013.5
724.044	56853.96
724.386	56792.72
724.729	56825.48
725.071	56672.27
725.413	56750.01
725.755	56707.29
726.097	56785.48
726.439	56559.05
726.782	56571.93
727.124	56787.74
727.465	56631.59
727.807	56617.81
728.149	56569.22
728.491	56495.77
728.833	56630.91
729.175	56481.54
729.516	56517.24
729.858	56480.18
730.199	56577.13
730.541	56476.79
730.882	56431.37
731.224	56547.07
731.565	56322.9
731.906	56462.78
732.248	56498.26
732.589	56276.35
732.93	56245.39
733.271	56279.28
733.612	56253.07
733.953	56262.11
734.294	56190.25
734.635	56136.24
734.976	56213.3
735.317	56158.61
735.658	56133.75
735.999	56086.75
736.339	56105.05
736.68	56209.45
737.021	56158.61
737.361	55963.81
737.702	56029.35
738.042	55967.88
738.383	55940.08
738.723	56014.88
739.063	55940.31
739.404	56062.79
739.744	56035.45
740.084	56011.04
740.424	55917.48
740.764	55835
741.104	56017.14
741.444	55918.84
741.784	55837.49
742.124	55949.35
742.464	55828.45
742.804	55824.83
743.143	55619.41
743.483	55658.06
743.823	55540.32
744.162	55644.27
744.502	55732.63
744.841	55472.07
745.181	55674.1
745.52	55572.63
745.86	55668.68
746.199	55653.08
746.538	55656.25
746.877	55674.55
747.216	55672.29
747.556	55510.49
747.895	55533.99
748.234	55348.69
748.573	55413.77
748.911	55408.12
749.25	55321.12
749.589	55201.57
749.928	55200.22
750.267	55260.78
750.605	55258.07
750.944	55301.46
751.283	55199.99
751.621	55203.83
751.96	54963.39
752.298	55090.84
752.636	55079.99
752.975	55048.35
753.313	54948.02
753.651	54956.38
753.989	54886.55
754.327	54844.07
754.666	54787.8
755.004	54741.7
755.342	54707.57
755.679	54719.32
756.017	54575.15
756.355	54644.52
756.693	54435.04
757.031	54595.26
757.368	54418.31
757.706	54395.04
758.044	54316.62
758.381	54276.85
758.719	54207.92
759.056	54315.27
759.394	54135.38
759.731	54169.06
760.068	54106.91
760.405	53955.5
760.743	53788.27
761.08	53804.32
761.417	53581.27
761.754	53640.48
762.091	53606.58
762.428	53600.48
762.765	53392.35
763.102	53421.5
763.438	53335.18
763.775	53196.43
764.112	53216.09
764.449	53133.15
764.785	53146.71
765.122	52835.76
765.458	52835.31
765.795	52747.4
766.131	52706.72
766.467	52667.85
766.804	52630.34
767.14	52489.33
767.476	52354.19
767.812	52409.33
768.148	52485.94
768.485	52289.33
768.821	52039.62
769.157	52014.31
769.492	51943.13
769.828	51937.25
770.164	51780.64
770.5	51591.5
770.836	51693.87
771.171	51449.58
771.507	51346.98
771.842	51298.4
772.178	51307.44
772.513	51268.34
772.849	51110.83
773.184	50913.1
773.519	51022.02
773.855	50881.01
774.19	50774.57
774.525	50748.81
774.86	50678.3
775.195	50467.23
775.53	50395.14
775.865	50270.85
776.2	50070.86
776.535	49844.2
776.87	49991.31
777.205	49727.59
777.539	49614.37
777.874	49761.26
778.209	49413.47
778.543	49330.31
778.878	49031.79
779.212	49236.53
779.547	49006.71
779.881	49096.42
780.215	48804.45
780.55	48888.29
780.884	48672.03
781.218	48752.25
781.552	48576.89
781.886	48434.52
782.22	48194.07
782.554	48017.13
782.888	47752.95
783.222	47802.67
783.556	47652.39
783.889	47468.44
784.223	47325.85
784.557	47315.9
784.89	47358.39
785.224	47162.91
785.557	47001.56
785.891	47006.76
786.224	46965.86
786.558	46753.66
786.891	46423.95
787.224	46238.64
787.557	46288.36
787.891	46154.13
788.224	46241.35
788.557	46153
788.89	46086.33
789.223	46101.02
789.556	45783.97
789.888	45811.76
790.221	45470.3
790.554	45207.26
790.887	45253.81
791.219	45209.29
791.552	45114.6
791.884	44959.81
792.217	44810.21
792.549	44625.8
792.882	44344.68
793.214	44342.65
793.546	44495.41
793.879	44302.65
794.211	43915.31
794.543	43980.62
794.875	44001.19
795.207	43962.09
795.539	43700.4
795.871	43626.06
796.203	43539.05
796.535	43417.25
796.867	43295.67
797.198	43229.23
797.53	42950.82
797.862	42815
798.193	42882.12
798.525	42638.51
798.856	42948.33
799.188	42467.22
799.519	42249.6
799.85	42141.8
800.182	42399.65
800.513	42256.15
800.844	41836.72
801.175	41907.46
801.506	41869.27
801.837	41474.47
802.168	41465.44
802.499	41519.9
802.83	41277.87
803.161	41139.57
803.491	41142.28
803.822	41151.55
804.153	41012.11
804.483	40791.78
804.814	40636.53
805.145	40767.37
805.475	40844.43
805.805	40718.79
806.136	40645.12
806.466	40618.9
806.796	40481.73
807.126	40232.7
807.457	40322.64
807.787	40262.08
808.117	40057.56
808.447	39961.29
808.777	40194.06
809.107	39995.42
809.436	39859.15
809.766	39738.47
810.096	39580.29
810.426	39254.87
810.755	39473.85
811.085	39289.9
811.414	39129.68
811.744	38932.85
812.073	38992.05
812.403	38986.63
812.732	38603.36
813.061	38710.25
813.39	38724.94
813.719	38627.09
814.049	38759.29
814.378	38649.46
814.707	38275.24
815.036	38365.86
815.365	38295.57
815.693	38131.51
816.022	38136.48
816.351	38019.42
816.68	37793.67
817.008	37899.43
817.337	37606.33
817.665	37513.45
817.994	37624.86
818.322	37618.98
818.651	37285.66
818.979	37212.89
819.307	37389.16
819.636	37314.36
819.964	37197.98
820.292	37360.01
820.62	37186.68
820.948	37077.08
821.276	37112.78
821.604	37004.54
821.932	37028.26
822.259	36955.95
822.587	37074.59
822.915	37075.49
823.243	37383.51
823.57	37192.55
823.898	37263.29
824.225	37032.78
824.553	37150.97
824.88	37184.87
825.207	37305.77
825.535	37408.14
825.862	37494.47
826.189	37316.62
826.516	37510.06
826.843	37557.97
827.17	37395.49
827.497	37480.68
827.824	37463.96
828.151	37462.6
828.478	37428.48
828.805	37696.49
829.131	37488.59
829.458	37594.35
829.785	37288.82
830.111	37203.17
830.438	37449.27
830.764	37492.21
831.09	37340.12
831.417	37263.06
831.743	37381.02
832.069	37415.6
832.395	37210.18
832.722	37517.97
833.048	37218.32
833.374	37339.44
833.7	37192.78
834.026	37385.32
834.351	37325.21
834.677	37347.58
835.003	37374.7
835.329	37309.84
835.654	37284.98
835.98	37081.14
836.306	37237.07
836.631	37040.24
836.956	37196.62
837.282	37036.85
837.607	36823.3
837.932	36919.57
838.258	36990.52
838.583	37155.94
838.908	36821.94
839.233	36945.78
839.558	36846.8
839.883	36625.34
840.208	36693.81
840.533	36596.41
840.858	36688.39
841.182	36724.99
841.507	36719.12
841.832	36389.18
842.156	36572.23
842.481	36431.44
842.805	36267.61
843.13	36128.4
843.454	36078.91
843.778	36024
844.103	36070.1
844.427	35880.05
844.751	35833.94
845.075	35770.22
845.399	35587.85
845.723	35508.98
846.047	35646.83
846.371	35460.17
846.695	35415.88
847.019	35008.66
847.343	34860.64
847.666	34639.85
847.99	34736.8
848.313	34775.89
848.637	34483.25
848.96	34462.68
849.284	34388.56
849.607	34235.12
849.931	34184.72
850.254	33779.76
850.577	33661.35
850.9	33424.06
851.223	33575.02
851.546	33476.49
851.869	33194.69
852.192	33329.83
852.515	33193.79
852.838	33122.6
853.161	32940.46
853.483	32813.23
853.806	32707.7
854.129	32656.18
854.451	32483.75
854.774	32395.84
855.096	32273.59
855.419	32231.1
855.741	32297.99
856.063	32076.53
856.385	31992.69
856.708	31756.31
857.03	31735.52
857.352	31892.81
857.674	31813.03
857.996	31667.73
858.318	31512.25
858.64	31477.9
858.961	31371.46
859.283	31476.32
859.605	31075.43
859.926	31286.49
860.248	31106.16
860.57	31035.43
860.891	31094.18
861.212	30834.3
861.534	30885.37
861.855	30781.87
862.176	30913.62
862.498	30988.42
862.819	30885.15
863.14	30636.34
863.461	30600.41
863.782	30399.74
864.103	30472.96
864.424	30257.59
864.745	30496.46
865.065	30206.97
865.386	30262.57
865.707	30224.37
866.027	30239.74
866.348	30133.08
866.668	30168.33
866.989	30192.96
867.309	30040.65
867.63	29965.4
867.95	30085.62
868.27	29866.87
868.59	29873.88
868.91	29998.17
869.23	29882.69
869.55	29627.1
869.87	29778.28
870.19	29724.5
870.51	29794.1
870.83	29815.57
871.15	29561.34
871.469	29617.84
871.789	29614.45
872.109	29540.55
872.428	29347.34
872.748	29445.41
873.067	29298.3
873.386	29506.2
873.706	29455.36
874.025	29227.79
874.344	29142.37
874.663	29319.77
874.982	29186.21
875.301	29111.18
875.62	29143.73
875.939	29118.42
876.258	29016.95
876.577	28868.7
876.896	29086.33
877.214	28952.32
877.533	29000.9
877.852	28991.86
878.17	28958.19
878.489	28961.81
878.807	28852.43
879.125	28805.43
879.444	28830.06
879.762	28820.34
880.08	28627.35
880.398	28545.77
880.716	28662.16
881.034	28512.56
881.352	28405.89
881.67	28419
881.988	28426.68
882.306	28532.44
882.624	28477.53
882.941	28199.34
883.259	28258.78
883.577	28062.17
883.894	28075.96
884.212	28138.78
884.529	27949.18
884.846	27851.78
885.164	27905.11
885.481	27708.73
885.798	27946.47
886.115	27639.81
886.432	27739.02
886.75	27698.57
887.067	27691.33
887.383	27436.43
887.7	27412.47
888.017	27296.32
888.334	27384.22
888.651	27433.26
888.967	27317.56
889.284	27130.9
889.6	27018.13
889.917	26705.6
890.233	26898.36
890.55	26693.39
890.866	26900.39
891.182	26709.44
891.498	26694.3
891.815	26671.7
892.131	26580.85
892.447	26490.01
892.763	26455.89
893.079	26371.14
893.395	26222.45
893.71	26088.44
894.026	26146.06
894.342	26026.07
894.657	25848.22
894.973	25932.28
895.289	25902.23
895.604	25824.26
895.92	25730.71
896.235	25625.17
896.55	25563.25
896.865	25505.18
897.181	25408.23
897.496	25417.72
897.811	25349.25
898.126	25270.61
898.441	25247.1
898.756	25221.79
899.071	25105.41
899.386	25093.89
899.7	24810.73
900.015	24758.08
900.33	24661.81
900.644	24518.99
900.959	24431.76
901.273	24387.69
901.588	24251.2
901.902	24117.64
902.216	24236.51
902.531	24221.14
902.845	24007.82
903.159	23974.82
903.473	23750.87
903.787	23727.6
904.101	23752.45
904.415	23616.41
904.729	23526.02
905.042	23502.29
905.356	23469.3
905.67	23395.4
905.984	23344.1
906.297	23212.81
906.611	22995.64
906.924	22987.05
907.237	22961.06
907.551	22840.61
907.864	22719.71
908.177	22738.02
908.491	22736.21
908.804	22563.33
909.117	22460.96
909.43	22434.75
909.743	22270.01
910.056	22429.1
910.368	22221.87
910.681	22160.18
910.994	22066.62
911.307	21991.37
911.619	21749.8
911.932	21749.57
912.244	21644.26
912.557	21509.8
912.869	21478.62
913.181	21350.94
913.494	21235.23
913.806	21092.64
914.118	21071.4
914.43	21113.88
914.742	21011.96
915.054	20892.19
915.366	20886.54
915.678	20847.67
915.99	20685.42
916.302	20606.32
916.613	20507.34
916.925	20503.95
917.236	20421.92
917.548	20325.2
917.859	20342.83
918.171	20181.02
918.482	20190.97
918.794	20071.42
919.105	20013.34
919.416	19845.21
919.727	19747.36
920.038	19726.8
920.349	19578.33
920.66	19615.61
920.971	19529.97
921.282	19362.74
921.593	19294.04
921.903	19123.2
922.214	19137.89
922.525	19042.3
922.835	19011.56
923.146	18926.37
923.456	18816.99
923.767	18712.36
924.077	18718.91
924.387	18687.28
924.697	18706.94
925.008	18613.15
925.318	18551.69
925.628	18459.71
925.938	18327.96
926.248	18113.28
926.558	18104.69
926.867	17937.47
927.177	17957.58
927.487	17912.83
927.796	17722.1
928.106	17791.03
928.416	17572.5
928.725	17562.79
929.034	17440.08
929.344	17508.55
929.653	17459.29
929.962	17337.26
930.271	17351.49
930.581	17208.45
930.89	17227.88
931.199	17113.99
931.508	17024.95
931.817	17002.35
932.125	16893.43
932.434	16825.63
932.743	16615.02
933.051	16685.07
933.36	16661.79
933.669	16520.55
933.977	16433.1
934.286	16364.85
934.594	16483.27
934.902	16191.3
935.21	16247.12
935.519	16231.97
935.827	16233.33
936.135	16158.3
936.443	15944.75
936.751	15938.65
937.059	15853.68
937.367	15778.88
937.674	15815.04
937.982	15601.93
938.29	15577.75
938.597	15621.14
938.905	15321.04
939.213	15344.09
939.52	15304.32
939.827	15186.8
940.135	15058.67
940.442	15053.02
940.749	15087.15
941.056	15105.9
941.363	14889.18
941.67	14838.79
941.977	14868.39
942.284	14713.14
942.591	14617.33
942.898	14586.82
943.205	14425.47
943.511	14473.6
943.818	14377.79
944.125	14331.69
944.431	14260.95
944.738	14319.03
945.044	14225.93
945.35	14102.09
945.657	14043.56
945.963	14041.52
946.269	13936.22
946.575	13910
946.881	13739.38
947.187	13726.05
947.493	13725.37
947.799	13647.18
948.105	13632.27
948.41	13427.08
948.716	13474.53
949.022	13431.14
949.327	13477.92
949.633	13284.93
949.938	13309.11
950.244	13265.95
950.549	13122.9
950.854	13040.19
951.16	12966.98
951.465	12979.86
951.77	12894.43
952.075	12819.18
952.38	12742.8
952.685	12712.29
952.99	12546.87
953.294	12600.88
953.599	12508.23
953.904	12479.53
954.209	12435.01
954.513	12292.42
954.818	12289.48
955.122	12318.18
955.426	12275.24
955.731	12159.54
956.035	12105.08
956.339	12105.53
956.643	12072.76
956.948	11914.57
957.252	11901.24
957.556	11932.2
957.86	11829.83
958.163	11816.72
958.467	11714.58
958.771	11605.43
959.075	11611.98
959.378	11546.67
959.682	11441.59
959.985	11492.44
960.289	11400.46
960.592	11352.33
960.896	11260.58
961.199	11315.95
961.502	11275.27
961.805	11177.19
962.108	11054.03
962.411	11175.38
962.714	11087.7
963.017	11053.35
963.32	11007.03
963.623	10858.56
963.926	10932
964.228	10795.96
964.531	10743.76
964.833	10700.59
965.136	10605.46
965.438	10585.57
965.741	10520.71
966.043	10489.75
966.345	10454.05
966.648	10445.46
966.95	10431
967.252	10365.01
967.554	10270.32
967.856	10210.66
968.158	10141.74
968.46	10160.72
968.761	10144.45
969.063	10065.13
969.365	10111.68
969.666	10028.75
969.968	9883.67
970.269	9786.27
970.571	9865.14
970.872	9797.57
971.174	9764.57
971.475	9654.75
971.776	9630.57
972.077	9594.63
972.378	9616.33
972.679	9541.3
972.98	9598.7
973.281	9408.65
973.582	9435.54
973.883	9431.48
974.183	9342.21
974.484	9321.42
974.785	9214.53
975.085	9272.16
975.386	9314.19
975.686	9181.31
975.986	9106.74
976.287	9092.05
976.587	8961.66
976.887	8956.91
977.187	8972.73
977.487	8938.61
977.787	8889.57
978.087	8804.37
978.387	8751.04
978.687	8752.17
978.987	8730.93
979.286	8633.98
979.586	8606.64
979.885	8580.65
980.185	8505.85
980.484	8474.66
980.784	8479.64
981.083	8482.57
981.382	8478.28
981.682	8394.67
981.981	8364.38
982.28	8313.54
982.579	8246.87
982.878	8225.41
983.177	8175.01
983.475	8171.62
983.774	8113.54
984.073	8054.34
984.372	8083.26
984.67	8044.17
984.969	8013.66
985.267	7919.65
985.566	7815.02
985.864	7836.94
986.162	7825.64
986.461	7805.53
986.759	7713.33
987.057	7667.45
987.355	7647.79
987.653	7599.88
987.951	7621.81
988.249	7528.7
988.547	7503.62
988.844	7406.9
989.142	7418.87
989.44	7354.92
989.737	7341.36
990.035	7276.28
990.332	7290.74
990.63	7271.53
990.927	7193.12
991.224	7199.9
991.521	7132.78
991.819	7159.9
992.116	7049.16
992.413	7063.18
992.71	7036.96
993.006	7000.35
993.303	6917.87
993.6	6920.81
993.897	6869.28
994.193	6852.11
994.49	6815.05
994.787	6774.14
995.083	6758.55
995.379	6705.9
995.676	6695.28
995.972	6620.7
996.268	6634.71
996.565	6559.01
996.861	6534.83
997.157	6476.75
997.453	6455.73
997.749	6386.58
998.044	6361.73
998.34	6388.62
998.636	6328.96
998.932	6352.69
999.227	6295.29
999.523	6275.85
999.818	6211.9
1000.114	6178.68
1000.409	6097.33
1000.704	6125.12
1001	6109.53
1001.295	6059.59
1001.59	6035.41
1001.885	6009.87
1002.18	5932.13
1002.475	5950.44
1002.77	5903.66
1003.065	5849.87
1003.359	5791.8
1003.654	5731.91
1003.949	5700.73
1004.243	5715.41
1004.538	5698.01
1004.832	5657.79
1005.127	5629.32
1005.421	5592.48
1005.715	5546.15
1006.009	5575.53
1006.304	5468.87
1006.598	5387.29
1006.892	5388.64
1007.186	5356.55
1007.48	5318.59
1007.773	5295.76
1008.067	5279.49
1008.361	5166.5
1008.655	5183
1008.948	5147.75
1009.242	5131.48
1009.535	5094.41
1009.829	5064.58
1010.122	5048.77
1010.415	4997.69
1010.708	4908.66
1011.001	4851.71
1011.295	4907.75
1011.588	4899.84
1011.881	4795.44
1012.173	4799.73
1012.466	4783.01
1012.759	4756.57
1013.052	4708.21
1013.344	4701.43
1013.637	4674.31
1013.93	4575.56
1014.222	4575.78
1014.514	4528.78
1014.807	4559.51
1015.099	4527.42
1015.391	4484.49
1015.683	4466.41
1015.976	4431.83
1016.268	4411.04
1016.56	4379.4
1016.851	4345.96
1017.143	4347.32
1017.435	4279.97
1017.727	4218.96
1018.018	4206.53
1018.31	4224.61
1018.602	4152.07
1018.893	4097.15
1019.185	4076.14
1019.476	4013.54
1019.767	4027.55
1020.058	3993.43
1020.35	3938.51
1020.641	3906.65
1020.932	3945.52
1021.223	3846.31
1021.514	3909.81
1021.804	3836.14
1022.095	3788.69
1022.386	3789.82
1022.677	3772.19
1022.967	3711.17
1023.258	3651.74
1023.548	3654
1023.839	3644.96
1024.129	3605.64
1024.419	3569.26
1024.709	3552.99
1025	3563.15
1025.29	3489.94
1025.58	3490.61
1025.87	3458.07
1026.16	3377.85
1026.449	3401.35
1026.739	3358.41
1027.029	3382.59
1027.319	3327.23
1027.608	3352.99
1027.898	3278.42
1028.187	3222.82
1028.477	3261.02
1028.766	3220.34
1029.055	3127.23
1029.344	3149.38
1029.634	3089.72
1029.923	3101.47
1030.212	3064.86
1030.501	3084.07
1030.79	3047.69
1031.078	2970.85
1031.367	2989.61
1031.656	2973.11
1031.945	2959.33
1032.233	2927.47
1032.522	2932.21
1032.81	2870.07
1033.099	2854.25
1033.387	2873.23
1033.675	2807.92
1033.963	2780.35
1034.251	2781.93
1034.54	2718.43
1034.828	2685.21
1035.116	2677.53
1035.403	2646.79
1035.691	2639.79
1035.979	2641.6
1036.267	2615.84
1036.554	2580.58
1036.842	2566.34
1037.129	2541.71
1037.417	2505.56
1037.704	2501.94
1037.992	2465.33
1038.279	2441.6
1038.566	2415.84
1038.853	2415.84
1039.14	2415.84
