Data from copper_heatsink_FLMS001491_057.txt Node
Date: Tue Feb 07 10:50:12 GMT 2017
User: dcchb
Spectrometer: FLMS00149
Trigger mode: 0
Integration Time (sec): 2.000000E-2
Scans to average: 10
Electric dark correction enabled: true
Nonlinearity correction enabled: false
Boxcar width: 0
XAxis mode: Wavelengths
Number of Pixels in Spectrum: 2048
>>>>>Begin Spectral Data<<<<<
341.393	-6.48
341.776	-6.48
342.16	-6.48
342.543	-46.93
342.927	-85.12
343.31	-77.89
343.693	-76.99
344.077	-55.3
344.46	-68.4
344.843	-46.48
345.226	-23.21
345.61	-26.14
345.993	-7.16
346.376	-9.19
346.759	-14.17
347.142	13.63
347.525	58.83
347.908	72.39
348.291	71.26
348.674	87.98
349.057	100.86
349.44	113.29
349.823	142.44
350.206	157.58
350.588	189.9
350.971	203.46
351.354	230.8
351.737	251.82
352.119	268.09
352.502	268.76
352.884	290.46
353.267	277.58
353.65	301.76
354.032	315.09
354.414	297.69
354.797	337.91
355.179	336.33
355.562	326.62
355.944	333.17
356.326	354.86
356.709	331.36
357.091	358.48
357.473	356.9
357.855	343.34
358.238	351.7
358.62	361.64
359.002	355.77
359.384	360.97
359.766	363.22
360.148	373.62
360.53	358.25
360.912	361.42
361.294	338.59
361.676	319.84
362.057	340.17
362.439	341.3
362.821	336.33
363.203	350.12
363.584	344.24
363.966	342.89
364.348	327.29
364.729	322.1
365.111	333.62
365.493	339.27
365.874	336.78
366.256	339.95
366.637	339.27
367.019	348.54
367.4	332.27
367.781	309.67
368.163	330.01
368.544	320.97
368.925	315.77
369.306	345.6
369.688	334.53
370.069	313.51
370.45	357.35
370.831	332.94
371.212	331.36
371.593	332.49
371.974	334.07
372.355	327.29
372.736	317.35
373.117	324.36
373.498	351.7
373.879	342.21
374.26	325.03
374.641	319.38
375.021	336.11
375.402	329.33
375.783	354.64
376.163	361.64
376.544	374.52
376.925	365.48
377.305	364.81
377.686	352.6
378.066	351.47
378.447	359.16
378.827	360.97
379.208	360.74
379.588	365.26
379.968	371.36
380.349	363.9
380.729	389.44
381.109	363.9
381.489	372.94
381.87	366.39
382.25	356.9
382.63	361.64
383.01	385.15
383.39	388.31
383.77	366.16
384.15	380.85
384.53	389.21
384.91	365.48
385.29	398.03
385.67	383.56
386.049	383.34
386.429	415.2
386.809	381.98
387.189	417.69
387.568	399.61
387.948	385.15
388.328	393.96
388.707	407.52
389.087	401.87
389.466	422.66
389.846	397.57
390.225	417.46
390.605	406.84
390.984	407.07
391.363	419.95
391.743	402.77
392.122	426.95
392.501	420.4
392.881	426.5
393.26	451.58
393.639	418.82
394.018	447.97
394.397	414.97
394.776	409.78
395.155	443
395.534	442.77
395.913	455.2
396.292	445.03
396.671	440.29
397.05	431.25
397.429	455.43
397.808	462.43
398.186	470.79
398.565	429.44
398.944	445.48
399.323	472.15
399.701	471.92
400.08	445.48
400.458	459.49
400.837	473.96
401.215	472.37
401.594	445.71
401.972	461.53
402.351	482.77
402.729	473.05
403.107	488.87
403.486	476.67
403.864	499.94
404.242	488.19
404.62	494.07
404.999	497.23
405.377	483
405.755	515.99
406.133	507.85
406.511	517.57
406.889	518.48
407.267	488.65
407.645	525.03
408.023	498.81
408.401	534.97
408.779	535.88
409.156	571.81
409.534	543.79
409.912	556.44
410.29	555.99
410.667	551.69
411.045	545.59
411.422	544.69
411.8	569.1
412.178	561.86
412.555	592.6
412.933	587.63
413.31	595.08
413.687	593.5
414.065	588.08
414.442	576.33
414.819	584.46
415.197	612.03
415.574	591.69
415.951	623.78
416.328	628.3
416.705	622.88
417.082	620.39
417.46	598.02
417.837	631.92
418.214	630.11
418.591	637.57
418.967	635.53
419.344	636.66
419.721	650.67
420.098	649.09
420.475	671.01
420.852	661.97
421.228	655.65
421.605	663.1
421.982	672.37
422.358	675.08
422.735	694.74
423.111	686.83
423.488	672.37
423.864	687.74
424.241	696.32
424.617	699.04
424.994	692.26
425.37	712.37
425.746	716.66
426.123	722.99
426.499	729.99
426.875	730.9
427.251	750.11
427.627	738.13
428.003	767.73
428.379	761.86
428.756	755.53
429.132	793.04
429.507	800.5
429.883	800.95
430.259	773.61
430.635	793.5
431.011	801.18
431.387	810.22
431.763	815.64
432.138	814.51
432.514	837.79
432.89	840.95
433.265	860.39
433.641	872.36
434.016	879.82
434.392	906.04
434.767	883.44
435.143	898.58
435.518	898.8
435.894	907.84
436.269	938.35
436.644	950.33
437.02	935.64
437.395	943.1
437.77	950.1
438.145	976.32
438.52	948.07
438.895	979.03
439.271	975.86
439.646	992.36
440.021	1003.66
440.395	990.33
440.77	976.54
441.145	981.51
441.52	1007.5
441.895	1038.24
442.27	1014.51
442.645	1026.71
443.019	1052.25
443.394	1015.19
443.769	1039.82
444.143	1040.27
444.518	1062.87
444.892	1047.5
445.267	1057.22
445.641	1090.66
446.016	1069.42
446.39	1071
446.764	1112.13
447.139	1113.04
447.513	1106.71
447.887	1137.44
448.262	1122.3
448.636	1128.4
449.01	1135.63
449.384	1138.8
449.758	1150.1
450.132	1160.72
450.506	1163.2
450.88	1164.33
451.254	1181.73
451.628	1188.74
452.002	1180.83
452.376	1206.82
452.75	1215.86
453.123	1223.32
453.497	1238
453.871	1254.73
454.244	1295.86
454.618	1285.01
454.992	1267.38
455.365	1312.58
455.739	1295.18
456.112	1340.83
456.486	1349.64
456.859	1354.39
457.232	1385.57
457.606	1379.02
457.979	1406.81
458.352	1432.8
458.725	1447.04
459.099	1459.02
459.472	1444.1
459.845	1483.42
460.218	1513.7
460.591	1518.22
460.964	1503.08
461.337	1541.95
461.71	1550.09
462.083	1574.49
462.456	1564.78
462.829	1551.89
463.201	1604.77
463.574	1636.41
463.947	1626.69
464.32	1653.36
464.692	1686.13
465.065	1701.04
465.438	1705.11
465.81	1734.94
466.183	1757.54
466.555	1785.33
466.928	1798.44
467.3	1795.28
467.672	1814.94
468.045	1853.58
468.417	1864.2
468.789	1858.33
469.161	1906.91
469.534	1925.9
469.906	1953.47
470.278	2001.6
470.65	2009.06
471.022	2026.46
471.394	2061.26
471.766	2074.14
472.138	2103.52
472.51	2151.43
472.882	2167.92
473.253	2199.79
473.625	2242.72
473.997	2247.92
474.369	2286.34
474.74	2302.83
475.112	2343.06
475.484	2404.53
475.855	2432.1
476.227	2466.67
476.598	2512.55
476.97	2522.26
477.341	2571.98
477.713	2593.45
478.084	2616.5
478.455	2700.11
478.827	2712.09
479.198	2781.92
479.569	2789.83
479.94	2862.14
480.311	2898.53
480.682	2921.58
481.053	2998.86
481.424	3018.97
481.795	3076.37
482.166	3138.29
482.537	3155.24
482.908	3224.62
483.279	3280.89
483.65	3327.44
484.021	3398.63
484.391	3391.62
484.762	3413.09
485.133	3481.11
485.503	3519.75
485.874	3606.98
486.244	3648.79
486.615	3677.26
486.985	3734.66
487.356	3780.08
487.726	3818.73
488.097	3873.19
488.467	3916.13
488.837	3998.16
489.207	4032.51
489.578	4125.16
489.948	4134.65
490.318	4162.67
490.688	4224.59
491.058	4313.4
491.428	4315.89
491.798	4376.23
492.168	4515.43
492.538	4483.34
492.908	4545.49
493.278	4614.64
493.648	4633.62
494.017	4677.69
494.387	4737.8
494.757	4758.36
495.126	4864.58
495.496	4881.3
495.866	4857.57
496.235	4871.81
496.605	4967.85
496.974	5029.32
497.344	5049.88
497.713	5118.13
498.082	5138.24
498.452	5245.81
498.821	5182.53
499.19	5288.07
499.559	5304.56
499.928	5360.83
500.298	5378.23
500.667	5460.72
501.036	5468.85
501.405	5524.45
501.774	5539.81
502.143	5587.72
502.512	5589.08
502.88	5671.56
503.249	5677.21
503.618	5698.45
503.987	5725.12
504.356	5773.25
504.724	5828.62
505.093	5904.32
505.462	5867.26
505.83	5942.51
506.199	5977.54
506.567	6053.7
506.936	6053.24
507.304	6182.05
507.672	6189.06
508.041	6243.52
508.409	6316.29
508.777	6319.45
509.145	6417.3
509.514	6451.43
509.882	6430.41
510.25	6528.94
510.618	6532.1
510.986	6591.54
511.354	6630.18
511.722	6772.1
512.09	6786.78
512.458	6784.07
512.826	6874.24
513.193	6850.06
513.561	6870.17
513.929	7023.39
514.297	7039.21
514.664	7114.91
515.032	7173.89
515.4	7255.02
515.767	7314.68
516.135	7311.29
516.502	7321.23
516.869	7437.16
517.237	7477.39
517.604	7525.52
517.972	7603.49
518.339	7716.25
518.706	7645.97
519.073	7738.62
519.44	7838.28
519.808	7935.46
520.175	7955.79
520.542	8020.2
520.909	8128.9
521.276	8090.93
521.643	8276.92
522.009	8288.44
522.376	8309.46
522.743	8398.04
523.11	8564.59
523.477	8602.78
523.843	8681.2
524.21	8824.92
524.577	8830.12
524.943	8880.97
525.31	8969.78
525.676	9056.78
526.043	9065.37
526.409	9208.42
526.776	9330.45
527.142	9374.97
527.508	9427.85
527.874	9513.04
528.241	9550.55
528.607	9624.68
528.973	9696.31
529.339	9724.79
529.705	9749.64
530.071	9879.36
530.437	10038.68
530.803	10026.25
531.169	10202.97
531.535	10141.95
531.901	10232.12
532.267	10315.05
532.632	10392.34
532.998	10341.72
533.364	10533.13
533.73	10591.43
534.095	10715.95
534.461	10776.51
534.826	10793.91
535.192	10798.2
535.557	10996.84
535.923	10949.61
536.288	11026.22
536.653	11023.96
537.019	11071.87
537.384	11224.63
537.749	11309.6
538.114	11308.47
538.479	11368.81
538.845	11419.66
539.21	11525.87
539.575	11620.56
539.94	11580.78
540.305	11765.86
540.67	11710.27
541.034	11807.67
541.399	11893.09
541.764	11982.13
542.129	12074.1
542.494	12208.11
542.858	12202.91
543.223	12272.52
543.587	12334.21
543.952	12414.66
544.316	12415.11
544.681	12512.06
545.045	12623.02
545.41	12785.5
545.774	12736.68
546.138	12806.97
546.503	12820.3
546.867	13037.92
547.231	13083.79
547.595	13168.76
547.959	13157.24
548.324	13204.47
548.688	13387.74
549.052	13389.78
549.416	13484.46
549.779	13542.31
550.143	13644.46
550.507	13813.27
550.871	13863.21
551.235	13952.92
551.599	14070.44
551.962	14216.19
552.326	14304.78
552.689	14478.33
553.053	14390.43
553.417	14567.37
553.78	14822.51
554.143	14761.49
554.507	14899.34
554.87	15052.78
555.234	15182.04
555.597	15134.81
555.96	15299.78
556.323	15415.94
556.686	15597.85
557.05	15771.86
557.413	15924.62
557.776	15972.31
558.139	16102.25
558.502	16170.94
558.865	16419.3
559.228	16571.84
559.59	16682.8
559.953	16795.79
560.316	17002.11
560.679	17199.17
561.041	17362.78
561.404	17526.62
561.767	17749.21
562.129	17720.96
562.492	18025.36
562.854	18108.07
563.217	18145.13
563.579	18389.42
563.941	18595.29
564.304	18707.38
564.666	18965.45
565.028	19076.18
565.39	19231.2
565.753	19461.25
566.115	19716.39
566.477	19841.58
566.839	20019.66
567.201	20275.02
567.563	20432.53
567.925	20637.95
568.287	20722.01
568.648	20829.35
569.01	21074.77
569.372	21315.22
569.734	21434.76
570.095	21603.12
570.457	21828.65
570.819	21946.84
571.18	22129.66
571.542	22391.35
571.903	22492.36
572.265	22771.22
572.626	22856.42
572.987	23024.78
573.349	23242.17
573.71	23497.98
574.071	23546.57
574.432	23857.97
574.794	24066.33
575.155	24129.38
575.516	24232.2
575.877	24465.19
576.238	24595.36
576.599	24727.78
576.96	24817.95
577.32	25064.27
577.681	25161.89
578.042	25300.87
578.403	25561.66
578.763	25797.58
579.124	25893.85
579.485	26032.15
579.845	26215.2
580.206	26228.99
580.566	26320.96
580.927	26417.23
581.287	26769.31
581.648	26831.46
582.008	26992.81
582.368	27009.53
582.728	27146.48
583.089	27241.39
583.449	27346.92
583.809	27385.57
584.169	27668.27
584.529	27693.35
584.889	28015.61
585.249	27961.37
585.609	27867.36
585.969	28228.03
586.329	28200.91
586.688	28372.21
587.048	28385.54
587.408	28489.94
587.768	28708.69
588.127	28779.88
588.487	28715.02
588.846	28993.43
589.206	28994.56
589.565	28951.17
589.925	29320.88
590.284	29279.3
590.643	29330.15
591.003	29641.55
591.362	29538.73
591.721	29619.4
592.08	29752.96
592.44	29899.85
592.799	30022.56
593.158	30144.81
593.517	30114.76
593.876	30345.26
594.235	30270.24
594.593	30457.35
594.952	30496.9
595.311	30497.8
595.67	30841.75
596.029	31049.2
596.387	31068.41
596.746	31067.5
597.104	31095.07
597.463	31051.46
597.822	31446.48
598.18	31304.33
598.538	31481.73
598.897	31641.27
599.255	31475.63
599.613	31998.1
599.972	31874.03
600.33	32019.34
600.688	31964.2
601.046	32261.14
601.404	32399.67
601.762	32325.32
602.12	32613
602.478	32612.77
602.836	32688.93
603.194	32652.77
603.552	32724.18
603.91	32721.7
604.268	33022.48
604.625	33030.61
604.983	33196.94
605.341	33160.33
605.698	33374.11
606.056	33612.52
606.413	33445.29
606.771	33748.11
607.128	33753.53
607.485	33742.46
607.843	33984.04
608.2	34238.49
608.557	34336.57
608.914	34165.95
609.272	34499.05
609.629	34553.96
609.986	34707.41
610.343	34613.85
610.7	34940.62
611.057	34849.1
611.414	34987.17
611.771	35176.09
612.127	35336.77
612.484	35356.66
612.841	35506.03
613.198	35433.04
613.554	35572.69
613.911	35864.44
614.267	35929.52
614.624	35863.08
614.98	36048.16
615.337	36207.03
615.693	36220.36
616.05	36328.83
616.406	36586.68
616.762	36569.5
617.118	36732.66
617.475	36716.17
617.831	36840.46
618.187	36949.38
618.543	36997.97
618.899	37254.68
619.255	37110.28
619.611	37109.83
619.967	37375.59
620.323	37548.01
620.678	37578.52
621.034	37592.53
621.39	37683.37
621.746	37740.77
622.101	37974.21
622.457	37653.32
622.812	37963.37
623.168	38119.52
623.523	38214.21
623.879	38206.3
624.234	37985.74
624.589	38346.63
624.945	38338.05
625.3	38456.46
625.655	38425.73
626.01	38618.72
626.365	38601.09
626.72	38659.39
627.075	38783.91
627.43	38767.41
627.785	38605.16
628.14	38714.08
628.495	38996.33
628.85	38907.75
629.205	38872.27
629.559	39018.03
629.914	38923.34
630.269	38943.68
630.623	38961.76
630.978	39003.79
631.332	39218.7
631.687	39383.44
632.041	39197.01
632.396	39237.68
632.75	39165.14
633.104	39181.87
633.459	39134.63
633.813	39115.65
634.167	39075.88
634.521	39361.52
634.875	39303.9
635.229	39374.18
635.583	39262.99
635.937	39392.48
636.291	39374.85
636.645	39381.18
636.999	39431.12
637.352	39509.31
637.706	39404.23
638.06	39545.47
638.413	39399.71
638.767	39459.15
639.121	39519.48
639.474	39377.34
639.828	39615.75
640.181	39505.7
640.534	39593.83
640.888	39553.38
641.241	39374.18
641.594	39582.76
641.947	39594.96
642.301	39558.13
642.654	39722.87
643.007	39602.42
643.36	39639.03
643.713	39557.67
644.066	39789.31
644.419	39634.28
644.771	39511.35
645.124	39113.17
645.477	39030.68
645.83	38959.72
646.182	38832.5
646.535	38827.07
646.888	38846.96
647.24	38681.99
647.593	38869.11
647.945	38794.08
648.298	38670.92
648.65	38548.89
649.002	38647.42
649.355	38870.91
649.707	38830.91
650.059	38941.65
650.411	39645.81
650.763	39551.57
651.115	40030.43
651.467	39809.19
651.819	39865.24
652.171	39883.77
652.523	39908.17
652.875	39863.2
653.227	39833.15
653.578	40191.1
653.93	40118.56
654.282	40021.62
654.633	39801.96
654.985	39973.93
655.337	40109.52
655.688	40072.92
656.039	40168.96
656.391	39918.12
656.742	40031.11
657.094	40237.66
657.445	40299.8
657.796	40221.61
658.147	40085.8
658.498	39959.25
658.849	40312.46
659.2	40217.77
659.551	40259.13
659.902	40418.44
660.253	40549.29
660.604	40556.74
660.955	40197.21
661.306	40292.12
661.656	40421.38
662.007	40415.51
662.358	40392.45
662.708	40664.99
663.059	40724.42
663.409	40397.65
663.76	40763.29
664.11	40678.78
664.461	40742.5
664.811	40790.64
665.161	41028.14
665.511	40749.28
665.862	40801.03
666.212	41086.45
666.562	41037.41
666.912	41002.16
667.262	40738.89
667.612	40993.34
667.962	41121.7
668.312	41066.56
668.662	41301.58
669.011	41229.04
669.361	41155.6
669.711	41208.7
670.06	41168.03
670.41	41219.1
670.76	41102.27
671.109	41243.73
671.459	41242.83
671.808	41022.95
672.157	41254.81
672.507	41114.02
672.856	41288.7
673.205	41259.32
673.554	41553.55
673.904	41184.3
674.253	41678.97
674.602	41618.64
674.951	41028.37
675.3	40960.35
675.649	41533.44
675.998	41503.84
676.346	41507.91
676.695	41852.53
677.044	41534.57
677.393	41731.4
677.741	41802.14
678.09	41669.03
678.438	41616.6
678.787	41776.6
679.135	41784.28
679.484	41410.51
679.832	41785.64
680.181	41337.06
680.529	41815.24
680.877	41751.52
681.225	41595.81
681.573	41895.69
681.922	41542.93
682.27	41545.87
682.618	41562.59
682.966	41577.96
683.314	41649.6
683.661	41632.65
684.009	41389.26
684.357	41491.64
684.705	41380
685.053	41576.83
685.4	41497.74
685.748	41203.96
686.095	41194.69
686.443	41227.91
686.79	41241.7
687.138	41184.75
687.485	41164.41
687.832	41269.95
688.18	41204.41
688.527	41124.41
688.874	41082.38
689.221	40870.63
689.568	40888.49
689.915	40858.21
690.262	40732.33
690.609	40791.31
690.956	40635.84
691.303	40829.96
691.65	40656.63
691.997	40709.51
692.344	40450.76
692.69	40521.72
693.037	40694.59
693.383	40374.6
693.73	40592.45
694.077	40365.34
694.423	40431.1
694.769	40400.59
695.116	40464.09
695.462	40148.17
695.808	40067.27
696.155	40055.97
696.501	39920.15
696.847	39959.25
697.193	39663.43
697.539	39897.1
697.885	39672.47
698.231	39590.67
698.577	39640.84
698.923	39622.31
699.269	39627.28
699.614	39262.54
699.96	39283.78
700.306	39339.15
700.651	39226.38
700.997	39156.1
701.342	39232.94
701.688	39133.5
702.033	39090.34
702.379	39032.26
702.724	38933.28
703.069	38991.36
703.415	38660.75
703.76	38890.57
704.105	38874.98
704.45	38814.19
704.795	38818.94
705.14	38534.42
705.485	38571.71
705.83	38446.29
706.175	38440.87
706.52	38284.04
706.865	38333.75
707.209	38251.49
707.554	38164.26
707.899	38477.25
708.243	38213.08
708.588	38284.71
708.932	38064.83
709.277	38018.96
709.621	38111.61
709.966	37820.32
710.31	37849.24
710.654	37588.46
710.998	37749.36
711.342	37849.02
711.687	37923.59
712.031	37780.77
712.375	37688.57
712.719	37689.48
713.063	37583.72
713.407	37793.43
713.75	37581.23
714.094	37599.08
714.438	37394.12
714.782	37381.46
715.125	37444.28
715.469	37487.9
715.812	37252.2
716.156	37090.62
716.499	37210.84
716.843	37335.59
717.186	37054.24
717.53	37319.99
717.873	37304.85
718.216	37250.62
718.559	37289.26
718.902	36954.13
719.246	37022.37
719.589	36909.38
719.932	36669.61
720.275	36928.59
720.617	36891.98
720.96	36867.58
721.303	36916.61
721.646	36865.77
721.989	36746.68
722.331	37017.18
722.674	36795.04
723.016	36861.93
723.359	36822.83
723.701	36956.84
724.044	36580.13
724.386	36511.65
724.729	36767.47
725.071	36499.9
725.413	36679.56
725.755	36611.54
726.097	36664.64
726.439	36374.48
726.782	36378.55
727.124	36529.28
727.465	36361.15
727.807	36404.54
728.149	36375.61
728.491	36297.65
728.833	36416.74
729.175	36269.63
729.516	36150.98
729.858	36104.43
730.199	36360.7
730.541	36220.36
730.882	36032.34
731.224	36248.84
731.565	35974.27
731.906	36118.89
732.248	36018.78
732.589	35958.45
732.93	35917.32
733.271	35999.8
733.612	36058.78
733.953	36115.05
734.294	35923.19
734.635	35886.58
734.976	36066.47
735.317	35813.82
735.658	35943.31
735.999	36001.38
736.339	35828.51
736.68	35939.01
737.021	35810.2
737.361	35733.59
737.702	35916.87
738.042	35845.46
738.383	35756.87
738.723	35805.68
739.063	35533.6
739.404	35784.44
739.744	35676.19
740.084	35625.57
740.424	35635.52
740.764	35401.4
741.104	35783.31
741.444	35588.74
741.784	35661.96
742.124	35606.14
742.464	35573.37
742.804	35593.94
743.143	35383.1
743.483	35555.97
743.823	35290.89
744.162	35369.08
744.502	35526.14
744.841	35314.62
745.181	35412.7
745.52	35296.54
745.86	35350.1
746.199	35355.3
746.538	35297
746.877	35551.45
747.216	35500.15
747.556	35253.83
747.895	35419.25
748.234	35334.06
748.573	35333.6
748.911	35383.1
749.25	35390.33
749.589	35217.45
749.928	35281.63
750.267	35259.71
750.605	35142.2
750.944	35051.35
751.283	35085.25
751.621	35024.01
751.96	34772.26
752.298	34902.66
752.636	34867.85
752.975	34906.05
753.313	34741.76
753.651	34854.07
753.989	34644.81
754.327	34677.12
754.666	34478.26
755.004	34799.16
755.342	34723.68
755.679	34699.27
756.017	34436.68
756.355	34548.54
756.693	34311.03
757.031	34598.71
757.368	34320.07
757.706	34441.42
758.044	34256.8
758.381	34202.56
758.719	34056.35
759.056	34201.66
759.394	34144.71
759.731	33904.94
760.068	33899.29
760.405	33774.78
760.743	33750.37
761.08	33659.75
761.417	33593.09
761.754	33333.66
762.091	33436.48
762.428	33399.87
762.765	33241
763.102	33438.06
763.438	33223.83
763.775	33135.02
764.112	33010.95
764.449	33079.88
764.785	32914.01
765.122	32704.75
765.458	32661.36
765.795	32533.68
766.131	32646.67
766.467	32572.1
766.804	32324.87
767.14	32376.39
767.476	32349.28
767.812	32387.02
768.148	32282.84
768.485	32120.58
768.821	31927.59
769.157	32062.73
769.492	32087.59
769.828	32028.61
770.164	31789.74
770.5	31637.2
770.836	31591.1
771.171	31314.5
771.507	31414.61
771.842	31432.92
772.178	31368.06
772.513	31213.26
772.849	31181.4
773.184	31003.1
773.519	31060.95
773.855	30975.53
774.19	30837.45
774.525	30702.77
774.86	30780.05
775.195	30729.66
775.53	30719.04
775.865	30548.19
776.2	30452.6
776.535	30207.86
776.87	30168.99
777.205	30138.04
777.539	29939.4
777.874	30054.87
778.209	29705.73
778.543	29731.72
778.878	29587.09
779.212	29599.97
779.547	29538.73
779.881	29563.14
780.215	29287.89
780.55	29324.05
780.884	29271.84
781.218	29058.74
781.552	29205.18
781.886	29048.35
782.22	28962.02
782.554	29005.41
782.888	28670.73
783.222	28560.45
783.556	28411.3
783.889	28452.43
784.223	28506.67
784.557	28312.77
784.89	28264.41
785.224	28134.02
785.557	28084.3
785.891	28099.22
786.224	27976.06
786.558	28060.58
786.891	27822.84
787.224	27720.7
787.557	27586.24
787.891	27611.77
788.224	27660.36
788.557	27639.8
788.89	27436.41
789.223	27524.77
789.556	27230.77
789.888	27291.33
790.221	27200.71
790.554	27058.79
790.887	27090.43
791.219	27000.26
791.552	27038.68
791.884	26738.12
792.217	26753.04
792.549	26752.36
792.882	26589.65
793.214	26532.71
793.546	26563.44
793.879	26324.8
794.211	26110.12
794.543	26221.98
794.875	26369.09
795.207	26392.82
795.539	26263.33
795.871	26220.4
796.203	25977.47
796.535	25928.65
796.867	25771.82
797.198	25729.34
797.53	25787.19
797.862	25538.38
798.193	25619.74
798.525	25490.02
798.856	25363.02
799.188	25308.78
799.519	25243.93
799.85	25131.61
800.182	25208.45
800.513	25218.39
800.844	25021.56
801.175	25084.38
801.506	25100.65
801.837	24935.46
802.168	24957.83
802.499	24937.72
802.83	24710.83
803.161	24595.81
803.491	24678.52
803.822	24690.95
804.153	24649.82
804.483	24491.4
804.814	24435.81
805.145	24347
805.475	24315.82
805.805	24329.37
806.136	24364.4
806.466	24270.84
806.796	24328.02
807.126	24091.41
807.457	24128.02
807.787	24067.23
808.117	24013
808.447	23970.51
808.777	24010.74
809.107	23914.92
809.436	23849.61
809.766	23837.18
810.096	23717.19
810.426	23622.73
810.755	23615.72
811.085	23590.64
811.414	23568.26
811.744	23417.99
812.073	23451.21
812.403	23586.57
812.732	23416.4
813.061	23325.56
813.39	23244.66
813.719	23328.27
814.049	23364.65
814.378	23280.59
814.707	23141.84
815.036	23270.65
815.365	23093.25
815.693	22872.24
816.022	23007.6
816.351	22814.16
816.68	22770.09
817.008	22829.07
817.337	22569.42
817.665	22625.69
817.994	22582.3
818.322	22687.61
818.651	22594.73
818.979	22603.77
819.307	22669.76
819.636	22604.22
819.964	22419.37
820.292	22606.71
820.62	22493.49
820.948	22337.79
821.276	22599.25
821.604	22477.22
821.932	22555.41
822.259	22502.3
822.587	22389.54
822.915	22438.8
823.243	22481.97
823.57	22481.29
823.898	22547.95
824.225	22463.89
824.553	22491.23
824.88	22524.68
825.207	22589.53
825.535	22497.56
825.862	22714.05
826.189	22609.19
826.516	22675.63
826.843	22672.69
827.17	22587.27
827.497	22772.35
827.824	22796.08
828.151	22903.88
828.478	22704.11
828.805	22821.84
829.131	22680.15
829.458	22612.36
829.785	22547.05
830.111	22635.18
830.438	22815.97
830.764	22859.36
831.09	22832.01
831.417	22776.65
831.743	22864.33
832.069	22961.27
832.395	22867.49
832.722	22901.39
833.048	22830.88
833.374	22920.15
833.7	22790.66
834.026	22841.05
834.351	22922.86
834.677	22835.85
835.003	22934.83
835.329	22872.24
835.654	22940.71
835.98	22750.43
836.306	22799.25
836.631	22651.9
836.956	22845.8
837.282	22818.91
837.607	22559.48
837.932	22563.77
838.258	22566.26
838.583	22553.38
838.908	22375.3
839.233	22615.3
839.558	22524
839.883	22509.99
840.208	22479.48
840.533	22533.26
840.858	22544.79
841.182	22418.92
841.507	22453.94
841.832	22401.06
842.156	22406.71
842.481	22274.51
842.805	22359.48
843.13	22284
843.454	22248.07
843.778	22220.73
844.103	22228.86
844.427	22072.26
844.751	22158.58
845.075	22039.04
845.399	22063.9
845.723	21943
846.047	21866.39
846.371	21751.36
846.695	21896.67
847.019	21554.53
847.343	21560.63
847.666	21413.74
847.99	21347.08
848.313	21263.47
848.637	21317.93
848.96	21327.19
849.284	21222.34
849.607	20940.31
849.931	21034.32
850.254	20937.83
850.577	20829.35
850.9	20746.42
851.223	20644.73
851.546	20497.38
851.869	20395.47
852.192	20597.72
852.515	20326.32
852.838	20331.97
853.161	20353.66
853.483	20249.48
853.806	20229.14
854.129	20101.01
854.451	20203.61
854.774	20054.68
855.096	20038.19
855.419	20022.59
855.741	20031.41
856.063	19847.01
856.385	19994.35
856.708	19834.58
857.03	19737.63
857.352	19750.96
857.674	19739.21
857.996	19734.02
858.318	19614.92
858.64	19618.99
858.961	19420.58
859.283	19497.19
859.605	19295.38
859.926	19400.24
860.248	19290.18
860.57	19293.8
860.891	19275.5
861.212	19188.49
861.534	19116.4
861.855	19134.26
862.176	19282.95
862.498	19224.88
862.819	19093.35
863.14	19080.92
863.461	19083.86
863.782	19037.76
864.103	18979.68
864.424	18878.22
864.745	19000.47
865.065	18970.65
865.386	18923.19
865.707	18944.88
866.027	18945.11
866.348	18941.95
866.668	18904.66
866.989	18871.66
867.309	18712.57
867.63	18751.22
867.95	18765
868.27	18614.04
868.59	18614.27
868.91	18623.31
869.23	18651.56
869.55	18577.44
869.87	18651.78
870.19	18520.49
870.51	18582.86
870.83	18496.53
871.15	18507.38
871.469	18550.77
871.789	18525.23
872.109	18525.91
872.428	18362.07
872.748	18447.72
873.067	18404.56
873.386	18429.42
873.706	18535.85
874.025	18428.51
874.344	18365.69
874.663	18395.07
874.982	18419.25
875.301	18295.41
875.62	18375.41
875.939	18306.48
876.258	18279.59
876.577	18248.63
876.896	18195.07
877.214	18165.24
877.533	18275.52
877.852	18262.19
878.17	18205.02
878.489	18128.63
878.807	18097.22
879.125	18049.54
879.444	18050.22
879.762	17981.97
880.08	18115.3
880.398	17922.99
880.716	18106.94
881.034	17930.67
881.352	17890.45
881.67	17868.53
881.988	18014.51
882.306	17820.62
882.624	17834.18
882.941	17672.37
883.259	17726.38
883.577	17750.11
883.894	17631.25
884.212	17748.53
884.529	17774.07
884.846	17701.75
885.164	17671.24
885.481	17546.05
885.798	17659.95
886.115	17565.03
886.432	17469.44
886.75	17467.41
887.067	17595.09
887.383	17483.45
887.7	17468.54
888.017	17345.15
888.334	17473.74
888.651	17306.73
888.967	17237.13
889.284	17202.78
889.6	17123.46
889.917	17044.82
890.233	16980.42
890.55	17026.29
890.866	17020.41
891.182	16997.36
891.498	16949.46
891.815	16973.86
892.131	16925.05
892.447	16809.12
892.763	16815.9
893.079	16755.56
893.395	16652.29
893.71	16817.93
894.026	16680.31
894.342	16618.16
894.657	16496.36
894.973	16525.51
895.289	16459.3
895.604	16416.14
895.92	16315.35
896.235	16296.14
896.55	16298.4
896.865	16275.35
897.181	16181.11
897.496	16229.93
897.811	16082.13
898.126	16130.27
898.441	15957.39
898.756	15859.31
899.071	15837.17
899.386	15893.44
899.7	15799.88
900.015	15772.09
900.33	15599.43
900.644	15648.47
900.959	15542.26
901.273	15596.04
901.588	15560.34
901.902	15458.65
902.216	15490.74
902.531	15441.47
902.845	15415.94
903.159	15401.47
903.473	15270.18
903.787	15170.29
904.101	15092.56
904.415	15125.1
904.729	15119.67
905.042	15088.94
905.356	15076.96
905.67	14998.77
905.984	14988.6
906.297	14841.71
906.611	14799.68
906.924	14884.88
907.237	14778.44
907.551	14758.33
907.864	14602.62
908.177	14531.67
908.491	14516.07
908.804	14442.4
909.117	14413.02
909.43	14305.46
909.743	14333.71
910.056	14330.09
910.368	14200.6
910.681	14136.2
910.994	14169.19
911.307	14064.11
911.619	13803.32
911.932	13900.04
912.244	13837.9
912.557	13875.86
912.869	13783.89
913.181	13722.65
913.494	13810.78
913.806	13575.31
914.118	13642.42
914.43	13540.51
914.742	13580.73
915.054	13541.64
915.366	13450.34
915.678	13284.69
915.99	13340.74
916.302	13246.95
916.613	13314.07
916.925	13230.01
917.236	13124.47
917.548	13111.82
917.859	13147.07
918.171	12956.34
918.482	12929.9
918.794	12875.66
919.105	12989.56
919.416	12796.12
919.727	12748.89
920.038	12688.32
920.349	12626.86
920.66	12608.55
920.971	12589.57
921.282	12619.17
921.593	12526.52
921.903	12498.05
922.214	12421.44
922.525	12368.78
922.835	12353.19
923.146	12227.32
923.456	12131.96
923.767	12080.43
924.077	12188.45
924.387	12082.92
924.697	11962.69
925.008	11979.64
925.318	11908.01
925.628	11838.86
925.938	11865.52
926.248	11776.71
926.558	11689.71
926.867	11646.32
927.177	11611.52
927.487	11590.27
927.796	11485.87
928.106	11485.64
928.416	11447
928.725	11435.25
929.034	11319.1
929.344	11384.4
929.653	11333.11
929.962	11266.22
930.271	11131.3
930.581	11256.72
930.89	11099.21
931.199	11071.42
931.508	11042.04
931.817	11114.58
932.125	11087.91
932.434	11005.2
932.743	10880.69
933.051	10885.21
933.36	10833.01
933.669	10781.93
933.977	10675.5
934.286	10773.8
934.594	10664.87
934.902	10622.16
935.21	10552.34
935.519	10614.71
935.827	10515.05
936.135	10419.23
936.443	10296.52
936.751	10334.94
937.059	10329.06
937.367	10230.54
937.674	10255.62
937.982	10234.83
938.29	10138.34
938.597	10143.76
938.905	10049.07
939.213	10021.95
939.52	9957.77
939.827	9972.69
940.135	9982.41
940.442	9883.65
940.749	9886.59
941.056	9897.44
941.363	9720.27
941.67	9742.87
941.977	9592.36
942.284	9638.01
942.591	9605.92
942.898	9598.01
943.205	9513.27
943.511	9499.03
943.818	9442.99
944.125	9391.24
944.431	9375.19
944.738	9272.14
945.044	9350.11
945.35	9259.49
945.657	9234.86
945.963	9253.61
946.269	9117.12
946.575	9122.77
946.881	9111.7
947.187	9099.27
947.493	9020.4
947.799	9031.02
948.105	8904.7
948.41	8885.49
948.716	8832.61
949.022	8797.81
949.327	8812.27
949.633	8758.26
949.938	8782.89
950.244	8764.59
950.549	8617.02
950.854	8664.48
951.16	8594.87
951.465	8605.72
951.77	8612.5
952.075	8491.37
952.38	8521.88
952.685	8482.56
952.99	8472.84
953.294	8361.66
953.599	8295.22
953.904	8255.22
954.209	8225.39
954.513	8257.03
954.818	8221.32
955.122	8211.83
955.426	8062.46
955.731	8106.98
956.035	8025.85
956.339	8012.97
956.643	8034.89
956.948	7950.6
957.252	7992.18
957.556	7968.45
957.86	7866.53
958.163	7921.9
958.467	7870.82
958.771	7846.87
959.075	7739.98
959.378	7690.72
959.682	7736.59
959.985	7678.96
960.289	7598.97
960.592	7595.35
960.896	7548.35
961.199	7500.89
961.502	7519.65
961.805	7502.02
962.108	7488.69
962.411	7392.19
962.714	7360.33
963.017	7355.81
963.32	7392.87
963.623	7264.06
963.926	7165.76
964.228	7164.4
964.531	7195.59
964.833	7175.48
965.136	7111.07
965.438	7082.82
965.741	6982.03
966.043	7007.8
966.345	6987.68
966.648	6976.38
966.95	6942.03
967.252	6919.66
967.554	6860.68
967.856	6894.13
968.158	6803.51
968.46	6804.86
968.761	6766.67
969.063	6720.12
969.365	6700.01
969.666	6694.81
969.968	6620.01
970.269	6673.12
970.571	6609.61
970.872	6580.24
971.174	6517.87
971.475	6530.97
971.776	6509.96
972.077	6476.74
972.378	6480.58
972.679	6475.38
972.98	6418.88
973.281	6394.93
973.582	6390.41
973.883	6354.71
974.183	6255.5
974.484	6352.67
974.785	6274.48
975.085	6259.79
975.386	6176.41
975.686	6192
975.986	6103.64
976.287	6096.86
976.587	6034.26
976.887	6078.1
977.187	6125.56
977.487	6029.06
977.787	5966.47
978.087	5997.43
978.387	5940.71
978.687	5978.44
978.987	5893.25
979.286	5861.61
979.586	5919.24
979.885	5826.36
980.185	5768.28
980.484	5771.9
980.784	5758.11
981.083	5680.37
981.382	5691.22
981.682	5716.08
981.981	5706.36
982.28	5565.12
982.579	5566.48
982.878	5569.87
983.177	5578
983.475	5492.81
983.774	5505.91
984.073	5433.15
984.372	5442.87
984.67	5414.62
984.969	5424.56
985.267	5365.35
985.566	5331
985.864	5337.56
986.162	5327.16
986.461	5274.28
986.759	5263.21
987.057	5206.04
987.355	5225.47
987.653	5176.88
987.951	5143.89
988.249	5149.54
988.547	5134.4
988.844	5063.67
989.142	5126.49
989.44	5063.21
989.737	5021.41
990.035	4991.8
990.332	4998.36
990.63	4945.48
990.927	4929.66
991.224	4877.46
991.521	4916.33
991.819	4826.61
992.116	4824.12
992.413	4851.92
992.71	4845.14
993.006	4808.08
993.303	4775.54
993.6	4722.88
993.897	4735.09
994.193	4688.99
994.49	4678.82
994.787	4688.08
995.083	4673.62
995.379	4649.89
995.676	4633.4
995.972	4614.64
996.268	4584.36
996.565	4530.8
996.861	4520.63
997.157	4494.19
997.453	4515.66
997.749	4452.83
998.044	4421.2
998.34	4436.79
998.636	4437.69
998.932	4370.13
999.227	4295.32
999.523	4338.04
999.818	4264.14
1000.114	4267.98
1000.409	4222.78
1000.704	4234.08
1001	4222.78
1001.295	4175.1
1001.59	4164.71
1001.885	4100.98
1002.18	4094.65
1002.475	4045.61
1002.77	4074.31
1003.065	3997.48
1003.359	4006.97
1003.654	4017.59
1003.949	3952.51
1004.243	3959.51
1004.538	3903.7
1004.832	3933.07
1005.127	3897.37
1005.421	3874.55
1005.715	3859.63
1006.009	3814.66
1006.304	3779.86
1006.598	3718.39
1006.892	3729.92
1007.186	3763.14
1007.48	3672.52
1007.773	3680.43
1008.067	3655.57
1008.361	3632.07
1008.655	3658.96
1008.948	3603.14
1009.242	3597.04
1009.535	3582.12
1009.829	3542.58
1010.122	3501.45
1010.415	3503.71
1010.708	3474.1
1011.001	3480.88
1011.295	3408.12
1011.588	3413.77
1011.881	3373.09
1012.173	3353.65
1012.466	3333.09
1012.759	3361.79
1013.052	3293.54
1013.344	3275.01
1013.637	3252.64
1013.93	3260.55
1014.222	3232.98
1014.514	3227.78
1014.807	3190.5
1015.099	3163.83
1015.391	3135.58
1015.683	3116.37
1015.976	3107.11
1016.268	3103.04
1016.56	3054
1016.851	3035.47
1017.143	3038.18
1017.435	2965.87
1017.727	2981.69
1018.018	2935.13
1018.31	2938.3
1018.602	2923.84
1018.893	2866.89
1019.185	2832.31
1019.476	2859.88
1019.767	2857.85
1020.058	2819.88
1020.35	2819.21
1020.641	2803.39
1020.932	2745.08
1021.223	2760.45
1021.514	2749.15
1021.804	2708.47
1022.095	2678.64
1022.386	2678.87
1022.677	2642.49
1022.967	2623.05
1023.258	2602.94
1023.548	2640
1023.839	2594.13
1024.129	2554.35
1024.419	2560.23
1024.709	2527.69
1025	2505.54
1025.29	2477.97
1025.58	2459.21
1025.87	2467.35
1026.16	2423.74
1026.449	2396.39
1026.739	2377.18
1027.029	2409.5
1027.319	2381.48
1027.608	2360.91
1027.898	2335.15
1028.187	2305.77
1028.477	2275.94
1028.766	2293.34
1029.055	2270.97
1029.344	2246.11
1029.634	2246.57
1029.923	2207.02
1030.212	2206.79
1030.501	2196.62
1030.79	2168.15
1031.078	2169.28
1031.367	2131.31
1031.656	2101.03
1031.945	2092.67
1032.233	2116.17
1032.522	2083.86
1032.81	2049.51
1033.099	2077.76
1033.387	2037.53
1033.675	2027.36
1033.963	1988.94
1034.251	2010.87
1034.54	1982.84
1034.828	1923.41
1035.116	1904.65
1035.403	1938.78
1035.691	1903.98
1035.979	1930.42
1036.267	1908.72
1036.554	1884.54
1036.842	1859
1037.129	1875.05
1037.417	1840.25
1037.704	1820.59
1037.992	1813.81
1038.279	1778.1
1038.566	1774.94
1038.853	1774.94
1039.14	1774.94
