Data from copper_heatsink_FLMS001491_058.txt Node
Date: Tue Feb 07 10:50:12 GMT 2017
User: dcchb
Spectrometer: FLMS00149
Trigger mode: 0
Integration Time (sec): 2.000000E-2
Scans to average: 10
Electric dark correction enabled: true
Nonlinearity correction enabled: false
Boxcar width: 0
XAxis mode: Wavelengths
Number of Pixels in Spectrum: 2048
>>>>>Begin Spectral Data<<<<<
341.393	-0.03
341.776	-0.03
342.16	-0.03
342.543	-48.61
342.927	-70.31
343.31	-74.83
343.693	-62.63
344.077	-60.59
344.46	-59.69
344.843	-46.58
345.226	-30.99
345.61	-45.22
345.993	-14.49
346.376	6.07
346.759	3.36
347.142	39.97
347.525	34.55
347.908	48.33
348.291	67.77
348.674	92.62
349.057	102.34
349.44	137.14
349.823	137.82
350.206	173.3
350.588	213.75
350.971	207.88
351.354	239.51
351.737	244.26
352.119	258.72
352.502	253.07
352.884	286.97
353.267	309.57
353.65	300.53
354.032	300.3
354.414	328.78
354.797	329.68
355.179	323.58
355.562	344.37
355.944	338.72
356.326	340.3
356.709	342.56
357.091	352.96
357.473	347.99
357.855	345.27
358.238	331.04
358.62	353.18
359.002	370.13
359.384	344.14
359.766	345.73
360.148	362
360.53	375.56
360.912	342.79
361.294	347.99
361.676	333.07
362.057	347.31
362.439	340.75
362.821	347.08
363.203	349.79
363.584	349.79
363.966	342.56
364.348	350.47
364.729	338.72
365.111	328.78
365.493	365.16
365.874	346.4
366.256	337.36
366.637	340.3
367.019	316.35
367.4	346.86
367.781	342.79
368.163	347.99
368.544	340.53
368.925	321.32
369.306	337.14
369.688	326.52
370.069	340.98
370.45	333.75
370.831	337.36
371.212	336.91
371.593	337.14
371.974	336.01
372.355	352.73
372.736	336.69
373.117	352.05
373.498	345.27
373.879	321.77
374.26	341.43
374.641	347.31
375.021	354.54
375.402	346.63
375.783	340.98
376.163	365.16
376.544	338.27
376.925	333.75
377.305	358.83
377.686	347.76
378.066	337.36
378.447	361.54
378.827	356.57
379.208	357.7
379.588	385.27
379.968	359.74
380.349	365.84
380.729	366.29
381.109	346.4
381.489	363.35
381.87	380.07
382.25	350.47
382.63	364.26
383.01	367.42
383.39	387.76
383.77	391.83
384.15	382.11
384.53	363.8
384.91	369.68
385.29	394.31
385.67	391.15
386.049	384.37
386.429	399.74
386.809	420.53
387.189	394.54
387.568	392.5
387.948	392.73
388.328	417.36
388.707	397.93
389.087	411.03
389.466	387.76
389.846	409.9
390.225	419.4
390.605	426.4
390.984	406.51
391.363	427.31
391.743	423.92
392.122	418.27
392.501	427.98
392.881	427.31
393.26	417.36
393.639	446.29
394.018	450.58
394.397	421.2
394.776	429.56
395.155	460.75
395.534	459.17
395.913	444.48
396.292	450.58
396.671	427.98
397.05	460.75
397.429	448.32
397.808	448.77
398.186	455.55
398.565	456
398.944	466.4
399.323	456.91
399.701	461.43
400.08	488.09
400.458	452.16
400.837	496.68
401.215	465.04
401.594	476.57
401.972	471.37
402.351	474.54
402.729	470.02
403.107	496
403.486	491.26
403.864	496.91
404.242	519.51
404.62	517.92
404.999	494.2
405.377	505.5
405.755	507.76
406.133	518.15
406.511	533.29
406.889	531.71
407.267	545.27
407.645	536.68
408.023	540.75
408.401	524.03
408.779	519.73
409.156	537.58
409.534	544.82
409.912	560.63
410.29	543.01
410.667	553.86
411.045	574.87
411.422	573.52
411.8	583.69
412.178	554.53
412.555	575.1
412.933	563.35
413.31	589.11
413.687	566.51
414.065	584.36
414.442	605.83
414.819	583.01
415.197	602.67
415.574	624.36
415.951	632.27
416.328	632.05
416.705	605.83
417.082	620.97
417.46	634.31
417.837	634.31
418.214	629.56
418.591	632.95
418.967	637.47
419.344	626.85
419.721	658.03
420.098	680.41
420.475	665.04
420.852	660.29
421.228	688.09
421.605	695.55
421.982	674.08
422.358	704.13
422.735	702.55
423.111	654.87
423.488	712.72
423.864	670.46
424.241	693.51
424.617	704.81
424.994	720.18
425.37	686.73
425.746	705.72
426.123	719.73
426.499	746.84
426.875	747.3
427.251	758.14
427.627	728.31
428.003	757.92
428.379	762.21
428.756	780.52
429.132	756.79
429.507	792.04
429.883	800.4
430.259	803.57
430.635	813.06
431.011	815.77
431.387	806.73
431.763	813.28
432.138	842.21
432.514	865.94
432.89	859.61
433.265	882.89
433.641	875.65
434.016	863.45
434.392	898.71
434.767	888.31
435.143	895.09
435.518	891.47
435.894	888.76
436.269	915.2
436.644	934.86
437.02	939.16
437.395	934.18
437.77	936.22
438.145	949.78
438.52	971.25
438.895	954.97
439.271	982.77
439.646	991.36
440.021	992.94
440.395	988.87
440.77	1006.72
441.145	994.75
441.52	1025.26
441.895	1038.59
442.27	1012.83
442.645	1038.36
443.019	1070.9
443.394	1049.21
443.769	1044.69
444.143	1049.66
444.518	1047.18
444.892	1057.8
445.267	1051.24
445.641	1066.38
446.016	1074.52
446.39	1096.44
446.764	1062.77
447.139	1101.86
447.513	1088.08
447.887	1110
448.262	1111.13
448.636	1111.35
449.01	1127.85
449.384	1146.83
449.758	1144.35
450.132	1164.69
450.506	1180.73
450.88	1190.22
451.254	1168.3
451.628	1196.32
452.002	1209.21
452.376	1199.71
452.75	1220.73
453.123	1218.24
453.497	1247.4
453.871	1256.44
454.244	1282.88
454.618	1287.85
454.992	1281.07
455.365	1316.1
455.739	1344.57
456.112	1326.94
456.486	1347.28
456.859	1359.48
457.232	1373.95
457.606	1361.52
457.979	1355.19
458.352	1424.12
458.725	1447.39
459.099	1452.59
459.472	1483.55
459.845	1482.42
460.218	1517.9
460.591	1514.51
460.964	1520.61
461.337	1544.11
461.71	1573.26
462.083	1602.87
462.456	1590.21
462.829	1585.47
463.201	1616.65
463.574	1589.08
463.947	1621.62
464.32	1667.72
464.692	1673.37
465.065	1703.2
465.438	1714.05
465.81	1774.84
466.183	1736.88
466.555	1752.92
466.928	1778.68
467.3	1821.39
467.672	1816.87
468.045	1887.38
468.417	1886.93
468.789	1860.26
469.161	1878.34
469.534	1945.46
469.906	1966.7
470.278	1984.78
470.65	1992.46
471.022	2017.32
471.394	2082.18
471.766	2096.19
472.138	2111.78
472.51	2128.05
472.882	2156.3
473.253	2201.5
473.625	2221.83
473.997	2267.03
474.369	2302.74
474.74	2312.45
475.112	2366.92
475.484	2392.9
475.855	2444.65
476.227	2428.83
476.598	2488.72
476.97	2502.28
477.341	2610.3
477.713	2619.11
478.084	2677.42
478.455	2697.3
478.827	2725.1
479.198	2776.62
479.569	2798.09
479.94	2844.64
480.311	2871.08
480.682	2946.79
481.053	3012.55
481.424	3050.29
481.795	3068.82
482.166	3135.03
482.537	3190.17
482.908	3261.81
483.279	3293.22
483.65	3307.46
484.021	3392.42
484.391	3400.33
484.762	3448.24
485.133	3502.25
485.503	3529.82
485.874	3573.66
486.244	3673.55
486.615	3676.26
486.985	3735.47
487.356	3826.31
487.726	3846.42
488.097	3881
488.467	3916.03
488.837	3993.31
489.207	4020.66
489.578	4085.74
489.948	4208
490.318	4211.61
490.688	4239.86
491.058	4299.75
491.428	4426.3
491.798	4422.45
492.168	4430.82
492.538	4543.36
492.908	4516.92
493.278	4600.3
493.648	4598.72
494.017	4697.7
494.387	4739.96
494.757	4753.97
495.126	4787.87
495.496	4831.71
495.866	4912.84
496.235	4910.35
496.605	4986.51
496.974	4978.6
497.344	5051.82
497.713	5127.97
498.082	5116.45
498.452	5180.85
498.821	5256.1
499.19	5226.73
499.559	5293.62
499.928	5320.28
500.298	5380.85
500.667	5384.01
501.036	5459.04
501.405	5517.34
501.774	5508.53
502.143	5605.02
502.512	5588.75
502.88	5646.83
503.249	5650.9
503.618	5687.73
503.987	5762.08
504.356	5773.15
504.724	5815.41
505.093	5850.21
505.462	5928.63
505.83	5948.97
506.199	5974.73
506.567	6060.38
506.936	6070.32
507.304	6149.19
507.672	6201.84
508.041	6237.32
508.409	6228.73
508.777	6397.32
509.145	6387.83
509.514	6417.66
509.882	6487.48
510.25	6513.47
510.618	6599.35
510.986	6579.01
511.354	6696.29
511.722	6757.08
512.09	6762.05
512.458	6817.42
512.826	6840.47
513.193	6891.32
513.561	6932.9
513.929	6977.42
514.297	7081.82
514.664	7146
515.032	7197.52
515.4	7245.2
515.767	7292.66
516.135	7332.21
516.502	7346.9
516.869	7498.53
517.237	7478.42
517.604	7464.41
517.972	7608.36
518.339	7690.84
518.706	7725.64
519.073	7722.25
519.44	7811.74
519.808	7925.87
520.175	7928.12
520.542	8077.73
520.909	8104.17
521.276	8139.64
521.643	8201.79
522.009	8264.39
522.376	8373.99
522.743	8395.68
523.11	8580.76
523.477	8626.64
523.843	8627.99
524.21	8793.19
524.577	8852.85
524.943	8900.98
525.31	8898.72
525.676	9001.99
526.043	9114.08
526.409	9181.43
526.776	9329.22
527.142	9314.76
527.508	9378.71
527.874	9526.73
528.241	9568.53
528.607	9613.73
528.973	9733.05
529.339	9716.55
529.705	9843.78
530.071	9955.87
530.437	9985.25
530.803	10080.38
531.169	10121.06
531.535	10171.23
531.901	10212.81
532.267	10251.23
532.632	10294.84
532.998	10403.54
533.364	10559.69
533.73	10554.95
534.095	10648.28
534.461	10707.94
534.826	10781.38
535.192	10886.24
535.557	10914.04
535.923	10904.32
536.288	11058.21
536.653	11142.96
537.019	11074.93
537.384	11224.99
537.749	11364.87
538.114	11293.01
538.479	11378.66
538.845	11420.24
539.21	11485.32
539.575	11549.05
539.94	11623.39
540.305	11618.88
540.67	11798.98
541.034	11843.05
541.399	11910.17
541.764	12083.72
542.129	12046.66
542.494	12078.07
542.858	12165.3
543.223	12299.31
543.587	12379.08
543.952	12419.31
544.316	12508.12
544.681	12474.22
545.045	12588.57
545.41	12732.52
545.774	12772.74
546.138	12795.57
546.503	12891.61
546.867	12935.68
547.231	13092.96
547.595	13130.25
547.959	13226.29
548.324	13292.73
548.688	13389.68
549.052	13419.51
549.416	13511.48
549.779	13559.62
550.143	13609.56
550.507	13794.41
550.871	13858.14
551.235	14016.1
551.599	14160.73
551.962	14163.44
552.326	14285.92
552.689	14429.87
553.053	14400.95
553.417	14535.18
553.78	14725.91
554.143	14843.2
554.507	14899.24
554.87	14930.2
555.234	15237.31
555.597	15184.88
555.96	15334.94
556.323	15507.59
556.686	15589.39
557.05	15793
557.413	15917.52
557.776	15987.12
558.139	16182.6
558.502	16346.43
558.865	16341.69
559.228	16518.41
559.59	16719.98
559.953	16781
560.316	17045.17
560.679	17041.33
561.041	17377.59
561.404	17408.78
561.767	17636.34
562.129	17780.75
562.492	18069.1
562.854	18020.06
563.217	18196.78
563.579	18421.41
563.941	18518.81
564.304	18839.02
564.666	18935.75
565.028	19021.39
565.39	19282.4
565.753	19475.84
566.115	19600.13
566.477	19926.91
566.839	19947.47
567.201	20218.88
567.563	20324.41
567.925	20566.89
568.287	20696.83
568.648	20876.94
569.01	21089.81
569.372	21316.93
569.734	21422.23
570.095	21658.39
570.457	21861.32
570.819	21994.2
571.18	22077.58
571.542	22402.55
571.903	22506.05
572.265	22777
572.626	22885.92
572.987	23033.26
573.349	23158.91
573.71	23423.76
574.071	23592.12
574.432	23845.45
574.794	24066.68
575.155	24070.53
575.516	24270.52
575.877	24523.17
576.238	24521.36
576.599	24728.36
576.96	24920.22
577.32	25047.67
577.681	25236.82
578.042	25297.61
578.403	25518.85
578.763	25661.67
579.124	25886.3
579.485	25997.03
579.845	26201.77
580.206	26201.77
580.566	26327.42
580.927	26506.39
581.287	26671.59
581.648	26842.43
582.008	26979.15
582.368	26993.84
582.728	27244.91
583.089	27256.2
583.449	27276.09
583.809	27436.31
584.169	27536.42
584.529	27676.76
584.889	28015.51
585.249	27878.56
585.609	28012.57
585.969	28123.75
586.329	28190.42
586.688	28317.19
587.048	28394.25
587.408	28408.04
587.768	28621.82
588.127	28760.12
588.487	28718.99
588.846	29032.65
589.206	28957.85
589.565	29020.68
589.925	29306.55
590.284	29214.8
590.643	29316.26
591.003	29481
591.362	29655.24
591.721	29450.95
592.08	29725.97
592.44	29911.05
592.799	30003.25
593.158	30080.76
593.517	30291.83
593.876	30260.42
594.235	30266.97
594.593	30335.67
594.952	30540.64
595.311	30526.17
595.67	30683.68
596.029	30906.28
596.387	31082.77
596.746	31101.75
597.104	31142.2
597.463	31077.57
597.822	31351.24
598.18	31237.57
598.538	31368.86
598.897	31682.98
599.255	31421.97
599.613	31987.15
599.972	31863.77
600.33	32087.04
600.688	31994.84
601.046	32346.01
601.404	32437.08
601.762	32457.65
602.12	32609.96
602.478	32651.09
602.836	32802.95
603.194	32646.8
603.552	32761.82
603.91	32850.41
604.268	32991.19
604.625	33078.2
604.983	33259.89
605.341	33090.18
605.698	33425.31
606.056	33588.47
606.413	33553.44
606.771	33799.54
607.128	33788.69
607.485	33651.74
607.843	33883.6
608.2	34186.64
608.557	34318.39
608.914	34204.04
609.272	34495.34
609.629	34427.77
609.986	34751.83
610.343	34508.89
610.7	34920.41
611.057	35006.96
611.414	35101.65
611.771	35148.65
612.127	35417.57
612.484	35275.2
612.841	35575.76
613.198	35496.67
613.554	35453.73
613.911	35789.09
614.267	35827.96
614.624	35964
614.98	36006.48
615.337	36427.94
615.693	36350.88
616.05	36292.8
616.406	36710.19
616.762	36552.01
617.118	36660.48
617.475	36728.72
617.831	36906.35
618.187	36926.23
618.543	37027.92
618.899	37257.3
619.255	37195.38
619.611	37177.07
619.967	37482.38
620.323	37615.93
620.678	37437.41
621.034	37537.29
621.39	37727.12
621.746	37612.32
622.101	38103.15
622.457	37773.67
622.812	38091.85
623.168	38055.47
623.523	38052.53
623.879	38290.94
624.234	38079.42
624.589	38167.78
624.945	38348.79
625.3	38432.63
625.655	38433.54
626.01	38447.55
626.365	38668.11
626.72	38646.19
627.075	38765.05
627.43	38800.53
627.785	38790.14
628.14	38868.55
628.495	38949.68
628.85	38963.02
629.205	38866.07
629.559	39198.72
629.914	38968.21
630.269	39030.13
630.623	39075.33
630.978	38937.7
631.332	39244.82
631.687	39268.54
632.041	39174.31
632.396	39313.97
632.75	39167.53
633.104	39247.75
633.459	39230.8
633.813	39165.04
634.167	39143.12
634.521	39203.91
634.875	39518.48
635.229	39356
635.583	39158.26
635.937	39318.03
636.291	39374.08
636.645	39468.31
636.999	39387.41
637.352	39546.28
637.706	39299.73
638.06	39479.84
638.413	39332.04
638.767	39321.88
639.121	39589.67
639.474	39348.54
639.828	39473.74
640.181	39529.55
640.534	39531.59
640.888	39421.31
641.241	39472.15
641.594	39524.36
641.947	39643.68
642.301	39477.35
642.654	39545.82
643.007	39798.47
643.36	39539.05
643.713	39746.72
644.066	39672.83
644.419	39622.66
644.771	39537.92
645.124	39127.3
645.477	39087.53
645.83	38864.94
646.182	38997.14
646.535	38587.66
646.888	38817.71
647.24	38507.43
647.593	38862.9
647.945	38846.18
648.298	38719.18
648.65	38696.58
649.002	38600.31
649.355	38808.22
649.707	38737.26
650.059	38940.87
650.411	39571.81
650.763	39388.77
651.115	39922.54
651.467	39848.42
651.819	39822.43
652.171	39809.32
652.523	39831.01
652.875	39840.05
653.227	39786.72
653.578	40055.64
653.93	40073.72
654.282	40054.29
654.633	39845.7
654.985	40082.99
655.337	40102.19
655.688	40065.13
656.039	40200.5
656.391	39871.69
656.742	40049.31
657.094	40225.58
657.445	40449.3
657.796	40159.82
658.147	39962.76
658.498	40126.83
658.849	40096.77
659.2	40255.86
659.551	40271.91
659.902	40348.74
660.253	40304
660.604	40429.42
660.955	40266.26
661.306	40427.61
661.656	40527.04
662.007	40425.8
662.358	40445.01
662.708	40710.77
663.059	40834.83
663.409	40471.68
663.76	40699.24
664.11	40660.82
664.461	40711.44
664.811	40761.84
665.161	40800.48
665.511	40671.44
665.862	40806.13
666.212	41122.96
666.562	41049.74
666.912	41010.87
667.262	40937.88
667.612	40856.75
667.962	40976.07
668.312	41072.79
668.662	41266.68
669.011	41263.52
669.361	41053.58
669.711	41201.37
670.06	41186.23
670.41	41165.44
670.76	41110.53
671.109	41219
671.459	41343.97
671.808	41052.68
672.157	41325.44
672.507	41150.08
672.856	41166.57
673.205	41358.43
673.554	41487.47
673.904	41394.59
674.253	41760.46
674.602	41630.29
674.951	41078.67
675.3	40846.13
675.649	41579.22
675.998	41673.45
676.346	41701.7
676.695	41787.57
677.044	41489.05
677.393	41678.88
677.741	41554.36
678.09	41778.76
678.438	41585.09
678.787	41638.2
679.135	41726.11
679.484	41510.07
679.832	41761.59
680.181	41505.55
680.529	41844.07
680.877	41648.82
681.225	41523.85
681.573	41750.29
681.922	41510.74
682.27	41580.57
682.618	41616.28
682.966	41697.18
683.314	41514.59
683.661	41582.38
684.009	41341.48
684.357	41285.89
684.705	41256.51
685.053	41480.91
685.4	41489.73
685.748	41238.89
686.095	41274.37
686.443	41270.3
686.79	41278.89
687.138	41440.46
687.485	41269.62
687.832	41157.08
688.18	41187.82
688.527	40953.02
688.874	41027.14
689.221	41010.42
689.568	40788.05
689.915	40751.44
690.262	40781.72
690.609	40752.35
690.956	40637.77
691.303	40713.25
691.65	40679.81
691.997	40603.42
692.344	40444.33
692.69	40517.32
693.037	40593.93
693.383	40341.28
693.73	40527.49
694.077	40271.46
694.423	40408.4
694.769	40214.06
695.116	40279.14
695.462	40252.92
695.808	40063.78
696.155	40007.06
696.501	39899.49
696.847	39878.25
697.193	39685.03
697.539	39811.58
697.885	39705.37
698.231	39510.57
698.577	39639.61
698.923	39615.65
699.269	39549.67
699.614	39241.2
699.96	39299.5
700.306	39332.72
700.651	39181.54
700.997	39209.11
701.342	39011.38
701.688	39090.47
702.033	39017.7
702.379	39029.45
702.724	38857.03
703.069	38974.99
703.415	38733.87
703.76	38827.65
704.105	38941.55
704.45	38800.76
704.795	38502.91
705.14	38475.8
705.485	38624.04
705.83	38451.62
706.175	38499.75
706.52	38346.08
706.865	38321.68
707.209	38196.03
707.554	38198.29
707.899	38439.86
708.243	38197.16
708.588	38244.16
708.932	37977.96
709.277	37935.25
709.621	38097.05
709.966	37744.74
710.31	37944.74
710.654	37634.69
710.998	37817.96
711.342	37848.24
711.687	37785.42
712.031	37709.49
712.375	37815.47
712.719	37586.33
713.063	37690.51
713.407	37688.47
713.75	37484.41
714.094	37563.5
714.438	37449.38
714.782	37379.55
715.125	37301.82
715.469	37453.45
715.812	37331.42
716.156	37241.93
716.499	37134.14
716.843	37341.81
717.186	36991.09
717.53	37290.06
717.873	37235.83
718.216	37205.55
718.559	37116.06
718.902	36994.71
719.246	36923.29
719.589	36811.43
719.932	36923.29
720.275	36849.62
720.617	36792
720.96	36902.73
721.303	36820.7
721.646	37029.73
721.989	36637.43
722.331	36899.11
722.674	36685.33
723.016	36833.13
723.359	36883.97
723.701	36896.18
724.044	36515.17
724.386	36465.68
724.729	36750.87
725.071	36584.09
725.413	36673.36
725.755	36680.59
726.097	36453.93
726.439	36375.96
726.782	36366.47
727.124	36443.53
727.465	36308.4
727.807	36349.52
728.149	36343.65
728.491	36286.93
728.833	36414.61
729.175	36230.21
729.516	36086.03
729.858	36186.59
730.199	36354.95
730.541	36116.31
730.882	36060.04
731.224	36284.22
731.565	36113.37
731.906	36008.52
732.248	36213.26
732.589	35898.69
732.93	35963.77
733.271	35818.24
733.612	35931.91
733.953	35992.47
734.294	35833.38
734.635	35963.09
734.976	35948.86
735.317	35790.22
735.658	35827.05
735.999	36001.29
736.339	35875.41
736.68	35963.55
737.021	35907.28
737.361	35865.24
737.702	35882.19
738.042	35826.6
738.383	35753.83
738.723	35707.96
739.063	35516.78
739.404	35690.11
739.744	35585.7
740.084	35603.33
740.424	35734.85
740.764	35502.54
741.104	35653.27
741.444	35688.98
741.784	35526.27
742.124	35766.49
742.464	35494.63
742.804	35466.61
743.143	35505.7
743.483	35465.03
743.823	35266.39
744.162	35246.73
744.502	35494.41
744.841	35298.93
745.181	35445.14
745.52	35424.13
745.86	35394.3
746.199	35383
746.538	35348.19
746.877	35606.04
747.216	35432.71
747.556	35448.53
747.895	35273.39
748.234	35154.53
748.573	35349.55
748.911	35310.23
749.25	35295.77
749.589	35141.65
749.928	35244.47
750.267	35270.23
750.605	35133.74
750.944	35097.81
751.283	34936.23
751.621	35079.95
751.96	34986.4
752.298	34961.99
752.636	34924.93
752.975	34889.9
753.313	34724.71
753.651	34828.89
753.989	34566.52
754.327	34563.58
754.666	34508.22
755.004	34789.79
755.342	34729.68
755.679	34630.02
756.017	34383.93
756.355	34460.99
756.693	34349.35
757.031	34435
757.368	34343.48
757.706	34281.56
758.044	34378.73
758.381	34208.34
758.719	34176.47
759.056	34227.55
759.394	34263.93
759.731	33917.95
760.068	34032.75
760.405	33700.78
760.743	33645.41
761.08	33782.59
761.417	33513.21
761.754	33462.14
762.091	33461.24
762.428	33356.61
762.765	33327.91
763.102	33318.87
763.438	33262.15
763.775	33075.26
764.112	33134.69
764.449	33118.42
764.785	32956.17
765.122	32756.85
765.458	32496.29
765.795	32593.24
766.131	32685.67
766.467	32588.95
766.804	32427.37
767.14	32242.97
767.476	32454.49
767.812	32351.44
768.148	32400.7
768.485	32080.03
768.821	31989.41
769.157	32013.59
769.492	31947.83
769.828	31994.61
770.164	31685.69
770.5	31731.79
770.836	31592.14
771.171	31578.12
771.507	31562.53
771.842	31498.13
772.178	31370.9
772.513	31208.42
772.849	31115.99
773.184	31126.16
773.519	31015.2
773.855	31010
774.19	30921.87
774.525	30711.48
774.86	30784.7
775.195	30788.54
775.53	30636.68
775.865	30570.92
776.2	30389.46
776.535	30099.97
776.87	30159.18
777.205	30075.11
777.539	29955.34
777.874	30074.89
778.209	29817.94
778.543	29769.36
778.878	29656.59
779.212	29570.04
779.547	29511.51
779.881	29584.28
780.215	29251.63
780.55	29403.49
780.884	29188.81
781.218	29197.85
781.552	29147.91
781.886	29032.2
782.22	28922.6
782.554	28913.79
782.888	28602.16
783.222	28676.05
783.556	28436.96
783.889	28533.46
784.223	28338.44
784.557	28344.54
784.89	28276.97
785.224	28210.3
785.557	28036.52
785.891	28015.05
786.224	28000.59
786.558	27942.74
786.891	27819.35
787.224	27675.85
787.557	27784.1
787.891	27652.8
788.224	27574.61
788.557	27583.65
788.89	27548.17
789.223	27433.37
789.556	27243.32
789.888	27321.97
790.221	27193.83
790.554	26937.57
790.887	26991.13
791.219	26997.45
791.552	26979.83
791.884	26813.28
792.217	26710.68
792.549	26641.53
792.882	26580.52
793.214	26533.96
793.546	26592.94
793.879	26379.84
794.211	26271.15
794.543	26336
794.875	26239.06
795.207	26316.12
795.539	26254.42
795.871	26222.11
796.203	26046.74
796.535	25818.95
796.867	25767.66
797.198	25761.55
797.53	25884.26
797.862	25604.72
798.193	25656.47
798.525	25558.17
798.856	25665.74
799.188	25244.51
799.519	25361.56
799.85	25106.2
800.182	25049.03
800.513	25278.63
800.844	24989.15
801.175	25157.5
801.506	25109.82
801.837	24981.01
802.168	24934.46
802.499	24816.49
802.83	24830.96
803.161	24709.83
803.491	24781.47
803.822	24694.01
804.153	24618.99
804.483	24517.52
804.814	24395.26
805.145	24406.11
805.475	24356.39
805.805	24337.86
806.136	24336.28
806.466	24331.54
806.796	24394.58
807.126	24162.27
807.457	24220.8
807.787	24182.39
808.117	23920.47
808.447	23896.07
808.777	24087.02
809.107	23918.21
809.436	23701.04
809.766	23867.14
810.096	23830.53
810.426	23652.46
810.755	23656.3
811.085	23592.8
811.414	23603.19
811.744	23408.85
812.073	23513.7
812.403	23513.25
812.732	23361.62
813.061	23431.9
813.39	23330.43
813.719	23181.51
814.049	23317.32
814.378	23234.39
814.707	23075.3
815.036	23062.42
815.365	23057.22
815.693	22840.95
816.022	22990.33
816.351	22901.74
816.68	22685.93
817.008	22789.43
817.337	22608.42
817.665	22591.92
817.994	22598.7
818.322	22651.35
818.651	22572.71
818.979	22612.26
819.307	22733.61
819.636	22606.16
819.964	22479.38
820.292	22564.12
820.62	22555.76
820.948	22407.07
821.276	22612.26
821.604	22546.72
821.932	22531.58
822.259	22405.48
822.587	22427.63
822.915	22435.09
823.243	22586.04
823.57	22456.56
823.898	22444.35
824.225	22497.91
824.553	22467.4
824.88	22503.56
825.207	22676.66
825.535	22493.17
825.862	22666.04
826.189	22490.91
826.516	22737.23
826.843	22718.24
827.17	22699.26
827.497	22739.49
827.824	22839.6
828.151	22805.02
828.478	22770.9
828.805	22859.26
829.131	22675.08
829.458	22615.42
829.785	22478.93
830.111	22753.72
830.438	22756.44
830.764	22683.44
831.09	22857.22
831.417	22717.79
831.743	22834.85
832.069	22850.67
832.395	22805.25
832.722	22852.93
833.048	22792.59
833.374	22855.64
833.7	22826.72
834.026	22836.89
834.351	22828.98
834.677	22840.28
835.003	22906.94
835.329	22846.6
835.654	22919.14
835.98	22769.54
836.306	22817.45
836.631	22671.24
836.956	22803.89
837.282	22828.07
837.607	22613.84
837.932	22588.3
838.258	22573.62
838.583	22612.26
838.908	22404.58
839.233	22582.43
839.558	22472.6
839.883	22504.46
840.208	22394.86
840.533	22451.36
840.858	22564.58
841.182	22447.97
841.507	22510.79
841.832	22480.51
842.156	22461.98
842.481	22344.47
842.805	22409.33
843.13	22236.45
843.454	22189.22
843.778	22147.19
844.103	22187.64
844.427	22083.91
844.751	22139.28
845.075	22078.71
845.399	21982.9
845.723	21851.6
846.047	21823.58
846.371	21733.64
846.695	21831.49
847.019	21673.75
847.343	21559.4
847.666	21351.5
847.99	21375
848.313	21369.81
848.637	21236.93
848.96	21333.87
849.284	21212.3
849.607	21092.52
849.931	20962.13
850.254	20921.68
850.577	20917.84
850.9	20680.78
851.223	20730.5
851.546	20529.38
851.869	20509.26
852.192	20498.64
852.515	20300.91
852.838	20290.06
853.161	20370.96
853.483	20202.83
853.806	20146.33
854.129	20103.4
854.451	20191.98
854.774	20098.65
855.096	19974.81
855.419	20107.92
855.741	20055.04
856.063	19892.1
856.385	19868.38
856.708	19910.41
857.03	19742.28
857.352	19788.15
857.674	19685.33
857.996	19582.73
858.318	19546.35
858.64	19500.93
858.961	19521.27
859.283	19441.49
859.605	19368.95
859.926	19390.42
860.248	19386.13
860.57	19318.56
860.891	19281.5
861.212	19236.75
861.534	19228.62
861.855	19079.7
862.176	19106.81
862.498	19167.15
862.819	19080.6
863.14	19082.63
863.461	19144.1
863.782	18946.59
864.103	18967.16
864.424	18925.58
864.745	19022.97
865.065	18924.45
865.386	18938.91
865.707	19007.16
866.027	18852.58
866.348	18812.36
866.668	18871.57
866.989	18784.11
867.309	18708.18
867.63	18795.41
867.95	18789.31
868.27	18621.85
868.59	18602.19
868.91	18574.4
869.23	18580.27
869.55	18573.27
869.87	18619.37
870.19	18624.11
870.51	18580.5
870.83	18551.8
871.15	18387.74
871.469	18509.77
871.789	18618.92
872.109	18572.59
872.428	18387.28
872.748	18528.98
873.067	18296.21
873.386	18481.97
873.706	18459.37
874.025	18319.04
874.344	18272.49
874.663	18408.08
874.982	18377.34
875.301	18411.47
875.62	18267.97
875.939	18365.59
876.258	18301.19
876.577	18354.97
876.896	18259.83
877.214	18153.84
877.533	18276.78
877.852	18282.88
878.17	18277.68
878.489	18238.59
878.807	18178.02
879.125	18010.57
879.444	18061.64
879.762	18040.4
880.08	18035.66
880.398	17973.74
880.716	17918.37
881.034	17954.75
881.352	17895.55
881.67	17935.32
881.988	17921.99
882.306	17823.68
882.624	17725.83
882.941	17828.43
883.259	17750.69
883.577	17651.94
883.894	17731.26
884.212	17746.17
884.529	17743.46
884.846	17691.48
885.164	17693.29
885.481	17518.61
885.798	17656.23
886.115	17589.79
886.432	17543.01
886.75	17528.1
887.067	17552.05
887.383	17345.5
887.7	17444.26
888.017	17359.29
888.334	17425.28
888.651	17378.05
888.967	17359.06
889.284	17187.99
889.6	17200.42
889.917	17012.18
890.233	16978.06
890.55	17023.25
890.866	17178.5
891.182	16957.49
891.498	16901.22
891.815	16919.07
892.131	16964.27
892.447	16843.37
892.763	16765.86
893.079	16690.38
893.395	16698.52
893.71	16654.45
894.026	16609.25
894.342	16609.93
894.657	16541.46
894.973	16482.7
895.289	16544.17
895.604	16465.98
895.92	16395.92
896.235	16337.85
896.55	16359.54
896.865	16401.8
897.181	16268.02
897.496	16170.17
897.811	16128.59
898.126	16007.23
898.441	15958.2
898.756	15935.6
899.071	15898.08
899.386	15897.18
899.7	15853.34
900.015	15809.95
900.33	15595.49
900.644	15648.37
900.959	15587.36
901.273	15543.29
901.588	15553.24
901.902	15457.42
902.216	15395.73
902.531	15453.8
902.845	15395.05
903.159	15300.36
903.473	15271.89
903.787	15214.26
904.101	15117.77
904.415	15178.1
904.729	14989.41
905.042	15068.28
905.356	15092.68
905.67	15031.21
905.984	14946.47
906.297	14885.23
906.611	14868.06
906.924	14825.12
907.237	14756.65
907.551	14729.53
907.864	14563.2
908.177	14570.44
908.491	14482.75
908.804	14405.02
909.117	14387.84
909.43	14364.57
909.743	14247.51
910.056	14284.57
910.368	14198.02
910.681	14173.84
910.994	14153.5
911.307	14033.5
911.619	13873.05
911.932	13898.82
912.244	13893.62
912.557	13847.74
912.869	13768.65
913.181	13752.6
913.494	13784.69
913.806	13685.49
914.118	13657.47
914.43	13546.73
914.742	13538.15
915.054	13474.19
915.366	13507.64
915.678	13371.15
915.99	13364.37
916.302	13264.26
916.613	13344.25
916.925	13319.85
917.236	13184.26
917.548	13156.01
917.859	13127.54
918.171	13018.61
918.482	12996.24
918.794	12963.7
919.105	12938.39
919.416	12800.31
919.727	12730.26
920.038	12643.93
920.349	12687.55
920.66	12635.35
920.971	12664.95
921.282	12659.07
921.593	12545.4
921.903	12476.48
922.214	12414.56
922.525	12437.61
922.835	12408.01
923.146	12275.81
923.456	12166.88
923.767	12127.11
924.077	12112.42
924.387	12067.45
924.697	11972.99
925.008	11963.95
925.318	11904.74
925.628	11951.75
925.938	11833.33
926.248	11787.68
926.558	11684.64
926.867	11664.75
927.177	11606.9
927.487	11605.32
927.796	11517.41
928.106	11520.35
928.416	11439.9
928.725	11389.28
929.034	11345.89
929.344	11281.93
929.653	11302.27
929.962	11277.19
930.271	11260.92
930.581	11182.95
930.89	11043.3
931.199	11076.06
931.508	11062.05
931.817	11088.04
932.125	11024.09
932.434	11016.86
932.743	10868.16
933.051	10816.18
933.36	10758.33
933.669	10694.61
933.977	10742.06
934.286	10769.41
934.594	10760.14
934.902	10659.58
935.21	10524.67
935.519	10576.87
935.827	10553.14
936.135	10512.24
936.443	10319.25
936.751	10300.04
937.059	10310.21
937.367	10238.12
937.674	10328.29
937.982	10241.28
938.29	10166.48
938.597	10159.48
938.905	10020.73
939.213	10036.54
939.52	10012.36
939.827	9957.9
940.135	9867.96
940.442	9911.35
940.749	9903.67
941.056	9848.3
941.363	9769.88
941.67	9699.15
941.977	9644.46
942.284	9662.99
942.591	9612.83
942.898	9548.65
943.205	9576.44
943.511	9446.73
943.818	9479.72
944.125	9465.03
944.431	9395.43
944.738	9319.5
945.044	9336.22
945.35	9301.87
945.657	9212.16
945.963	9218.71
946.269	9159.05
946.575	9136.68
946.881	9133.52
947.187	9099.85
947.493	9073.41
947.799	8940.3
948.105	8891.72
948.41	8856.24
948.716	8859.17
949.022	8808.33
949.327	8800.87
949.633	8772.85
949.938	8764.94
950.244	8785.73
950.549	8700.76
950.854	8668.22
951.16	8606.75
951.465	8585.06
951.77	8526.53
952.075	8494.89
952.38	8467.09
952.685	8479.07
952.99	8356.59
953.294	8369.24
953.599	8314.33
953.904	8248.12
954.209	8180.32
954.513	8260.55
954.818	8249.7
955.122	8161.57
955.426	8146.2
955.731	8102.36
956.035	8051.74
956.339	8006.77
956.643	8040.21
956.948	7965.86
957.252	7927.9
957.556	7963.83
957.86	7918.63
958.163	7887
958.467	7868.24
958.771	7818.98
959.075	7815.13
959.378	7681.8
959.682	7728.36
959.985	7651.3
960.289	7644.97
960.592	7574.24
960.896	7561.58
961.199	7620.34
961.502	7571.75
961.805	7508.93
962.108	7460.34
962.411	7473.45
962.714	7403.84
963.017	7339.89
963.32	7377.86
963.623	7279.55
963.926	7250.4
964.228	7229.84
964.531	7186.68
964.833	7136.51
965.136	7098.54
965.438	7094.02
965.741	7037.3
966.043	7001.82
966.345	6948.94
966.648	6978.77
966.95	6913.69
967.252	6894.48
967.554	6929.06
967.856	6869.4
968.158	6791.66
968.46	6779
968.761	6765.22
969.063	6726.12
969.365	6768.61
969.666	6718.89
969.968	6597.76
970.269	6547.37
970.571	6598.44
970.872	6542.62
971.174	6582.4
971.475	6531.55
971.776	6517.77
972.077	6556.86
972.378	6522.74
972.679	6525.22
972.98	6428.96
973.281	6356.41
973.582	6371.1
973.883	6374.04
974.183	6279.35
974.484	6272.12
974.785	6261.95
975.085	6247.27
975.386	6249.3
975.686	6123.43
975.986	6091.34
976.287	6141.73
976.587	6069.19
976.887	6027.84
977.187	6054.5
977.487	6036.2
977.787	5998.46
978.087	6003.2
978.387	5974.73
978.687	5965.01
978.987	5880.5
979.286	5834.85
979.586	5811.12
979.885	5804.79
980.185	5811.57
980.484	5744
980.784	5785.13
981.083	5738.35
981.382	5721.63
981.682	5704.91
981.981	5693.83
982.28	5589.88
982.579	5551.69
982.878	5612.25
983.177	5564.35
983.475	5579.03
983.774	5496.1
984.073	5441.86
984.372	5438.25
984.67	5359.83
984.969	5435.54
985.267	5368.64
985.566	5418.13
985.864	5320.51
986.162	5328.19
986.461	5289.78
986.759	5237.35
987.057	5236.9
987.355	5206.16
987.653	5256.1
987.951	5128.88
988.249	5113.06
988.547	5139.27
988.844	5057.92
989.142	5087.97
989.44	5078.71
989.737	5009.56
990.035	4988.32
990.332	4973.63
990.63	4969.11
990.927	4890.24
991.224	4922.78
991.521	4874.19
991.819	4858.83
992.116	4870.13
992.413	4840.97
992.71	4848.21
993.006	4817.7
993.303	4772.95
993.6	4777.93
993.897	4755.78
994.193	4751.03
994.49	4720.53
994.787	4673.52
995.083	4664.71
995.379	4713.75
995.676	4646.63
995.972	4602.11
996.268	4517.14
996.565	4508.33
996.861	4532.73
997.157	4463.13
997.453	4449.8
997.749	4446.41
998.044	4396.92
998.34	4450.93
998.636	4376.35
998.932	4342.91
999.227	4360.08
999.523	4319.18
999.818	4307.2
1000.114	4238.96
1000.409	4261.78
1000.704	4191.5
1001	4215.68
1001.295	4211.61
1001.59	4141.56
1001.885	4111.28
1002.18	4055.46
1002.475	4138.17
1002.77	4095.91
1003.065	4025.4
1003.359	4030.15
1003.654	3993.09
1003.949	3940.66
1004.243	3975.23
1004.538	3922.58
1004.832	3913.54
1005.127	3890.72
1005.421	3865.18
1005.715	3799.42
1006.009	3826.31
1006.304	3803.49
1006.598	3789.02
1006.892	3766.43
1007.186	3734.79
1007.48	3722.36
1007.773	3690.95
1008.067	3648.24
1008.361	3652.08
1008.655	3619.31
1008.948	3591.74
1009.242	3605.07
1009.535	3581.35
1009.829	3518.3
1010.122	3498.18
1010.415	3504.96
1010.708	3453.44
1011.001	3516.94
1011.295	3426.55
1011.588	3421.58
1011.881	3425.64
1012.173	3337.29
1012.466	3353.56
1012.759	3354.01
1013.052	3281.92
1013.344	3270.85
1013.637	3282.37
1013.93	3271.3
1014.222	3254.8
1014.514	3244.63
1014.807	3195.37
1015.099	3160.57
1015.391	3193.79
1015.683	3181.58
1015.976	3150.4
1016.268	3111.3
1016.56	3045.32
1016.851	3036.5
1017.143	3041.25
1017.435	3017.75
1017.727	2960.35
1018.018	2959.44
1018.31	2960.57
1018.602	2935.04
1018.893	2919.22
1019.185	2878.54
1019.476	2842.83
1019.767	2842.61
1020.058	2840.58
1020.35	2773.68
1020.641	2761.03
1020.932	2761.03
1021.223	2726.91
1021.514	2717.64
1021.804	2721.71
1022.095	2726.23
1022.386	2666.57
1022.677	2661.14
1022.967	2667.92
1023.258	2614.37
1023.548	2587.25
1023.839	2552.9
1024.129	2542.73
1024.419	2564.65
1024.709	2503.41
1025	2501.83
1025.29	2490.08
1025.58	2456.4
1025.87	2426.8
1026.16	2457.31
1026.449	2448.95
1026.739	2378.89
1027.029	2381.83
1027.319	2387.03
1027.608	2368.27
1027.898	2353.13
1028.187	2321.49
1028.477	2286.47
1028.766	2329.63
1029.055	2271.78
1029.344	2272.68
1029.634	2228.16
1029.923	2219.57
1030.212	2211.89
1030.501	2221.83
1030.79	2188.16
1031.078	2144.55
1031.367	2145.9
1031.656	2142.51
1031.945	2120.82
1032.233	2090.54
1032.522	2044.66
1032.81	2055.96
1033.099	2021.39
1033.387	2021.39
1033.675	2013.25
1033.963	2005.79
1034.251	1988.17
1034.54	1959.47
1034.828	1954.04
1035.116	1915.18
1035.403	1947.27
1035.691	1947.94
1035.979	1913.59
1036.267	1907.72
1036.554	1884.22
1036.842	1851.9
1037.129	1860.26
1037.417	1853.71
1037.704	1818.46
1037.992	1785.91
1038.279	1771.68
1038.566	1765.8
1038.853	1765.8
1039.14	1765.8
