Data from copper_heatsink_FLMS001491_084.txt Node
Date: Tue Feb 07 10:50:42 GMT 2017
User: dcchb
Spectrometer: FLMS00149
Trigger mode: 0
Integration Time (sec): 2.000000E-2
Scans to average: 10
Electric dark correction enabled: true
Nonlinearity correction enabled: false
Boxcar width: 0
XAxis mode: Wavelengths
Number of Pixels in Spectrum: 2048
>>>>>Begin Spectral Data<<<<<
341.393	3.23
341.776	3.23
342.16	3.23
342.543	-47.16
342.927	-65.92
343.31	-75.63
343.693	-59.14
344.077	-86.48
344.46	-43.77
344.843	-53.04
345.226	-36.31
345.61	-17.78
345.993	1.65
346.376	-25.92
346.759	10.69
347.142	15.89
347.525	52.95
347.908	54.53
348.291	64.25
348.674	95.21
349.057	102.89
349.44	140.63
349.823	131.82
350.206	172.27
350.588	209.78
350.971	209.33
351.354	239.84
351.737	241.42
352.119	275.77
352.502	259.5
352.884	286.62
353.267	298.37
353.65	318.93
354.032	301.53
354.414	320.29
354.797	320.29
355.179	328.88
355.562	332.72
355.944	355.32
356.326	351.47
356.709	358.71
357.091	357.12
357.473	346.95
357.855	354.19
358.238	376.78
358.62	360.29
359.002	360.51
359.384	355.32
359.766	373.85
360.148	353.28
360.53	358.71
360.912	362.55
361.294	349.21
361.676	350.12
362.057	357.58
362.439	348.76
362.821	344.47
363.203	351.02
363.584	352.15
363.966	327.29
364.348	354.41
364.729	360.97
365.111	339.04
365.493	345.6
365.874	343.34
366.256	347.86
366.637	343.56
367.019	334.07
367.4	356.9
367.781	347.63
368.163	359.16
368.544	346.95
368.925	333.17
369.306	365.94
369.688	332.04
370.069	347.41
370.45	354.64
370.831	323
371.212	342.21
371.593	341.3
371.974	356.67
372.355	346.5
372.736	342.21
373.117	358.03
373.498	348.76
373.879	339.04
374.26	344.24
374.641	328.2
375.021	336.33
375.402	360.29
375.783	365.94
376.163	362.32
376.544	378.82
376.925	347.41
377.305	366.39
377.686	357.8
378.066	356.45
378.447	379.27
378.827	361.42
379.208	348.76
379.588	367.52
379.968	364.35
380.349	376.56
380.729	362.55
381.109	393.05
381.489	365.03
381.87	394.41
382.25	361.87
382.63	373.85
383.01	393.73
383.39	388.99
383.77	382.89
384.15	397.8
384.53	402.77
384.91	415.2
385.29	411.59
385.67	404.81
386.049	409.55
386.429	407.97
386.809	406.84
387.189	407.07
387.568	413.85
387.948	403
388.328	415.43
388.707	405.48
389.087	412.04
389.466	427.18
389.846	410.91
390.225	411.36
390.605	425.14
390.984	435.77
391.363	432.15
391.743	405.71
392.122	449.55
392.501	430.12
392.881	455.2
393.26	433.96
393.639	440.29
394.018	451.13
394.397	457.01
394.776	453.62
395.155	442.09
395.534	437.12
395.913	464.01
396.292	460.17
396.671	479.15
397.05	485.48
397.429	451.36
397.808	477.12
398.186	460.85
398.565	472.83
398.944	479.15
399.323	492.04
399.701	479.38
400.08	487.97
400.458	475.99
400.837	501.75
401.215	476.44
401.594	493.16
401.972	494.52
402.351	496.1
402.729	517.35
403.107	510.79
403.486	526.38
403.864	504.24
404.242	485.26
404.62	516.44
404.999	521.86
405.377	541.53
405.755	533.84
406.133	541.98
406.511	534.29
406.889	530.68
407.267	532.03
407.645	567.06
408.023	560.96
408.401	575.87
408.779	550.56
409.156	580.39
409.534	566.84
409.912	565.25
410.29	592.37
410.667	576.78
411.045	607.96
411.422	594.18
411.8	585.14
412.178	601.86
412.555	575.42
412.933	599.15
413.31	595.54
413.687	599.38
414.065	613.39
414.442	612.03
414.819	624.91
415.197	660.17
415.574	642.99
415.951	608.87
416.328	665.59
416.705	658.81
417.082	651.35
417.46	635.31
417.837	664.69
418.214	645.93
418.591	681.63
418.967	671.47
419.344	664.46
419.721	699.49
420.098	686.61
420.475	692.03
420.852	683.44
421.228	722.09
421.605	703.55
421.982	714.4
422.358	720.05
422.735	732.25
423.111	717.79
423.488	733.16
423.864	721.41
424.241	753.95
424.617	749.2
424.994	774.06
425.37	756.43
425.746	759.6
426.123	757.79
426.499	762.31
426.875	763.44
427.251	764.12
427.627	790.78
428.003	795.98
428.379	824
428.756	811.12
429.132	810.44
429.507	818.58
429.883	843.44
430.259	822.2
430.635	840.73
431.011	848.86
431.387	857
431.763	920.5
432.138	882.08
432.514	904.68
432.89	886.37
433.265	932.48
433.641	931.57
434.016	930.89
434.392	953.94
434.767	944.45
435.143	938.35
435.518	941.74
435.894	961.18
436.269	970.67
436.644	992.59
437.02	993.72
437.395	994.62
437.77	1008.63
438.145	1049.99
438.52	1045.24
438.895	1047.5
439.271	1046.6
439.646	1078.23
440.021	1041.85
440.395	1072.58
440.77	1043.21
441.145	1045.01
441.52	1069.42
441.895	1080.27
442.27	1121.4
442.645	1106.93
443.019	1125.46
443.394	1117.33
443.769	1133.37
444.143	1136.54
444.518	1130.44
444.892	1150.77
445.267	1141.96
445.641	1147.39
446.016	1180.15
446.39	1153.49
446.764	1168.18
447.139	1144.22
447.513	1197.78
447.887	1198.91
448.262	1184.67
448.636	1235.74
449.01	1180.6
449.384	1221.96
449.758	1210.21
450.132	1250.89
450.506	1252.69
450.88	1236.42
451.254	1258.12
451.628	1287.04
452.002	1292.24
452.376	1340.15
452.75	1340.83
453.123	1319.36
453.497	1334.5
453.871	1333.37
454.244	1390.09
454.618	1387.6
454.992	1378.34
455.365	1379.47
455.739	1431.22
456.112	1428.51
456.486	1437.77
456.859	1455.63
457.232	1471.22
457.606	1466.7
457.979	1485.68
458.352	1534.04
458.725	1550.54
459.099	1526.13
459.472	1573.14
459.845	1585.34
460.218	1597.77
460.591	1609.52
460.964	1608.84
461.337	1646.36
461.71	1671.44
462.083	1685
462.456	1687.71
462.829	1721.16
463.201	1698.11
463.574	1713.47
463.947	1763.19
464.32	1797.31
464.692	1797.31
465.065	1816.29
465.438	1847.25
465.81	1875.95
466.183	1937.19
466.555	1948.27
466.928	1921.83
467.3	1942.17
467.672	1929.06
468.045	1999.79
468.417	1998.21
468.789	2021.71
469.161	2022.39
469.534	2094.03
469.906	2121.37
470.278	2143.29
470.65	2178.09
471.022	2206.79
471.394	2234.81
471.766	2240.24
472.138	2271.42
472.51	2343.51
472.882	2357.07
473.253	2350.74
473.625	2416.73
473.997	2454.02
474.369	2475.03
474.74	2500.34
475.112	2539.21
475.484	2571.98
475.855	2610.17
476.227	2623.28
476.598	2704.86
476.97	2737.4
477.341	2787.12
477.713	2766.78
478.084	2834.35
478.455	2912.99
478.827	2967.9
479.198	2985.98
479.569	3037.73
479.94	3090.61
480.311	3107.56
480.682	3231.17
481.053	3291.28
481.424	3271.4
481.795	3323.15
482.166	3410.15
482.537	3438.85
482.908	3514.33
483.279	3496.02
483.65	3627.55
484.021	3700.99
484.391	3710.48
484.762	3746.64
485.133	3797.48
485.503	3844.94
485.874	3888.56
486.244	3909.57
486.615	4009
486.985	4079.29
487.356	4151.37
487.726	4125.84
488.097	4268.88
488.467	4254.2
488.837	4323.8
489.207	4383.46
489.578	4443.34
489.948	4507.97
490.318	4586.84
490.688	4588.42
491.058	4685.37
491.428	4721.53
491.798	4738.03
492.168	4848.98
492.538	4859.15
492.908	4968.53
493.278	5013.27
493.648	5009.66
494.017	5075.87
494.387	5133.27
494.757	5140.95
495.126	5209.2
495.496	5265.24
495.866	5260.5
496.235	5359.48
496.605	5418.23
496.974	5419.36
497.344	5462.53
497.713	5556.08
498.082	5610.32
498.452	5638.57
498.821	5678.79
499.19	5699.81
499.559	5782.29
499.928	5840.6
500.298	5869.97
500.667	5894.15
501.036	5864.1
501.405	6007.6
501.774	5967.6
502.143	6074.94
502.512	6073.13
502.88	6178.44
503.249	6193.13
503.618	6221.15
503.987	6262.96
504.356	6270.19
504.724	6374.14
505.093	6376.85
505.462	6476.06
505.83	6432.67
506.199	6562.16
506.567	6554.47
506.936	6611.87
507.304	6761.25
507.672	6725.54
508.041	6782.04
508.409	6864.07
508.777	6940.91
509.145	6965.54
509.514	6947.68
509.882	7078.3
510.25	7026.33
510.618	7150.39
510.986	7166.89
511.354	7294.79
511.722	7356.26
512.09	7390.38
512.458	7401.46
512.826	7471.51
513.193	7521.45
513.561	7609.81
513.929	7670.38
514.297	7770.04
514.664	7784.27
515.032	7909.92
515.4	7906.3
515.767	7960.09
516.135	8070.37
516.502	7999.86
516.869	8180.19
517.237	8195.79
517.604	8160.08
517.972	8379.74
518.339	8395.33
518.706	8431.94
519.073	8480.53
519.44	8607.98
519.808	8637.58
520.175	8689.11
520.542	8804.58
520.909	8869.22
521.276	8860.18
521.643	9072.6
522.009	9060.85
522.376	9157.12
522.743	9244.35
523.11	9369.09
523.477	9419.03
523.843	9466.26
524.21	9546.26
524.577	9633.49
524.943	9673.26
525.31	9722.75
525.676	9924.33
526.043	9995.29
526.409	10045.91
526.776	10172.91
527.142	10200.25
527.508	10290.42
527.874	10385.56
528.241	10467.59
528.607	10584.43
528.973	10643.41
529.339	10644.76
529.705	10789.62
530.071	10903.51
530.437	10913
530.803	11064.86
531.169	11163.39
531.535	11108.93
531.901	11194.13
532.267	11250.17
532.632	11408.13
532.998	11452.2
533.364	11550.95
533.73	11606.55
534.095	11758.86
534.461	11765.86
534.826	11891.06
535.192	11908.01
535.557	11997.27
535.923	12058.96
536.288	12091.5
536.653	12133.99
537.019	12251.05
537.384	12321.78
537.749	12392.74
538.114	12447.65
538.479	12481.55
538.845	12552.28
539.21	12684.26
539.575	12741.88
539.94	12780.98
540.305	12894.87
540.67	12836.12
541.034	13006.96
541.399	13103.45
541.764	13130.8
542.129	13212.38
542.494	13294.18
542.858	13358.82
543.223	13438.59
543.587	13647.85
543.952	13630.45
544.316	13770.78
544.681	13735.75
545.045	13919.48
545.41	13986.6
545.774	14036.31
546.138	14034.73
546.503	14203.99
546.867	14315.85
547.231	14425
547.595	14526.92
547.959	14509.75
548.324	14641.27
548.688	14728.72
549.052	14808.04
549.416	14918.1
549.779	14995.61
550.143	15083.97
550.507	15220.69
550.871	15363.73
551.235	15390.85
551.599	15566.21
551.962	15710.62
552.326	15816.83
552.689	15880.78
553.053	15913.78
553.417	16031.29
553.78	16364.16
554.143	16322.58
554.507	16463.59
554.87	16610.71
555.234	16845.28
555.597	16689.8
555.96	17041.2
556.323	17167.08
556.686	17304.93
557.05	17443.91
557.413	17595.54
557.776	17694.97
558.139	17951.69
558.502	18014.96
558.865	18098.58
559.228	18331.57
559.59	18515.29
559.953	18612.01
560.316	18937.43
560.679	19057.42
561.041	19199.11
561.404	19413.35
561.767	19635.71
562.129	19745.99
562.492	20101.69
562.854	20091.75
563.217	20132.42
563.579	20464.17
563.941	20628.68
564.304	20844.49
564.666	21004.04
565.028	21247.65
565.39	21400.86
565.753	21668.43
566.115	21917.23
566.477	21952.71
566.839	22160.17
567.201	22522.87
567.563	22567.84
567.925	22857.1
568.287	22973.48
568.648	23131.67
569.01	23384.09
569.372	23673.35
569.734	23743.18
570.095	24023.17
570.457	24152.43
570.819	24441.69
571.18	24504.06
571.542	24966.87
571.903	24941.56
572.265	25287.09
572.626	25375.22
572.987	25661.32
573.349	25909.22
573.71	26148.31
574.071	26243
574.432	26406.83
574.794	26733.15
575.155	26812.7
575.516	26989.42
575.877	27186.93
576.238	27321.16
576.599	27612
576.96	27781.71
577.32	27869.17
577.681	28026.23
578.042	28205.66
578.403	28329.5
578.763	28593.22
579.124	28783.27
579.485	28959.08
579.845	29063.94
580.206	29249.47
580.566	29423.93
580.927	29485.4
581.287	29731.72
581.648	29660.76
582.008	29958.83
582.368	30129.67
582.728	30347.52
583.089	30220.29
583.449	30486.27
583.809	30627.29
584.169	30749.32
584.529	30884.23
584.889	31054.85
585.249	31027.05
585.609	31117.9
585.969	31500.49
586.329	31435.18
586.688	31553.14
587.048	31683.08
587.408	31584.55
587.768	31826.58
588.127	31815.73
588.487	31926.01
588.846	32378.43
589.206	32128.27
589.565	32199.22
589.925	32548.82
590.284	32570.51
590.643	32723.73
591.003	32761.24
591.362	33040.33
591.721	33036.72
592.08	33111.52
592.44	33276.03
592.799	33287.1
593.158	33344.73
593.517	33295.24
593.876	33541.56
594.235	33619.75
594.593	33725.06
594.952	33959.63
595.311	33940.42
595.67	34125.5
596.029	34353.07
596.387	34470.58
596.746	34590.57
597.104	34451.59
597.463	34466.51
597.822	34717.58
598.18	34762.55
598.538	34943.33
598.897	35247.28
599.255	34813.62
599.613	35440.95
599.972	35318.69
600.33	35566.14
600.688	35447.05
601.046	35704.22
601.404	35919.58
601.762	35949.18
602.12	36144.66
602.478	36243.86
602.836	36190.53
603.194	36276.63
603.552	36486.12
603.91	36318.66
604.268	36627.58
604.625	36653.34
604.983	36774.92
605.341	36724.3
605.698	37023.96
606.056	37114.35
606.413	37203.39
606.771	37277.51
607.128	37545.98
607.485	37508.46
607.843	37482.25
608.2	37697.38
608.557	38179.86
608.914	38019.64
609.272	38191.83
609.629	38320.19
609.986	38592.5
610.343	38481.77
610.7	38776.68
611.057	38722.89
611.414	38767.19
611.771	38868.2
612.127	38985.26
612.484	39187.06
612.841	39411.46
613.198	39204.24
613.554	39328.98
613.911	39613.27
614.267	39660.27
614.624	39665.69
614.98	39957.66
615.337	40061.16
615.693	40181.39
616.05	40341.83
616.406	40436.97
616.762	40477.42
617.118	40590.87
617.475	40607.82
617.831	40812.1
618.187	40849.17
618.543	40943.4
618.899	41165.09
619.255	41073.34
619.611	41213.9
619.967	41374.8
620.323	41661.57
620.678	41585.64
621.034	41456.61
621.39	41515.14
621.746	41468.36
622.101	42039.42
622.457	41704.06
622.812	41994.22
623.168	42147.44
623.523	42117.61
623.879	42492.74
624.234	41998.97
624.589	42274.44
624.945	42477.37
625.3	42424.94
625.655	42510.14
626.01	42510.59
626.365	42570.7
626.72	42673.98
627.075	42569.57
627.43	42717.59
627.785	42666.75
628.14	42708.55
628.495	43054.31
628.85	42912.61
629.205	42941.54
629.559	43150.12
629.914	42924.14
630.269	43082.1
630.623	43115.32
630.978	43028.32
631.332	43185.15
631.687	43300.85
632.041	43275.32
632.396	43503.79
632.75	43214.53
633.104	43351.25
633.459	43176.79
633.813	43310.57
634.167	43371.13
634.521	43232.38
634.875	43488.64
635.229	43399.38
635.583	43191.93
635.937	43447.06
636.291	43366.39
636.645	43628.53
636.999	43496.78
637.352	43580.62
637.706	43407.74
638.06	43617.23
638.413	43510.56
638.767	43505.82
639.121	43655.19
639.474	43361.64
639.828	43537.91
640.181	43621.75
640.534	43481.64
640.888	43661.97
641.241	43451.58
641.594	43554.18
641.947	43570.68
642.301	43596.89
642.654	43713.5
643.007	43710.56
643.36	43627.4
643.713	43748.75
644.066	43863.1
644.419	43633.95
644.771	43583.78
645.124	43116.9
645.477	43145.15
645.83	42962.1
646.182	42800.08
646.535	42694.32
646.888	42824.93
647.24	42710.81
647.593	42866.06
647.945	42826.29
648.298	42660.19
648.65	42530.03
649.002	42524.15
649.355	42764.14
649.707	42780.64
650.059	43055.21
650.411	43604.8
650.763	43578.59
651.115	44076.2
651.467	43985.58
651.819	43986.26
652.171	43858.8
652.523	43940.38
652.875	43971.57
653.227	43825.36
653.578	44153.94
653.93	44072.36
654.282	43837.11
654.633	43924.34
654.985	44077.56
655.337	44040.72
655.688	44204.33
656.039	44205.24
656.391	43901.29
656.742	44253.37
657.094	44260.38
657.445	44342.41
657.796	44259.02
658.147	44202.07
658.498	44252.92
658.849	44277.55
659.2	44320.71
659.551	44276.65
659.902	44532.46
660.253	44522.52
660.604	44487.49
660.955	44384.21
661.306	44563.42
661.656	44545.57
662.007	44639.12
662.358	44625.11
662.708	44569.75
663.059	44637.99
663.409	44407.49
663.76	44833.24
664.11	44838.67
664.461	44935.84
664.811	44774.26
665.161	44774.26
665.511	44826.91
665.862	44894.94
666.212	45069.39
666.562	45113.69
666.912	44925.44
667.262	45070.52
667.612	45019.23
667.962	45165.89
668.312	45009.51
668.662	45318.43
669.011	45235.04
669.361	45179.9
669.711	45240.69
670.06	45236.4
670.41	45252.67
670.76	45227.36
671.109	45398.65
671.459	45324.75
671.808	45342.38
672.157	45533.11
672.507	45303.74
672.856	45246.79
673.205	45401.14
673.554	45517.29
673.904	45322.49
674.253	45615.59
674.602	45649.94
674.951	45032.56
675.3	44987.59
675.649	45534.01
675.998	45575.6
676.346	45637.51
676.695	45816.04
677.044	45518.65
677.393	45736.95
677.741	45691.3
678.09	45809.71
678.438	45716.38
678.787	45844.97
679.135	45788.7
679.484	45644.52
679.832	45675.71
680.181	45671.19
680.529	45895.36
680.877	45591.87
681.225	45640.45
681.573	45924.29
681.922	45679.32
682.27	45575.37
682.618	45637.74
682.966	45542.38
683.314	45617.4
683.661	45538.31
684.009	45538.99
684.357	45580.57
684.705	45410.18
685.053	45509.61
685.4	45390.74
685.748	45423.74
686.095	45433.9
686.443	45224.42
686.79	45322.72
687.138	45448.59
687.485	45405.88
687.832	45237.53
688.18	45369.95
688.527	45098.09
688.874	45241.59
689.221	45065.33
689.568	44886.12
689.915	44896.29
690.262	44997.53
690.609	44969.96
690.956	44834.37
691.303	44771.55
691.65	44829.17
691.997	44877.99
692.344	44610.42
692.69	44781.94
693.037	44719.12
693.383	44396.87
693.73	44522.29
694.077	44277.1
694.423	44252.47
694.769	44115.07
695.116	44151.23
695.462	44311.67
695.808	44108.06
696.155	44240.94
696.501	43895.19
696.847	43845.92
697.193	43727.96
697.539	43927.28
697.885	43563.44
698.231	43612.48
698.577	43559.38
698.923	43492.03
699.269	43521.64
699.614	43360.29
699.96	43369.78
700.306	43458.36
700.651	43235.09
700.997	43301.53
701.342	43139.28
701.688	43076.23
702.033	42911.94
702.379	42959.62
702.724	42945.83
703.069	43158.48
703.415	42624.49
703.76	42816.57
704.105	42668.33
704.45	42857.02
704.795	42570.02
705.14	42575.9
705.485	42582.23
705.83	42522.34
706.175	42440.31
706.52	42466.07
706.865	42339.07
707.209	42392.63
707.554	42238.96
707.899	42316.47
708.243	42079.64
708.588	42074.67
708.932	41954
709.277	41770.27
709.621	42080.55
709.966	41729.14
710.31	42008.01
710.654	41603.5
710.998	41795.58
711.342	41786.32
711.687	41743.61
712.031	41669.94
712.375	41636.04
712.719	41666.77
713.063	41621.35
713.407	41660.9
713.75	41410.73
714.094	41477.62
714.438	41198.08
714.782	41531.63
715.125	41196.73
715.469	41427.46
715.812	41287.12
716.156	41180.91
716.499	41134.13
716.843	41303.39
717.186	40956.51
717.53	41202.6
717.873	41129.61
718.216	41174.58
718.559	41064.98
718.902	40784.99
719.246	41033.79
719.589	41003.06
719.932	40868.6
720.275	40921.25
720.617	40716.74
720.96	40692.11
721.303	40799
721.646	40808.72
721.989	40741.82
722.331	40932.78
722.674	40819.34
723.016	40831.99
723.359	40765.78
723.701	40943.85
724.044	40562.85
724.386	40396.52
724.729	40663.41
725.071	40422.96
725.413	40582.05
725.755	40499.34
726.097	40370.99
726.439	40157.66
726.782	40291.89
727.124	40345
727.465	40298.45
727.807	40128.51
728.149	40196.98
728.491	40154.04
728.833	40185.68
729.175	40089.86
729.516	40113.59
729.858	40087.83
730.199	40115.63
730.541	39967.83
730.882	39961.51
731.224	40185.68
731.565	39924.9
731.906	40167.83
732.248	40151.78
732.589	40011.22
732.93	39794.73
733.271	39919.25
733.612	40039.92
733.953	40070.2
734.294	39964.44
734.635	39940.26
734.976	40005.8
735.317	39669.99
735.658	39684.45
735.999	39782.53
736.339	39779.36
736.68	39861.85
737.021	39785.24
737.361	39616.66
737.702	39852.36
738.042	39768.52
738.383	39725.58
738.723	39698.24
739.063	39629.99
739.404	39806.93
739.744	39648.52
740.084	39481.74
740.424	39664.56
740.764	39557
741.104	39755.86
741.444	39552.02
741.784	39485.36
742.124	39629.31
742.464	39557
742.804	39399.26
743.143	39556.77
743.483	39625.92
743.823	39262.09
744.162	39385.7
744.502	39436.55
744.841	39400.39
745.181	39577.11
745.52	39342.09
745.86	39432.03
746.199	39453.72
746.538	39321.97
746.877	39690.1
747.216	39349.32
747.556	39123.79
747.895	39199.27
748.234	39068.42
748.573	39106.39
748.911	39107.52
749.25	39235.2
749.589	39058.7
749.928	39285.59
750.267	39243.33
750.605	38996.11
750.944	39147.52
751.283	39063.45
751.621	39073.85
751.96	38895.09
752.298	38889.67
752.636	38720.41
752.975	38699.84
753.313	38521.32
753.651	38492.84
753.989	38488.55
754.327	38470.25
754.666	38357.25
755.004	38409.91
755.342	38492.39
755.679	38418.95
756.017	38152.29
756.355	38238.84
756.693	38129.46
757.031	38329.01
757.368	38089.69
757.706	38043.14
758.044	37892.86
758.381	37980.99
758.719	37875.91
759.056	37908.45
759.394	37865.29
759.731	37558.86
760.068	37749.36
760.405	37569.48
760.743	37616.03
761.08	37736.48
761.417	37369.48
761.754	37194.8
762.091	37293.78
762.428	37110.28
762.765	37209.26
763.102	37370.84
763.438	37196.61
763.775	37073.22
764.112	37002.94
764.449	37056.5
764.785	36829.16
765.122	36786.22
765.458	36543.52
765.795	36568.15
766.131	36435.04
766.467	36453.35
766.804	36327.93
767.14	36230.53
767.476	36287.25
767.812	36030.76
768.148	36154.15
768.485	35981.5
768.821	35708.96
769.157	35556.88
769.492	35483.88
769.828	35678.23
770.164	35294.74
770.5	35174.29
770.836	35325.47
771.171	35052.93
771.507	34991.92
771.842	34768.2
772.178	34952.15
772.513	34947.85
772.849	34788.53
773.184	34605.71
773.519	34558.94
773.855	34495.89
774.19	34361.65
774.525	34382.44
774.86	34369.79
775.195	34220.64
775.53	34257.02
775.865	33920.53
776.2	33962.79
776.535	33712.63
776.87	33729.58
777.205	33492.3
777.539	33503.6
777.874	33529.81
778.209	33159.88
778.543	33238.29
778.878	33093.44
779.212	33115.81
779.547	32978.86
779.881	33143.61
780.215	32804.86
780.55	32807.8
780.884	32677.63
781.218	32749.94
781.552	32655.71
781.886	32473.79
782.22	32178.43
782.554	32292.33
782.888	31932.34
783.222	32097.98
783.556	31855.96
783.889	31899.8
784.223	31570.31
784.557	31763.98
784.89	31884.43
785.224	31574.61
785.557	31490.32
785.891	31351.34
786.224	31280.15
786.558	31351.11
786.891	31143.88
787.224	30996.09
787.557	31015.07
787.891	30886.94
788.224	30891.69
788.557	30801.52
788.89	30745.48
789.223	30615.54
789.556	30484.69
789.888	30520.62
790.221	30327.18
790.554	30079.96
790.887	30145.27
791.219	30190.24
791.552	30081.99
791.884	29991.15
792.217	29825.05
792.549	29783.24
792.882	29731.72
793.214	29511.16
793.546	29660.31
793.879	29575.56
794.211	29388.9
794.543	29711.38
794.875	29579.41
795.207	29554.1
795.539	29452.18
795.871	29432.07
796.203	29195.91
796.535	29069.81
796.867	29047.22
797.198	28973.77
797.53	28851.97
797.862	28748.69
798.193	28786.66
798.525	28612.43
798.856	28604.97
799.188	28382.83
799.519	28533.33
799.85	28203.4
800.182	28150.97
800.513	28238.42
800.844	28077.3
801.175	28261.47
801.506	28104.19
801.837	28055.6
802.168	28021.48
802.499	27814.93
802.83	27843.41
803.161	27835.95
803.491	27769.28
803.822	27738.78
804.153	27632.34
804.483	27489.97
804.814	27327.04
805.145	27413.59
805.475	27275.51
805.805	27211.33
806.136	27276.87
806.466	27365.68
806.796	27223.08
807.126	26948.97
807.457	26729.09
807.787	26906.03
808.117	26866.48
808.447	26755.07
808.777	27023.77
809.107	26796.88
809.436	26838.01
809.766	26807.73
810.096	26708.52
810.426	26624.91
810.755	26560.05
811.085	26493.84
811.414	26595.98
811.744	26465.59
812.073	26357.57
812.403	26403.22
812.732	26237.12
813.061	26416.33
813.39	26170.23
813.719	26177.01
814.049	26192.6
814.378	26275.09
814.707	26001.65
815.036	25965.49
815.365	25832.16
815.693	25561.88
816.022	25545.16
816.351	25647.08
816.68	25469.23
817.008	25676.01
817.337	25465.62
817.665	25436.24
817.994	25619.06
818.322	25492.06
818.651	25438.72
818.979	25452.28
819.307	25475.56
819.636	25368.44
819.964	25225.17
820.292	25409.8
820.62	25409.12
820.948	25296.35
821.276	25298.61
821.604	25349.23
821.932	25374.54
822.259	25371.15
822.587	25450.47
822.915	25233.53
823.243	25372.74
823.57	25473.3
823.898	25443.24
824.225	25339.07
824.553	25301.55
824.88	25280.08
825.207	25352.85
825.535	25348.56
825.862	25432.62
826.189	25410.25
826.516	25569.57
826.843	25603.01
827.17	25564.6
827.497	25559.62
827.824	25516.46
828.151	25556.91
828.478	25709.9
828.805	25739.96
829.131	25532.73
829.458	25472.85
829.785	25412.51
830.111	25553.97
830.438	25762.56
830.764	25805.49
831.09	25747.42
831.417	25697.47
831.743	25834.65
832.069	25906.96
832.395	25730.47
832.722	25733.86
833.048	25551.94
833.374	25770.47
833.7	25631.26
834.026	25562.11
834.351	25727.76
834.677	25552.62
835.003	25653.18
835.329	25823.8
835.654	25797.36
835.98	25481.89
836.306	25586.29
836.631	25515.33
836.956	25614.31
837.282	25510.13
837.607	25406.63
837.932	25312.4
838.258	25460.87
838.583	25462.23
838.908	25320.08
839.233	25376.8
839.558	25447.76
839.883	25358.27
840.208	25250.48
840.533	25382.91
840.858	25419.74
841.182	25380.65
841.507	25356.24
841.832	25168.9
842.156	25302.46
842.481	25263.14
842.805	25073.76
843.13	25097.49
843.454	25059.75
843.778	24874.22
844.103	24903.14
844.427	24880.32
844.751	24883.48
845.075	24747.22
845.399	24715.13
845.723	24640.55
846.047	24747.67
846.371	24555.13
846.695	24487.79
847.019	24299.54
847.343	24224.97
847.666	24097.52
847.99	24010.96
848.313	24109.04
848.637	23959.89
848.96	23916.05
849.284	23855.49
849.607	23735.72
849.931	23620.24
850.254	23637.87
850.577	23444.65
850.9	23463.41
851.223	23388.16
851.546	23228.61
851.869	23077.88
852.192	23205.11
852.515	22993.36
852.838	23023.65
853.161	23041.05
853.483	22832.24
853.806	22701.62
854.129	22724.9
854.451	22721.73
854.774	22566.71
855.096	22636.31
855.419	22495.75
855.741	22599.7
856.063	22389.76
856.385	22368.07
856.708	22319.26
857.03	22132.37
857.352	22259.37
857.674	22188.64
857.996	22077
858.318	21987.74
858.64	22018.25
858.961	21988.42
859.283	21917.01
859.605	21750.91
859.926	21698.26
860.248	21778.26
860.57	21748.65
860.891	21834.52
861.212	21680.86
861.534	21617.58
861.855	21626.17
862.176	21714.98
862.498	21631.37
862.819	21634.98
863.14	21622.1
863.461	21538.49
863.782	21537.13
864.103	21421.43
864.424	21463.91
864.745	21382.33
865.065	21238.38
865.386	21258.49
865.707	21201.1
866.027	21296.01
866.348	21293.52
866.668	21342.33
866.989	21195.67
867.309	21072.28
867.63	21111.61
867.95	21153.86
868.27	21077.93
868.59	21058.73
868.91	21041.55
869.23	21081.1
869.55	20937.83
869.87	21067.09
870.19	21040.87
870.51	20931.5
870.83	21058.95
871.15	20825.96
871.469	20849.47
871.789	20925.62
872.109	20958.84
872.428	20759.3
872.748	20781.67
873.067	20916.58
873.386	20874.1
873.706	20780.09
874.025	20667.78
874.344	20672.07
874.663	20726.31
874.982	20743.03
875.301	20721.33
875.62	20465.3
875.939	20584.39
876.258	20656.02
876.577	20538.74
876.896	20550.04
877.214	20567.89
877.533	20534.45
877.852	20449.02
878.17	20624.16
878.489	20569.93
878.807	20440.44
879.125	20493.32
879.444	20519.31
879.762	20385.98
880.08	20393.66
880.398	20326.09
880.716	20339.87
881.034	20326.32
881.352	20197.28
881.67	20180.56
881.988	20166.77
882.306	20161.57
882.624	20126.1
882.941	19982.6
883.259	19870.28
883.577	20030.73
883.894	19888.14
884.212	19877.29
884.529	20001.35
884.846	19919.55
885.164	19837.74
885.481	19846.78
885.798	19814.46
886.115	19658.31
886.432	19702.38
886.75	19627.58
887.067	19623.96
887.383	19503.29
887.7	19667.12
888.017	19557.75
888.334	19571.31
888.651	19493.34
888.967	19395.94
889.284	19232.33
889.6	19311.65
889.917	19160.7
890.233	19197.76
890.55	19082.73
890.866	19052
891.182	19032.34
891.498	18955.28
891.815	18993.02
892.131	18958.67
892.447	18928.61
892.763	18921.61
893.079	18769.97
893.395	18591.22
893.71	18611.11
894.026	18572.46
894.342	18501.73
894.657	18436.2
894.973	18545.12
895.289	18498.57
895.604	18480.94
895.92	18337.44
896.235	18268.74
896.55	18351.9
896.865	18299.7
897.181	18192.59
897.496	18268.97
897.811	18145.58
898.126	18134.06
898.441	18029.65
898.756	18129.31
899.071	17911.69
899.386	17913.95
899.7	17800.96
900.015	17679.61
900.33	17629.89
900.644	17566.39
900.959	17585.82
901.273	17481.42
901.588	17475.09
901.902	17437.35
902.216	17332.72
902.531	17434.41
902.845	17260.18
903.159	17205.04
903.473	17194.19
903.787	17177.92
904.101	17036.91
904.415	17057.25
904.729	17012.28
905.042	16814.54
905.356	16846.18
905.67	16842.79
905.984	16777.26
906.297	16659.29
906.611	16593.98
906.924	16646.86
907.237	16466.08
907.551	16378.17
907.864	16397.83
908.177	16389.7
908.491	16311.28
908.804	16224.73
909.117	16136.37
909.43	16116.93
909.743	15966.43
910.056	16053.89
910.368	15943.61
910.681	15861.12
910.994	15815.93
911.307	15796.94
911.619	15647.57
911.932	15663.61
912.244	15644.18
912.557	15543.84
912.869	15445.99
913.181	15400.34
913.494	15433.34
913.806	15311.76
914.118	15293.68
914.43	15186.11
914.742	15216.62
915.054	15141.14
915.366	15066.57
915.678	15026.34
915.99	15031.09
916.302	14846.46
916.613	14851.66
916.925	14790.19
917.236	14849.4
917.548	14742.51
917.859	14746.35
918.171	14575.51
918.482	14588.16
918.794	14485.79
919.105	14483.53
919.416	14306.59
919.727	14290.77
920.038	14189.53
920.349	14188.17
920.66	14102.52
920.971	14107.95
921.282	14041.96
921.593	13957.22
921.903	13877.22
922.214	13885.81
922.525	13740.5
922.835	13762.87
923.146	13617.57
923.456	13568.98
923.767	13552.93
924.077	13547.29
924.387	13546.83
924.697	13480.17
925.008	13392.94
925.318	13322.66
925.628	13290.57
925.938	13215.99
926.248	13115.43
926.558	13168.09
926.867	13216.9
927.177	13065.72
927.487	12991.82
927.796	12884.25
928.106	12853.52
928.416	12821.43
928.725	12832.28
929.034	12726.52
929.344	12666.4
929.653	12761.99
929.962	12617.14
930.271	12538.05
930.581	12529.91
930.89	12515.9
931.199	12410.82
931.508	12313.19
931.817	12325.62
932.125	12311.39
932.434	12250.14
932.743	12263.25
933.051	12185.51
933.36	12102.13
933.669	11937.16
933.977	11974.22
934.286	11844.05
934.594	11925.41
934.902	11875.92
935.21	11647
935.519	11739.2
935.827	11664.17
936.135	11632.99
936.443	11495.36
936.751	11477.51
937.059	11495.14
937.367	11458.75
937.674	11510.5
937.982	11354.8
938.29	11432.54
938.597	11336.95
938.905	11181.47
939.213	11138.31
939.52	11067.58
939.827	11126.11
940.135	11067.35
940.442	11033.45
940.749	11004.98
941.056	11019.22
941.363	10878.2
941.67	10804.31
941.977	10768.83
942.284	10720.47
942.591	10777.19
942.898	10667.59
943.205	10609.51
943.511	10602.05
943.818	10552.79
944.125	10553.24
944.431	10360.25
944.738	10463.98
945.044	10431.66
945.35	10341.27
945.657	10328.84
945.963	10286.13
946.269	10244.1
946.575	10223.08
946.881	10086.36
947.187	10117.77
947.493	10047.94
947.799	10043.2
948.105	10021.05
948.41	9941.28
948.716	9920.49
949.022	9803.43
949.327	9805.24
949.633	9716.65
949.938	9648.63
950.244	9790.1
950.549	9736.09
950.854	9640.5
951.16	9572.93
951.465	9538.8
951.77	9485.24
952.075	9433.27
952.38	9436.43
952.685	9340.62
952.99	9252.03
953.294	9246.16
953.599	9253.39
953.904	9167.29
954.209	9114.86
954.513	9160.96
954.818	9103.33
955.122	9033.28
955.426	9041.19
955.731	8946.28
956.035	8900.4
956.339	8821.76
956.643	8848.65
956.948	8789.44
957.252	8827.64
957.556	8817.69
957.86	8697.24
958.163	8680.07
958.467	8666.06
958.771	8651.37
959.075	8640.3
959.378	8523.46
959.682	8532.05
959.985	8410.92
960.289	8398.72
960.592	8394.43
960.896	8319.85
961.199	8388.55
961.502	8319.4
961.805	8334.31
962.108	8217.48
962.411	8205.96
962.714	8120.31
963.017	8135
963.32	8103.59
963.623	8045.06
963.926	8005.51
964.228	7984.95
964.531	8006.87
964.833	7929.81
965.136	7875.12
965.438	7919.86
965.741	7801.22
966.043	7806.87
966.345	7751.51
966.648	7779.75
966.95	7753.31
967.252	7596.71
967.554	7601.23
967.856	7614.33
968.158	7593.77
968.46	7545.86
968.761	7468.8
969.063	7446.88
969.365	7407.33
969.666	7419.99
969.968	7358.07
970.269	7274.91
970.571	7311.97
970.872	7242.37
971.174	7197.62
971.475	7215.7
971.776	7205.53
972.077	7128.92
972.378	7128.02
972.679	7021.13
972.98	7050.73
973.281	6964.86
973.582	6972.09
973.883	6957.63
974.183	6936.16
974.484	6946.33
974.785	6817.07
975.085	6786.78
975.386	6844.86
975.686	6825.88
975.986	6758.76
976.287	6763.06
976.587	6674.7
976.887	6671.76
977.187	6678.99
977.487	6615.72
977.787	6639.67
978.087	6555.6
978.387	6538.2
978.687	6569.62
978.987	6464.76
979.286	6434.48
979.586	6497.3
979.885	6418.21
980.185	6420.69
980.484	6354.93
980.784	6347.93
981.083	6329.62
981.382	6261.83
981.682	6220.47
981.981	6225.44
982.28	6208.72
982.579	6143.41
982.878	6180.47
983.177	6077.65
983.475	6103.86
983.774	6021.83
984.073	5919.01
984.372	5928.28
984.67	5891.67
984.969	5943.87
985.267	5928.73
985.566	5825.23
985.864	5825.91
986.162	5856.87
986.461	5834.27
986.759	5793.36
987.057	5718.56
987.355	5741.39
987.653	5679.92
987.951	5642.18
988.249	5689.19
988.547	5632.46
988.844	5578.23
989.142	5585.91
989.44	5483.32
989.737	5502.07
990.035	5448.51
990.332	5459.59
990.63	5459.59
990.927	5411
991.224	5405.8
991.521	5376.43
991.819	5371
992.116	5304.11
992.413	5290.55
992.71	5278.35
993.006	5265.69
993.303	5230.44
993.6	5205.13
993.897	5197.67
994.193	5188.41
994.49	5124.23
994.787	5084.68
995.083	5050.56
995.379	5001.52
995.676	4987.96
995.972	4969.21
996.268	4930.56
996.565	4904.57
996.861	4948.19
997.157	4914.97
997.453	4887.4
997.749	4826.38
998.044	4791.58
998.34	4743.9
998.636	4719.27
998.932	4734.18
999.227	4672.72
999.523	4720.62
999.818	4655.54
1000.114	4670.46
1000.409	4632.72
1000.704	4673.17
1001	4561.98
1001.295	4561.53
1001.59	4509.1
1001.885	4543.23
1002.18	4442.67
1002.475	4457.13
1002.77	4410.12
1003.065	4333.97
1003.359	4341.65
1003.654	4329.9
1003.949	4289.9
1004.243	4310.47
1004.538	4222.11
1004.832	4248.55
1005.127	4212.62
1005.421	4175.1
1005.715	4209.23
1006.009	4169.23
1006.304	4133.52
1006.598	4090.13
1006.892	4123.8
1007.186	4053.98
1007.48	4005.62
1007.773	4020.3
1008.067	3941.89
1008.361	3923.13
1008.655	3934.66
1008.948	3902.11
1009.242	3938.5
1009.535	3867.09
1009.829	3840.87
1010.122	3816.02
1010.415	3797.03
1010.708	3777.82
1011.001	3775.34
1011.295	3722.91
1011.588	3710.26
1011.881	3658.05
1012.173	3658.96
1012.466	3633.2
1012.759	3675.23
1013.052	3608.56
1013.344	3587.77
1013.637	3570.82
1013.93	3483.14
1014.222	3498.06
1014.514	3486.31
1014.807	3456.25
1015.099	3423.26
1015.391	3381.45
1015.683	3399.08
1015.976	3331.06
1016.268	3345.52
1016.56	3294.22
1016.851	3236.37
1017.143	3293.09
1017.435	3246.76
1017.727	3235.01
1018.018	3197.73
1018.31	3195.47
1018.602	3178.74
1018.893	3185.07
1019.185	3107.56
1019.476	3119.99
1019.767	3094.23
1020.058	3053.32
1020.35	3039.09
1020.641	2981.69
1020.932	3004.06
1021.223	2935.59
1021.514	2944.17
1021.804	2913.21
1022.095	2922.03
1022.386	2870.73
1022.677	2833.44
1022.967	2868.47
1023.258	2814.46
1023.548	2759.55
1023.839	2793.44
1024.129	2782.14
1024.419	2745.99
1024.709	2727.68
1025	2683.39
1025.29	2705.76
1025.58	2673.45
1025.87	2619.44
1026.16	2615.82
1026.449	2606.78
1026.739	2568.82
1027.029	2535.37
1027.319	2524.98
1027.608	2495.6
1027.898	2510.97
1028.187	2463.96
1028.477	2445.88
1028.766	2433.45
1029.055	2397.3
1029.344	2416.28
1029.634	2383.28
1029.923	2343.06
1030.212	2361.82
1030.501	2360.23
1030.79	2279.11
1031.078	2288.82
1031.367	2262.61
1031.656	2258.32
1031.945	2262.38
1032.233	2250.86
1032.522	2214.48
1032.81	2218.77
1033.099	2202.72
1033.387	2167.02
1033.675	2175.15
1033.963	2110.98
1034.251	2120.92
1034.54	2104.65
1034.828	2127.25
1035.116	2084.99
1035.403	2061.03
1035.691	2047.02
1035.979	2037.76
1036.267	2033.69
1036.554	1990.53
1036.842	2007.93
1037.129	1957.99
1037.417	1962.5
1037.704	1924.31
1037.992	1904.88
1038.279	1889.74
1038.566	1883.64
1038.853	1883.64
1039.14	1883.64
