Data from copper_heatsink_FLMS001491_066.txt Node
Date: Tue Feb 07 10:50:22 GMT 2017
User: dcchb
Spectrometer: FLMS00149
Trigger mode: 0
Integration Time (sec): 2.000000E-2
Scans to average: 10
Electric dark correction enabled: true
Nonlinearity correction enabled: false
Boxcar width: 0
XAxis mode: Wavelengths
Number of Pixels in Spectrum: 2048
>>>>>Begin Spectral Data<<<<<
341.393	-18.94
341.776	-18.94
342.16	-18.94
342.543	-50.58
342.927	-63.01
343.31	-61.42
343.693	-77.92
344.077	-52.84
344.46	-65.27
344.843	-45.83
345.226	-30.69
345.61	-30.69
345.993	-22.1
346.376	-12.16
346.759	17.44
347.142	31
347.525	40.04
347.908	82.98
348.291	61.74
348.674	81.4
349.057	84.33
349.44	143.99
349.823	149.87
350.206	179.25
350.588	198
350.971	220.15
351.354	222.41
351.737	252.01
352.119	238
352.502	262.86
352.884	258.79
353.267	282.97
353.65	282.07
354.032	304.89
354.414	305.35
354.797	330.88
355.179	336.53
355.562	330.66
355.944	312.58
356.326	336.76
356.709	320.03
357.091	339.24
357.473	356.19
357.855	343.08
358.238	350.09
358.62	328.62
359.002	364.55
359.384	362.29
359.766	354.61
360.148	355.06
360.53	339.24
360.912	323.42
361.294	326.81
361.676	357.32
362.057	336.08
362.439	328.62
362.821	323.42
363.203	332.24
363.584	325.91
363.966	312.8
364.348	345.57
364.729	326.59
365.111	313.03
365.493	319.58
365.874	314.16
366.256	309.19
366.637	310.09
367.019	300.15
367.4	297.66
367.781	294.27
368.163	322.07
368.544	308.28
368.925	303.31
369.306	323.2
369.688	331.56
370.069	315.97
370.45	327.72
370.831	306.02
371.212	326.36
371.593	317.55
371.974	320.49
372.355	304.44
372.736	315.74
373.117	321.16
373.498	310.77
373.879	318.9
374.26	311.22
374.641	326.14
375.021	317.77
375.402	346.25
375.783	324.33
376.163	349.41
376.544	310.77
376.925	335.63
377.305	311.9
377.686	325.68
378.066	337.43
378.447	320.94
378.827	330.43
379.208	330.2
379.588	343.08
379.968	344.21
380.349	330.88
380.729	342.41
381.109	339.92
381.489	339.69
381.87	349.86
382.25	355.29
382.63	362.97
383.01	346.7
383.39	357.32
383.77	366.81
384.15	334.95
384.53	329.53
384.91	350.09
385.29	349.86
385.67	346.25
386.049	370.2
386.429	352.12
386.809	328.62
387.189	356.87
387.568	348.96
387.948	331.79
388.328	355.06
388.707	361.39
389.087	370.88
389.466	358.23
389.846	381.73
390.225	355.97
390.605	384.67
390.984	354.61
391.363	368.39
391.743	351.45
392.122	380.82
392.501	376.98
392.881	370.43
393.26	391.9
393.639	379.24
394.018	388.28
394.397	385.79
394.776	383.76
395.155	376.53
395.534	373.59
395.913	380.6
396.292	369.75
396.671	386.02
397.05	395.74
397.429	372.24
397.808	393.25
398.186	375.63
398.565	391.44
398.944	388.05
399.323	390.99
399.701	383.08
400.08	395.74
400.458	394.61
400.837	400.94
401.215	386.02
401.594	427.83
401.972	372.91
402.351	399.35
402.729	389.41
403.107	418.56
403.486	397.77
403.864	380.6
404.242	397.77
404.62	397.77
404.999	420.6
405.377	395.29
405.755	397.09
406.133	409.07
406.511	390.77
406.889	418.79
407.267	433.7
407.645	407.26
408.023	429.64
408.401	418.11
408.779	423.99
409.156	424.66
409.534	440.48
409.912	430.99
410.29	441.16
410.667	444.1
411.045	448.84
411.422	441.16
411.8	428.28
412.178	467.15
412.555	479.13
412.933	445.68
413.31	456.3
413.687	439.58
414.065	463.08
414.442	432.35
414.819	455.62
415.197	477.77
415.574	470.31
415.951	484.78
416.328	475.06
416.705	469.86
417.082	462.4
417.46	470.54
417.837	482.52
418.214	503.31
418.591	494.72
418.967	490.88
419.344	478
419.721	489.07
420.098	468.73
420.475	493.81
420.852	527.03
421.228	518.22
421.605	506.24
421.982	491.55
422.358	491.1
422.735	506.7
423.111	491.55
423.488	531.33
423.864	518.9
424.241	506.92
424.617	512.57
424.994	530.2
425.37	526.81
425.746	527.03
426.123	539.24
426.499	527.71
426.875	524.55
427.251	508.28
427.627	527.94
428.003	537.2
428.379	549.18
428.756	549.63
429.132	569.97
429.507	536.75
429.883	546.69
430.259	552.12
430.635	553.7
431.011	571.33
431.387	570.42
431.763	586.24
432.138	577.65
432.514	583.53
432.89	559.8
433.265	574.94
433.641	583.08
434.016	587.15
434.392	592.12
434.767	609.74
435.143	601.38
435.518	613.13
435.894	605.9
436.269	628.27
436.644	600.03
437.02	615.62
437.395	615.39
437.77	634.83
438.145	633.47
438.52	632.57
438.895	665.11
439.271	649.29
439.646	643.42
440.021	646.35
440.395	639.57
440.77	648.16
441.145	667.37
441.52	687.93
441.895	654.94
442.27	641.61
442.645	659.91
443.019	673.92
443.394	673.25
443.769	699.91
444.143	663.75
444.518	693.13
444.892	688.39
445.267	683.19
445.641	678.67
446.016	676.18
446.39	681.83
446.764	693.81
447.139	696.97
447.513	718.67
447.887	714.6
448.262	707.59
448.636	709.4
449.01	738.78
449.384	722.51
449.758	732.68
450.132	710.98
450.506	736.75
450.88	729.51
451.254	721.38
451.628	756.18
452.002	759.57
452.376	757.31
452.75	773.81
453.123	760.93
453.497	775.16
453.871	795.95
454.244	791.43
454.618	786.01
454.992	772.68
455.365	789.17
455.739	800.25
456.112	802.28
456.486	841.83
456.859	812.9
457.232	854.03
457.606	823.07
457.979	841.83
458.352	872.56
458.725	866.23
459.099	853.81
459.472	870.53
459.845	885.44
460.218	892.9
460.591	883.41
460.964	898.1
461.337	908.49
461.71	914.59
462.083	922.05
462.456	932.22
462.829	949.17
463.201	922.28
463.574	957.31
463.947	941.71
464.32	973.35
464.692	997.76
465.065	972.67
465.438	978.32
465.81	1011.77
466.183	1029.62
466.555	1035.95
466.928	1028.94
467.3	1010.41
467.672	1064.65
468.045	1051.09
468.417	1063.29
468.789	1051.54
469.161	1082.05
469.534	1087.7
469.906	1106
470.278	1115.04
470.65	1123.85
471.022	1168.15
471.394	1152.78
471.766	1168.6
472.138	1207.92
472.51	1213.57
472.882	1203.4
473.253	1221.93
473.625	1249.73
473.997	1260.12
474.369	1251.08
474.74	1289.27
475.112	1286.34
475.484	1332.66
475.855	1349.39
476.227	1371.31
476.598	1414.69
476.97	1417.86
477.341	1414.02
477.713	1440.91
478.084	1432.1
478.455	1460.79
478.827	1476.61
479.198	1507.57
479.569	1489.49
479.94	1550.28
480.311	1564.3
480.682	1608.36
481.053	1624.41
481.424	1649.26
481.795	1675.03
482.166	1697.4
482.537	1695.59
482.908	1739.88
483.279	1781.24
483.65	1752.99
484.021	1798.87
484.391	1846.77
484.762	1830.28
485.133	1869.6
485.503	1877.28
485.874	1911.86
486.244	1909.82
486.615	1944.17
486.985	2011.74
487.356	2046.54
487.726	2042.25
488.097	2095.81
488.467	2133.55
488.837	2133.77
489.207	2129.7
489.578	2218.29
489.948	2162.92
490.318	2209.93
490.688	2231.62
491.058	2242.47
491.428	2269.14
491.798	2317.72
492.168	2342.35
492.538	2351.62
492.908	2424.39
493.278	2459.86
493.648	2452.18
494.017	2458.96
494.387	2477.27
494.757	2471.39
495.126	2520.2
495.496	2539.41
495.866	2545.06
496.235	2602.01
496.605	2571.95
496.974	2643.36
497.344	2619.18
497.713	2675
498.082	2697.6
498.452	2700.76
498.821	2723.36
499.19	2700.99
499.559	2767.43
499.928	2762.23
500.298	2809.01
500.667	2858.95
501.036	2823.92
501.405	2843.81
501.774	2874.32
502.143	2869.35
502.512	2890.14
502.88	2954.31
503.249	2925.39
503.618	2967.87
503.987	2983.92
504.356	3053.07
504.724	3026.86
505.093	3098.94
505.462	3093.75
505.83	3076.12
506.199	3131.71
506.567	3167.19
506.936	3129.45
507.304	3204.25
507.672	3161.77
508.041	3253.29
508.409	3230.69
508.777	3277.02
509.145	3276.11
509.514	3250.58
509.882	3314.31
510.25	3308.66
510.618	3338.03
510.986	3390.24
511.354	3420.97
511.722	3429.56
512.09	3472.27
512.458	3511.59
512.826	3540.06
513.193	3527.86
513.561	3529.89
513.929	3578.25
514.297	3631.36
514.664	3665.71
515.032	3678.14
515.4	3689.21
515.767	3729.66
516.135	3771.24
516.502	3724.46
516.869	3779.38
517.237	3793.61
517.604	3804.69
517.972	3817.57
518.339	3883.78
518.706	3917
519.073	3910.45
519.44	3919.71
519.808	4000.16
520.175	4034.96
520.542	3994.29
520.909	4046.26
521.276	4130.1
521.643	4139.37
522.009	4134.85
522.376	4166.26
522.743	4186.37
523.11	4284.22
523.477	4305.47
523.843	4341.85
524.21	4383.2
524.577	4434.73
524.943	4465.01
525.31	4496.87
525.676	4504.1
526.043	4540.71
526.409	4548.85
526.776	4663.2
527.142	4725.12
527.508	4666.36
527.874	4739.35
528.241	4767.15
528.607	4777.77
528.973	4767.37
529.339	4810.09
529.705	4871.33
530.071	4913.36
530.437	4940.48
530.803	4980.25
531.169	5017.09
531.535	5064.77
531.901	5092.79
532.267	5067.03
532.632	5103.64
532.998	5155.39
533.364	5202.39
533.73	5123.75
534.095	5243.97
534.461	5249.17
534.826	5287.59
535.192	5327.36
535.557	5338.66
535.923	5394.02
536.288	5418.2
536.653	5464.08
537.019	5448.49
537.384	5451.65
537.749	5497.3
538.114	5531.2
538.479	5582.49
538.845	5636.05
539.21	5630.4
539.575	5622.95
539.94	5684.86
540.305	5697.75
540.67	5735.48
541.034	5733.9
541.399	5788.59
541.764	5794.47
542.129	5871.98
542.494	5875.37
542.858	5878.08
543.223	5961.69
543.587	5984.07
543.952	5952.65
544.316	6037.85
544.681	6018.64
545.045	6153.78
545.41	6113.78
545.774	6202.59
546.138	6186.55
546.503	6203.5
546.867	6266.54
547.231	6322.81
547.595	6378.86
547.959	6403.49
548.324	6422.47
548.688	6392.64
549.052	6415.01
549.416	6511.06
549.779	6529.36
550.143	6596.71
550.507	6625.4
550.871	6669.25
551.235	6689.36
551.599	6711.5
551.962	6812.07
552.326	6820.88
552.689	6936.13
553.053	6901.1
553.417	6944.49
553.78	7104.04
554.143	7083.92
554.507	7135.45
554.87	7203.69
555.234	7202.34
555.597	7290.7
555.96	7316.91
556.323	7373.18
556.686	7437.81
557.05	7501.09
557.413	7642.33
557.776	7677.81
558.139	7749.44
558.502	7792.38
558.865	7818.82
559.228	7944.69
559.59	7983.34
559.953	8028.76
560.316	8154.4
560.679	8192.37
561.041	8244.8
561.404	8335.87
561.767	8449.76
562.129	8471.01
562.492	8625.58
562.854	8655.41
563.217	8645.69
563.579	8813.6
563.941	8913.93
564.304	8955.29
564.666	9007.94
565.028	9169.29
565.39	9192.34
565.753	9320.02
566.115	9357.31
566.477	9472.34
566.839	9626.46
567.201	9654.03
567.563	9685.44
567.925	9807.02
568.287	9861.93
568.648	9937.63
569.01	10071.19
569.372	10195.25
569.734	10222.37
570.095	10254.46
570.457	10475.25
570.819	10489.71
571.18	10508.47
571.542	10658.29
571.903	10779.42
572.265	10874.33
572.626	10889.25
572.987	10932.64
573.349	11012.41
573.71	11144.38
574.071	11190.71
574.432	11337.37
574.794	11536.46
575.155	11506.41
575.516	11558.83
575.877	11629.79
576.238	11705.5
576.599	11860.52
576.96	11871.59
577.32	11981.42
577.681	12166.05
578.042	12082.66
578.403	12133.73
578.763	12209.21
579.124	12361.75
579.485	12375.31
579.845	12399.72
580.206	12537.34
580.566	12495.98
580.927	12662.31
581.287	12728.97
581.648	12695.98
582.008	12843.55
582.368	12886.03
582.728	12940.49
583.089	12993.83
583.449	13028.4
583.809	13043.09
584.169	13230.65
584.529	13166.48
584.889	13346.58
585.249	13260.03
585.609	13318.11
585.969	13547.26
586.329	13457.77
586.688	13611.21
587.048	13557.88
587.408	13535.73
587.768	13642.4
588.127	13701.6
588.487	13671.55
588.846	13819.34
589.206	13839.68
589.565	13872.45
589.925	13921.03
590.284	13938.43
590.643	13998.32
591.003	14056.4
591.362	14154.7
591.721	14152.44
592.08	14246.45
592.44	14221.36
592.799	14304.98
593.158	14284.41
593.517	14379.1
593.876	14325.54
594.235	14398.08
594.593	14535.93
594.952	14576.16
595.311	14615.93
595.67	14537.97
596.029	14644.18
596.387	14733.44
596.746	14761.91
597.104	14789.03
597.463	14747.9
597.822	14924.4
598.18	14931.85
598.538	14911.06
598.897	15032.19
599.255	15012.3
599.613	15248.45
599.972	15183.15
600.33	15171.39
600.688	15201.22
601.046	15272.86
601.404	15340.66
601.762	15292.52
602.12	15431.28
602.478	15430.15
602.836	15452.97
603.194	15455.91
603.552	15514.44
603.91	15431.28
604.268	15676.01
604.625	15610.71
604.983	15742.23
605.341	15703.13
605.698	15816.8
606.056	15849.57
606.413	15883.92
606.771	15918.49
607.128	15997.81
607.485	16050.92
607.843	15994.65
608.2	16207.98
608.557	16206.4
608.914	16171.59
609.272	16248.43
609.629	16253.17
609.986	16453.62
610.343	16397.35
610.7	16497.69
611.057	16522.32
611.414	16544.92
611.771	16616.55
612.127	16700.62
612.484	16728.64
612.841	16687.51
613.198	16673.05
613.554	16687.06
613.911	16887.96
614.267	16944.23
614.624	16878.24
614.98	16977.68
615.337	17169.99
615.693	17112.59
616.05	17076.66
616.406	17261.06
616.762	17230.1
617.118	17184
617.475	17264.45
617.831	17365.46
618.187	17331.79
618.543	17338.34
618.899	17443.65
619.255	17608.84
619.611	17605.91
619.967	17523.88
620.323	17652.23
620.678	17534.95
621.034	17654.72
621.39	17585.12
621.746	17677.09
622.101	17913.24
622.457	17708.05
622.812	17846.58
623.168	17776.07
623.523	17786.92
623.879	17939.46
624.234	17791.89
624.589	17896.97
624.945	18003.86
625.3	18047.7
625.655	17967.71
626.01	17981.49
626.365	18028.72
626.72	18066.91
627.075	18043.86
627.43	18028.04
627.785	18011.55
628.14	18126.12
628.495	18207.02
628.85	18155.27
629.205	18084.31
629.559	18248.83
629.914	18212.9
630.269	18267.58
630.623	18221.94
630.978	18248.83
631.332	18288.6
631.687	18401.59
632.041	18301.93
632.396	18303.06
632.75	18289.05
633.104	18373.8
633.459	18352.33
633.813	18210.86
634.167	18356.62
634.521	18269.62
634.875	18307.81
635.229	18369.95
635.583	18308.94
635.937	18323.63
636.291	18334.93
636.645	18371.99
636.999	18288.15
637.352	18442.72
637.706	18172.9
638.06	18403.4
638.413	18325.66
638.767	18223.97
639.121	18352.33
639.474	18265.1
639.828	18374.02
640.181	18294.7
640.534	18323.63
640.888	18260.35
641.241	18300.58
641.594	18389.62
641.947	18372.44
642.301	18317.75
642.654	18427.35
643.007	18421.48
643.36	18423.51
643.713	18414.93
644.066	18515.94
644.419	18344.64
644.771	18217.64
645.124	18012.9
645.477	17976.74
645.83	17850.87
646.182	17928.61
646.535	17922.28
646.888	18056.06
647.24	17909.63
647.593	18067.36
647.945	17977.65
648.298	17948.72
648.65	17960.93
649.002	17889.74
649.355	17948.05
649.707	17857.2
650.059	17927.25
650.411	18121.37
650.763	18158.89
651.115	18467.35
651.467	18409.73
651.819	18371.54
652.171	18293.57
652.523	18326.57
652.875	18267.13
653.227	18241.82
653.578	18432.78
653.93	18301.71
654.282	18275.95
654.633	18313.69
654.985	18287.02
655.337	18351.65
655.688	18359.56
656.039	18420.12
656.391	18288.15
656.742	18340.58
657.094	18444.53
657.445	18423.74
657.796	18458.77
658.147	18410.18
658.498	18488.37
658.849	18388.26
659.2	18433
659.551	18405.66
659.902	18431.87
660.253	18366.57
660.604	18474.58
660.955	18337.87
661.306	18413.12
661.656	18485.66
662.007	18458.09
662.358	18429.16
662.708	18501.93
663.059	18580.12
663.409	18419.22
663.76	18604.98
664.11	18581.02
664.461	18570.4
664.811	18572.21
665.161	18567.69
665.511	18495.6
665.862	18649.5
666.212	18694.24
666.562	18717.74
666.912	18579.21
667.262	18556.39
667.612	18560.23
667.962	18739.44
668.312	18688.14
668.662	18767.01
669.011	18705.99
669.361	18654.69
669.711	18674.81
670.06	18694.01
670.41	18660.34
670.76	18694.69
671.109	18715.93
671.459	18744.41
671.808	18685.2
672.157	18685.88
672.507	18699.89
672.856	18637.07
673.205	18661.92
673.554	18813.11
673.904	18758.87
674.253	18825.99
674.602	18810.62
674.951	18517.97
675.3	18421.93
675.649	18852.65
675.998	18747.8
676.346	18844.52
676.695	18902.14
677.044	18693.79
677.393	18811.75
677.741	18750.96
678.09	18820.56
678.438	18887.23
678.787	18720.68
679.135	18837.97
679.484	18628.25
679.832	18850.85
680.181	18724.3
680.529	18810.17
680.877	18752.54
681.225	18807.46
681.573	18864.86
681.922	18741.24
682.27	18711.19
682.618	18736.27
682.966	18682.94
683.314	18712.77
683.661	18658.31
684.009	18601.59
684.357	18661.02
684.705	18691.3
685.053	18565.2
685.4	18615.37
685.748	18569.27
686.095	18517.52
686.443	18482.27
686.79	18425.55
687.138	18506.22
687.485	18557.75
687.832	18408.37
688.18	18610.85
688.527	18468.94
688.874	18472.78
689.221	18348.94
689.568	18394.59
689.915	18328.15
690.262	18443.17
690.609	18298.32
690.956	18322.05
691.303	18247.47
691.65	18147.36
691.997	18246.57
692.344	18055.16
692.69	18223.52
693.037	18150.53
693.383	18119.79
693.73	18128.15
694.077	18016.97
694.423	18062.39
694.769	18085.89
695.116	18018.1
695.462	17915.05
695.808	17857.88
696.155	17961.83
696.501	17762.06
696.847	17880.93
697.193	17705.57
697.539	17801.61
697.885	17754.83
698.231	17671.89
698.577	17668.5
698.923	17686.81
699.269	17567.94
699.614	17505.12
699.96	17508.51
700.306	17575.85
700.651	17476.42
700.997	17340.6
701.342	17357.33
701.688	17379.25
702.033	17302.19
702.379	17316.88
702.724	17317.78
703.069	17365.46
703.415	17160.04
703.76	17145.13
704.105	17248.18
704.45	17111
704.795	17072.14
705.14	17026.26
705.485	17136.31
705.83	16934.06
706.175	17127.05
706.52	17048.86
706.865	16970.44
707.209	16923.21
707.554	16919.6
707.899	16967.51
708.243	16864.01
708.588	16858.58
708.932	16755.53
709.277	16679.83
709.621	16712.37
709.966	16631.7
710.31	16706.95
710.654	16638.7
710.998	16718.25
711.342	16664.91
711.687	16666.5
712.031	16565.26
712.375	16519.61
712.719	16542.43
713.063	16574.97
713.407	16621.3
713.75	16510.34
714.094	16509.21
714.438	16443.23
714.782	16427.18
715.125	16257.69
715.469	16374.08
715.812	16309.22
716.156	16259.95
716.499	16347.18
716.843	16271.93
717.186	16186.51
717.53	16272.16
717.873	16250.46
718.216	16238.26
718.559	16096.12
718.902	16047.98
719.246	16154.87
719.589	16186.06
719.932	16072.61
720.275	16096.12
720.617	16116
720.96	16044.82
721.303	16144.7
721.646	16083.91
721.989	16043.01
722.331	16066.06
722.674	15984.48
723.016	16014.99
723.359	15984.25
723.701	16074.65
724.044	15872.39
724.386	15800.08
724.729	15870.59
725.071	15876.69
725.413	15805.5
725.755	15902.22
726.097	15925.73
726.439	15760.08
726.782	15799.63
727.124	15884.82
727.465	15771.61
727.807	15864.48
728.149	15896.57
728.491	15734.54
728.833	15839.4
729.175	15740.65
729.516	15726.18
729.858	15755.56
730.199	15739.74
730.541	15761.89
730.882	15633.98
731.224	15806.41
731.565	15606.19
731.906	15730.93
732.248	15719.18
732.589	15666.75
732.93	15657.03
733.271	15593.3
733.612	15670.36
733.953	15613.87
734.294	15645.73
734.635	15650.03
734.976	15604.83
735.317	15570.03
735.658	15522.8
735.999	15478.51
736.339	15468.34
736.68	15504.27
737.021	15535.68
737.361	15432.18
737.702	15551.27
738.042	15513.31
738.383	15468.56
738.723	15509.47
739.063	15448.9
739.404	15455.68
739.744	15403.03
740.084	15395.34
740.424	15533.87
740.764	15422.24
741.104	15506.53
741.444	15481.9
741.784	15417.94
742.124	15392.18
742.464	15361.9
742.804	15382.01
743.143	15450.26
743.483	15424.95
743.823	15291.39
744.162	15293.65
744.502	15279.41
744.841	15392.18
745.181	15284.16
745.52	15239.64
745.86	15352.63
746.199	15177.27
746.538	15187.21
746.877	15179.53
747.216	15215.69
747.556	15142.92
747.895	15119.19
748.234	15076.93
748.573	15118.29
748.911	15088.46
749.25	15067.44
749.589	15098.4
749.928	15080.1
750.267	14968.91
750.605	15108.12
750.944	15013.21
751.283	14948.12
751.621	14972.53
751.96	14849.82
752.298	14864.28
752.636	14835.81
752.975	14859.76
753.313	14847.34
753.651	15008.69
753.989	14748.58
754.327	14868.8
754.666	14726.89
755.004	14743.16
755.342	14731.63
755.679	14747.68
756.017	14615.93
756.355	14769.37
756.693	14697.51
757.031	14637.4
757.368	14608.25
757.706	14628.81
758.044	14571.18
758.381	14596.72
758.719	14543.39
759.056	14628.81
759.394	14413.9
759.731	14400.34
760.068	14392.66
760.405	14410.96
760.743	14445.09
761.08	14464.52
761.417	14304.3
761.754	14248.03
762.091	14297.75
762.428	14335.48
762.765	14213.23
763.102	14332.32
763.438	14245.77
763.775	14236.73
764.112	14226.11
764.449	14205.54
764.785	14115.15
765.122	14019.56
765.458	13959.68
765.795	14019.79
766.131	13926
766.467	13871.54
766.804	13817.31
767.14	13767.14
767.476	13726.46
767.812	13703.86
768.148	13765.1
768.485	13677.42
768.821	13598.78
769.157	13642.17
769.492	13543.19
769.828	13521.04
770.164	13473.59
770.5	13450.31
770.836	13459.8
771.171	13434.72
771.507	13345.68
771.842	13269.75
772.178	13330.77
772.513	13329.86
772.849	13191.11
773.184	13183.88
773.519	13303.2
773.855	13200.6
774.19	13094.84
774.525	13036.76
774.86	13046.03
775.195	12997.67
775.53	13036.31
775.865	12858.69
776.2	12879.03
776.535	12687.62
776.87	12784.79
777.205	12672.25
777.539	12622.54
777.874	12687.39
778.209	12643.1
778.543	12604.91
778.878	12604.68
779.212	12542.31
779.547	12413.28
779.881	12471.13
780.215	12418.25
780.55	12519.94
780.884	12486.49
781.218	12430.45
781.552	12447.62
781.886	12293.28
782.22	12302.54
782.554	12240.62
782.888	12079.72
783.222	12070.46
783.556	12142.77
783.889	12079.95
784.223	11925.83
784.557	11942.55
784.89	11855.55
785.224	11912.27
785.557	11817.81
785.891	11876.34
786.224	11806.29
786.558	11832.95
786.891	11782.33
787.224	11713.86
787.557	11675.89
787.891	11585.27
788.224	11665.72
788.557	11650.81
788.89	11665.72
789.223	11643.8
789.556	11553.64
789.888	11488.1
790.221	11451.27
790.554	11386.18
790.887	11359.52
791.219	11372.62
791.552	11331.27
791.884	11297.82
792.217	11354.55
792.549	11248.56
792.882	11225.06
793.214	11113.87
793.546	11059.86
793.879	11075.68
794.211	11151.84
794.543	11107.32
794.875	11114.1
795.207	11095.8
795.539	11052.18
795.871	10973.99
796.203	10951.17
796.535	10898.51
796.867	10843.6
797.198	10845.86
797.53	10846.31
797.862	10802.7
798.193	10839.76
798.525	10795.24
798.856	10794.56
799.188	10654
799.519	10629.37
799.85	10557.5
800.182	10590.95
800.513	10617.39
800.844	10522.48
801.175	10635.02
801.506	10595.92
801.837	10553.89
802.168	10526.32
802.499	10458.52
802.83	10399.77
803.161	10362.26
803.491	10392.99
803.822	10345.99
804.153	10345.76
804.483	10242.48
804.814	10233.22
805.145	10251.3
805.475	10241.36
805.805	10166.55
806.136	10117.74
806.466	10083.85
806.796	10132.66
807.126	10120.68
807.457	10047.91
807.787	10076.39
808.117	10091.3
808.447	10000.01
808.777	9996.84
809.107	10017.63
809.436	9946.22
809.766	9961.36
810.096	9988.48
810.426	9866.45
810.755	9986.22
811.085	9942.83
811.414	9907.35
811.744	9817.19
812.073	9809.73
812.403	9785.1
812.732	9778.54
813.061	9805.21
813.39	9721.59
813.719	9719.79
814.049	9668.49
814.378	9750.07
814.707	9654.25
815.036	9666.45
815.365	9624.65
815.693	9557.76
816.022	9566.34
816.351	9563.63
816.68	9405.9
817.008	9514.14
817.337	9402.06
817.665	9397.08
817.994	9522.96
818.322	9451.55
818.651	9494.26
818.979	9371.1
819.307	9398.89
819.636	9350.53
819.964	9346.92
820.292	9409.51
820.62	9419.68
820.948	9353.47
821.276	9379.46
821.604	9389.63
821.932	9364.32
822.259	9404.31
822.587	9398.44
822.915	9379.46
823.243	9436.86
823.57	9357.08
823.898	9386.46
824.225	9394.82
824.553	9364.09
824.88	9394.37
825.207	9401.15
825.535	9333.36
825.862	9389.63
826.189	9372.45
826.516	9428.72
826.843	9452.9
827.17	9473.92
827.497	9427.82
827.824	9412.68
828.151	9449.96
828.478	9446.35
828.805	9521.83
829.131	9410.87
829.458	9448.38
829.785	9424.2
830.111	9426.01
830.438	9499
830.764	9493.8
831.09	9516.85
831.417	9437.53
831.743	9504.65
832.069	9462.62
832.395	9442.51
832.722	9515.27
833.048	9384.43
833.374	9512.79
833.7	9418.55
834.026	9452.9
834.351	9513.69
834.677	9438.44
835.003	9451.09
835.329	9527.93
835.654	9470.53
835.98	9388.95
836.306	9457.19
836.631	9422.39
836.956	9433.01
837.282	9427.82
837.607	9360.25
837.932	9353.02
838.258	9470.98
838.583	9388.72
838.908	9321.83
839.233	9381.94
839.558	9313.24
839.883	9280.48
840.208	9221.49
840.533	9318.44
840.858	9304.2
841.182	9320.25
841.507	9300.14
841.832	9284.32
842.156	9260.82
842.481	9336.52
842.805	9250.42
843.13	9247.03
843.454	9325.67
843.778	9197.77
844.103	9195.96
844.427	9224.21
844.751	9156.64
845.075	9209.74
845.399	9182.4
845.723	9044.78
846.047	9050.65
846.371	8980.15
846.695	9015.4
847.019	8950.09
847.343	8949.86
847.666	8881.39
847.99	8842.07
848.313	8871.9
848.637	8838
848.96	8843.2
849.284	8800.94
849.607	8746.71
849.931	8692.7
850.254	8654.05
850.577	8672.36
850.9	8586.71
851.223	8585.58
851.546	8530.21
851.869	8532.25
852.192	8572.25
852.515	8446.6
852.838	8442.08
853.161	8437.79
853.483	8458.8
853.806	8401.18
854.129	8405.92
854.451	8402.99
854.774	8351.24
855.096	8327.51
855.419	8310.56
855.741	8271.01
856.063	8274.4
856.385	8274.18
856.708	8195.08
857.03	8200.05
857.352	8165.25
857.674	8132.48
857.996	8117.57
858.318	8099.94
858.64	8083.22
858.961	8109.43
859.283	8050.68
859.605	8015.2
859.926	8090
860.248	8033.5
860.57	7924.81
860.891	8020.4
861.212	7949.89
861.534	7960.29
861.855	7896.56
862.176	7965.26
862.498	7980.62
862.819	7992.83
863.14	7902.43
863.461	7906.95
863.782	7898.14
864.103	7878.48
864.424	7813.17
864.745	7869.44
865.065	7773.17
865.386	7765.04
865.707	7722.33
866.027	7783.34
866.348	7752.61
866.668	7782.21
866.989	7723.23
867.309	7695.66
867.63	7730.01
867.95	7713.29
868.27	7650.91
868.59	7688.65
868.91	7762.55
869.23	7680.74
869.55	7663.57
869.87	7743.57
870.19	7660.41
870.51	7687.98
870.83	7661.08
871.15	7576.79
871.469	7586.06
871.789	7605.94
872.109	7692.5
872.428	7553.06
872.748	7663.8
873.067	7656.11
873.386	7576.11
873.706	7602.78
874.025	7568.2
874.344	7510.81
874.663	7510.58
874.982	7557.81
875.301	7523.91
875.62	7522.33
875.939	7525.27
876.258	7557.36
876.577	7481.65
876.896	7507.19
877.214	7459.73
877.533	7451.6
877.852	7507.87
878.17	7488.21
878.489	7429.23
878.807	7429.45
879.125	7440.3
879.444	7393.29
879.762	7373.86
880.08	7528.21
880.398	7437.13
880.716	7391.94
881.034	7389.9
881.352	7379.51
881.67	7376.12
881.988	7316.46
882.306	7285.73
882.624	7348.55
882.941	7306.52
883.259	7256.35
883.577	7183.13
883.894	7239.17
884.212	7269.46
884.529	7278.72
884.846	7236.69
885.164	7230.59
885.481	7249.34
885.798	7185.62
886.115	7157.82
886.432	7218.16
886.75	7167.31
887.067	7193.3
887.383	7129.35
887.7	7155.11
888.017	7053.87
888.334	7171.61
888.651	7053.42
888.967	7107.88
889.284	7001.21
889.6	7035.34
889.917	6916.02
890.233	6984.72
890.55	6982.46
890.866	6945.85
891.182	6951.27
891.498	6938.84
891.815	6904.49
892.131	6911.05
892.447	6869.47
892.763	6854.55
893.079	6844.16
893.395	6847.32
893.71	6811.39
894.026	6752.63
894.342	6804.61
894.657	6767.77
894.973	6757.15
895.289	6777.49
895.604	6754.67
895.92	6696.59
896.235	6666.53
896.55	6670.15
896.865	6661.34
897.181	6578.63
897.496	6586.08
897.811	6558.97
898.126	6564.39
898.441	6541.11
898.756	6545.18
899.071	6441
899.386	6514.45
899.7	6466.09
900.015	6525.07
900.33	6428.8
900.644	6422.25
900.959	6444.84
901.273	6402.81
901.588	6349.48
901.902	6280.1
902.216	6276.49
902.531	6277.84
902.845	6234
903.159	6221.12
903.473	6216.38
903.787	6173.44
904.101	6177.73
904.415	6185.19
904.729	6142.93
905.042	6085.53
905.356	6109.49
905.67	6075.59
905.984	6100.67
906.297	6064.06
906.611	6006.21
906.924	5988.13
907.237	5982.48
907.551	5963.73
907.864	5911.53
908.177	5861.36
908.491	5937.97
908.804	5788.14
909.117	5845.99
909.43	5779.55
909.743	5782.94
910.056	5823.39
910.368	5739.1
910.681	5735.48
910.994	5706.11
911.307	5706.56
911.619	5692.32
911.932	5665.43
912.244	5652.1
912.557	5698.88
912.869	5673.34
913.181	5591.99
913.494	5653
913.806	5592.66
914.118	5642.61
914.43	5527.58
914.742	5517.86
915.054	5503.17
915.366	5439.45
915.678	5423.18
915.99	5419.11
916.302	5388.6
916.613	5364.65
916.925	5379.79
917.236	5362.84
917.548	5335.5
917.859	5321.26
918.171	5289.85
918.482	5276.97
918.794	5209.85
919.105	5248.04
919.416	5226.8
919.727	5235.38
920.038	5187.7
920.349	5192
920.66	5167.59
920.971	5110.87
921.282	5113.81
921.593	5022.51
921.903	5006.69
922.214	5039.46
922.525	5016.63
922.835	5015.5
923.146	5013.47
923.456	4957.43
923.767	4912.46
924.077	4931.44
924.387	4877.88
924.697	4940.25
925.008	4854.38
925.318	4846.69
925.628	4854.83
925.938	4835.4
926.248	4783.65
926.558	4760.82
926.867	4772.57
927.177	4785.91
927.487	4739.35
927.796	4725.79
928.106	4687.83
928.416	4628.62
928.725	4641.05
929.034	4630.66
929.344	4598.79
929.653	4617.1
929.962	4575.52
930.271	4569.87
930.581	4541.39
930.89	4505.01
931.199	4501.62
931.508	4500.49
931.817	4465.24
932.125	4459.59
932.434	4456.87
932.743	4423.43
933.051	4395.63
933.36	4381.85
933.669	4376.42
933.977	4351.57
934.286	4382.53
934.594	4318.8
934.902	4285.58
935.21	4322.64
935.519	4273.15
935.827	4308.86
936.135	4294.17
936.443	4192.93
936.751	4189.76
937.059	4167.16
937.367	4160.61
937.674	4182.08
937.982	4143.21
938.29	4123.1
938.597	4121.52
938.905	4090.78
939.213	4072.93
939.52	4049.88
939.827	4068.41
940.135	4050.56
940.442	4015.76
940.749	4041.74
941.056	4011.46
941.363	3945.48
941.67	3942.09
941.977	3958.13
942.284	3914.52
942.591	3923.33
942.898	3912.71
943.205	3886.72
943.511	3897.57
943.818	3867.06
944.125	3830.68
944.431	3804.69
944.738	3788.42
945.044	3818.25
945.35	3764.46
945.657	3717.46
945.963	3796.1
946.269	3763.79
946.575	3708.19
946.881	3696.44
947.187	3672.94
947.493	3689.44
947.799	3668.42
948.105	3651.25
948.41	3601.98
948.716	3618.03
949.022	3616.9
949.327	3626.39
949.633	3596.56
949.938	3575.77
950.244	3586.84
950.549	3545.26
950.854	3533.06
951.16	3501.19
951.465	3497.8
951.77	3466.84
952.075	3444.47
952.38	3465.26
952.685	3444.92
952.99	3393.17
953.294	3449.22
953.599	3395.89
953.904	3391.14
954.209	3378.26
954.513	3359.05
954.818	3359.05
955.122	3296.9
955.426	3266.17
955.731	3245.61
956.035	3306.62
956.339	3258.49
956.643	3295.32
956.948	3242.67
957.252	3229.11
957.556	3221.88
957.86	3192.05
958.163	3204.03
958.467	3189.34
958.771	3155.89
959.075	3177.36
959.378	3113.41
959.682	3145.5
959.985	3126.51
960.289	3153.63
960.592	3129.68
960.896	3125.84
961.199	3096.68
961.502	3086.06
961.805	3087.42
962.108	3034.31
962.411	3029.12
962.714	3013.52
963.017	3029.57
963.32	3014.65
963.623	2985.05
963.926	2994.31
964.228	2977.37
964.531	2929.23
964.833	2981.43
965.136	2922.45
965.438	2927.87
965.741	2921.1
966.043	2892.17
966.345	2847.88
966.648	2879.29
966.95	2846.97
967.252	2861.89
967.554	2794.32
967.856	2783.25
968.158	2773.98
968.46	2755.68
968.761	2774.66
969.063	2746.18
969.365	2762.68
969.666	2790.25
969.968	2765.17
970.269	2721.78
970.571	2733.08
970.872	2727.43
971.174	2672.74
971.475	2689.01
971.776	2710.25
972.077	2674.32
972.378	2680.42
972.679	2653.98
972.98	2644.49
973.281	2637.94
973.582	2668.45
973.883	2622.35
974.183	2608.79
974.484	2554.1
974.785	2542.12
975.085	2609.47
975.386	2539.64
975.686	2541.22
975.986	2524.95
976.287	2512.74
976.587	2503.03
976.887	2503.71
977.187	2500.99
977.487	2479.75
977.787	2449.47
978.087	2466.64
978.387	2464.61
978.687	2438.62
978.987	2423.93
979.286	2404.72
979.586	2405.85
979.885	2404.95
980.185	2419.87
980.484	2337.16
980.784	2401.56
981.083	2373.31
981.382	2361.34
981.682	2361.34
981.981	2327.66
982.28	2334.9
982.579	2317.72
982.878	2298.51
983.177	2292.19
983.475	2290.6
983.774	2253.54
984.073	2245.18
984.372	2240.89
984.67	2257.16
984.969	2264.16
985.267	2229.14
985.566	2208.12
985.864	2190.49
986.162	2167.89
986.461	2194.33
986.759	2166.99
987.057	2146.88
987.355	2119.99
987.653	2138.74
987.951	2176.48
988.249	2144.62
988.547	2164.96
988.844	2146.2
989.142	2113.21
989.44	2104.17
989.737	2101.91
990.035	2108.01
990.332	2065.3
990.63	2084.96
990.927	2035.7
991.224	2050.16
991.521	2002.7
991.819	2036.6
992.116	1988.46
992.413	2020.33
992.71	1985.3
993.006	1987.11
993.303	1973.78
993.6	2013.32
993.897	1960.89
994.193	1983.49
994.49	1964.06
994.787	1964.06
995.083	1947.11
995.379	1941.69
995.676	1948.69
995.972	1907.56
996.268	1929.48
996.565	1899.43
996.861	1880.22
997.157	1889.03
997.453	1894.23
997.749	1859.65
998.044	1836.38
998.34	1841.8
998.636	1867.34
998.932	1822.37
999.227	1820.79
999.523	1815.14
999.818	1816.94
1000.114	1786.21
1000.409	1760.45
1000.704	1768.36
1001	1764.97
1001.295	1750.05
1001.59	1780.56
1001.885	1735.36
1002.18	1709.38
1002.475	1718.19
1002.77	1691.3
1003.065	1690.39
1003.359	1663.05
1003.654	1688.81
1003.949	1668.93
1004.243	1663.5
1004.538	1629.6
1004.832	1624.41
1005.127	1649.26
1005.421	1627.12
1005.715	1597.51
1006.009	1640.45
1006.304	1596.38
1006.598	1592.54
1006.892	1587.8
1007.186	1548.25
1007.48	1572.88
1007.773	1550.28
1008.067	1566.55
1008.361	1548.7
1008.655	1549.38
1008.948	1539.89
1009.242	1513.45
1009.535	1530.85
1009.829	1498.76
1010.122	1496.73
1010.415	1520.68
1010.708	1486.56
1011.001	1480.23
1011.295	1462.38
1011.588	1488.14
1011.881	1440.68
1012.173	1417.18
1012.466	1430.29
1012.759	1431.42
1013.052	1436.84
1013.344	1436.16
1013.637	1399.1
1013.93	1406.79
1014.222	1387.12
1014.514	1406.33
1014.807	1363.85
1015.099	1351.42
1015.391	1369.05
1015.683	1346.9
1015.976	1359.55
1016.268	1355.94
1016.56	1332.89
1016.851	1317.3
1017.143	1307.58
1017.435	1329.95
1017.727	1320.23
1018.018	1283.4
1018.31	1262.16
1018.602	1260.57
1018.893	1261.48
1019.185	1245.43
1019.476	1236.85
1019.767	1255.15
1020.058	1226.45
1020.35	1216.06
1020.641	1213.8
1020.932	1195.04
1021.223	1202.27
1021.514	1190.52
1021.804	1207.02
1022.095	1160.92
1022.386	1210.41
1022.677	1203.17
1022.967	1182.84
1023.258	1141.93
1023.548	1170.18
1023.839	1103.52
1024.129	1146
1024.419	1128.37
1024.709	1115.95
1025	1102.84
1025.29	1071.43
1025.58	1085.21
1025.87	1071.88
1026.16	1072.1
1026.449	1079.34
1026.739	1061.71
1027.029	1072.78
1027.319	1061.48
1027.608	1070.52
1027.898	1053.35
1028.187	1017.19
1028.477	1038.43
1028.766	1042.73
1029.055	1002.28
1029.344	1014.48
1029.634	1004.54
1029.923	1001.15
1030.212	977.42
1030.501	988.94
1030.79	1008.6
1031.078	975.61
1031.367	965.67
1031.656	972.22
1031.945	979.45
1032.233	937.19
1032.522	950.75
1032.81	918.44
1033.099	939.9
1033.387	924.99
1033.675	925.44
1033.963	939.9
1034.251	929.74
1034.54	914.37
1034.828	915.72
1035.116	886.12
1035.403	894.93
1035.691	875.5
1035.979	885.22
1036.267	857.65
1036.554	868.72
1036.842	840.47
1037.129	869.85
1037.417	854.26
1037.704	851.32
1037.992	831.43
1038.279	827.37
1038.566	830.75
1038.853	830.75
1039.14	830.75
