Data from copper_heatsink_FLMS001491_067.txt Node
Date: Tue Feb 07 10:50:22 GMT 2017
User: dcchb
Spectrometer: FLMS00149
Trigger mode: 0
Integration Time (sec): 2.000000E-2
Scans to average: 10
Electric dark correction enabled: true
Nonlinearity correction enabled: false
Boxcar width: 0
XAxis mode: Wavelengths
Number of Pixels in Spectrum: 2048
>>>>>Begin Spectral Data<<<<<
341.393	-17.02
341.776	-17.02
342.16	-17.02
342.543	-54.76
342.927	-59.28
343.31	-49.33
343.693	-80.52
344.077	-87.53
344.46	-62.89
344.843	-42.1
345.226	-38.49
345.61	-39.39
345.993	-9.56
346.376	-3.91
346.759	7.61
347.142	24.11
347.525	34.96
347.908	52.81
348.291	96.2
348.674	93.49
349.057	104.56
349.44	106.37
349.823	149.08
350.206	162.19
350.588	191.56
350.971	202.18
351.354	233.37
351.737	215.06
352.119	258.45
352.502	243.76
352.884	259.81
353.267	245.8
353.65	287.61
354.032	282.41
354.414	314.5
354.797	285.35
355.179	322.63
355.562	320.6
355.944	329.41
356.326	349.3
356.709	327.38
357.091	333.25
357.473	330.09
357.855	357.21
358.238	353.37
358.62	337.32
359.002	329.19
359.384	338.68
359.766	352.24
360.148	353.82
360.53	334.16
360.912	320.82
361.294	330.77
361.676	329.86
362.057	342.07
362.439	347.49
362.821	318.57
363.203	349.75
363.584	318.57
363.966	321.05
364.348	333.71
364.729	310.88
365.111	323.99
365.493	318.34
365.874	335.51
366.256	297.77
366.637	317.89
367.019	302.75
367.4	318.11
367.781	321.05
368.163	329.41
368.544	323.76
368.925	327.6
369.306	315.63
369.688	301.39
370.069	310.66
370.45	315.4
370.831	305.46
371.212	334.38
371.593	310.43
371.974	329.41
372.355	288.96
372.736	308.4
373.117	313.14
373.498	323.31
373.879	313.14
374.26	317.89
374.641	321.73
375.021	315.85
375.402	306.14
375.783	311.79
376.163	347.49
376.544	320.37
376.925	325.57
377.305	331.9
377.686	318.34
378.066	338.68
378.447	329.19
378.827	335.51
379.208	339.81
379.588	314.27
379.968	322.18
380.349	310.43
380.729	332.35
381.109	355.85
381.489	331.67
381.87	338.45
382.25	339.13
382.63	323.31
383.01	329.64
383.39	347.04
383.77	324.89
384.15	343.88
384.53	338.45
384.91	342.75
385.29	339.13
385.67	346.36
386.049	354.5
386.429	353.37
386.809	351.11
387.189	338.45
387.568	353.14
387.948	369.64
388.328	354.04
388.707	356.98
389.087	353.82
389.466	348.17
389.846	373.25
390.225	369.41
390.605	356.53
390.984	360.37
391.363	359.92
391.743	368.06
392.122	368.06
392.501	362.63
392.881	382.29
393.26	376.19
393.639	365.34
394.018	387.49
394.397	373.7
394.776	387.04
395.155	382.97
395.534	368.51
395.913	396.08
396.292	399.47
396.671	393.37
397.05	387.94
397.429	407.15
397.808	364.67
398.186	375.51
398.565	382.07
398.944	395.17
399.323	393.37
399.701	383.65
400.08	396.53
400.458	390.43
400.837	363.31
401.215	378.45
401.594	374.61
401.972	391.78
402.351	391.56
402.729	419.13
403.107	394.04
403.486	395.85
403.864	406.02
404.242	410.77
404.62	390.2
404.999	394.04
405.377	423.42
405.755	397.66
406.133	406.02
406.511	407.83
406.889	434.95
407.267	409.18
407.645	424.1
408.023	412.35
408.401	431.56
408.779	448.05
409.156	409.86
409.534	435.17
409.912	412.57
410.29	435.62
410.667	431.1
411.045	443.99
411.422	464.1
411.8	445.34
412.178	436.98
412.555	430.2
412.933	447.15
413.31	469.75
413.687	463.65
414.065	453.93
414.442	450.76
414.819	444.44
415.197	464.78
415.574	443.76
415.951	450.09
416.328	460.48
416.705	453.93
417.082	465
417.46	493.7
417.837	466.81
418.214	470.2
418.591	459.13
418.967	485.34
419.344	464.78
419.721	492.57
420.098	482.85
420.475	505.9
420.852	498.9
421.228	451.89
421.605	494.15
421.982	489.41
422.358	497.54
422.735	497.54
423.111	510.42
423.488	517.43
423.864	498.22
424.241	496.87
424.617	528.5
424.994	506.81
425.37	507.94
425.746	499.13
426.123	534.83
426.499	538.9
426.875	528.05
427.251	516.98
427.627	536.41
428.003	522.85
428.379	553.36
428.756	538.67
429.132	549.97
429.507	560.14
429.883	540.03
430.259	541.84
430.635	562.63
431.011	541.16
431.387	563.3
431.763	566.24
432.138	571.44
432.514	562.63
432.89	575.51
433.265	577.54
433.641	575.51
434.016	582.96
434.392	589.74
434.767	584.09
435.143	618.22
435.518	620.25
435.894	601.72
436.269	610.31
436.644	629.29
437.02	615.05
437.395	634.49
437.77	625
438.145	626.35
438.52	629.97
438.895	635.62
439.271	618.9
439.646	662.74
440.021	652.57
440.395	663.87
440.77	615.73
441.145	653.7
441.52	657.77
441.895	672.23
442.27	646.92
442.645	646.24
443.019	665.22
443.394	673.81
443.769	660.93
444.143	671.1
444.518	662.74
444.892	676.52
445.267	661.38
445.641	696.18
446.016	695.73
446.39	702.28
446.764	695.5
447.139	707.03
447.513	698.44
447.887	697.54
448.262	697.54
448.636	713.36
449.01	697.76
449.384	708.39
449.758	724.2
450.132	727.14
450.506	725.33
450.88	724.66
451.254	714.26
451.628	757.65
452.002	720.14
452.376	744.77
452.75	751.77
453.123	768.5
453.497	762.62
453.871	761.04
454.244	781.15
454.618	787.93
454.992	782.06
455.365	791.77
455.739	813.24
456.112	796.07
456.486	808.04
456.859	803.52
457.232	820.02
457.606	827.48
457.979	829.74
458.352	866.8
458.725	845.78
459.099	871.32
459.472	871.54
459.845	890.08
460.218	907.48
460.591	909.96
460.964	902.96
461.337	920.58
461.71	888.72
462.083	910.41
462.456	917.87
462.829	927.36
463.201	920.36
463.574	940.24
463.947	946.8
464.32	964.42
464.692	986.12
465.065	1003.52
465.438	995.61
465.81	991.09
466.183	1006.46
466.555	1015.27
466.928	1043.74
467.3	1031.77
467.672	1034.25
468.045	1050.75
468.417	1062.5
468.789	1057.08
469.161	1095.27
469.534	1094.14
469.906	1148.37
470.278	1113.35
470.65	1142.05
471.022	1173.01
471.394	1164.64
471.766	1169.39
472.138	1190.86
472.51	1210.52
472.882	1245.32
473.253	1219.11
473.625	1215.26
473.997	1260.91
474.369	1253
474.74	1298.2
475.112	1309.5
475.484	1315.6
475.855	1344.07
476.227	1361.48
476.598	1362.61
476.97	1394.02
477.341	1389.95
477.713	1429.5
478.084	1446.22
478.455	1471.08
478.827	1484.64
479.198	1525.09
479.569	1528.25
479.94	1550.85
480.311	1563.96
480.682	1599.66
481.053	1625.65
481.424	1668.36
481.795	1655.25
482.166	1647.12
482.537	1698.42
482.908	1768.24
483.279	1767.79
483.65	1769.15
484.021	1789.49
484.391	1805.98
484.762	1826.32
485.133	1886.66
485.503	1878.75
485.874	1934.34
486.244	1923.72
486.615	1983.38
486.985	1984.51
487.356	2039.88
487.726	2040.78
488.097	2072.42
488.467	2081.23
488.837	2099.76
489.207	2112.64
489.578	2162.58
489.948	2182.02
490.318	2252.3
490.688	2245.97
491.058	2261.11
491.428	2275.12
491.798	2321
492.168	2337.04
492.538	2356.25
492.908	2363.48
493.278	2407.1
493.648	2395.35
494.017	2459.53
494.387	2473.54
494.757	2520.32
495.126	2495.68
495.496	2504.72
495.866	2527.77
496.235	2566.42
496.605	2601.67
496.974	2625.17
497.344	2671.95
497.713	2649.8
498.082	2658.84
498.452	2715.79
498.821	2688.45
499.19	2739.74
499.559	2723.7
499.928	2793.53
500.298	2775.45
500.667	2826.75
501.036	2813.87
501.405	2865.84
501.774	2830.36
502.143	2909.46
502.512	2905.62
502.88	2903.13
503.249	2917.82
503.618	2937.25
503.987	2974.09
504.356	3005.27
504.724	3007.99
505.093	3011.15
505.462	3052.73
505.83	3063.13
506.199	3089.79
506.567	3161.88
506.936	3165.72
507.304	3210.24
507.672	3179.73
508.041	3238.49
508.409	3216.12
508.777	3209.34
509.145	3301.54
509.514	3290.24
509.882	3325.94
510.25	3328.88
510.618	3377.92
510.986	3373.85
511.354	3404.81
511.722	3439.39
512.09	3464.25
512.458	3468.99
512.826	3508.76
513.193	3539.72
513.561	3518.93
513.929	3543.34
514.297	3625.6
514.664	3615.88
515.032	3676.22
515.4	3695.88
515.767	3699.95
516.135	3687.52
516.502	3670.34
516.869	3783.11
517.237	3803.45
517.604	3814.52
517.972	3841.64
518.339	3880.28
518.706	3861.52
519.073	3927.96
519.44	3955.98
519.808	3992.14
520.175	3960.96
520.542	4065.81
520.909	4076.88
521.276	4113.27
521.643	4132.93
522.009	4195.75
522.376	4221.74
522.743	4217.9
523.11	4245.69
523.477	4332.24
523.843	4334.73
524.21	4387.61
524.577	4389.64
524.943	4394.39
525.31	4488.17
525.676	4535.86
526.043	4546.48
526.409	4577.44
526.776	4597.77
527.142	4650.65
527.508	4673.93
527.874	4725.23
528.241	4720.26
528.607	4724.78
528.973	4819.46
529.339	4808.39
529.705	4883.19
530.071	4878.45
530.437	4940.82
530.803	4996.41
531.169	5011.55
531.535	4998.44
531.901	5034.15
532.267	5089.06
532.632	5163.64
532.998	5143.75
533.364	5141.72
533.73	5178.32
534.095	5204.54
534.461	5245.67
534.826	5260.81
535.192	5305.33
535.557	5370.41
535.923	5385.1
536.288	5391.88
536.653	5443.63
537.019	5447.24
537.384	5471.88
537.749	5541.7
538.114	5558.43
538.479	5573.12
538.845	5614.47
539.21	5575.6
539.575	5682.27
539.94	5676.39
540.305	5680.01
540.67	5692.66
541.034	5771.3
541.399	5821.92
541.764	5844.52
542.129	5879.77
542.494	5908.47
542.858	5904.63
543.223	5938.76
543.587	5957.74
543.952	6017.4
544.316	6001.81
544.681	5997.51
545.045	6119.32
545.41	6151.63
545.774	6122.25
546.138	6135.81
546.503	6274.11
546.867	6258.3
547.231	6298.97
547.595	6324.06
547.959	6403.38
548.324	6424.62
548.688	6433.21
549.052	6512.75
549.416	6514.56
549.779	6506.42
550.143	6575.12
550.507	6620.09
550.871	6691.28
551.235	6683.37
551.599	6762.69
551.962	6753.42
552.326	6868.68
552.689	6876.58
553.053	6908
553.417	6998.39
553.78	7084.49
554.143	7087.88
554.507	7103.47
554.87	7150.02
555.234	7235.45
555.597	7248.78
555.96	7320.41
556.323	7426.17
556.686	7488.32
557.05	7543.69
557.413	7551.82
557.776	7623.68
558.139	7750.23
558.502	7764.92
558.865	7828.88
559.228	7910
559.59	7997.23
559.953	8095.31
560.316	8131.24
560.679	8163.78
561.041	8264.12
561.404	8333.27
561.767	8406.49
562.129	8388.41
562.492	8624.11
562.854	8594.05
563.217	8695.97
563.579	8826.59
563.941	8894.16
564.304	8997.66
564.666	9044.21
565.028	9215.96
565.39	9228.16
565.753	9293.02
566.115	9429.29
566.477	9455.27
566.839	9553.58
567.201	9710.63
567.563	9706.79
567.925	9763.51
568.287	9924.41
568.648	9947.92
569.01	9972.32
569.372	10148.36
569.734	10229.26
570.095	10317.4
570.457	10401.69
570.819	10496.38
571.18	10526.88
571.542	10716.94
571.903	10813.66
572.265	10850.94
572.626	10910.6
572.987	11036.93
573.349	11040.09
573.71	11151.95
574.071	11250.71
574.432	11256.81
574.794	11491.38
575.155	11573.64
575.516	11498.61
575.877	11719.62
576.238	11729.34
576.599	11834.42
576.96	11901.54
577.32	12015.66
577.681	12042.78
578.042	12101.53
578.403	12212.72
578.763	12200.29
579.124	12353.73
579.485	12371.81
579.845	12463.33
580.206	12520.73
580.566	12532.71
580.927	12628.3
581.287	12690.9
581.648	12731.8
582.008	12907.61
582.368	12881.17
582.728	12969.53
583.089	12982.41
583.449	13104.22
583.809	13184.67
584.169	13234.16
584.529	13186.48
584.889	13419.46
585.249	13296.98
585.609	13315.29
585.969	13480.48
586.329	13515.05
586.688	13574.49
587.048	13545.79
587.408	13641.15
587.768	13628.5
588.127	13692.45
588.487	13762.28
588.846	13815.16
589.206	13766.57
589.565	13863.75
589.925	13901.48
590.284	13915.5
590.643	13978.32
591.003	14077.98
591.362	14176.05
591.721	14098.09
592.08	14194.81
592.44	14237.75
592.799	14258.31
593.158	14288.82
593.517	14321.81
593.876	14317.75
594.235	14394.81
594.593	14429.15
594.952	14535.82
595.311	14605.2
595.67	14628.02
596.029	14773.55
596.387	14711.41
596.746	14755.7
597.104	14797.73
597.463	14814.23
597.822	14885.41
598.18	14877.05
598.538	14909.59
598.897	15078.18
599.255	14944.85
599.613	15223.03
599.972	15065.07
600.33	15281.56
600.688	15220.09
601.046	15310.26
601.404	15298.51
601.762	15388.68
602.12	15438.85
602.478	15528.79
602.836	15541.44
603.194	15483.59
603.552	15482.01
603.91	15531.27
604.268	15594.1
604.625	15639.07
604.983	15756.58
605.341	15689.69
605.698	15851.26
606.056	15879.96
606.413	15881.55
606.771	15953.18
607.128	16045.16
607.485	15936.46
607.843	16057.36
608.2	16107.08
608.557	16177.36
608.914	16089.68
609.272	16277.69
609.629	16430.23
609.986	16373.51
610.343	16420.51
610.7	16506.61
611.057	16430.23
611.414	16533.51
611.771	16571.02
612.127	16647.85
612.484	16692.6
612.841	16677.68
613.198	16756.32
613.554	16729.21
613.911	16822.09
614.267	16999.93
614.624	16875.64
614.98	16947.05
615.337	17104.34
615.693	17044.23
616.05	17100.5
616.406	17294.39
616.762	17160.38
617.118	17186.14
617.475	17216.88
617.831	17366.7
618.187	17324.22
618.543	17352.24
618.899	17579.35
619.255	17487.38
619.611	17553.59
619.967	17570.77
620.323	17589.98
620.678	17645.57
621.034	17634.27
621.39	17613.03
621.746	17676.07
622.101	17819.57
622.457	17768.5
622.812	17874.94
623.168	18013.47
623.523	17861.15
623.879	17987.93
624.234	17848.27
624.589	17969.63
624.945	17962.17
625.3	17973.92
625.655	17975.73
626.01	18082.39
626.365	18096.4
626.72	17976.63
627.075	18011.66
627.43	18000.59
627.785	18030.19
628.14	18146.34
628.495	18191.77
628.85	18205.78
629.205	18190.19
629.559	18210.3
629.914	18173.46
630.269	18262.05
630.623	18210.98
630.978	18243.97
631.332	18280.13
631.687	18309.5
632.041	18182.28
632.396	18373.23
632.75	18258.88
633.104	18302.72
633.459	18262.27
633.813	18243.52
634.167	18316.74
634.521	18362.38
634.875	18368.94
635.229	18296.4
635.583	18245.1
635.937	18262.05
636.291	18255.72
636.645	18352.22
636.999	18299.56
637.352	18332.1
637.706	18305.21
638.06	18357.41
638.413	18467.01
638.767	18315.38
639.121	18394.02
639.474	18323.97
639.828	18359.9
640.181	18381.37
640.534	18434.25
640.888	18363.97
641.241	18293.01
641.594	18285.1
641.947	18405.77
642.301	18355.83
642.654	18388.37
643.007	18304.98
643.36	18361.25
643.713	18332.78
644.066	18509.73
644.419	18309.5
644.771	18189.73
645.124	18022.96
645.477	17930.76
645.83	17891.44
646.182	17802.17
646.535	17942.73
646.888	18029.74
647.24	17799.01
647.593	17992.45
647.945	17980.02
648.298	17856.18
648.65	17931.21
649.002	17888.5
649.355	17909.06
649.707	17898.89
650.059	17852.12
650.411	18090.98
650.763	18130.53
651.115	18416.17
651.467	18265.21
651.819	18393.12
652.171	18331.42
652.523	18306.57
652.875	18322.61
653.227	18304.08
653.578	18487.58
653.93	18414.13
654.282	18286.23
654.633	18272.44
654.985	18384.98
655.337	18434.7
655.688	18351.99
656.039	18431.31
656.391	18373.46
656.742	18317.87
657.094	18311.76
657.445	18597.63
657.796	18466.11
658.147	18364.42
658.498	18398.77
658.849	18380.92
659.2	18407.81
659.551	18368.26
659.902	18473.79
660.253	18443.96
660.604	18475.83
660.955	18467.01
661.306	18401.48
661.656	18392.89
662.007	18500.01
662.358	18445.09
662.708	18502.27
663.059	18545.2
663.409	18510.63
663.76	18508.14
664.11	18609.38
664.461	18627.91
664.811	18553.79
665.161	18591.08
665.511	18554.47
665.862	18560.57
666.212	18709.49
666.562	18697.06
666.912	18603.28
667.262	18556.96
667.612	18669.04
667.962	18718.08
668.312	18626.78
668.662	18811.64
669.011	18709.95
669.361	18687.57
669.711	18721.25
670.06	18743.62
670.41	18714.47
670.76	18633.11
671.109	18730.28
671.459	18761.92
671.808	18659.33
672.157	18761.7
672.507	18653.9
672.856	18725.09
673.205	18730.06
673.554	18791.3
673.904	18719.44
674.253	18824.52
674.602	18786.55
674.951	18571.87
675.3	18398.09
675.649	18739.78
675.998	18810.96
676.346	18780.23
676.695	18895.25
677.044	18761.24
677.393	18758.76
677.741	18846.67
678.09	18752.66
678.438	18821.58
678.787	18898.19
679.135	18843.73
679.484	18805.76
679.832	18833.56
680.181	18723.5
680.529	18763.5
680.877	18813.9
681.225	18770.96
681.573	18829.94
681.922	18700
682.27	18627.46
682.618	18807.34
682.966	18676.27
683.314	18733.67
683.661	18750.17
684.009	18660
684.357	18648.03
684.705	18614.13
685.053	18671.3
685.4	18658.65
685.748	18503.85
686.095	18538.65
686.443	18447.81
686.79	18575.03
687.138	18538.65
687.485	18563.06
687.832	18545.88
688.18	18582.27
688.527	18359.45
688.874	18406.23
689.221	18352.89
689.568	18465.88
689.915	18387.47
690.262	18364.64
690.609	18298.88
690.956	18280.13
691.303	18311.54
691.65	18240.35
691.997	18255.95
692.344	18212.33
692.69	18184.31
693.037	18231.99
693.383	18041.04
693.73	18059.34
694.077	18022.28
694.423	18007.37
694.769	18036.97
695.116	18051.88
695.462	17903.41
695.808	17883.53
696.155	18005.56
696.501	17738.22
696.847	17767.82
697.193	17748.39
697.539	17822.96
697.885	17741.38
698.231	17656.64
698.577	17628.62
698.923	17662.97
699.269	17518.34
699.614	17516.08
699.96	17466.81
700.306	17548.85
700.651	17523.99
700.997	17415.97
701.342	17300.04
701.688	17429.08
702.033	17361.05
702.379	17361.51
702.724	17215.52
703.069	17368.96
703.415	17116.09
703.76	17088.52
704.105	17230.44
704.45	17145.69
704.795	17202.19
705.14	17036.54
705.485	16961.97
705.83	17017.34
706.175	17024.11
706.52	16989.09
706.865	16824.8
707.209	16851.46
707.554	16855.53
707.899	16951.12
708.243	16900.05
708.588	16872.93
708.932	16720.62
709.277	16720.39
709.621	16732.82
709.966	16667.97
710.31	16689.89
710.654	16599.94
710.998	16664.35
711.342	16718.59
711.687	16644.69
712.031	16625.25
712.375	16494.64
712.719	16498.03
713.063	16575.54
713.407	16483.56
713.75	16428.2
714.094	16517.91
714.438	16403.11
714.782	16504.35
715.125	16372.15
715.469	16410.12
715.812	16388.88
716.156	16193.18
716.499	16302.33
716.843	16370.35
717.186	16187.07
717.53	16267.75
717.873	16187.75
718.216	16212.38
718.559	16122.44
718.902	16120.86
719.246	16247.64
719.589	16067.08
719.932	16056.23
720.275	16110.01
720.617	16051.94
720.96	16081.99
721.303	16139.84
721.646	16170.58
721.989	16007.64
722.331	16070.24
722.674	16016.91
723.016	16054.87
723.359	16032.73
723.701	16034.76
724.044	15892.62
724.386	15727.88
724.729	15893.07
725.071	15799.51
725.413	15807.42
725.755	15862.56
726.097	15808.55
726.439	15723.81
726.782	15790.7
727.124	15914.31
727.465	15753.64
727.807	15796.35
728.149	15793.19
728.491	15792.51
728.833	15825.05
729.175	15788.21
729.516	15722.68
729.858	15735.11
730.199	15717.03
730.541	15786.86
730.882	15747.31
731.224	15749.8
731.565	15701.66
731.906	15686.07
732.248	15717.26
732.589	15690.82
732.93	15580.08
733.271	15659.86
733.612	15689.91
733.953	15683.13
734.294	15659.18
734.635	15530.82
734.976	15638.39
735.317	15536.47
735.658	15518.62
735.999	15553.87
736.339	15461.9
736.68	15532.63
737.021	15496.7
737.361	15437.26
737.702	15549.13
738.042	15578.73
738.383	15524.49
738.723	15556.36
739.063	15461.44
739.404	15428.45
739.744	15388.45
740.084	15411.05
740.424	15512.97
740.764	15476.13
741.104	15468.45
741.444	15378.51
741.784	15382.8
742.124	15371.28
742.464	15406.53
742.804	15450.6
743.143	15457.15
743.483	15472.52
743.823	15398.85
744.162	15338.74
744.502	15349.81
744.841	15313.65
745.181	15258.06
745.52	15234.11
745.86	15290.83
746.199	15197.72
746.538	15115.24
746.877	15235.46
747.216	15127.44
747.556	15070.04
747.895	15097.39
748.234	15068.46
748.573	15191.85
748.911	15078.63
749.25	14957.05
749.589	15052.64
749.928	15118.18
750.267	15100.55
750.605	15063.49
750.944	15008.8
751.283	14942.59
751.621	14932.87
751.96	14856.71
752.298	14818.3
752.636	14972.42
752.975	14941.91
753.313	14840.44
753.651	14912.31
753.989	14760.67
754.327	14698.53
754.666	14758.19
755.004	14829.82
755.342	14804.74
755.679	14777.62
756.017	14730.16
756.355	14816.04
756.693	14753.67
757.031	14744.4
757.368	14656.04
757.706	14565.2
758.044	14540.11
758.381	14609.26
758.719	14585.08
759.056	14524.75
759.394	14511.41
759.731	14387.8
760.068	14443.17
760.405	14312.55
760.743	14342.15
761.08	14470.06
761.417	14373.34
761.754	14253.11
762.091	14316.84
762.428	14252.66
762.765	14211.53
763.102	14308.25
763.438	14284.98
763.775	14164.53
764.112	14219.22
764.449	14180.57
764.785	14155.49
765.122	14048.37
765.458	13920.92
765.795	13968.6
766.131	14000.92
766.467	13859
766.804	13757.08
767.14	13703.3
767.476	13742.17
767.812	13750.53
768.148	13724.31
768.485	13692.45
768.821	13601.15
769.157	13626.69
769.492	13516.41
769.828	13585.11
770.164	13562.96
770.5	13356.41
770.836	13517.54
771.171	13507.37
771.507	13362.29
771.842	13298.11
772.178	13349.63
772.513	13275.06
772.849	13259.92
773.184	13182.18
773.519	13173.82
773.855	13173.37
774.19	13097.89
774.525	13104.44
774.86	13049.3
775.195	12975.63
775.53	13033.94
775.865	12882.75
776.2	12847.73
776.535	12811.34
776.87	12740.61
777.205	12728.41
777.539	12664
777.874	12669.88
778.209	12615.87
778.543	12606.6
778.878	12511.69
779.212	12589.2
779.547	12446.61
779.881	12474.63
780.215	12425.59
780.55	12449.55
780.884	12469.21
781.218	12507.4
781.552	12396.67
781.886	12315.31
782.22	12274.18
782.554	12184.24
782.888	12199.83
783.222	12161.64
783.556	12065.15
783.889	12017.01
784.223	11977.69
784.557	11947.64
784.89	12007.3
785.224	11903.12
785.557	11860.86
785.891	11887.07
786.224	11866.28
786.558	11887.07
786.891	11707.19
787.224	11741.99
787.557	11734.31
787.891	11659.51
788.224	11619.96
788.557	11629.91
788.89	11538.61
789.223	11590.81
789.556	11516.01
789.888	11437.82
790.221	11531.6
790.554	11469.01
790.887	11410.02
791.219	11381.55
791.552	11241.22
791.884	11300.88
792.217	11341.33
792.549	11241.22
792.882	11154.89
793.214	11130.48
793.546	11095
793.879	11090.26
794.211	11094.33
794.543	11134.1
794.875	11090.26
795.207	11038.51
795.539	11040.54
795.871	10978.17
796.203	10898.4
796.535	10826.09
796.867	10818.18
797.198	10807.33
797.53	10865.63
797.862	10860.66
798.193	10809.36
798.525	10744.96
798.856	10698.41
799.188	10671.06
799.519	10651.85
799.85	10585.87
800.182	10537.51
800.513	10579.76
800.844	10532.76
801.175	10620.22
801.506	10597.16
801.837	10582.48
802.168	10495.02
802.499	10498.41
802.83	10354.01
803.161	10396.94
803.491	10344.06
803.822	10359.66
804.153	10311.07
804.483	10269.26
804.814	10210.51
805.145	10209.83
805.475	10153.56
805.805	10165.99
806.136	10143.39
806.466	10171.41
806.796	10179.1
807.126	10056.61
807.457	10082.15
807.787	10084.41
808.117	10069.95
808.447	10047.12
808.777	10003.96
809.107	9970.74
809.436	9968.03
809.766	9948.82
810.096	9904.98
810.426	9894.81
810.755	9947.46
811.085	9884.19
811.414	9859.56
811.744	9807.81
812.073	9892.1
812.403	9833.34
812.732	9780.01
813.061	9797.86
813.39	9728.49
813.719	9740.01
814.049	9756.96
814.378	9714.48
814.707	9702.95
815.036	9664.08
815.365	9679.45
815.693	9608.04
816.022	9516.06
816.351	9507.7
816.68	9487.14
817.008	9519.68
817.337	9409.63
817.665	9397.65
817.994	9440.13
818.322	9437.87
818.651	9444.2
818.979	9350.64
819.307	9411.89
819.636	9360.59
819.964	9281.72
820.292	9386.58
820.62	9350.19
820.948	9427.25
821.276	9419.57
821.604	9405.78
821.932	9398.55
822.259	9412.34
822.587	9454.37
822.915	9375.95
823.243	9394.71
823.57	9370.98
823.898	9387.93
824.225	9388.61
824.553	9361.49
824.88	9312.23
825.207	9375.95
825.535	9316.52
825.862	9353.36
826.189	9346.12
826.516	9410.98
826.843	9396.74
827.17	9372.56
827.497	9440.59
827.824	9407.14
828.151	9469.96
828.478	9441.94
828.805	9498.89
829.131	9413.69
829.458	9380.47
829.785	9367.14
830.111	9477.65
830.438	9517.87
830.764	9472.9
831.09	9513.58
831.417	9473.8
831.743	9522.39
832.069	9491.43
832.395	9491.66
832.722	9429.06
833.048	9354.26
833.374	9415.73
833.7	9457.76
834.026	9445.1
834.351	9458.44
834.677	9409.63
835.003	9508.83
835.329	9476.97
835.654	9467.7
835.98	9408.5
836.306	9414.6
836.631	9422.05
836.956	9421.38
837.282	9462.96
837.607	9385.45
837.932	9334.83
838.258	9341.38
838.583	9356.29
838.908	9309.74
839.233	9407.59
839.558	9273.58
839.883	9317.88
840.208	9333.24
840.533	9352.45
840.858	9246.47
841.182	9329.85
841.507	9314.71
841.832	9270.42
842.156	9306.8
842.481	9290.98
842.805	9283.08
843.13	9199.69
843.454	9279.23
843.778	9227.71
844.103	9175.96
844.427	9105.68
844.751	9176.64
845.075	9144.32
845.399	9102.51
845.723	9011.9
846.047	9063.87
846.371	8945.91
846.695	9056.87
847.019	8924.44
847.343	8933.71
847.666	8906.14
847.99	8848.51
848.313	8930.09
848.637	8846.48
848.96	8812.81
849.284	8792.01
849.607	8764.22
849.931	8755.41
850.254	8655.97
850.577	8584.11
850.9	8606.48
851.223	8619.14
851.546	8511.34
851.869	8524
852.192	8504.11
852.515	8488.29
852.838	8472.25
853.161	8495.98
853.483	8346.6
853.806	8365.59
854.129	8393.16
854.451	8394.28
854.774	8331.24
855.096	8346.38
855.419	8334.17
855.741	8316.09
856.063	8202.2
856.385	8231.35
856.708	8194.97
857.03	8171.01
857.352	8115.42
857.674	8098.47
857.996	8110.22
858.318	8098.02
858.64	8061.64
858.961	8012.6
859.283	8053.28
859.605	8040.4
859.926	8050.57
860.248	8079.26
860.57	7960.17
860.891	7965.82
861.212	7928.53
861.534	7965.6
861.855	7894.41
862.176	7982.32
862.498	7912.04
862.819	7932.15
863.14	7891.25
863.461	7879.72
863.782	7841.98
864.103	7849.21
864.424	7811.93
864.745	7827.29
865.065	7778.48
865.386	7742.32
865.707	7820.06
866.027	7793.62
866.348	7815.77
866.668	7769.22
866.989	7705.04
867.309	7696.22
867.63	7721.53
867.95	7736.45
868.27	7693.06
868.59	7709.56
868.91	7655.77
869.23	7778.26
869.55	7658.71
869.87	7726.96
870.19	7647.86
870.51	7674.08
870.83	7651.48
871.15	7562.22
871.469	7636.79
871.789	7655.55
872.109	7670.91
872.428	7596.57
872.748	7648.09
873.067	7640.63
873.386	7634.3
873.706	7608.54
874.025	7496.68
874.344	7543.46
874.663	7502.78
874.982	7510.92
875.301	7501.2
875.62	7533.52
875.939	7479.73
876.258	7558.37
876.577	7513.63
876.896	7498.72
877.214	7457.59
877.533	7411.26
877.852	7452.84
878.17	7450.35
878.489	7465.72
878.807	7422.56
879.125	7502.33
879.444	7416.23
879.762	7370.36
880.08	7447.87
880.398	7420.98
880.716	7381.2
881.034	7377.14
881.352	7407.19
881.67	7271.6
881.988	7363.13
882.306	7311.6
882.624	7301.43
882.941	7291.94
883.259	7268.66
883.577	7242.22
883.894	7200.64
884.212	7206.07
884.529	7203.58
884.846	7222.11
885.164	7255.33
885.481	7230.7
885.798	7282
886.115	7117.93
886.432	7186.41
886.75	7182.79
887.067	7129.91
887.383	7106.41
887.7	7148.22
888.017	7074.32
888.334	7080.65
888.651	7082.91
888.967	7036.13
889.284	7096.92
889.6	6966.07
889.917	6994.77
890.233	6986.41
890.55	6952.06
890.866	6977.83
891.182	6928.79
891.498	6916.58
891.815	6875.91
892.131	6901.44
892.447	6878.39
892.763	6808.56
893.079	6797.04
893.395	6812.41
893.71	6806.76
894.026	6799.07
894.342	6800.2
894.657	6685.63
894.973	6759.53
895.289	6768.56
895.604	6727.66
895.92	6659.87
896.235	6679.08
896.55	6685.18
896.865	6643.6
897.181	6670.71
897.496	6594.11
897.811	6538.74
898.126	6543.71
898.441	6544.62
898.756	6515.24
899.071	6475.01
899.386	6579.87
899.7	6464.39
900.015	6498.74
900.33	6435.92
900.644	6428.69
900.959	6457.84
901.273	6390.72
901.588	6323.83
901.902	6287.9
902.216	6275.47
902.531	6302.14
902.845	6244.96
903.159	6244.74
903.473	6152.08
903.787	6251.06
904.101	6166.32
904.415	6197.05
904.729	6195.92
905.042	6147.11
905.356	6084.52
905.67	6071.18
905.984	6052.65
906.297	6085.65
906.611	6017.62
906.924	6016.27
907.237	5990.05
907.551	5934.69
907.864	5929.94
908.177	5882.71
908.491	5914.8
908.804	5889.49
909.117	5800
909.43	5753
909.743	5769.27
910.056	5787.35
910.368	5717.75
910.681	5752.77
910.994	5714.36
911.307	5707.12
911.619	5669.84
911.932	5675.49
912.244	5691.08
912.557	5672.1
912.869	5616.96
913.181	5619.89
913.494	5648.37
913.806	5612.21
914.118	5567.47
914.43	5525.43
914.742	5546.45
915.054	5483.85
915.366	5463.29
915.678	5433.68
915.99	5456.06
916.302	5390.07
916.613	5405.89
916.925	5329.05
917.236	5372.44
917.548	5328.38
917.859	5322.95
918.171	5308.49
918.482	5247.02
918.794	5248.6
919.105	5289.06
919.416	5214.71
919.727	5209.96
920.038	5172.9
920.349	5162.05
920.66	5171.09
920.971	5101.26
921.282	5094.03
921.593	5032.34
921.903	5066.46
922.214	5023.75
922.525	5033.7
922.835	4988.5
923.146	4964.32
923.456	4953.25
923.767	4929.07
924.077	4884.32
924.387	4923.87
924.697	4861.95
925.008	4888.16
925.318	4800.71
925.628	4820.37
925.938	4791.67
926.248	4744.44
926.558	4687.94
926.867	4752.35
927.177	4708.28
927.487	4739.24
927.796	4681.61
928.106	4700.14
928.416	4677.32
928.725	4654.72
929.034	4679.35
929.344	4647.94
929.653	4600.26
929.962	4569.98
930.271	4618.57
930.581	4545.12
930.89	4528.62
931.199	4492.92
931.508	4478.68
931.817	4503.99
932.125	4472.81
932.434	4490.66
932.743	4444.78
933.051	4432.13
933.36	4393.49
933.669	4375.41
933.977	4365.46
934.286	4352.13
934.594	4339.93
934.902	4315.3
935.21	4300.83
935.519	4293.83
935.827	4247.95
936.135	4241.17
936.443	4210.67
936.751	4180.16
937.059	4132.7
937.367	4114.17
937.674	4179.03
937.982	4139.03
938.29	4125.02
938.597	4160.95
938.905	4090.9
939.213	4059.26
939.52	4049.09
939.827	4087.51
940.135	4063.1
940.442	4017.22
940.749	4056.09
941.056	3982.42
941.363	3960.28
941.67	3922.54
941.977	3944.46
942.284	3893.61
942.591	3945.14
942.898	3922.54
943.205	3898.58
943.511	3841.64
943.818	3850.22
944.125	3830.11
944.431	3826.04
944.738	3787.4
945.044	3792.82
945.35	3783.78
945.657	3713.96
945.963	3736.1
946.269	3770.45
946.575	3719.83
946.881	3740.62
947.187	3683.22
947.493	3683.67
947.799	3628.08
948.105	3624.69
948.41	3633.05
948.716	3575.43
949.022	3626.73
949.327	3586.73
949.633	3526.84
949.938	3535.66
950.244	3598.93
950.549	3535.2
950.854	3513.28
951.16	3506.5
951.465	3420.86
951.77	3477.58
952.075	3464.02
952.38	3454.98
952.685	3470.8
952.99	3413.85
953.294	3382.89
953.599	3374.3
953.904	3386.06
954.209	3336.34
954.513	3335.43
954.818	3310.8
955.122	3319.62
955.426	3256.11
955.731	3262.44
956.035	3266.96
956.339	3296.34
956.643	3279.62
956.948	3263.57
957.252	3213.18
957.556	3220.86
957.86	3157.13
958.163	3192.61
958.467	3195.78
958.771	3169.11
959.075	3177.02
959.378	3122.56
959.682	3159.17
959.985	3125.5
960.289	3123.24
960.592	3095.67
960.896	3097.7
961.199	3057.02
961.502	3061.32
961.805	3065.61
962.108	3028.78
962.411	3033.97
962.714	2996.23
963.017	2979.29
963.32	2978.38
963.623	2983.58
963.926	2968.89
964.228	2939.97
964.531	2957.82
964.833	3003.01
965.136	2924.82
965.438	2923.47
965.741	2923.02
966.043	2862.23
966.345	2892.06
966.648	2871.27
966.95	2831.27
967.252	2810.02
967.554	2814.09
967.856	2810.93
968.158	2771.83
968.46	2769.57
968.761	2762.12
969.063	2737.71
969.365	2736.35
969.666	2763.02
969.968	2737.03
970.269	2766.41
970.571	2729.8
970.872	2711.27
971.174	2689.58
971.475	2673.08
971.776	2663.59
972.077	2688.22
972.378	2633.98
972.679	2660.42
972.98	2671.27
973.281	2617.04
973.582	2628.33
973.883	2589.92
974.183	2569.58
974.484	2580.2
974.785	2575.45
975.085	2581.33
975.386	2551.73
975.686	2523.48
975.986	2546.53
976.287	2525.51
976.587	2509.02
976.887	2497.72
977.187	2482.35
977.487	2475.8
977.787	2430.6
978.087	2447.55
978.387	2463.37
978.687	2421.11
978.987	2422.69
979.286	2433.31
979.586	2419.07
979.885	2422.69
980.185	2386.31
980.484	2369.13
980.784	2370.49
981.083	2347.66
981.382	2353.77
981.682	2313.99
981.981	2320.77
982.28	2309.47
982.579	2299.53
982.878	2320.77
983.177	2277.38
983.475	2261.11
983.774	2255.92
984.073	2279.42
984.372	2242.36
984.67	2237.16
984.969	2217.95
985.267	2208.68
985.566	2224.05
985.864	2207.1
986.162	2187.67
986.461	2197.39
986.759	2169.82
987.057	2170.95
987.355	2140.21
987.653	2162.81
987.951	2147.67
988.249	2166.65
988.547	2163.26
988.844	2122.81
989.142	2115.58
989.44	2120.55
989.737	2117.39
990.035	2055.02
990.332	2087.78
990.63	2053.43
990.927	2051.17
991.224	2038.52
991.521	2038.75
991.819	2048.01
992.116	1980.44
992.413	2028.8
992.71	1987
993.006	2027.45
993.303	1998.29
993.6	1974.11
993.897	1987.9
994.193	1990.61
994.49	1965.3
994.787	1949.03
995.083	1933.44
995.379	1908.58
995.676	1920.33
995.972	1927.34
996.268	1908.58
996.565	1874.23
996.861	1874
997.157	1899.31
997.453	1886.66
997.749	1849.37
998.044	1856.83
998.34	1820.9
998.636	1832.88
998.932	1843.5
999.227	1808.24
999.523	1784.74
999.818	1801.24
1000.114	1751.52
1000.409	1756.49
1000.704	1765.76
1001	1742.93
1001.295	1745.42
1001.59	1738.41
1001.885	1749.26
1002.18	1704.97
1002.475	1727.57
1002.77	1711.07
1003.065	1708.36
1003.359	1703.39
1003.654	1726.21
1003.949	1657.51
1004.243	1633.11
1004.538	1658.19
1004.832	1653.45
1005.127	1609.6
1005.421	1620
1005.715	1606.67
1006.009	1627.68
1006.304	1620.9
1006.598	1594.69
1006.892	1592.43
1007.186	1594.69
1007.48	1543.39
1007.773	1566.22
1008.067	1531.87
1008.361	1554.69
1008.655	1577.97
1008.948	1554.69
1009.242	1519.21
1009.535	1503.84
1009.829	1515.14
1010.122	1506.1
1010.415	1492.55
1010.708	1466.33
1011.001	1470.85
1011.295	1461.13
1011.588	1465.2
1011.881	1437.41
1012.173	1442.38
1012.466	1432.21
1012.759	1435.82
1013.052	1398.99
1013.344	1420.46
1013.637	1399.67
1013.93	1417.07
1014.222	1393.34
1014.514	1383.85
1014.807	1379.33
1015.099	1368.48
1015.391	1363.28
1015.683	1344.75
1015.976	1341.36
1016.268	1344.3
1016.56	1308.82
1016.851	1340.91
1017.143	1320.12
1017.435	1333.68
1017.727	1286.45
1018.018	1266.11
1018.31	1269.95
1018.602	1267.47
1018.893	1255.94
1019.185	1287.81
1019.476	1245.55
1019.767	1241.93
1020.058	1233.34
1020.35	1238.31
1020.641	1207.58
1020.932	1223.4
1021.223	1199.22
1021.514	1231.99
1021.804	1195.15
1022.095	1177.98
1022.386	1164.19
1022.677	1167.81
1022.967	1145.44
1023.258	1154.25
1023.548	1128.71
1023.839	1137.53
1024.129	1139.56
1024.419	1137.75
1024.709	1119.45
1025	1113.57
1025.29	1128.71
1025.58	1107.47
1025.87	1112.89
1026.16	1113.57
1026.449	1069.51
1026.739	1062.5
1027.029	1068.38
1027.319	1042.16
1027.608	1072.67
1027.898	1056.17
1028.187	1016.63
1028.477	1042.16
1028.766	1029.05
1029.055	1031.09
1029.344	1003.29
1029.634	991.54
1029.923	988.6
1030.212	987.25
1030.501	973.69
1030.79	980.24
1031.078	982.5
1031.367	961.49
1031.656	945.44
1031.945	955.16
1032.233	969.62
1032.522	923.97
1032.81	940.47
1033.099	925.33
1033.387	949.96
1033.675	935.72
1033.963	933.46
1034.251	916.06
1034.54	884.2
1034.828	886.91
1035.116	873.58
1035.403	894.82
1035.691	869.51
1035.979	870.87
1036.267	855.5
1036.554	861.15
1036.842	855.27
1037.129	872.9
1037.417	847.14
1037.704	855.95
1037.992	855.95
1038.279	811.89
1038.566	822.05
1038.853	822.05
1039.14	822.05
