Data from copper_heatsink_FLMS001491_013.txt Node
Date: Tue Feb 07 10:49:17 GMT 2017
User: dcchb
Spectrometer: FLMS00149
Trigger mode: 0
Integration Time (sec): 2.000000E-2
Scans to average: 10
Electric dark correction enabled: true
Nonlinearity correction enabled: false
Boxcar width: 0
XAxis mode: Wavelengths
Number of Pixels in Spectrum: 2048
>>>>>Begin Spectral Data<<<<<
341.393	-23.81
341.776	-23.81
342.16	-23.81
342.543	-61.33
342.927	-57.71
343.31	-52.74
343.693	-80.08
344.077	-59.97
344.46	-61.1
344.843	-60.87
345.226	-49.12
345.61	-24.72
345.993	-9.35
346.376	24.32
346.759	-8.67
347.142	13.47
347.525	30.65
347.908	49.18
348.291	78.11
348.674	105
349.057	105.9
349.44	120.36
349.823	112.91
350.206	164.2
350.588	216.41
350.971	220.25
351.354	244.65
351.737	232
352.119	276.07
352.502	288.04
352.884	305.44
353.267	293.24
353.65	290.3
354.032	325.78
354.414	332.79
354.797	329.85
355.179	334.37
355.562	346.12
355.944	349.96
356.326	354.93
356.709	340.47
357.091	345.67
357.473	384.09
357.855	360.58
358.238	372.79
358.62	363.07
359.002	374.59
359.384	378.21
359.766	363.07
360.148	340.25
360.53	376.4
360.912	344.09
361.294	356.97
361.676	350.41
362.057	363.52
362.439	363.52
362.821	356.06
363.203	327.14
363.584	368.04
363.966	356.52
364.348	353.35
364.729	343.41
365.111	357.87
365.493	366.46
365.874	325.78
366.256	319.91
366.637	339.12
367.019	318.1
367.4	336.4
367.781	341.83
368.163	313.81
368.544	332.34
368.925	340.92
369.306	349.51
369.688	328.27
370.069	352
370.45	329.62
370.831	330.3
371.212	344.31
371.593	341.6
371.974	322.84
372.355	321.49
372.736	346.8
373.117	346.57
373.498	330.53
373.879	341.83
374.26	345.89
374.641	346.35
375.021	347.02
375.402	343.64
375.783	366.01
376.163	360.36
376.544	351.09
376.925	352.67
377.305	357.19
377.686	334.14
378.066	360.81
378.447	326.69
378.827	375.27
379.208	363.3
379.588	376.18
379.968	341.6
380.349	360.58
380.729	357.87
381.109	362.39
381.489	347.48
381.87	364.88
382.25	383.41
382.63	360.13
383.01	364.43
383.39	380.92
383.77	370.3
384.15	370.98
384.53	389.96
384.91	385.44
385.29	373.24
385.67	398.32
386.049	384.54
386.429	375.72
386.809	404.88
387.189	396.06
387.568	403.07
387.948	389.06
388.328	393.13
388.707	389.28
389.087	374.59
389.466	398.32
389.846	419.57
390.225	392.67
390.605	412.56
390.984	406.46
391.363	403.75
391.743	423.41
392.122	403.52
392.501	403.52
392.881	415.95
393.26	436.06
393.639	420.47
394.018	413.01
394.397	424.54
394.776	416.18
395.155	421.15
395.534	410.75
395.913	427.93
396.292	416.85
396.671	415.72
397.05	433.35
397.429	429.51
397.808	427.02
398.186	420.02
398.565	441.26
398.944	431.54
399.323	429.06
399.701	425.21
400.08	438.1
400.458	436.51
400.837	457.3
401.215	441.49
401.594	431.32
401.972	431.99
402.351	440.58
402.729	476.29
403.107	448.27
403.486	470.64
403.864	444.65
404.242	471.09
404.62	448.72
404.999	443.97
405.377	468.38
405.755	459.34
406.133	465.21
406.511	465.89
406.889	486.91
407.267	450.3
407.645	514.93
408.023	475.38
408.401	483.07
408.779	492.11
409.156	504.53
409.534	511.54
409.912	497.53
410.29	512.67
410.667	502.73
411.045	522.84
411.422	506.34
411.8	504.31
412.178	520.35
412.555	507.92
412.933	519.68
413.31	523.29
413.687	515.83
414.065	546.34
414.442	528.49
414.819	538.21
415.197	542.5
415.574	566.91
415.951	557.19
416.328	549.05
416.705	547.25
417.082	552.22
417.46	573.01
417.837	557.41
418.214	559.67
418.591	566.91
418.967	571.2
419.344	541.14
419.721	582.27
420.098	592.44
420.475	581.59
420.852	578.43
421.228	566
421.605	582.5
421.982	585.21
422.358	589.05
422.735	593.8
423.111	625.89
423.488	616.85
423.864	585.89
424.241	622.5
424.617	606
424.994	628.6
425.37	632.44
425.746	621.59
426.123	637.64
426.499	596.51
426.875	634.93
427.251	658.88
427.627	656.4
428.003	646
428.379	648.26
428.756	674.25
429.132	659.33
429.507	671.54
429.883	677.19
430.259	684.87
430.635	698.88
431.011	688.94
431.387	691.2
431.763	719.44
432.138	718.99
432.514	716.73
432.89	711.99
433.265	724.42
433.641	735.04
434.016	719.9
434.392	755.83
434.767	740.23
435.143	751.53
435.518	776.17
435.894	784.53
436.269	775.04
436.644	766
437.02	763.74
437.395	797.63
437.77	791.31
438.145	800.35
438.52	784.98
438.895	789.05
439.271	789.72
439.646	840.8
440.021	820.23
440.395	815.26
440.77	824.3
441.145	834.24
441.52	825.43
441.895	851.42
442.27	840.12
442.645	854.13
443.019	864.07
443.394	857.52
443.769	845.77
444.143	865.66
444.518	876.05
444.892	874.02
445.267	876.95
445.641	855.71
446.016	882.83
446.39	906.78
446.764	888.71
447.139	901.36
447.513	922.83
447.887	911.98
448.262	899.55
448.636	914.69
449.01	919.21
449.384	942.04
449.758	912.89
450.132	951.08
450.506	943.85
450.88	968.93
451.254	956.95
451.628	957.18
452.002	958.08
452.376	983.84
452.75	1000.79
453.123	996.05
453.497	998.08
453.871	1005.31
454.244	1061.13
454.618	1031.07
454.992	1051.86
455.365	1069.49
455.739	1070.62
456.112	1063.84
456.486	1067.23
456.859	1097.97
457.232	1109.72
457.606	1119.21
457.979	1123.28
458.352	1160.56
458.725	1163.5
459.099	1142.26
459.472	1178.42
459.845	1201.24
460.218	1209.15
460.591	1233.78
460.964	1219.32
461.337	1228.58
461.71	1246.44
462.083	1274.23
462.456	1277.4
462.829	1275.59
463.201	1308.13
463.574	1317.39
463.947	1319.65
464.32	1355.36
464.692	1357.85
465.065	1371.63
465.438	1385.19
465.81	1430.61
466.183	1421.57
466.555	1446.66
466.928	1448.24
467.3	1482.59
467.672	1492.31
468.045	1500.89
468.417	1517.84
468.789	1569.14
469.161	1567.56
469.534	1585.18
469.906	1589.7
470.278	1594
470.65	1635.35
471.022	1659.08
471.394	1685.07
471.766	1728.68
472.138	1728.68
472.51	1747.21
472.882	1775.24
473.253	1838.28
473.625	1827.89
473.997	1869.47
474.369	1861.56
474.74	1917.83
475.112	1931.39
475.484	1917.38
475.855	1963.93
476.227	2022.46
476.598	2079.63
476.97	2129.8
477.341	2097.94
477.713	2136.13
478.084	2193.3
478.455	2259.29
478.827	2238.27
479.198	2331.15
479.569	2355.11
479.94	2395.33
480.311	2416.35
480.682	2474.88
481.053	2524.37
481.424	2554.42
481.795	2603.69
482.166	2610.47
482.537	2665.61
482.908	2719.17
483.279	2760.75
483.65	2816.56
484.021	2863.79
484.391	2895.66
484.762	2904.02
485.133	2922.55
485.503	3000.74
485.874	3044.58
486.244	3053.85
486.615	3139.04
486.985	3199.15
487.356	3228.98
487.726	3310.34
488.097	3342.65
488.467	3361.18
488.837	3415.64
489.207	3474.63
489.578	3530.67
489.948	3540.39
490.318	3599.82
490.688	3661.51
491.058	3680.27
491.428	3763.43
491.798	3814.73
492.168	3831.45
492.538	3896.31
492.908	3962.3
493.278	3968.85
493.648	4007.95
494.017	4077.32
494.387	4076.19
494.757	4124.33
495.126	4205.23
495.496	4193.7
495.866	4202.06
496.235	4332.46
496.605	4352.34
496.974	4409.97
497.344	4428.05
497.713	4444.32
498.082	4549.17
498.452	4579.46
498.821	4640.25
499.19	4605.44
499.559	4651.32
499.928	4733.58
500.298	4716.18
500.667	4846.57
501.036	4811.54
501.405	4865.1
501.774	4881.82
502.143	4947.13
502.512	4932.21
502.88	5027.58
503.249	5078.43
503.618	5104.19
503.987	5125.88
504.356	5202.49
504.724	5196.39
505.093	5272.32
505.462	5278.42
505.83	5277.97
506.199	5366.33
506.567	5468.47
506.936	5442.48
507.304	5580.33
507.672	5575.59
508.041	5564.97
508.409	5643.38
508.777	5731.97
509.145	5765.64
509.514	5748.92
509.882	5839.08
510.25	5826.43
510.618	5906.2
510.986	5937.39
511.354	6061.22
511.722	6051.28
512.09	6146.65
512.458	6132.64
512.826	6263.03
513.193	6252.63
513.561	6272.97
513.929	6359.07
514.297	6417.15
514.664	6441.78
515.032	6493.53
515.4	6678.16
515.767	6651.72
516.135	6684.26
516.502	6653.75
516.869	6772.39
517.237	6856.01
517.604	6834.99
517.972	6964.03
518.339	6997.25
518.706	7035.44
519.073	7137.35
519.44	7123.8
519.808	7208.99
520.175	7223.45
520.542	7398.36
520.909	7419.83
521.276	7481.3
521.643	7581.64
522.009	7687.85
522.376	7716.1
522.743	7722.2
523.11	7819.82
523.477	7879.48
523.843	7958.12
524.21	8065.01
524.577	8119.25
524.943	8177.1
525.31	8286.48
525.676	8349.75
526.043	8437.43
526.409	8446.7
526.776	8573.7
527.142	8632.46
527.508	8626.81
527.874	8761.49
528.241	8861.15
528.607	8957.87
528.973	8989.06
529.339	8992.67
529.705	9128.26
530.071	9200.35
530.437	9225.44
530.803	9380.69
531.169	9410.97
531.535	9470.4
531.901	9509.5
532.267	9549.04
532.632	9715.82
532.998	9778.19
533.364	9781.58
533.73	9831.75
534.095	9964.17
534.461	10042.14
534.826	10151.51
535.192	10124.39
535.557	10226.54
535.923	10297.5
536.288	10309.02
536.653	10470.6
537.019	10437.15
537.384	10543.14
537.749	10597.38
538.114	10716.92
538.479	10753.76
538.845	10760.31
539.21	10814.77
539.575	10923.24
539.94	10935.9
540.305	11028.33
540.67	11095.44
541.034	11308.09
541.399	11236.68
541.764	11292.27
542.129	11421.54
542.494	11448.65
542.858	11519.16
543.223	11586.05
543.587	11686.61
543.952	11796.44
544.316	11817.01
544.681	11938.36
545.045	11966.83
545.41	12071.24
545.774	12217.9
546.138	12268.75
546.503	12333.38
546.867	12426.71
547.231	12557.78
547.595	12584.22
547.959	12732.24
548.324	12761.61
548.688	12873.48
549.052	12886.81
549.416	13031.66
549.779	13081.15
550.143	13127.03
550.507	13295.16
550.871	13453.8
551.235	13484.98
551.599	13684.53
551.962	13740.12
552.326	13910.28
552.689	13971.3
553.053	13963.62
553.417	14103.95
553.78	14376.94
554.143	14355.02
554.507	14518.18
554.87	14632.98
555.234	14789.13
555.597	14937.6
555.96	14976.92
556.323	15217.37
556.686	15291.49
557.05	15491.26
557.413	15577.81
557.776	15744.59
558.139	15913.62
558.502	15977.12
558.865	16159.94
559.228	16399.26
559.59	16493.04
559.953	16635.86
560.316	16897.32
560.679	16943.65
561.041	17135.28
561.404	17242.85
561.767	17577.76
562.129	17609.17
562.492	17866.11
562.854	18067.69
563.217	18141.36
563.579	18266.33
563.941	18563.27
564.304	18771.85
564.666	19019.3
565.028	19083.03
565.39	19230.14
565.753	19547.42
566.115	19649.12
566.477	19931.14
566.839	20102.21
567.201	20359.15
567.563	20499.26
567.925	20675.3
568.287	20779.26
568.648	20885.02
569.01	21150.32
569.372	21414.49
569.734	21494.72
570.095	21757.99
570.457	21998.66
570.819	22184.87
571.18	22329.27
571.542	22465.77
571.903	22712.09
572.265	22924.74
572.626	23068.46
572.987	23279.98
573.349	23392.97
573.71	23771.49
574.071	23792.74
574.432	23994.09
574.794	24388.43
575.155	24307.3
575.516	24323.12
575.877	24592.49
576.238	24740.96
576.599	24965.13
576.96	25119.93
577.32	25166.26
577.681	25406.48
578.042	25561.28
578.403	25771.89
578.763	25815.51
579.124	26001.72
579.485	26177.31
579.845	26279.45
580.206	26453.46
580.566	26496.39
580.927	26599.89
581.287	26883.95
581.648	26869.72
582.008	27036.94
582.368	26972.54
582.728	27324.62
583.089	27275.58
583.449	27349.93
583.809	27537.72
584.169	27610.49
584.529	27578.4
584.889	27857.49
585.249	27838.05
585.609	27835.12
585.969	28151.04
586.329	28040.53
586.688	28259.29
587.048	28348.1
587.408	28276.01
587.768	28435.33
588.127	28527.07
588.487	28533.18
588.846	28911.47
589.206	28828.08
589.565	28743.79
589.925	29004.58
590.284	28921.41
590.643	29133.61
591.003	29179.94
591.362	29382.42
591.721	29359.14
592.08	29446.6
592.44	29609.08
592.799	29615.86
593.158	29589.65
593.517	29701.96
593.876	29976.08
594.235	29852.92
594.593	29981.05
594.952	30089.29
595.311	30105.11
595.67	30165
596.029	30438.21
596.387	30523.18
596.746	30603.86
597.104	30535.38
597.463	30550.75
597.822	30755.49
598.18	30663.06
598.538	30833
598.897	31043.84
599.255	30883.4
599.613	31284.29
599.972	31030.29
600.33	31401.58
600.688	31145.54
601.046	31351.41
601.404	31576.03
601.762	31588.46
602.12	31736.03
602.478	31825.97
602.836	31850.83
603.194	31774.22
603.552	31896.25
603.91	31749.36
604.268	32172.4
604.625	32096.47
604.983	32200.88
605.341	32184.61
605.698	32513.41
606.056	32547.31
606.413	32454.66
606.771	32738.26
607.128	32811.71
607.485	32678.38
607.843	32861.65
608.2	33001.53
608.557	33160.4
608.914	33075.66
609.272	33361.07
609.629	33498.92
609.986	33587.96
610.343	33414.4
610.7	33753.6
611.057	33733.72
611.414	33697.11
611.771	33824.56
612.127	33998.34
612.484	33993.82
612.841	34286.7
613.198	34081.5
613.554	34078.12
613.911	34394.49
614.267	34452.34
614.624	34351.55
614.98	34602.62
615.337	34843.52
615.693	34681.72
616.05	34816.4
616.406	35043.51
616.762	34911.09
617.118	34938.21
617.475	35059.11
617.831	35297.52
618.187	35219.1
618.543	35359.44
618.899	35602.14
619.255	35432.2
619.611	35489.38
619.967	35799.65
620.323	35716.04
620.678	35605.76
621.034	35723.04
621.39	35849.37
621.746	35896.37
622.101	36222.69
622.457	36070.61
622.812	36116.03
623.168	36355.57
623.523	36346.98
623.879	36407.77
624.234	36258.4
624.589	36379.52
624.945	36709.46
625.3	36618.16
625.655	36594.89
626.01	36708.55
626.365	36549.46
626.72	36739.97
627.075	36728.44
627.43	36789
627.785	36763.92
628.14	36825.39
628.495	36933.18
628.85	36812.96
629.205	36743.13
629.559	36818.16
629.914	36853.64
630.269	36859.06
630.623	36890.02
630.978	36757.59
631.332	37017.7
631.687	37071.93
632.041	37077.13
632.396	37236.22
632.75	36953.07
633.104	37084.36
633.459	36854.09
633.813	37016.57
634.167	36962.79
634.521	37065.83
634.875	37000.3
635.229	37032.84
635.583	37027.42
635.937	37142.44
636.291	36994.87
636.645	37163.68
636.999	36969.56
637.352	37137.92
637.706	36864.26
638.06	37081.88
638.413	37039.17
638.767	36834.65
639.121	37134.53
639.474	36977.02
639.828	36940.64
640.181	37009.11
640.534	37064.03
640.888	37003.01
641.241	36754.2
641.594	36938.61
641.947	37107.87
642.301	37008.66
642.654	36961.43
643.007	37063.57
643.36	37197.36
643.713	37038.94
644.066	37352.83
644.419	36864.03
644.771	36437.38
645.124	36191.96
645.477	36138.17
645.83	35994.45
646.182	35876.49
646.535	35922.13
646.888	36224.95
647.24	36060.89
647.593	36325.29
647.945	36365.96
648.298	36320.32
648.65	36268.11
649.002	36189.02
649.355	36236.7
649.707	36188.57
650.059	36184.5
650.411	36693.19
650.763	36646.41
651.115	37096.34
651.467	37021.77
651.819	37221.31
652.171	37062.44
652.523	37090.24
652.875	37005.5
653.227	36790.59
653.578	37133.18
653.93	37073.97
654.282	37054.53
654.633	36834.43
654.985	37096.57
655.337	37086.62
655.688	37052.73
656.039	37141.31
656.391	36843.24
656.742	36937.7
657.094	36966.85
657.445	37136.79
657.796	37132.72
658.147	37246.17
658.498	37219.05
658.849	37021.31
659.2	37186.06
659.551	37044.59
659.902	37223.57
660.253	37119.39
660.604	37259.05
660.955	37171.37
661.306	37203.68
661.656	37121.2
662.007	37098.37
662.358	37206.85
662.708	37267.86
663.059	37204.59
663.409	37104.7
663.76	37485.71
664.11	37432.6
664.461	37527.97
664.811	37492.04
665.161	37428.99
665.511	37303.79
665.862	37277.35
666.212	37475.77
666.562	37465.6
666.912	37508.31
667.262	37486.16
667.612	37468.76
667.962	37500.4
668.312	37660.85
668.662	37709.66
669.011	37734.06
669.361	37616.78
669.711	37579.94
670.06	37518.25
670.41	37496.33
670.76	37541.3
671.109	37760.05
671.459	37564.35
671.808	37663.11
672.157	37738.13
672.507	37629.89
672.856	37581.07
673.205	37658.36
673.554	37769.09
673.904	37716.89
674.253	37858.58
674.602	37762.76
674.951	37347.86
675.3	37128.2
675.649	37836.21
675.998	37742.65
676.346	37713.05
676.695	37864.91
677.044	37598.47
677.393	37720.73
677.741	37838.02
678.09	37671.24
678.438	37699.71
678.787	37741.07
679.135	37813.61
679.484	37470.12
679.832	37692.03
680.181	37647.51
680.529	37566.39
680.877	37537.91
681.225	37570.23
681.573	37744.01
681.922	37713.95
682.27	37551.24
682.618	37472.83
682.966	37372.27
683.314	37558.7
683.661	37384.24
684.009	37226.28
684.357	37236
684.705	37258.82
685.053	37104.25
685.4	37306.5
685.748	37145.83
686.095	37231.03
686.443	36985.16
686.79	37113.74
687.138	37082.1
687.485	37064.7
687.832	37101.31
688.18	37260.63
688.527	36808.21
688.874	37073.06
689.221	36868.78
689.568	36841.43
689.915	36728.67
690.262	36689.35
690.609	36786.52
690.956	36706.75
691.303	36725.5
691.65	36443.93
691.997	36450.26
692.344	36272.86
692.69	36287.55
693.037	36406.87
693.383	36066.99
693.73	36248.91
694.077	36142.02
694.423	36156.48
694.769	36063.15
695.116	35992.42
695.462	36041.91
695.808	35839.65
696.155	35871.97
696.501	35565.08
696.847	35651.18
697.193	35387.01
697.539	35577.51
697.885	35358.31
698.231	35299.78
698.577	35234.24
698.923	35293.68
699.269	35190.63
699.614	35002.84
699.96	34900.69
700.306	35175.26
700.651	34960.13
700.997	34947.7
701.342	34960.35
701.688	34848.04
702.033	34756.29
702.379	34697.99
702.724	34635.61
703.069	34706.35
703.415	34555.84
703.76	34406.69
704.105	34481.95
704.45	34450.76
704.795	34292.57
705.14	34182.07
705.485	34241.5
705.83	33982.52
706.175	34018.46
706.52	34067.04
706.865	33912.24
707.209	33893.04
707.554	33834.96
707.899	33945.46
708.243	33796.09
708.588	33817.11
708.932	33651.91
709.277	33712.7
709.621	33691.23
709.966	33516.32
710.31	33587.96
710.654	33252.37
710.998	33335.54
711.342	33392.94
711.687	33273.16
712.031	33253.28
712.375	33090.12
712.719	33195.43
713.063	33218.7
713.407	33440.62
713.75	33079.95
714.094	33159.04
714.438	33045.37
714.782	33218.93
715.125	32983.45
715.469	33162.89
715.812	32837.47
716.156	32768.32
716.499	32881.31
716.843	32899.39
717.186	32690.13
717.53	32794.76
717.873	32829.56
718.216	32867.07
718.559	32650.58
718.902	32537.36
719.246	32694.42
719.589	32468.44
719.932	32395.22
720.275	32547.99
720.617	32437.48
720.96	32421.66
721.303	32478.61
721.646	32478.38
721.989	32251.72
722.331	32404.94
722.674	32395
723.016	32331.04
723.359	32240.2
723.701	32387.09
724.044	32189.58
724.386	32172.4
724.729	32303.02
725.071	32103.93
725.413	32176.24
725.755	32133.31
726.097	31920.66
726.439	31917.72
726.782	31753.43
727.124	32230.71
727.465	31873.88
727.807	31851.96
728.149	31793.43
728.491	31841.79
728.833	31781.68
729.175	31787.55
729.516	31734.9
729.858	31688.35
730.199	31813.32
730.541	31645.64
730.882	31717.05
731.224	31797.5
731.565	31616.03
731.906	31749.81
732.248	31726.76
732.589	31637.95
732.93	31402.48
733.271	31637.5
733.612	31629.37
733.953	31615.58
734.294	31613.1
734.635	31530.16
734.976	31560.89
735.317	31486.32
735.658	31388.02
735.999	31574.45
736.339	31496.04
736.68	31614.68
737.021	31414.68
737.361	31323.84
737.702	31536.49
738.042	31445.87
738.383	31422.82
738.723	31470.95
739.063	31312.99
739.404	31283.61
739.744	31395.25
740.084	31208.59
740.424	31212.65
740.764	31120.45
741.104	31317.28
741.444	31076.16
741.784	31073.67
742.124	31126.33
742.464	31017.18
742.804	31026.44
743.143	30839.78
743.483	30933.11
743.823	30932.44
744.162	31010.17
744.502	30979.89
744.841	30831.87
745.181	31084.07
745.52	30982.83
745.86	31063.73
746.199	30923.17
746.538	30813.79
746.877	30928.14
747.216	30885.88
747.556	30901.02
747.895	30842.27
748.234	30766.79
748.573	30661.71
748.911	30603.18
749.25	30719.11
749.589	30623.74
749.928	30595.72
750.267	30684.31
750.605	30726.11
750.944	30599.56
751.283	30506.91
751.621	30465.33
751.96	30412.67
752.298	30310.08
752.636	30254.94
752.975	30172.23
753.313	30074.83
753.651	30266.46
753.989	30208.61
754.327	30156.64
754.666	29976.98
755.004	30109.63
755.342	30120.03
755.679	30084.1
756.017	30000.48
756.355	29974.04
756.693	29832.35
757.031	29780.6
757.368	29677.33
757.706	29590.78
758.044	29657.89
758.381	29756.87
758.719	29561.17
759.056	29574.5
759.394	29571.57
759.731	29388.07
760.068	29311.69
760.405	29353.04
760.743	29326.6
761.08	29409.76
761.417	29163.89
761.754	29127.06
762.091	29151.69
762.428	28892.49
762.765	28944.46
763.102	28980.17
763.438	28770.23
763.775	28676
764.112	28818.82
764.449	28814.52
764.785	28638.71
765.122	28451.6
765.458	28284.37
765.795	28342.45
766.131	28377.02
766.467	28361.2
766.804	28416.57
767.14	28198.27
767.476	28204.82
767.812	28080.53
768.148	28065.84
768.485	27832.63
768.821	27841.44
769.157	27849.13
769.492	27725.51
769.828	27615.01
770.164	27448.91
770.5	27443.26
770.836	27409.82
771.171	27466.09
771.507	27227
771.842	27119.43
772.178	27229.48
772.513	27045.53
772.849	26912.88
773.184	26940.68
773.519	27010.5
773.855	26849.15
774.19	26753.79
774.525	26746.33
774.86	26690.51
775.195	26647.8
775.53	26528.26
775.865	26456.17
776.2	26345.21
776.535	26183.18
776.87	26189.74
777.205	26114.71
777.539	25998.33
777.874	26004.66
778.209	25798.78
778.543	25789.75
778.878	25701.39
779.212	25704.55
779.547	25532.35
779.881	25621.39
780.215	25416.87
780.55	25494.61
780.884	25478.12
781.218	25394.28
781.552	25461.39
781.886	25281.51
782.22	25133.94
782.554	25107.05
782.888	24951.58
783.222	24864.8
783.556	24841.3
783.889	24781.18
784.223	24637.46
784.557	24625.93
784.89	24544.58
785.224	24441.76
785.557	24393.17
785.891	24251.48
786.224	24233.63
786.558	24331.93
786.891	24161.99
787.224	24169.45
787.557	24087.87
787.891	24077.02
788.224	23934.43
788.557	23978.27
788.89	23882.23
789.223	23933.52
789.556	23783.92
789.888	23786.63
790.221	23641.55
790.554	23531.05
790.887	23651.5
791.219	23348.23
791.552	23369.92
791.884	23302.35
792.217	23324.05
792.549	23225.29
792.882	23045.86
793.214	23015.36
793.546	23114.79
793.879	22912.31
794.211	22930.61
794.543	22964.06
794.875	22827.11
795.207	22910.73
795.539	22772.42
795.871	22774.91
796.203	22701.01
796.535	22495.37
796.867	22394.58
797.198	22398.87
797.53	22479.55
797.862	22407.46
798.193	22327.69
798.525	22236.84
798.856	22173.8
799.188	21938.77
799.519	21939.68
799.85	21941.71
800.182	21922.05
800.513	21939.45
800.844	21722.28
801.175	21903.07
801.506	21953.24
801.837	21889.51
802.168	21694.71
802.499	21700.81
802.83	21543.53
803.161	21537.43
803.491	21455.85
803.822	21468.96
804.153	21375.17
804.483	21388.28
804.814	21403.42
805.145	21273.03
805.475	21477.77
805.805	21136.76
806.136	21196.42
806.466	21162.75
806.796	21138.34
807.126	21032.13
807.457	20923.43
807.787	21005.46
808.117	20843.66
808.447	20827.62
808.777	20912.81
809.107	20785.58
809.436	20734.96
809.766	20765.02
810.096	20762.76
810.426	20580.84
810.755	20832.59
811.085	20687.96
811.414	20560.5
811.744	20528.19
812.073	20467.4
812.403	20419.04
812.732	20376.1
813.061	20424.01
813.39	20297.69
813.719	20193.96
814.049	20294.52
814.378	20333.39
814.707	20186.96
815.036	20216.56
815.365	20260.85
815.693	19941.31
816.022	20030.8
816.351	19953.74
816.68	19850.47
817.008	19998.71
817.337	19852.5
817.665	19864.03
817.994	19890.47
818.322	19936.11
818.651	19828.32
818.979	19694.31
819.307	19855.89
819.636	19796.23
819.964	19717.36
820.292	19797.59
820.62	19831.26
820.948	19863.12
821.276	19903.12
821.604	19714.88
821.932	19767.53
822.259	19757.59
822.587	19766.18
822.915	19732.73
823.243	19827.42
823.57	19772.5
823.898	19869.9
824.225	19729.79
824.553	19807.98
824.88	19883.01
825.207	19761.66
825.535	19768.66
825.862	19763.69
826.189	19798.04
826.516	19863.8
826.843	19979.73
827.17	20005.94
827.497	20046.17
827.824	19928.88
828.151	19951.93
828.478	19915.32
828.805	20036
829.131	19960.52
829.458	19978.82
829.785	19875.1
830.111	20062.44
830.438	20101.53
830.764	20115.32
831.09	20101.53
831.417	20067.86
831.743	20109.67
832.069	20146.05
832.395	19999.84
832.722	20189.89
833.048	19975.66
833.374	20002.55
833.7	20043.68
834.026	20118.93
834.351	20277.12
834.677	20263.34
835.003	20197.35
835.329	20290
835.654	20148.54
835.98	20080.52
836.306	20090.91
836.631	20059.95
836.956	20162.32
837.282	20049.11
837.607	19934.31
837.932	19993.51
838.258	20013.85
838.583	20139.05
838.908	19918.94
839.233	19930.24
839.558	19915.78
839.883	19847.98
840.208	19888.43
840.533	19800.75
840.858	19818.15
841.182	19972.05
841.507	19775.21
841.832	19713.07
842.156	19768.89
842.481	19640.53
842.805	19702.22
843.13	19608.44
843.454	19705.61
843.778	19694.99
844.103	19740.64
844.427	19574.54
844.751	19625.84
845.075	19467.88
845.399	19610.47
845.723	19410.7
846.047	19474.88
846.371	19323.93
846.695	19473.98
847.019	19256.13
847.343	19189.92
847.666	19110.37
847.99	19063.14
848.313	19023.37
848.637	18950.38
848.96	18886.65
849.284	18810.72
849.607	18687.11
849.931	18705.19
850.254	18545.64
850.577	18527.56
850.9	18414.12
851.223	18375.93
851.546	18439.88
851.869	18262.26
852.192	18237.63
852.515	18088.48
852.838	18170.06
853.161	18137.29
853.483	18056.62
853.806	17974.36
854.129	17944.53
854.451	17793.8
854.774	17806.9
855.096	17811.65
855.419	17722.39
855.741	17798.54
856.063	17676.74
856.385	17703.4
856.708	17669.96
857.03	17648.72
857.352	17557.87
857.674	17586.12
857.996	17479.91
858.318	17400.59
858.64	17328.5
858.961	17279.69
859.283	17285.11
859.605	17334.15
859.926	17374.15
860.248	17225.45
860.57	17149.29
860.891	17119.24
861.212	17149.75
861.534	17101.84
861.855	17040.37
862.176	17126.92
862.498	17025.68
862.819	17131.67
863.14	16852.81
863.461	16926.7
863.782	16919.24
864.103	17037.43
864.424	16846.25
864.745	17048.05
865.065	16890.77
865.386	16837.66
865.707	16920.83
866.027	17009.86
866.348	16862.75
866.668	16856.42
866.989	16765.35
867.309	16717.44
867.63	16755.41
867.95	16752.7
868.27	16606.94
868.59	16740.94
868.91	16792.24
869.23	16787.72
869.55	16667.5
869.87	16814.61
870.19	16693.26
870.51	16723.32
870.83	16633.83
871.15	16595.64
871.469	16654.17
871.789	16704.33
872.109	16629.99
872.428	16497.79
872.748	16540.5
873.067	16601.06
873.386	16571.68
873.706	16442.87
874.025	16457.11
874.344	16500.72
874.663	16469.54
874.982	16424.57
875.301	16448.75
875.62	16447.17
875.939	16458.24
876.258	16430.9
876.577	16417.56
876.896	16391.8
877.214	16301.63
877.533	16321.29
877.852	16240.62
878.17	16221.18
878.489	16183.22
878.807	16270.45
879.125	16275.42
879.444	16258.7
879.762	16245.82
880.08	16193.16
880.398	16279.26
880.716	16299.37
881.034	16180.28
881.352	16147.51
881.67	16155.2
881.988	16152.94
882.306	16161.98
882.624	16196.55
882.941	16052.83
883.259	16054.18
883.577	16011.25
883.894	15920.63
884.212	15955.43
884.529	15926.95
884.846	15881.53
885.164	15843.79
885.481	15875.2
885.798	15920.63
886.115	15805.38
886.432	15798.14
886.75	15819.61
887.067	15785.49
887.383	15662.78
887.7	15695.32
888.017	15648.32
888.334	15738.26
888.651	15732.16
888.967	15589.11
889.284	15518.38
889.6	15528.55
889.917	15392.05
890.233	15478.83
890.55	15362
890.866	15445.84
891.182	15440.87
891.498	15366.74
891.815	15270.02
892.131	15317.7
892.447	15156.13
892.763	15236.12
893.079	15223.7
893.395	15095.11
893.71	15122.68
894.026	15104.38
894.342	15078.39
894.657	14965.17
894.973	15075.68
895.289	14959.3
895.604	15067.54
895.92	14818.28
896.235	14812.18
896.55	14831.62
896.865	14747.32
897.181	14697.83
897.496	14708.68
897.811	14603.6
898.126	14648.8
898.441	14612.41
898.756	14594.11
899.071	14418.07
899.386	14504.62
899.7	14328.35
900.015	14400.67
900.33	14281.35
900.644	14284.06
900.959	14255.59
901.273	14175.59
901.588	14175.81
901.902	14116.61
902.216	14059.66
902.531	14012.2
902.845	13987.8
903.159	13920
903.473	13902.6
903.787	13985.76
904.101	13800
904.415	13880
904.729	13689.72
905.042	13694.02
905.356	13743.06
905.67	13599.33
905.984	13693.11
906.297	13582.83
906.611	13490.86
906.924	13465.78
907.237	13473.23
907.551	13312.79
907.864	13300.13
908.177	13237.76
908.491	13323.41
908.804	13123.64
909.117	13108.27
909.43	13033.92
909.743	13027.6
910.056	13000.93
910.368	13015.17
910.681	12910.31
910.994	12842.06
911.307	12834.15
911.619	12789.86
911.932	12771.56
912.244	12590.54
912.557	12681.84
912.869	12580.15
913.181	12561.84
913.494	12648.85
913.806	12512.35
914.118	12507.61
914.43	12395.75
914.742	12421.28
915.054	12302.19
915.366	12265.36
915.678	12189.43
915.99	12191.23
916.302	12113.95
916.613	12092.7
916.925	12162.76
917.236	12013.61
917.548	11988.3
917.859	11958.47
918.171	11932.26
918.482	11823.79
918.794	11816.78
919.105	11863.33
919.416	11693.85
919.727	11733.84
920.038	11671.02
920.349	11506.28
920.66	11500.4
920.971	11524.36
921.282	11430.35
921.593	11386.28
921.903	11412.5
922.214	11432.83
922.525	11332.27
922.835	11237.13
923.146	11193.07
923.456	11184.93
923.767	11018.16
924.077	11059.29
924.387	10955.33
924.697	10972.96
925.008	10944.94
925.318	10877.6
925.628	10925.73
925.938	10875.56
926.248	10778.39
926.558	10735.9
926.867	10736.36
927.177	10748.79
927.487	10694.32
927.796	10575.46
928.106	10522.35
928.416	10537.49
928.725	10513.09
929.034	10426.31
929.344	10424.95
929.653	10397.16
929.962	10317.38
930.271	10312.19
930.581	10273.54
930.89	10134.56
931.199	10102.47
931.508	10132.76
931.817	10086.66
932.125	10055.47
932.434	10047.11
932.743	9965.75
933.051	9883.5
933.36	10002.59
933.669	9907.23
933.977	9839.66
934.286	9801.92
934.594	9848.02
934.902	9762.14
935.21	9704.74
935.519	9683.95
935.827	9614.13
936.135	9543.85
936.443	9494.81
936.751	9508.14
937.059	9496.61
937.367	9342.49
937.674	9393.57
937.982	9395.15
938.29	9369.61
938.597	9351.76
938.905	9217.07
939.213	9166.68
939.52	9160.8
939.827	9185.21
940.135	9073.12
940.442	9087.59
940.749	9123.07
941.056	9124.87
941.363	9029.06
941.67	8970.53
941.977	8993.8
942.284	8897.53
942.591	8864.77
942.898	8801.27
943.205	8781.61
943.511	8709.74
943.818	8701.61
944.125	8629.07
944.431	8681.72
944.738	8631.55
945.044	8587.49
945.35	8508.17
945.657	8487.6
945.963	8474.49
946.269	8467.04
946.575	8447.6
946.881	8357.44
947.187	8329.87
947.493	8293.93
947.799	8227.04
948.105	8205.35
948.41	8137.55
948.716	8134.16
949.022	8130.1
949.327	8072.7
949.633	8008.97
949.938	8064.79
950.244	8007.16
950.549	8005.13
950.854	7931.91
951.16	7914.51
951.465	7855.75
951.77	7831.35
952.075	7805.13
952.38	7823.44
952.685	7786.15
952.99	7745.93
953.294	7687.4
953.599	7664.57
953.904	7602.88
954.209	7599.94
954.513	7576.67
954.818	7554.97
955.122	7507.29
955.426	7456.44
955.731	7426.61
956.035	7424.8
956.339	7412.83
956.643	7375.09
956.948	7316.11
957.252	7244.92
957.556	7238.82
957.86	7223.45
958.163	7239.05
958.467	7208.31
958.771	7180.52
959.075	7108.88
959.378	7118.6
959.682	7128.99
959.985	7029.11
960.289	6987.08
960.592	7002.22
960.896	6978.26
961.199	6941.65
961.502	6873.63
961.805	6874.99
962.108	6744.37
962.411	6777.82
962.714	6766.74
963.017	6768.55
963.32	6778.27
963.623	6742.79
963.926	6675.45
964.228	6579.18
964.531	6625.5
964.833	6668.89
965.136	6569.69
965.438	6528.33
965.741	6546.41
966.043	6510.48
966.345	6484.94
966.648	6461.21
966.95	6448.33
967.252	6291.73
967.554	6319.75
967.856	6339.64
968.158	6284.5
968.46	6258.28
968.761	6217.15
969.063	6225.51
969.365	6162.92
969.666	6195.46
969.968	6103.03
970.269	6142.8
970.571	6094.44
970.872	6069.81
971.174	5971.74
971.475	6047.21
971.776	6021.68
972.077	5986.42
972.378	5932.64
972.679	5945.75
972.98	5915.47
973.281	5869.59
973.582	5882.25
973.883	5810.84
974.183	5847.22
974.484	5831.63
974.785	5751.85
975.085	5689.48
975.386	5665.98
975.686	5694.68
975.986	5649.71
976.287	5687.22
976.587	5635.25
976.887	5594.34
977.187	5627.34
977.487	5621.01
977.787	5516.61
978.087	5480.9
978.387	5510.73
978.687	5509.37
978.987	5413.56
979.286	5395.71
979.586	5424.63
979.885	5379.66
980.185	5345.31
980.484	5295.14
980.784	5330.85
981.083	5303.05
981.382	5269.83
981.682	5255.6
981.981	5211.08
982.28	5113.45
982.579	5138.99
982.878	5115.49
983.177	5104.41
983.475	5084.08
983.774	5037.52
984.073	5031.2
984.372	4977.64
984.67	4982.16
984.969	4958.65
985.267	4973.57
985.566	4919.33
985.864	4928.15
986.162	4865.78
986.461	4900.8
986.759	4869.84
987.057	4830.97
987.355	4756.17
987.653	4774.48
987.951	4827.58
988.249	4730.19
988.547	4754.59
988.844	4749.39
989.142	4706.01
989.44	4698.1
989.737	4635.05
990.035	4665.1
990.332	4640.7
990.63	4625.56
990.927	4559.8
991.224	4543.98
991.521	4515.05
991.819	4481.83
992.116	4527.93
992.413	4514.15
992.71	4431.89
993.006	4450.65
993.303	4476.86
993.6	4417.65
993.897	4428.05
994.193	4413.58
994.49	4310.31
994.787	4374.04
995.083	4334.94
995.379	4256.75
995.676	4288.62
995.972	4279.35
996.268	4255.85
996.565	4185.57
996.861	4198.9
997.157	4162.74
997.453	4162.29
997.749	4138.34
998.044	4117.32
998.34	4073.93
998.636	4040.04
998.932	4046.14
999.227	4053.59
999.523	4004.1
999.818	3956.42
1000.114	3955.52
1000.409	3930.89
1000.704	3906.48
1001	3882.3
1001.295	3833.94
1001.59	3819.25
1001.885	3802.75
1002.18	3798.46
1002.475	3818.35
1002.77	3758.69
1003.065	3702.64
1003.359	3755.07
1003.654	3755.52
1003.949	3666.71
1004.243	3654.73
1004.538	3657.22
1004.832	3623.77
1005.127	3586.71
1005.421	3571.8
1005.715	3562.53
1006.009	3559.14
1006.304	3541.07
1006.598	3498.35
1006.892	3515.98
1007.186	3442.08
1007.48	3481.63
1007.773	3411.8
1008.067	3393.5
1008.361	3405.25
1008.655	3368.87
1008.948	3350.11
1009.242	3315.53
1009.535	3285.93
1009.829	3317.12
1010.122	3269.21
1010.415	3273.5
1010.708	3215.42
1011.001	3253.16
1011.295	3171.58
1011.588	3184.92
1011.881	3134.97
1012.173	3143.79
1012.466	3110.57
1012.759	3087.07
1013.052	3075.31
1013.344	3054.75
1013.637	3051.36
1013.93	3021.98
1014.222	2986.05
1014.514	2977.46
1014.807	2996.67
1015.099	2954.19
1015.391	2971.81
1015.683	2904.7
1015.976	2909.67
1016.268	2853.85
1016.56	2842.33
1016.851	2842.33
1017.143	2809.11
1017.435	2826.06
1017.727	2798.49
1018.018	2806.62
1018.31	2722.56
1018.602	2737.92
1018.893	2700.86
1019.185	2704.25
1019.476	2675.1
1019.767	2678.71
1020.058	2638.72
1020.35	2593.97
1020.641	2539.74
1020.932	2538.61
1021.223	2549.23
1021.514	2519.62
1021.804	2552.62
1022.095	2498.38
1022.386	2447.76
1022.677	2472.84
1022.967	2476.01
1023.258	2417.25
1023.548	2395.11
1023.839	2380.64
1024.129	2390.13
1024.419	2367.76
1024.709	2349.01
1025	2343.58
1025.29	2313.75
1025.58	2270.14
1025.87	2278.05
1026.16	2267.2
1026.449	2261.78
1026.739	2189.24
1027.029	2190.59
1027.319	2182.46
1027.608	2137.94
1027.898	2144.49
1028.187	2154.66
1028.477	2123.25
1028.766	2111.27
1029.055	2082.12
1029.344	2076.24
1029.634	2062.69
1029.923	2062.01
1030.212	2033.53
1030.501	2007.32
1030.79	1997.15
1031.078	2000.09
1031.367	1965.74
1031.656	1956.93
1031.945	1953.76
1032.233	1939.98
1032.522	1919.19
1032.81	1903.14
1033.099	1889.58
1033.387	1843.48
1033.675	1852.52
1033.963	1817.27
1034.251	1848.68
1034.54	1813.2
1034.828	1799.19
1035.116	1790.15
1035.403	1763.94
1035.691	1777.72
1035.979	1749.47
1036.267	1745.41
1036.554	1721
1036.842	1678.52
1037.129	1666.76
1037.417	1675.58
1037.704	1674.67
1037.992	1653.88
1038.279	1663.15
1038.566	1622.7
1038.853	1622.7
1039.14	1622.7
