Data from copper_heatsink_FLMS001491_086.txt Node
Date: Tue Feb 07 10:50:42 GMT 2017
User: dcchb
Spectrometer: FLMS00149
Trigger mode: 0
Integration Time (sec): 2.000000E-2
Scans to average: 10
Electric dark correction enabled: true
Nonlinearity correction enabled: false
Boxcar width: 0
XAxis mode: Wavelengths
Number of Pixels in Spectrum: 2048
>>>>>Begin Spectral Data<<<<<
341.393	-3.69
341.776	-3.69
342.16	-3.69
342.543	-85.04
342.927	-52.95
343.31	-48.88
343.693	-65.15
344.077	-67.87
344.46	-49.79
344.843	-57.24
345.226	-44.82
345.61	-34.87
345.993	-14.99
346.376	10.1
346.759	11
347.142	16.88
347.525	21.4
347.908	56.65
348.291	55.52
348.674	110.43
349.057	101.62
349.44	111.34
349.823	153.37
350.206	168.96
350.588	222.97
350.971	222.97
351.354	239.92
351.737	251
352.119	269.07
352.502	299.81
352.884	274.95
353.267	304.1
353.65	306.14
354.032	287.61
354.414	323.99
354.797	346.13
355.179	348.85
355.562	348.39
355.944	337.77
356.326	342.29
356.709	337.1
357.091	373.93
357.473	361.95
357.855	344.78
358.238	346.81
358.62	339.13
359.002	366.7
359.384	374.83
359.766	374.38
360.148	335.51
360.53	360.37
360.912	360.15
361.294	344.55
361.676	366.93
362.057	341.84
362.439	352.69
362.821	318.79
363.203	353.37
363.584	343.88
363.966	353.14
364.348	346.59
364.729	361.5
365.111	363.08
365.493	335.51
365.874	334.84
366.256	343.65
366.637	340.03
367.019	333.93
367.4	358.79
367.781	353.59
368.163	344.55
368.544	342.75
368.925	332.8
369.306	328.06
369.688	334.61
370.069	343.88
370.45	328.96
370.831	343.2
371.212	344.78
371.593	349.75
371.974	350.65
372.355	358.11
372.736	353.59
373.117	334.61
373.498	337.77
373.879	341.62
374.26	340.49
374.641	344.1
375.021	342.75
375.402	340.49
375.783	342.52
376.163	368.51
376.544	349.75
376.925	342.97
377.305	360.82
377.686	367.83
378.066	358.56
378.447	363.31
378.827	359.92
379.208	378.45
379.588	377.09
379.968	375.74
380.349	351.11
380.729	356.08
381.109	375.51
381.489	381.84
381.87	383.87
382.25	377.77
382.63	395.63
383.01	387.94
383.39	385.46
383.77	382.97
384.15	383.2
384.53	386.13
384.91	395.85
385.29	386.59
385.67	426.81
386.049	408.73
386.429	398.56
386.809	406.7
387.189	408.05
387.568	382.52
387.948	392.24
388.328	415.51
388.707	392.69
389.087	398.56
389.466	409.41
389.846	403.31
390.225	408.96
390.605	429.07
390.984	433.82
391.363	441.27
391.743	401.95
392.122	434.49
392.501	422.97
392.881	434.72
393.26	428.84
393.639	427.04
394.018	443.53
394.397	444.21
394.776	438.34
395.155	430.2
395.534	440.14
395.913	434.72
396.292	475.62
396.671	474.95
397.05	464.55
397.429	468.84
397.808	478.11
398.186	474.95
398.565	467.04
398.944	478.11
399.323	474.49
399.701	474.49
400.08	471.1
400.458	477.66
400.837	489.41
401.215	508.39
401.594	484.44
401.972	488.73
402.351	465
402.729	488.28
403.107	508.62
403.486	503.87
403.864	508.16
404.242	492.8
404.62	512.46
404.999	534.38
405.377	510.88
405.755	505.45
406.133	528.05
406.511	495.06
406.889	523.53
407.267	540.71
407.645	543.42
408.023	544.55
408.401	553.59
408.779	528.5
409.156	575.51
409.534	557.2
409.912	566.92
410.29	573.02
410.667	566.47
411.045	585.68
411.422	552.01
411.8	601.72
412.178	599.01
412.555	599.46
412.933	597.2
413.31	621.16
413.687	632
414.065	615.51
414.442	622.06
414.819	628.39
415.197	613.92
415.574	640.14
415.951	625.22
416.328	662.51
416.705	638.56
417.082	659.57
417.46	652.12
417.837	669.52
418.214	693.92
418.591	672.45
418.967	684.66
419.344	673.81
419.721	688.27
420.098	690.31
420.475	698.67
420.852	685.34
421.228	706.13
421.605	683.53
421.982	689.85
422.358	714.03
422.735	734.15
423.111	735.5
423.488	719.91
423.864	737.76
424.241	756.75
424.617	747.03
424.994	723.07
425.37	739.57
425.746	767.14
426.123	776.86
426.499	767.14
426.875	788.84
427.251	771.43
427.627	813.47
428.003	815.95
428.379	789.06
428.756	811.89
429.132	820.7
429.507	804.2
429.883	854.6
430.259	836.29
430.635	840.59
431.011	872.9
431.387	883.3
431.763	877.87
432.138	881.49
432.514	886.01
432.89	888.72
433.265	936.4
433.641	935.72
434.016	933.24
434.392	942.96
434.767	935.27
435.143	953.35
435.518	959.23
435.894	963.07
436.269	973.69
436.644	990.86
437.02	972.11
437.395	1004.2
437.77	997.87
438.145	1006.46
438.52	1024.08
438.895	1014.59
439.271	1036.29
439.646	1053.24
440.021	1071.99
440.395	1045.55
440.77	1071.31
441.145	1063.63
441.52	1091.88
441.895	1101.14
442.27	1104.99
442.645	1101.37
443.019	1090.75
443.394	1107.7
443.769	1116.96
444.143	1103.63
444.518	1138.66
444.892	1138.2
445.267	1134.14
445.641	1161.03
446.016	1120.8
446.39	1142.27
446.764	1168.03
447.139	1155.38
447.513	1173.01
447.887	1195.83
448.262	1178.88
448.636	1181.37
449.01	1209.62
449.384	1205.77
449.758	1244.19
450.132	1256.17
450.506	1248.26
450.88	1256.17
451.254	1260.24
451.628	1273.34
452.002	1280.35
452.376	1293.91
452.75	1312.89
453.123	1295.49
453.497	1327.35
453.871	1355.83
454.244	1360.35
454.618	1356.96
454.992	1375.71
455.365	1392.44
455.739	1398.08
456.112	1433.11
456.486	1432.43
456.859	1462.49
457.232	1487.8
457.606	1454.35
457.979	1477.18
458.352	1538.19
458.725	1551.3
459.099	1542.49
459.472	1566.67
459.845	1597.63
460.218	1579.1
460.591	1608.47
460.964	1623.39
461.337	1646.89
461.71	1681.92
462.083	1709.94
462.456	1680.79
462.829	1707.46
463.201	1724.4
463.574	1715.82
463.947	1748.36
464.32	1791.29
464.692	1825.42
465.065	1808.24
465.438	1826.55
465.81	1840.78
466.183	1874.68
466.555	1896.38
466.928	1944.74
467.3	1915.81
467.672	1973.44
468.045	2024.73
468.417	2012.76
468.789	2039.65
469.161	2060.67
469.534	2091.85
469.906	2086.65
470.278	2113.77
470.65	2147.44
471.022	2170.27
471.394	2223.37
471.766	2242.13
472.138	2278.74
472.51	2297.95
472.882	2355.57
473.253	2373.65
473.625	2435.35
473.997	2451.62
474.369	2456.59
474.74	2451.39
475.112	2510.37
475.484	2556.47
475.855	2610.93
476.227	2665.4
476.598	2710.37
476.97	2744.72
477.341	2775
477.713	2801.89
478.084	2852.96
478.455	2898.84
478.827	2938.84
479.198	3004.37
479.569	2996.01
479.94	3116.23
480.311	3107.42
480.682	3148.55
481.053	3255.21
481.424	3304.93
481.795	3316.68
482.166	3438.03
482.537	3407.75
482.908	3464.7
483.279	3493.85
483.65	3594.64
484.021	3640.74
484.391	3691.81
484.762	3744.46
485.133	3755.08
485.503	3814.97
485.874	3918.02
486.244	3923.89
486.615	4037.56
486.985	4071.91
487.356	4096.32
487.726	4148.29
488.097	4224.9
488.467	4296.09
488.837	4360.94
489.207	4382.64
489.578	4468.74
489.948	4489.98
490.318	4517.32
490.688	4571.11
491.058	4643.42
491.428	4722.52
491.798	4778.56
492.168	4828.28
492.538	4881.38
492.908	4910.08
493.278	5001.15
493.648	5017.65
494.017	5062.17
494.387	5149.62
494.757	5155.5
495.126	5206.12
495.496	5263.97
495.866	5302.16
496.235	5353.01
496.605	5438.2
496.974	5386.91
497.344	5545.32
497.713	5522.72
498.082	5544.64
498.452	5626.67
498.821	5673
499.19	5719.1
499.559	5745.09
499.928	5800.23
500.298	5821.47
500.667	5896.72
501.036	5936.72
501.405	5940.11
501.774	5995.7
502.143	5981.24
502.512	6053.56
502.88	6116.6
503.249	6133.55
503.618	6221.91
503.987	6286.77
504.356	6321.8
504.724	6334.68
505.093	6401.57
505.462	6444.51
505.83	6485.86
506.199	6573.09
506.567	6614.67
506.936	6606.76
507.304	6644.5
507.672	6740.32
508.041	6798.85
508.409	6855.34
508.777	6927.66
509.145	6956.36
509.514	6996.81
509.882	7052.63
510.25	7112.06
510.618	7156.13
510.986	7166.75
511.354	7268.21
511.722	7314.09
512.09	7427.53
512.458	7343.01
512.826	7498.04
513.193	7497.36
513.561	7529.22
513.929	7592.95
514.297	7707.3
514.664	7755.21
515.032	7817.58
515.4	7942.55
515.767	7983.22
516.135	8013.05
516.502	8004.24
516.869	8147.51
517.237	8190.9
517.604	8155.87
517.972	8370.78
518.339	8397.45
518.706	8426.83
519.073	8437.67
519.44	8553.38
519.808	8639.25
520.175	8623.66
520.542	8761.73
520.909	8858.68
521.276	8838.12
521.643	8982.07
522.009	9032.69
522.376	9191.55
522.743	9208.5
523.11	9307.93
523.477	9464.09
523.843	9458.21
524.21	9588.38
524.577	9645.78
524.943	9686.91
525.31	9779.11
525.676	9912.89
526.043	9966.45
526.409	10038.31
526.776	10133.45
527.142	10205.99
527.508	10254.8
527.874	10456.83
528.241	10417.73
528.607	10512.42
528.973	10608.92
529.339	10701.12
529.705	10738.63
530.071	10856.37
530.437	10862.24
530.803	11054.78
531.169	11051.62
531.535	11187.21
531.901	11245.74
532.267	11296.81
532.632	11318.73
532.998	11432.62
533.364	11428.56
533.73	11537.03
534.095	11680.98
534.461	11718.04
534.826	11792.84
535.192	11866.51
535.557	12014.3
535.923	12009.11
536.288	12144.24
536.653	12128.2
537.019	12228.76
537.384	12280.06
537.749	12377.01
538.114	12461.07
538.479	12542.42
538.845	12649.54
539.21	12630.33
539.575	12680.05
539.94	12793.72
540.305	12912.13
540.67	12991
541.034	12990.32
541.399	13104.22
541.764	13163.65
542.129	13303.99
542.494	13312.12
542.858	13391.89
543.223	13449.07
543.587	13579.23
543.952	13607.71
544.316	13688.16
544.681	13789.62
545.045	13857.42
545.41	13982.39
545.774	14035.72
546.138	14088.37
546.503	14235.04
546.867	14253.79
547.231	14468.25
547.595	14452.88
547.959	14520
548.324	14570.85
548.688	14707.11
549.052	14822.82
549.416	14943.49
549.779	15041.12
550.143	15034.34
550.507	15285.18
550.871	15326.76
551.235	15426.64
551.599	15558.62
551.962	15729.69
552.326	15804.49
552.689	15962.45
553.053	15920.41
553.417	16076.12
553.78	16286.96
554.143	16409.22
554.507	16468.87
554.87	16582.54
555.234	16767.85
555.597	16817.34
555.96	17040.16
556.323	17096.2
556.686	17198.57
557.05	17523.76
557.413	17566.47
557.776	17769.63
558.139	17891.21
558.502	18015.05
558.865	18168.27
559.228	18353.57
559.59	18471.99
559.953	18634.92
560.316	18935.25
560.679	19085.08
561.041	19282.81
561.404	19392.64
561.767	19622.69
562.129	19641.45
562.492	20057.03
562.854	20223.8
563.217	20163.47
563.579	20331.37
563.941	20545.38
564.304	20806.16
564.666	21029.43
565.028	21101.52
565.39	21465.58
565.753	21583.54
566.115	21806.14
566.477	21999.8
566.839	22235.05
567.201	22435.72
567.563	22497.64
567.925	22803.4
568.287	22941.47
568.648	23218.3
569.01	23390.95
569.372	23694.9
569.734	23685.63
570.095	23939.64
570.457	24243.13
570.819	24349.8
571.18	24644.48
571.542	24910.69
571.903	24930.35
572.265	25209.89
572.626	25467.73
572.987	25666.6
573.349	25772.59
573.71	26078.57
574.071	26372.8
574.432	26411.21
574.794	26854.36
575.155	26910.18
575.516	26889.62
575.877	27162.15
576.238	27304.3
576.599	27657.96
576.96	27777.05
577.32	27792.87
577.681	28061.34
578.042	28203.26
578.403	28360.54
578.763	28520.76
579.124	28766.63
579.485	28901.09
579.845	29120.07
580.206	29274.87
580.566	29345.15
580.927	29483.67
581.287	29650
581.648	29790.33
582.008	29997.78
582.368	30125.01
582.728	30203.88
583.089	30363.65
583.449	30368.85
583.809	30611.78
584.169	30801.15
584.529	30798.44
584.889	31132.67
585.249	30929.96
585.609	31153.46
585.969	31525.2
586.329	31349.39
586.688	31551.64
587.048	31646.55
587.408	31633.22
587.768	31832.54
588.127	31978.75
588.487	31990.95
588.846	32257.16
589.206	32100.1
589.565	32218.52
589.925	32608.34
590.284	32501.9
590.643	32655.57
591.003	32960.87
591.362	32999.74
591.721	33008.78
592.08	33161.77
592.44	33383.91
592.799	33326.51
593.158	33314.53
593.517	33402.44
593.876	33585.94
594.235	33604.7
594.593	33766.5
594.952	33881.07
595.311	33939.6
595.67	34212.36
596.029	34304.79
596.387	34380.95
596.746	34567.61
597.104	34485.8
597.463	34380.95
597.822	34726.93
598.18	34861.16
598.538	34946.58
598.897	35147.25
599.255	34903.42
599.613	35411.88
599.972	35256.86
600.33	35477.19
600.688	35446.45
601.046	35747.01
601.404	35864.98
601.762	35916.5
602.12	36139.32
602.478	36105.65
602.836	36270.39
603.194	36223.84
603.552	36408.92
603.91	36374.11
604.268	36723.48
604.625	36601.23
604.983	36767.32
605.341	36722.35
605.698	37069.24
606.056	37225.62
606.413	37126.18
606.771	37316.69
607.128	37442.11
607.485	37362.56
607.843	37506.74
608.2	37882.78
608.557	38020.17
608.914	37834.41
609.272	38142.43
609.629	38431.24
609.986	38538.35
610.343	38502.42
610.7	38767.05
611.057	38643.66
611.414	38728.63
611.771	38789.42
612.127	39044.78
612.484	39179.46
612.841	39214.04
613.198	39240.48
613.554	39296.52
613.911	39506.01
614.267	39735.83
614.624	39766.57
614.98	39798.43
615.337	40161.81
615.693	40206.33
616.05	40120.23
616.406	40569.94
616.762	40512.54
617.118	40504.63
617.475	40515.02
617.831	40703.49
618.187	40758.63
618.543	40898.97
618.899	41134.89
619.255	41149.13
619.611	41302.35
619.967	41308.22
620.323	41671.6
620.678	41483.58
621.034	41345.96
621.39	41646.07
621.746	41519.06
622.101	42209.22
622.457	41812.39
622.812	41935.32
623.168	42136.22
623.523	42113.4
623.879	42238.59
624.234	42143.68
624.589	42273.62
624.945	42435.88
625.3	42411.02
625.655	42481.52
626.01	42648.98
626.365	42663.21
626.72	42697.11
627.075	42587.06
627.43	42627.96
627.785	42670.45
628.14	42771.91
628.495	42913.83
628.85	42856.66
629.205	42870.67
629.559	43064.56
629.914	42922.42
630.269	43095.97
630.623	43028.18
630.978	43163.99
631.332	43190.88
631.687	43374.83
632.041	43303.65
632.396	43144.56
632.75	43254.39
633.104	43329.41
633.459	43284.44
633.813	43303.65
634.167	43373.03
634.521	43288.96
634.875	43498.22
635.229	43386.13
635.583	43387.49
635.937	43452.57
636.291	43317.66
636.645	43335.97
636.999	43438.34
637.352	43524.21
637.706	43378.22
638.06	43636.3
638.413	43566.69
638.767	43573.02
639.121	43641.95
639.474	43321.5
639.828	43505
640.181	43651.66
640.534	43560.82
640.888	43647.82
641.241	43349.3
641.594	43530.76
641.947	43634.94
642.301	43401.05
642.654	43635.39
643.007	43784.31
643.36	43667.71
643.713	43685.79
644.066	43872.22
644.419	43660.93
644.771	43531.89
645.124	43175.07
645.477	43165.35
645.83	42987.5
646.182	42931.91
646.535	42767.84
646.888	42839.48
647.24	42563.78
647.593	42881.97
647.945	42764
648.298	42646.94
648.65	42757
649.002	42423.45
649.355	42817.33
649.707	42782.08
650.059	43101.17
650.411	43542.74
650.763	43506.13
651.115	44022.95
651.467	43851.88
651.819	44057.53
652.171	43829.06
652.523	43897.98
652.875	43945.89
653.227	43812.11
653.578	44226.56
653.93	44078.09
654.282	43951.32
654.633	44042.16
654.985	44069.28
655.337	43931.43
655.688	44161.25
656.039	44360.57
656.391	44035.83
656.742	44174.59
657.094	44216.85
657.445	44373
657.796	44212.55
658.147	44194.7
658.498	44248.94
658.849	44383.4
659.2	44290.52
659.551	44315.37
659.902	44520.57
660.253	44330.74
660.604	44575.71
660.955	44243.74
661.306	44545.42
661.656	44594.01
662.007	44701.8
662.358	44650.73
662.708	44716.04
663.059	44613.22
663.409	44397.86
663.76	44759.43
664.11	44874.91
664.461	44899.09
664.811	45013.21
665.161	44899.31
665.511	44705.42
665.862	44909.26
666.212	45059.54
666.562	45123.04
666.912	44937.73
667.262	44908.35
667.612	45033.32
667.962	45071.51
668.312	44987.9
668.662	45156.26
669.011	45229.25
669.361	45314.44
669.711	45150.38
670.06	45149.7
670.41	45260.43
670.76	45268.12
671.109	45446.87
671.459	45316.48
671.808	45353.09
672.157	45530.71
672.507	45160.78
672.856	45341.34
673.205	45430.15
673.554	45432.18
673.904	45473.54
674.253	45662.68
674.602	45486.87
674.951	44906.77
675.3	44826.32
675.649	45555.12
675.998	45570.48
676.346	45654.1
676.695	45698.39
677.044	45560.77
677.393	45824.04
677.741	45946.07
678.09	45793.98
678.438	45573.87
678.787	45911.49
679.135	45665.85
679.484	45467.89
679.832	45763.25
680.181	45609.58
680.529	45762.57
680.877	45699.97
681.225	45730.7
681.573	46107.64
681.922	45738.84
682.27	45538.39
682.618	45523.93
682.966	45581.1
683.314	45599.41
683.661	45627.2
684.009	45524.16
684.357	45496.81
684.705	45399.87
685.053	45575
685.4	45402.35
685.748	45398.74
686.095	45365.06
686.443	45287.78
686.79	45284.61
687.138	45439.64
687.485	45389.24
687.832	45211.4
688.18	45371.62
688.527	45119.87
688.874	45148.8
689.221	45084.85
689.568	45000.55
689.915	44906.77
690.262	45070.38
690.609	44907.45
690.956	44803.95
691.303	44970.95
691.65	44796.72
691.997	44711.75
692.344	44512.88
692.69	44651.41
693.037	44662.48
693.383	44351.76
693.73	44526.67
694.077	44246
694.423	44239.22
694.769	44225.89
695.116	44263.62
695.462	44298.2
695.808	44073.8
696.155	44290.06
696.501	43886.23
696.847	44056.62
697.193	43712.45
697.539	43955.84
697.885	43632
698.231	43623.42
698.577	43659.35
698.923	43584.09
699.269	43416.87
699.614	43357.21
699.96	43286.47
700.306	43390.43
700.651	43309.3
700.997	43181.17
701.342	43085.12
701.688	43070.44
702.033	42880.38
702.379	42986.82
702.724	42955.86
703.069	43137.78
703.415	42628.41
703.76	42774.4
704.105	42803.78
704.45	42766.94
704.795	42486.27
705.14	42526.04
705.485	42524.46
705.83	42387.74
706.175	42516.1
706.52	42464.12
706.865	42233.62
707.209	42306.61
707.554	42150.69
707.899	42277.69
708.243	42076.79
708.588	42029.33
708.932	41869.11
709.277	41827.98
709.621	41956.79
709.966	41711.38
710.31	41964.48
710.654	41430.25
710.998	41601.77
711.342	41719.96
711.687	41628.44
712.031	41624.15
712.375	41547.31
712.719	41724.93
713.063	41565.84
713.407	41430.48
713.75	41401.1
714.094	41452.85
714.438	41401.1
714.782	41318.17
715.125	41325.85
715.469	41515.67
715.812	41255.79
716.156	41197.49
716.499	41183.25
716.843	41163.59
717.186	40986.42
717.53	41086.08
717.873	41127.21
718.216	41087.89
718.559	41020.32
718.902	40867.33
719.246	40966.99
719.589	40891.51
719.932	40731.29
720.275	40934.9
720.617	40883.6
720.96	40793.89
721.303	40861.23
721.646	40931.06
721.989	40783.72
722.331	40921.34
722.674	40778.74
723.016	40802.92
723.359	40820.32
723.701	40860.55
724.044	40532.2
724.386	40376.04
724.729	40454.68
725.071	40515.7
725.413	40432.76
725.755	40472.99
726.097	40319.32
726.439	40235.48
726.782	40290.4
727.124	40435.25
727.465	40412.65
727.807	40401.8
728.149	40132.66
728.491	40159.78
728.833	40141.92
729.175	40113.45
729.516	40008.82
729.858	39996.39
730.199	40120.23
730.541	40124.07
730.882	40086.56
731.224	40069.16
731.565	40086.33
731.906	40062.38
732.248	40133.34
732.589	40082.94
732.93	39978.09
733.271	40044.07
733.612	40087.46
733.953	40144.41
734.294	39898.77
734.635	39985.77
734.976	39967.01
735.317	39603.86
735.658	39758.88
735.999	39854.7
736.339	39754.59
736.68	39886.79
737.021	39783.06
737.361	39463.52
737.702	39809.73
738.042	39593.24
738.383	39654.03
738.723	39858.54
739.063	39646.8
739.404	39636.4
739.744	39548.04
740.084	39577.65
740.424	39617.87
740.764	39757.08
741.104	39637.53
741.444	39554.37
741.784	39332.23
742.124	39572.45
742.464	39626.01
742.804	39525.22
743.143	39563.41
743.483	39565.89
743.823	39415.84
744.162	39445.9
744.502	39371.55
744.841	39263.76
745.181	39515.73
745.52	39312.12
745.86	39383.3
746.199	39302.17
746.538	39245.9
746.877	39480.7
747.216	39318.9
747.556	39144.89
747.895	39197.77
748.234	39059.69
748.573	38954.39
748.911	39164.1
749.25	39173.36
749.589	39047.26
749.928	39229.18
750.267	39242.06
750.605	39094.72
750.944	39054.04
751.283	38999.36
751.621	39168.84
751.96	38768.4
752.298	38678.23
752.636	38877.1
752.975	38645.24
753.313	38500.16
753.651	38663.77
753.989	38412.03
754.327	38322.09
754.666	38431.69
755.004	38444.12
755.342	38605.69
755.679	38479.37
756.017	38068.08
756.355	38240.28
756.693	38142.2
757.031	38369.09
757.368	38149.21
757.706	38079.15
758.044	37808.88
758.381	38031.47
758.719	37842.32
759.056	37809.78
759.394	37799.84
759.731	37504.93
760.068	37711.03
760.405	37576.79
760.743	37644.36
761.08	37677.36
761.417	37403.01
761.754	37339.29
762.091	37216.58
762.428	37231.72
762.765	37230.59
763.102	37425.39
763.438	37063.59
763.775	36836.93
764.112	37116.92
764.449	37029.69
764.785	36832.41
765.122	36601
765.458	36641.68
765.795	36529.59
766.131	36458.86
766.467	36423.6
766.804	36261.57
767.14	36191.97
767.476	36294.12
767.812	36017.51
768.148	36045.08
768.485	35881.02
768.821	35719.67
769.157	35677.41
769.492	35530.75
769.828	35450.97
770.164	35152
770.5	35207.37
770.836	35188.83
771.171	35002.62
771.507	34992
771.842	34782.97
772.178	34906.36
772.513	34881.27
772.849	34881.27
773.184	34712.01
773.519	34578.46
773.855	34408.97
774.19	34321.06
774.525	34360.16
774.86	34338.46
775.195	34222.08
775.53	34197.67
775.865	34018.7
776.2	33901.18
776.535	33727.4
776.87	33802.2
777.205	33599.05
777.539	33521.31
777.874	33581.42
778.209	33179.4
778.543	33294.42
778.878	33062.56
779.212	33166.74
779.547	32984.6
779.881	33042.9
780.215	32832.96
780.55	32867.54
780.884	32731.95
781.218	32627.09
781.552	32614.44
781.886	32502.35
782.22	32290.83
782.554	32298.97
782.888	31967.9
783.222	32019.43
783.556	31936.04
783.889	31826.44
784.223	31654.92
784.557	31683.62
784.89	31794.12
785.224	31500.57
785.557	31366.79
785.891	31465.09
786.224	31333.12
786.558	31413.11
786.891	31149.84
787.224	30917.08
787.557	30937.42
787.891	30917.31
788.224	30894.26
788.557	31005.22
788.89	30694.04
789.223	30752.34
789.556	30477.55
789.888	30317.1
790.221	30418.11
790.554	30109.87
790.887	30096.99
791.219	30008.41
791.552	30048.4
791.884	29964.79
792.217	30068.74
792.549	29791.69
792.882	29646.38
793.214	29544.24
793.546	29676.44
793.879	29485.26
794.211	29419.72
794.543	29487.52
794.875	29392.6
795.207	29531.36
795.539	29388.08
795.871	29370.23
796.203	29121.65
796.535	29070.13
796.867	29033.74
797.198	29088.2
797.53	28891.83
797.862	28654.09
798.193	28805.27
798.525	28570.48
798.856	28645.28
799.188	28404.61
799.519	28382.46
799.85	28325.74
800.182	28207.55
800.513	28160.54
800.844	28033.77
801.175	28176.82
801.506	28252.75
801.837	28045.52
802.168	28015.24
802.499	27825.41
802.83	27750.84
803.161	27632.65
803.491	27654.34
803.822	27628.13
804.153	27514.69
804.483	27450.73
804.814	27328.48
805.145	27377.97
805.475	27416.84
805.805	27213
806.136	27323.5
806.466	27342.49
806.796	27175.03
807.126	27038.09
807.457	26933.68
807.787	27008.71
808.117	26850.97
808.447	26799.9
808.777	26958.09
809.107	26829.73
809.436	26683.97
809.766	26724.2
810.096	26755.16
810.426	26600.36
810.755	26581.38
811.085	26504.54
811.414	26464.09
811.744	26455.28
812.073	26307.71
812.403	26404.21
812.732	26399.91
813.061	26350.42
813.39	26130.32
813.719	26155.17
814.049	26175.29
814.378	26182.74
814.707	26085.12
815.036	26034.27
815.365	25906.82
815.693	25645.58
816.022	25613.04
816.351	25632.48
816.68	25610.56
817.008	25649.88
817.337	25457.57
817.665	25481.97
817.994	25568.3
818.322	25609.2
818.651	25372.82
818.979	25188.19
819.307	25445.14
819.636	25331.69
819.964	25187.97
820.292	25393.61
820.62	25312.48
820.948	25221.41
821.276	25292.37
821.604	25145.26
821.932	25350.45
822.259	25394.74
822.587	25248.08
822.915	25308.19
823.243	25346.83
823.57	25355.42
823.898	25370.56
824.225	25362.43
824.553	25333.27
824.88	25378.25
825.207	25507.06
825.535	25323.56
825.862	25403.1
826.189	25247.85
826.516	25375.76
826.843	25628.86
827.17	25528.3
827.497	25568.3
827.824	25550.44
828.151	25570.1
828.478	25558.81
828.805	25773.94
829.131	25517
829.458	25562.2
829.785	25464.12
830.111	25537.34
830.438	25631.12
830.764	25712.25
831.09	25807.84
831.417	25744.79
831.743	25797.9
832.069	25856.2
832.395	25642.87
832.722	25658.46
833.048	25395.19
833.374	25714.51
833.7	25495.3
834.026	25683.77
834.351	25647.62
834.677	25673.6
835.003	25765.58
835.329	25718.58
835.654	25792.47
835.98	25473.61
836.306	25594.28
836.631	25656.2
836.956	25582.53
837.282	25458.92
837.607	25340.73
837.932	25334.18
838.258	25366.49
838.583	25442.88
838.908	25332.6
839.233	25547.05
839.558	25422.99
839.883	25363.33
840.208	25171.02
840.533	25316.33
840.858	25440.84
841.182	25491.24
841.507	25346.83
841.832	25204.24
842.156	25344.12
842.481	25207.63
842.805	25209.89
843.13	25142.09
843.454	24990.23
843.778	24900.07
844.103	24806.28
844.427	24818.26
844.751	24815.77
845.075	24823.23
845.399	24796.11
845.723	24573.07
846.047	24705.72
846.371	24427.76
846.695	24514.77
847.019	24294.21
847.343	24174.43
847.666	24095.34
847.99	24027.32
848.313	24042.24
848.637	23948.23
848.96	23848.34
849.284	23884.05
849.607	23714.33
849.931	23715.46
850.254	23610.83
850.577	23478.41
850.9	23485.41
851.223	23298.53
851.546	23217.85
851.869	23121.13
852.192	23296.94
852.515	23039.1
852.838	23011.98
853.161	23056.72
853.483	22862.38
853.806	22738.99
854.129	22752.33
854.451	22660.58
854.774	22665.32
855.096	22652.44
855.419	22527.7
855.741	22472.56
856.063	22355.27
856.385	22404.54
856.708	22313.92
857.03	22173.13
857.352	22202.74
857.674	22113.47
857.996	22155.05
858.318	21988.73
858.64	21900.37
858.961	21986.47
859.283	21951.44
859.605	21687.95
859.926	21786.48
860.248	21712.35
860.57	21681.39
860.891	21802.97
861.212	21684.33
861.534	21712.8
861.855	21603.66
862.176	21662.41
862.498	21664.22
862.819	21704.67
863.14	21556.88
863.461	21614.73
863.782	21437.78
864.103	21555.29
864.424	21378.8
864.745	21424
865.065	21276.43
865.386	21210.22
865.707	21298.8
866.027	21257
866.348	21268.52
866.668	21263.78
866.989	21139.71
867.309	21186.04
867.63	21182.65
867.95	21145.14
868.27	21060.39
868.59	20973.39
868.91	21050
869.23	21005.48
869.55	20945.82
869.87	21096.78
870.19	20895.2
870.51	21092.71
870.83	21058.36
871.15	20880.74
871.469	20728.65
871.789	20834.18
872.109	20878.7
872.428	20786.5
872.748	20796.44
873.067	20858.36
873.386	20901.75
873.706	20800.74
874.025	20690.46
874.344	20712.15
874.663	20784.92
874.982	20598.48
875.301	20744.02
875.62	20588.99
875.939	20576.11
876.258	20592.38
876.577	20579.05
876.896	20554.87
877.214	20461.99
877.533	20684.36
877.852	20623.34
878.17	20493.63
878.489	20552.61
878.807	20424.48
879.125	20428.77
879.444	20447.08
879.762	20505.6
880.08	20508.54
880.398	20301.09
880.716	20363.24
881.034	20241.21
881.352	20327.98
881.67	20136.12
881.988	20210.47
882.306	20138.61
882.624	20027.88
882.941	19964.15
883.259	19982.23
883.577	19943.59
883.894	19956.69
884.212	19898.16
884.529	19905.17
884.846	19985.39
885.164	19917.82
885.481	19830.82
885.798	19803.48
886.115	19683.03
886.432	19721.9
886.75	19627.44
887.067	19591.73
887.383	19527.78
887.7	19611.39
888.017	19567.78
888.334	19632.41
888.651	19457.5
888.967	19433.77
889.284	19249.37
889.6	19218.41
889.917	19080.78
890.233	19131.4
890.55	19086.43
890.866	19170.95
891.182	19045.98
891.498	18986.77
891.815	19015.02
892.131	18799.44
892.447	18857.74
892.763	18805.31
893.079	18739.78
893.395	18524.41
893.71	18607.35
894.026	18636.05
894.342	18582.04
894.657	18479.9
894.973	18429.5
895.289	18386.34
895.604	18403.51
895.92	18348.37
896.235	18384.08
896.55	18349.5
896.865	18292.1
897.181	18324.65
897.496	18256.4
897.811	18182.5
898.126	17986.58
898.441	17986.8
898.756	17974.82
899.071	17977.31
899.386	17994.48
899.7	17710.88
900.015	17646.25
900.33	17547.04
900.644	17636.3
900.959	17598.11
901.273	17556.53
901.588	17464.55
901.902	17363.77
902.216	17357.44
902.531	17471.33
902.845	17310.21
903.159	17156.77
903.473	17146.15
903.787	17048.97
904.101	17019.59
904.415	16959.71
904.729	16922.87
905.042	16863.44
905.356	16809.43
905.67	16755.65
905.984	16763.78
906.297	16741.86
906.611	16613.5
906.924	16590.23
907.237	16475.65
907.551	16451.25
907.864	16330.8
908.177	16419.61
908.491	16326.51
908.804	16246.28
909.117	16172.16
909.43	16143.91
909.743	16022.11
910.056	16001.09
910.368	15979.62
910.681	15931.04
910.994	15804.26
911.307	15752.28
911.619	15693.75
911.932	15705.28
912.244	15580.99
912.557	15630.48
912.869	15460.31
913.181	15354.55
913.494	15383.93
913.806	15308.68
914.118	15314.55
914.43	15188
914.742	15248.57
915.054	15164.05
915.366	15057.84
915.678	15037.95
915.99	14948.69
916.302	14842.7
916.613	14842.25
916.925	14793.21
917.236	14809.03
917.548	14713.21
917.859	14710.96
918.171	14590.05
918.482	14477.06
918.794	14411.53
919.105	14412.88
919.416	14279.1
919.727	14282.72
920.038	14192.78
920.349	14182.16
920.66	14164.08
920.971	14093.57
921.282	14062.38
921.593	13925.21
921.903	13944.65
922.214	13852.9
922.525	13821.71
922.835	13677.76
923.146	13648.16
923.456	13687.48
923.767	13590.76
924.077	13566.58
924.387	13560.25
924.697	13484.55
925.008	13454.04
925.318	13334.27
925.628	13360.48
925.938	13297.88
926.248	13097.66
926.558	13164.1
926.867	13074.61
927.177	13079.36
927.487	12946.48
927.796	12894.05
928.106	12752.36
928.416	12783.32
928.725	12770.67
929.034	12707.39
929.344	12729.31
929.653	12724.57
929.962	12644.79
930.271	12510.11
930.581	12563.67
930.89	12503.1
931.199	12352.6
931.508	12334.29
931.817	12468.53
932.125	12287.29
932.434	12290.68
932.743	12277.12
933.051	12088.2
933.36	12089.56
933.669	11957.36
933.977	11881.2
934.286	11959.84
934.594	11879.84
934.902	11801.2
935.21	11775.21
935.519	11726.4
935.827	11719.4
936.135	11589.23
936.443	11585.39
936.751	11493.86
937.059	11537.03
937.367	11506.29
937.674	11411.61
937.982	11413.87
938.29	11276.92
938.597	11301.33
938.905	11204.61
939.213	11219.52
939.52	11088
939.827	11099.3
940.135	11050.26
940.442	10957.38
940.749	10985.63
941.056	11043.48
941.363	10890.04
941.67	10790.83
941.977	10697.95
942.284	10726.43
942.591	10777.73
942.898	10634.68
943.205	10592.42
943.511	10586.09
943.818	10573.66
944.125	10497.05
944.431	10475.81
944.738	10364.4
945.044	10368.47
945.35	10333.89
945.657	10318.08
945.963	10295.03
946.269	10302.26
946.575	10242.6
946.881	10114.92
947.187	10083.51
947.493	9972.1
947.799	9993.11
948.105	10014.81
948.41	9911.76
948.716	9842.38
949.022	9856.62
949.327	9803.29
949.633	9714.25
949.938	9728.94
950.244	9750.86
950.549	9600.35
950.854	9599
951.16	9610.3
951.465	9533.46
951.77	9476.29
952.075	9438.55
952.38	9373.24
952.685	9380.02
952.99	9172.34
953.294	9268.61
953.599	9232.23
953.904	9161.95
954.209	9102.06
954.513	9140.93
954.818	9049.41
955.122	9025.68
955.426	9038.34
955.731	8994.27
956.035	8908.4
956.339	8843.54
956.643	8831.79
956.948	8817.55
957.252	8879.92
957.556	8780.26
957.86	8735.74
958.163	8728.97
958.467	8639.7
958.771	8580.27
959.075	8593.15
959.378	8578.91
959.682	8540.04
959.985	8400.61
960.289	8440.61
960.592	8403.55
960.896	8364.91
961.199	8329.88
961.502	8248.53
961.805	8289.65
962.108	8170.79
962.411	8258.92
962.714	8117.23
963.017	8105.25
963.32	8108.64
963.623	8055.99
963.926	8042.2
964.228	8006.27
964.531	8006.27
964.833	8005.82
965.136	7875.65
965.438	7907.74
965.741	7834.75
966.043	7837.46
966.345	7787.07
966.648	7719.27
966.95	7706.62
967.252	7633.85
967.554	7604.02
967.856	7534.87
968.158	7556.57
968.46	7533.74
968.761	7456.23
969.063	7496
969.365	7430.24
969.666	7385.72
969.968	7376.91
970.269	7263.47
970.571	7260.3
970.872	7284.71
971.174	7208.1
971.475	7197.48
971.776	7219.4
972.077	7216.24
972.378	7130.14
972.679	7030.25
972.98	7035.45
973.281	7004.49
973.582	6924.95
973.883	6945.96
974.183	7007.43
974.484	6928.79
974.785	6902.12
975.085	6899.63
975.386	6834.78
975.686	6792.29
975.986	6802.24
976.287	6729.02
976.587	6682.24
976.887	6658.51
977.187	6690.37
977.487	6560.89
977.787	6608.57
978.087	6599.3
978.387	6529.02
978.687	6547.78
978.987	6496.26
979.286	6443.15
979.586	6417.61
979.885	6418.07
980.185	6367.45
980.484	6353.89
980.784	6270.05
981.083	6287.22
981.382	6277.96
981.682	6224.85
981.981	6188.92
982.28	6162.25
982.579	6134.01
982.878	6146.89
983.177	6131.29
983.475	6089.94
983.774	5996.61
984.073	5943.73
984.372	5946.89
984.67	5902.15
984.969	5916.61
985.267	5866.44
985.566	5861.24
985.864	5863.5
986.162	5840.45
986.461	5764.98
986.759	5730.4
987.057	5683.62
987.355	5757.07
987.653	5639.1
987.951	5656.96
988.249	5655.15
988.547	5603.85
988.844	5568.37
989.142	5568.82
989.44	5552.55
989.737	5519.33
990.035	5465.55
990.332	5450.18
990.63	5439.56
990.927	5447.02
991.224	5440.01
991.521	5374.93
991.819	5342.84
992.116	5339.45
992.413	5333.12
992.71	5302.39
993.006	5273.69
993.303	5219.68
993.6	5219.91
993.897	5187.14
994.193	5173.8
994.49	5119.57
994.787	5141.94
995.083	5046.8
995.379	4988.5
995.676	4951.44
995.972	4945.34
996.268	4927.71
996.565	4922.74
996.861	4935.84
997.157	4898.78
997.453	4815.4
997.749	4835.51
998.044	4803.19
998.34	4781.27
998.636	4770.43
998.932	4757.32
999.227	4672.35
999.523	4667.83
999.818	4628.73
1000.114	4647.49
1000.409	4616.31
1000.704	4628.06
1001	4539.7
1001.295	4522.52
1001.59	4502.64
1001.885	4488.17
1002.18	4515.52
1002.475	4438.68
1002.77	4410.66
1003.065	4366.82
1003.359	4339.93
1003.654	4351.23
1003.949	4268.74
1004.243	4278.01
1004.538	4216.32
1004.832	4227.16
1005.127	4192.14
1005.421	4208.63
1005.715	4150.55
1006.009	4143.32
1006.304	4104.23
1006.598	4029.88
1006.892	4031.69
1007.186	4048.18
1007.48	4000.73
1007.773	3966.83
1008.067	3957.79
1008.361	3920.96
1008.655	3924.35
1008.948	3956.44
1009.242	3887.74
1009.535	3887.51
1009.829	3849.32
1010.122	3800.51
1010.415	3802.54
1010.708	3766.84
1011.001	3756.67
1011.295	3713.96
1011.588	3679.15
1011.881	3661.98
1012.173	3629.66
1012.466	3647.07
1012.759	3645.71
1013.052	3624.92
1013.344	3554.41
1013.637	3555.77
1013.93	3511.7
1014.222	3469.67
1014.514	3466.28
1014.807	3458.37
1015.099	3448.65
1015.391	3418.37
1015.683	3397.81
1015.976	3353.51
1016.268	3347.86
1016.56	3321.2
1016.851	3273.29
1017.143	3258.15
1017.435	3246.62
1017.727	3238.94
1018.018	3173.86
1018.31	3201.2
1018.602	3169.11
1018.893	3115.1
1019.185	3096.12
1019.476	3086.4
1019.767	3084.37
1020.058	3029.68
1020.35	3033.07
1020.641	2993.75
1020.932	2972.73
1021.223	2926.18
1021.514	2915.56
1021.804	2923.47
1022.095	2885.96
1022.386	2855.45
1022.677	2832.17
1022.967	2823.36
1023.258	2825.62
1023.548	2820.65
1023.839	2834.43
1024.129	2759.4
1024.419	2785.84
1024.709	2742.46
1025	2671.95
1025.29	2663.14
1025.58	2671.5
1025.87	2653.19
1026.16	2655
1026.449	2594.44
1026.739	2550.6
1027.029	2553.99
1027.319	2532.07
1027.608	2513.31
1027.898	2479.64
1028.187	2512.63
1028.477	2476.02
1028.766	2427.21
1029.055	2415.91
1029.344	2415.69
1029.634	2380.66
1029.923	2366.42
1030.212	2372.3
1030.501	2340.21
1030.79	2317.38
1031.078	2292.75
1031.367	2259.76
1031.656	2262.92
1031.945	2236.93
1032.233	2211.4
1032.522	2208.46
1032.81	2206.43
1033.099	2188.57
1033.387	2171.17
1033.675	2188.57
1033.963	2122.36
1034.251	2124.62
1034.54	2112.19
1034.828	2121.91
1035.116	2081.91
1035.403	2078.74
1035.691	2056.37
1035.979	2003.27
1036.267	2011.63
1036.554	1979.31
1036.842	1979.54
1037.129	1951.06
1037.417	1928.69
1037.704	1902.48
1037.992	1917.62
1038.279	1925.75
1038.566	1883.5
1038.853	1883.5
1039.14	1883.5
