Data from copper_heatsink_FLMS001491_012.txt Node
Date: Tue Feb 07 10:49:17 GMT 2017
User: dcchb
Spectrometer: FLMS00149
Trigger mode: 0
Integration Time (sec): 2.000000E-2
Scans to average: 10
Electric dark correction enabled: true
Nonlinearity correction enabled: false
Boxcar width: 0
XAxis mode: Wavelengths
Number of Pixels in Spectrum: 2048
>>>>>Begin Spectral Data<<<<<
341.393	1.54
341.776	1.54
342.16	1.54
342.543	-61.28
342.927	-59.25
343.31	-66.03
343.693	-88.4
344.077	-84.56
344.46	-48.85
344.843	-55.18
345.226	-53.83
345.61	-17.67
345.993	-25.8
346.376	-0.49
346.759	20.3
347.142	29.11
347.525	47.41
347.908	39.96
348.291	79.96
348.674	120.18
349.057	103.91
349.44	123.8
349.823	136
350.206	177.35
350.588	206.73
350.971	218.26
351.354	254.87
351.737	271.59
352.119	268.88
352.502	301.42
352.884	319.05
353.267	286.28
353.65	309.55
354.032	319.05
354.414	346.16
354.797	321.76
355.179	347.07
355.562	350
355.944	352.04
356.326	347.29
356.709	347.75
357.091	342.1
357.473	343.23
357.855	361.08
358.238	357.01
358.62	357.69
359.002	360.4
359.384	336.22
359.766	369.44
360.148	360.85
360.53	371.93
360.912	337.12
361.294	352.04
361.676	368.08
362.057	373.73
362.439	352.04
362.821	332.83
363.203	343.9
363.584	355.2
363.966	344.58
364.348	329.44
364.729	361.76
365.111	352.49
365.493	356.11
365.874	333.51
366.256	361.76
366.637	361.53
367.019	358.37
367.4	339.61
367.781	342.1
368.163	333.06
368.544	344.36
368.925	344.81
369.306	320.18
369.688	348.65
370.069	339.16
370.45	348.88
370.831	359.72
371.212	339.84
371.593	342.55
371.974	333.51
372.355	345.26
372.736	364.24
373.117	342.77
373.498	352.72
373.879	341.64
374.26	359.5
374.641	327.41
375.021	362.89
375.402	347.07
375.783	337.12
376.163	372.83
376.544	359.27
376.925	373.51
377.305	382.77
377.686	362.66
378.066	380.29
378.447	374.86
378.827	367.63
379.208	362.66
379.588	376.67
379.968	375.54
380.349	351.13
380.729	374.64
381.109	394.52
381.489	364.92
381.87	393.85
382.25	344.81
382.63	367.41
383.01	378.25
383.39	377.8
383.77	373.06
384.15	383
384.53	393.62
384.91	382.77
385.29	390.23
385.67	389.1
386.049	393.39
386.429	390.46
386.809	404.69
387.189	381.87
387.568	385.03
387.948	398.59
388.328	379.38
388.707	399.27
389.087	395.2
389.466	399.04
389.846	404.24
390.225	408.31
390.605	403.56
390.984	410.57
391.363	404.24
391.743	408.53
392.122	397.91
392.501	429.1
392.881	402.66
393.26	397.46
393.639	404.92
394.018	418.93
394.397	409.66
394.776	429.55
395.155	423.68
395.534	423.68
395.913	421.64
396.292	441.75
396.671	434.97
397.05	431.36
397.429	435.88
397.808	421.42
398.186	432.94
398.565	427.07
398.944	452.83
399.323	441.08
399.701	450.12
400.08	430.68
400.458	451.47
400.837	441.53
401.215	450.57
401.594	455.54
401.972	468.87
402.351	470.91
402.729	474.52
403.107	447.18
403.486	462.09
403.864	456.44
404.242	469.78
404.62	467.74
404.999	475.88
405.377	493.28
405.755	469.55
406.133	501.19
406.511	466.16
406.889	463
407.267	481.07
407.645	489.44
408.023	484.46
408.401	488.53
408.779	493.05
409.156	507.97
409.534	496.22
409.912	506.61
410.29	504.58
410.667	517.01
411.045	487.18
411.422	513.84
411.8	497.35
412.178	535.54
412.555	525.14
412.933	518.14
413.31	541.86
413.687	533.73
414.065	549.55
414.442	537.34
414.819	561.75
415.197	545.71
415.574	553.39
415.951	537.57
416.328	538.47
416.705	564.24
417.082	536.44
417.46	573.5
417.837	556.78
418.214	568.98
418.591	542.99
418.967	582.09
419.344	603.78
419.721	584.58
420.098	587.29
420.475	574.41
420.852	567.17
421.228	580.73
421.605	575.31
421.982	605.59
422.358	602.65
422.735	601.98
423.111	599.72
423.488	614.4
423.864	611.69
424.241	627.51
424.617	611.92
424.994	623.67
425.37	608.53
425.746	634.74
426.123	621.64
426.499	625.03
426.875	639.71
427.251	638.58
427.627	653.95
428.003	620.51
428.379	643.78
428.756	684.69
429.132	666.38
429.507	694.85
429.883	673.39
430.259	692.37
430.635	685.82
431.011	693.27
431.387	705.02
431.763	697.79
432.138	714.29
432.514	692.14
432.89	715.65
433.265	698.92
433.641	716.77
434.016	729.66
434.392	745.93
434.767	752.71
435.143	743.44
435.518	759.03
435.894	788.19
436.269	776.66
436.644	787.06
437.02	793.16
437.395	777.11
437.77	780.05
438.145	791.8
438.52	805.59
438.895	803.1
439.271	795.87
439.646	825.7
440.021	814.17
440.395	809.2
440.77	821.86
441.145	859.82
441.52	848.3
441.895	843.55
442.27	833.38
442.645	842.87
443.019	869.77
443.394	862.53
443.769	873.16
444.143	861.18
444.518	873.38
444.892	850.56
445.267	877.22
445.641	880.84
446.016	881.52
446.39	872.7
446.764	884.91
447.139	893.04
447.513	909.31
447.887	906.37
448.262	942.53
448.636	928.97
449.01	926.71
449.384	939.59
449.758	958.8
450.132	931.46
450.506	948.41
450.88	971.23
451.254	973.49
451.628	970.1
452.002	978.01
452.376	980.27
452.75	1012.36
453.123	992.47
453.497	1031.57
453.871	1031.12
454.244	1029.31
454.618	1040.38
454.992	1043.09
455.365	1073.15
455.739	1093.26
456.112	1085.35
456.486	1084.45
456.859	1124.22
457.232	1122.64
457.606	1094.84
457.979	1132.58
458.352	1156.31
458.725	1175.29
459.099	1168.51
459.472	1196.76
459.845	1210.77
460.218	1220.26
460.591	1206.71
460.964	1210.1
461.337	1207.61
461.71	1237.21
462.083	1273.37
462.456	1285.12
462.829	1286.48
463.201	1299.58
463.574	1301.62
463.947	1312.92
464.32	1338
464.692	1365.35
465.065	1352.01
465.438	1402.63
465.81	1426.36
466.183	1433.37
466.555	1436.53
466.928	1463.42
467.3	1469.52
467.672	1485.79
468.045	1530.99
468.417	1525.57
468.789	1548.84
469.161	1535.06
469.534	1586.81
469.906	1604.66
470.278	1603.53
470.65	1623.19
471.022	1636.98
471.394	1676.75
471.766	1698.22
472.138	1725.34
472.51	1738.22
472.882	1803.75
473.253	1789.52
473.625	1835.39
473.997	1898.66
474.369	1884.2
474.74	1909.51
475.112	1924.88
475.484	1965.56
475.855	2014.82
476.227	2010.53
476.598	2064.99
476.97	2083.29
477.341	2130.98
477.713	2193.57
478.084	2176.4
478.455	2287.13
478.827	2276.73
479.198	2334.13
479.569	2312.67
479.94	2388.6
480.311	2389.73
480.682	2450.97
481.053	2490.97
481.424	2543.17
481.795	2595.14
482.166	2633.11
482.537	2688.47
482.908	2717.17
483.279	2745.65
483.65	2731.64
484.021	2890.28
484.391	2905.42
484.762	2907.9
485.133	2959.65
485.503	2961.01
485.874	3055.02
486.244	3076.94
486.615	3172.98
486.985	3209.36
487.356	3236.48
487.726	3291.4
488.097	3338.85
488.467	3381.56
488.837	3452.97
489.207	3446.87
489.578	3535.91
489.948	3545.18
490.318	3624.04
490.688	3640.31
491.058	3694.32
491.428	3752.63
491.798	3796.24
492.168	3833.53
492.538	3892.06
492.908	3979.06
493.278	3989.68
493.648	3998.5
494.017	4105.39
494.387	4094.99
494.757	4167.08
495.126	4156.46
495.496	4235.78
495.866	4281.88
496.235	4303.35
496.605	4392.16
496.974	4391.03
497.344	4456.34
497.713	4481.42
498.082	4547.63
498.452	4605.49
498.821	4590.57
499.19	4626.73
499.559	4671.7
499.928	4699.95
500.298	4788.53
500.667	4808.64
501.036	4828.98
501.405	4894.07
501.774	4908.98
502.143	4960.96
502.512	4989.2
502.88	5034.85
503.249	5038.92
503.618	5104.68
503.987	5101.74
504.356	5218.35
504.724	5212.48
505.093	5249.76
505.462	5282.3
505.83	5354.62
506.199	5472.58
506.567	5451.11
506.936	5480.27
507.304	5520.26
507.672	5589.64
508.041	5612.47
508.409	5671.22
508.777	5677.1
509.145	5745.12
509.514	5760.48
509.882	5882.29
510.25	5852.01
510.618	5966.13
510.986	5978.33
511.354	6060.14
511.722	6098.1
512.09	6148.95
512.458	6145.78
512.826	6216.52
513.193	6272.56
513.561	6278.44
513.929	6385.1
514.297	6455.38
514.664	6466
515.032	6511.42
515.4	6571.76
515.767	6645.43
516.135	6692.44
516.502	6655.15
516.869	6780.57
517.237	6832.09
517.604	6874.58
517.972	6941.24
518.339	7018.76
518.706	7115.7
519.073	7069.83
519.44	7202.71
519.808	7290.61
520.175	7309.37
520.542	7357.73
520.909	7462.36
521.276	7469.82
521.643	7610.38
522.009	7689.25
522.376	7675.01
522.743	7823.93
523.11	7807.89
523.477	7924.5
523.843	7944.61
524.21	8065.96
524.577	8162.23
524.943	8208.56
525.31	8303.02
525.676	8349.34
526.043	8429.79
526.409	8491.49
526.776	8592.95
527.142	8639.05
527.508	8690.8
527.874	8743.68
528.241	8820.97
528.607	8893.28
528.973	8946.16
529.339	9060.06
529.705	9120.62
530.071	9186.16
530.437	9248.53
530.803	9370.33
531.169	9411.01
531.535	9435.19
531.901	9468.64
532.267	9588.86
532.632	9718.57
532.998	9737.1
533.364	9810.55
533.73	9873.14
534.095	10032.01
534.461	10034.5
534.826	10101.84
535.192	10127.6
535.557	10222.06
535.923	10186.58
536.288	10349.74
536.653	10405.56
537.019	10412.79
537.384	10495.05
537.749	10594.03
538.114	10625.67
538.479	10658.21
538.845	10696.4
539.21	10829.73
539.575	10914.02
539.94	10991.53
540.305	11079.67
540.67	11129.61
541.034	11236.72
541.399	11302.03
541.764	11314.01
542.129	11417.28
542.494	11447.57
542.858	11497.96
543.223	11629.26
543.587	11826.09
543.952	11781.12
544.316	11752.19
544.681	11841.45
545.045	12004.39
545.41	12085.29
545.774	12170.94
546.138	12273.99
546.503	12391.04
546.867	12326.64
547.231	12528.22
547.595	12640.53
547.959	12744.48
548.324	12758.04
548.688	12796.46
549.052	12986.06
549.416	13042.33
549.779	13068.54
550.143	13172.27
550.507	13367.74
550.871	13371.81
551.235	13502.43
551.599	13621.97
551.962	13758.92
552.326	13850.89
552.689	14033.49
553.053	14002.3
553.417	14133.37
553.78	14338.11
554.143	14341.95
554.507	14502.85
554.87	14626.24
555.234	14864.43
555.597	14870.08
555.96	15000.92
556.323	15134.25
556.686	15291.31
557.05	15417.18
557.413	15585.54
557.776	15695.36
558.139	15894.23
558.502	16012.19
558.865	16130.15
559.228	16325.18
559.59	16465.29
559.953	16618.05
560.316	16874.99
560.679	16978.72
561.041	17073.63
561.404	17363.57
561.767	17637.01
562.129	17590.68
562.492	17935.08
562.854	18017.34
563.217	18239.48
563.579	18318.8
563.941	18569.86
564.304	18723.53
564.666	18913.81
565.028	19117.65
565.39	19313.57
565.753	19491.87
566.115	19665.2
566.477	19956.04
566.839	20120.56
567.201	20215.7
567.563	20420.44
567.925	20647.78
568.287	20779.3
568.648	20917.37
569.01	21334.99
569.372	21401.88
569.734	21549.9
570.095	21762.55
570.457	21923.67
570.819	22208.41
571.18	22420.39
571.542	22571.12
571.903	22700.15
572.265	22888.85
572.626	23027.37
572.987	23263.53
573.349	23430.98
573.71	23659
574.071	23837.75
574.432	23959.33
574.794	24306.66
575.155	24391.18
575.516	24379.2
575.877	24640.44
576.238	24610.38
576.599	25097.38
576.96	25064.84
577.32	25284.49
577.681	25508.21
578.042	25587.53
578.403	25706.63
578.763	25799.96
579.124	26001.76
579.485	26231.36
579.845	26317.01
580.206	26349.32
580.566	26609.2
580.927	26573.95
581.287	26894.84
581.648	26901.62
582.008	27148.4
582.368	27003.09
582.728	27321.27
583.089	27202.18
583.449	27329.86
583.809	27481.49
584.169	27733.47
584.529	27713.58
584.889	27946.79
585.249	27768.49
585.609	27830.19
585.969	28044.19
586.329	28083.74
586.688	28228.14
587.048	28346.1
587.408	28375.26
587.768	28566.89
588.127	28484.63
588.487	28541.13
588.846	28967.56
589.206	28805.98
589.565	28870.16
589.925	28944.73
590.284	28878.52
590.643	29041.68
591.003	29222.24
591.362	29360.99
591.721	29465.17
592.08	29501.33
592.44	29470.37
592.799	29613.42
593.158	29670.36
593.517	29780.87
593.876	29891.38
594.235	29798.72
594.593	29975.44
594.952	30195.77
595.311	30148.32
595.67	30215.89
596.029	30502.88
596.387	30498.59
596.746	30485.71
597.104	30516.22
597.463	30572.26
597.822	30742.88
598.18	30737.91
598.538	30659.26
598.897	30961.4
599.255	30794.85
599.613	31327.95
599.972	31185.8
600.33	31261.06
600.688	31211.34
601.046	31446.81
601.404	31603.65
601.762	31614.49
602.12	31751.44
602.478	31819.91
602.836	31899.01
603.194	31685.68
603.552	31966.12
603.91	31823.98
604.268	32046.12
604.625	32024.88
604.983	32461.25
605.341	32232.33
605.698	32452.44
606.056	32493.34
606.413	32588.71
606.771	32658.31
607.128	32802.26
607.485	32777.17
607.843	32765.88
608.2	32975.14
608.557	33117.73
608.914	33176.71
609.272	33350.49
609.629	33463.94
609.986	33649.24
610.343	33390.49
610.7	33766.08
611.057	33762.91
611.414	33799.97
611.771	33840.88
612.127	33897.6
612.484	34117.03
612.841	34203.8
613.198	34074.99
613.554	34276.12
613.911	34457.81
614.267	34579.61
614.624	34437.7
614.98	34622.55
615.337	34731.25
615.693	34827.52
616.05	34944.35
616.406	35195.64
616.762	34950
617.118	35032.93
617.475	35015.99
617.831	35214.62
618.187	35286.94
618.543	35351.12
618.899	35681.05
619.255	35564.22
619.611	35545.46
619.967	35792.46
620.323	35851.44
620.678	35729.19
621.034	35728.51
621.39	35776.64
621.746	35818.68
622.101	36338.21
622.457	36043.08
622.812	36083.3
623.168	36309.29
623.523	36440.81
623.879	36449.62
624.234	36316.52
624.589	36465.44
624.945	36520.58
625.3	36630.18
625.655	36560.58
626.01	36691.42
626.365	36659.11
626.72	36693.23
627.075	36830.4
627.43	36763.28
627.785	36717.86
628.14	36968.7
628.495	36878.31
628.85	36867.46
629.205	36818.65
629.559	36984.75
629.914	36803.06
630.269	36944.75
630.623	36837.63
630.978	36725.77
631.332	36987.46
631.687	37182.48
632.041	36955.37
632.396	37192.43
632.75	36993.34
633.104	37205.76
633.459	36926.22
633.813	36866.33
634.167	36961.25
634.521	36873.34
634.875	37172.99
635.229	37076.27
635.583	36892.77
635.937	36949.04
636.291	37081.24
636.645	37040.34
636.999	37078.3
637.352	37149.94
637.706	36996.27
638.06	37112.2
638.413	36970.96
638.767	36827.92
639.121	37007.57
639.474	36841.47
639.828	36883.96
640.181	36934.35
640.534	37009.38
640.888	37001.47
641.241	36813.45
641.594	36845.09
641.947	37068.81
642.301	37017.74
642.654	37045.54
643.007	36984.52
643.36	37031.3
643.713	37023.39
644.066	37303.84
644.419	36956.05
644.771	36530.97
645.124	36148.61
645.477	35991.1
645.83	35955.62
646.182	35947.49
646.535	36054.38
646.888	36148.39
647.24	36234.26
647.593	36437.87
647.945	36453.69
648.298	36207.14
648.65	36143.64
649.002	36188.61
649.355	36305.22
649.707	36096.64
650.059	36159.91
650.411	36548.38
650.763	36777.97
651.115	37222.03
651.467	37094.12
651.819	37121.02
652.171	37066.78
652.523	37007.57
652.875	37020.91
653.227	36798.99
653.578	36989.72
653.93	37085.99
654.282	37035.82
654.633	36935.71
654.985	37198.3
655.337	37088.02
655.688	37101.13
656.039	37186.78
656.391	36902.49
656.742	36994.01
657.094	37106.78
657.445	37069.72
657.796	37123.28
658.147	37231.52
658.498	37230.39
658.849	37362.14
659.2	37224.06
659.551	37034.46
659.902	37276.04
660.253	37118.76
660.604	37220
660.955	37107.46
661.306	37364.17
661.656	37196.72
662.007	37171.41
662.358	37242.59
662.708	37212.31
663.059	37312.2
663.409	37049.83
663.76	37371.86
664.11	37389.03
664.461	37469.25
664.811	37553.77
665.161	37618.4
665.511	37372.53
665.862	37333.67
666.212	37550.38
666.562	37530.5
666.912	37581.12
667.262	37570.72
667.612	37518.75
667.962	37599.87
668.312	37572.08
668.662	37616.6
669.011	37676.71
669.361	37659.31
669.711	37718.06
670.06	37558.74
670.41	37495.69
670.76	37492.98
671.109	37681
671.459	37607.56
671.808	37650.49
672.157	37658.18
672.507	37547.22
672.856	37584.28
673.205	37760.32
673.554	37691.17
673.904	37696.37
674.253	37882.58
674.602	37733.43
674.951	37259.99
675.3	37115.37
675.649	37836.48
675.998	37791.96
676.346	37781.79
676.695	37990.37
677.044	37763.48
677.393	37878.06
677.741	37866.98
678.09	37831.73
678.438	37704.28
678.787	37855.46
679.135	37870.83
679.484	37591.51
679.832	37691.85
680.181	37487.56
680.529	37551.29
680.877	37505.86
681.225	37526.43
681.573	37838.51
681.922	37588.35
682.27	37529.14
682.618	37587.9
682.966	37506.09
683.314	37682.13
683.661	37375.25
684.009	37447.33
684.357	37325.76
684.705	37309.26
685.053	37232.42
685.4	37210.28
685.748	37107.23
686.095	37230.39
686.443	37142.26
686.79	37116.5
687.138	37171.64
687.485	36900.23
687.832	37120.79
688.18	37259.54
688.527	37068.59
688.874	36976.16
689.221	36825.88
689.568	36795.6
689.915	36679.22
690.262	36977.74
690.609	36648.49
690.956	36618.88
691.303	36669.95
691.65	36505.66
691.997	36415.95
692.344	36249.85
692.69	36312
693.037	36392.9
693.383	36027.48
693.73	36278.1
694.077	36134.83
694.423	36306.12
694.769	36184.32
695.116	36063.42
695.462	35913.36
695.808	35929.63
696.155	35953.59
696.501	35691.67
696.847	35505.69
697.193	35362.64
697.539	35614.39
697.885	35389.76
698.231	35273.83
698.577	35390.89
698.923	35295.3
699.269	35030
699.614	34938.7
699.96	35072.26
700.306	35087.17
700.651	35087.4
700.997	34923.79
701.342	35037.23
701.688	34851.92
702.033	34785.71
702.379	34802.88
702.724	34660.29
703.069	34824.35
703.415	34401.09
703.76	34550.01
704.105	34398.83
704.45	34571.7
704.795	34199.96
705.14	34183.47
705.485	34172.39
705.83	34044.03
706.175	34193.63
706.52	34020.76
706.865	34013.75
707.209	33865.96
707.554	33831.61
707.899	33973.98
708.243	33797.04
708.588	33842.46
708.932	33597.94
709.277	33561.11
709.621	33668.45
709.966	33490.38
710.31	33509.13
710.654	33306.88
710.998	33371.74
711.342	33464.84
711.687	33293.77
712.031	33225.07
712.375	33183.49
712.719	33302.81
713.063	33200.21
713.407	33397.05
713.75	33159.54
714.094	33252.19
714.438	32924.74
714.782	33056.72
715.125	33015.81
715.469	33127.67
715.812	32928.13
716.156	32754.35
716.499	32906.21
716.843	32911.63
717.186	32745.31
717.53	33021.91
717.873	32931.07
718.216	32782.37
718.559	32789.38
718.902	32541.47
719.246	32663.96
719.589	32494.7
719.932	32515.49
720.275	32464.19
720.617	32502.15
720.96	32388.48
721.303	32569.5
721.646	32462.38
721.989	32348.94
722.331	32469.84
722.674	32366.11
723.016	32374.25
723.359	32272.78
723.701	32358.65
724.044	32170.86
724.386	32208.6
724.729	32297.87
725.071	32223.29
725.413	32187.13
725.755	32104.88
726.097	31918.44
726.439	31924.09
726.782	31964.77
727.124	32098.1
727.465	31866.46
727.807	31939.46
728.149	31727.71
728.491	31794.83
728.833	31830.08
729.175	31685
729.516	31807.26
729.858	31591.67
730.199	31775.85
730.541	31704.89
730.882	31663.31
731.224	31838.89
731.565	31530.88
731.906	31719.35
732.248	31821.27
732.589	31509.64
732.93	31529.75
733.271	31614.95
733.612	31649.52
733.953	31689.97
734.294	31589.64
734.635	31628.28
734.976	31621.5
735.317	31426.48
735.658	31400.04
735.999	31469.64
736.339	31488.4
736.68	31682.06
737.021	31475.97
737.361	31409.98
737.702	31653.81
738.042	31357.1
738.383	31325.01
738.723	31411.79
739.063	31323.43
739.404	31389.41
739.744	31217.22
740.084	31145.35
740.424	31209.76
740.764	31197.1
741.104	31426.7
741.444	31202.53
741.784	31028.75
742.124	31142.64
742.464	31125.69
742.804	31040.5
743.143	31030.1
743.483	31037.79
743.823	30922.08
744.162	30943.32
744.502	31007.96
744.841	30892.03
745.181	31056.54
745.52	31022.42
745.86	30954.62
746.199	30860.39
746.538	30897.45
746.877	30830.11
747.216	30801.63
747.556	30978.58
747.895	30959.37
748.234	30744.23
748.573	30729.77
748.911	30713.27
749.25	30697.68
749.589	30546.27
749.928	30588.98
750.267	30738.58
750.605	30630.11
750.944	30480.29
751.283	30461.08
751.621	30541.53
751.96	30435.77
752.298	30249.33
752.636	30243.91
752.975	30270.35
753.313	30077.58
753.651	30283
753.989	30269.67
754.327	30210.91
754.666	30014.54
755.004	30118.71
755.342	30248.65
755.679	30039.39
756.017	30011.15
756.355	30073.52
756.693	29854.54
757.031	29897.02
757.368	29619.52
757.706	29822.22
758.044	29639.18
758.381	29826.29
758.719	29626.3
759.056	29640.76
759.394	29623.36
759.731	29306.53
760.068	29347.66
760.405	29332.97
760.743	29264.72
761.08	29360.32
761.417	29107.67
761.754	29099.76
762.091	29204.16
762.428	29097.05
762.765	28904.73
763.102	29063.15
763.438	28789.71
763.775	28722.14
764.112	28721.01
764.449	28845.53
764.785	28690.05
765.122	28496.16
765.458	28461.36
765.795	28419.32
766.131	28487.12
766.467	28252.1
766.804	28335.94
767.14	28178.43
767.476	28212.78
767.812	28042.38
768.148	28019.79
768.485	27911.09
768.821	27924.42
769.157	27856.85
769.492	27700.25
769.828	27750.87
770.164	27556.97
770.5	27545.45
770.836	27527.82
771.171	27272.91
771.507	27379.12
771.842	26993.37
772.178	27147.27
772.513	26981.17
772.849	27073.14
773.184	26978.68
773.519	27020.26
773.855	26834.51
774.19	26782.3
774.525	26684
774.86	26743.21
775.195	26733.94
775.53	26573.72
775.865	26410.79
776.2	26187.74
776.535	26164.02
776.87	26316.78
777.205	26020.06
777.539	26014.41
777.874	25989.1
778.209	25831.82
778.543	25817.81
778.878	25782.33
779.212	25681.32
779.547	25608.78
779.881	25726.51
780.215	25424.6
780.55	25602.45
780.884	25412.4
781.218	25399.52
781.552	25386.63
781.886	25250.82
782.22	25179.86
782.554	25088.56
782.888	24815.58
783.222	24840.66
783.556	24773.77
783.889	24822.58
784.223	24661.46
784.557	24650.61
784.89	24610.84
785.224	24464.85
785.557	24392.31
785.891	24296.72
786.224	24325.87
786.558	24391.18
786.891	24036.16
787.224	23990.06
787.557	24049.49
787.891	24014.24
788.224	23894.92
788.557	23977.86
788.89	23873.91
789.223	23986.9
789.556	23668.94
789.888	23670.52
790.221	23673.46
790.554	23487.93
790.887	23652.9
791.219	23452.67
791.552	23465.33
791.884	23267.37
792.217	23360.93
792.549	23166.81
792.882	23079.8
793.214	23020.37
793.546	23074.38
793.879	22978.56
794.211	22851.56
794.543	23090.88
794.875	22880.71
795.207	22906.7
795.539	22724.11
795.871	22831.67
796.203	22554.62
796.535	22521.17
796.867	22559.14
797.198	22493.38
797.53	22372.48
797.862	22155.53
798.193	22342.87
798.525	22114.4
798.856	22276.43
799.188	22066.72
799.519	22109.21
799.85	21939.49
800.182	22120.51
800.513	22018.59
800.844	21868.08
801.175	21816.79
801.506	21872.6
801.837	21712.61
802.168	21755.54
802.499	21658.15
802.83	21581.99
803.161	21575.66
803.491	21574.08
803.822	21472.39
804.153	21435.78
804.483	21325.72
804.814	21324.59
805.145	21347.64
805.475	21351.26
805.805	21142
806.136	21101.1
806.466	21196.24
806.796	21084.83
807.126	20937.49
807.457	20945.85
807.787	21040.08
808.117	20934.55
808.447	20771.84
808.777	20931.38
809.107	20803.03
809.436	20793.76
809.766	20755.34
810.096	20744.72
810.426	20689.13
810.755	20720.77
811.085	20617.49
811.414	20590.38
811.744	20467.44
812.073	20549.47
812.403	20394.45
812.732	20344.96
813.061	20304.06
813.39	20329.59
813.719	20272.42
814.049	20337.28
814.378	20201.91
814.707	20147.22
815.036	20237.62
815.365	20103.61
815.693	19995.82
816.022	20004.18
816.351	20052.76
816.68	19933.22
817.008	20028.58
817.337	19879.66
817.665	19913.78
817.994	19967.12
818.322	19921.47
818.651	19792.21
818.979	19751.98
819.307	19861.81
819.636	19770.96
819.964	19708.82
820.292	19826.33
820.62	19775.48
820.948	19844.18
821.276	19848.7
821.604	19789.95
821.932	19812.77
822.259	19876.72
822.587	19862.26
822.915	19754.47
823.243	19864.52
823.57	19922.82
823.898	19770.96
824.225	19741.81
824.553	19842.6
824.88	19827.68
825.207	19841.24
825.535	19753.34
825.862	19842.15
826.189	19776.16
826.516	19935.25
826.843	20067.68
827.17	20011.86
827.497	19970.28
827.824	19921.24
828.151	19995.14
828.478	20035.81
828.805	20059.54
829.131	19926.44
829.458	20032.88
829.785	19923.05
830.111	20009.83
830.438	20039.66
830.764	20051.86
831.09	20089.6
831.417	19989.26
831.743	20085.08
832.069	20175.47
832.395	20092.08
832.722	20225.64
833.048	20076.72
833.374	20014.8
833.7	20077.85
834.026	20104.29
834.351	20207.11
834.677	20128.92
835.003	20203.72
835.329	20129.15
835.654	20149.03
835.98	20036.49
836.306	20131.41
836.631	20145.19
836.956	20137.73
837.282	20111.29
837.607	19959.21
837.932	19982.26
838.258	19958.08
838.583	19995.59
838.908	19906.55
839.233	19980.45
839.558	19911.98
839.883	19881.47
840.208	19840.11
840.533	19825.88
840.858	19887.8
841.182	19809.61
841.507	19815.71
841.832	19725.09
842.156	19770.74
842.481	19752.43
842.805	19828.36
843.13	19644.64
843.454	19683.06
843.778	19683.73
844.103	19728.25
844.427	19672.43
844.751	19545.43
845.075	19628.82
845.399	19447.13
845.723	19381.37
846.047	19523.29
846.371	19274.25
846.695	19403.29
847.019	19389.96
847.343	19195.61
847.666	19138.66
847.99	19059.34
848.313	19012.57
848.637	18905
848.96	18962.62
849.284	18875.85
849.607	18804.43
849.931	18733.7
850.254	18543.2
850.577	18553.37
850.9	18469.08
851.223	18463.65
851.546	18449.87
851.869	18201.51
852.192	18303.21
852.515	18198.58
852.838	17948.41
853.161	18091.46
853.483	18080.61
853.806	17973.04
854.129	18014.85
854.451	17910.9
854.774	17877.23
855.096	17759.72
855.419	17791.13
855.741	17841.75
856.063	17626.61
856.385	17656.22
856.708	17709.1
857.03	17655.31
857.352	17580.06
857.674	17594.75
857.996	17505.71
858.318	17430.46
858.64	17512.72
858.961	17338.26
859.283	17296.68
859.605	17199.96
859.926	17354.08
860.248	17287.86
860.57	17195.44
860.891	17174.42
861.212	17176.23
861.534	17027.08
861.855	17117.25
862.176	17108.89
862.498	17049.9
862.819	17114.76
863.14	17010.81
863.461	16896.46
863.782	16917.7
864.103	16974.2
864.424	16877.03
864.745	16934.65
865.065	16902.11
865.386	16912.06
865.707	16893.3
866.027	16848.55
866.348	16928.33
866.668	16937.82
866.989	16792.28
867.309	16684.94
867.63	16740.76
867.95	16801.55
868.27	16680.65
868.59	16783.92
868.91	16689.91
869.23	16815.33
869.55	16667.77
869.87	16689.01
870.19	16684.72
870.51	16714.32
870.83	16750.25
871.15	16664.38
871.469	16586.64
871.789	16654.21
872.109	16589.13
872.428	16555.68
872.748	16592.29
873.067	16590.93
873.386	16564.95
873.706	16417.83
874.025	16463.93
874.344	16359.98
874.663	16584.83
874.982	16429.13
875.301	16441.79
875.62	16450.37
875.939	16378.74
876.258	16464.61
876.577	16466.42
876.896	16432.07
877.214	16335.35
877.533	16352.52
877.852	16323.82
878.17	16366.53
878.489	16243.82
878.807	16277.72
879.125	16286.31
879.444	16235.24
879.762	16357.49
880.08	16324.95
880.398	16286.76
880.716	16251.73
881.034	16232.75
881.352	16132.64
881.67	16148.46
881.988	16275.24
882.306	16197.95
882.624	16181
882.941	16115.47
883.259	16063.49
883.577	16012.42
883.894	15938.97
884.212	15938.52
884.529	15912.76
884.846	15927.9
885.164	15868.92
885.481	15932.42
885.798	16009.48
886.115	15876.83
886.432	15858.98
886.75	15780.56
887.067	15709.6
887.383	15783.95
887.7	15860.33
888.017	15717.06
888.334	15742.82
888.651	15625.54
888.967	15603.16
889.284	15493.56
889.6	15576.5
889.917	15398.65
890.233	15508.93
890.55	15369.95
890.866	15482.71
891.182	15413.56
891.498	15418.08
891.815	15308.26
892.131	15309.39
892.447	15244.08
892.763	15237.75
893.079	15262.61
893.395	15328.14
893.71	15102.16
894.026	15136.28
894.342	15112.33
894.657	15070.97
894.973	15015.38
895.289	15040.92
895.604	14939.9
895.92	14923.86
896.235	14972.45
896.55	14851.32
896.865	14711.66
897.181	14773.81
897.496	14897.19
897.811	14715.05
898.126	14612.91
898.441	14660.59
898.756	14650.42
899.071	14490.2
899.386	14481.84
899.7	14335.85
900.015	14278.68
900.33	14268.51
900.644	14221.5
900.959	14278.68
901.273	14284.1
901.588	14115.74
901.902	14055.41
902.216	14152.35
902.531	14099.93
902.845	14073.49
903.159	14004.79
903.473	13900.61
903.787	13889.99
904.101	13784.23
904.415	13856.54
904.729	13758.47
905.042	13723.44
905.356	13730.9
905.67	13657.45
905.984	13616.1
906.297	13662.2
906.611	13598.24
906.924	13456.78
907.237	13338.36
907.551	13392.15
907.864	13307.63
908.177	13307.86
908.491	13331.58
908.804	13164.36
909.117	13159.16
909.43	13083
909.743	13039.16
910.056	12997.36
910.368	12956.45
910.681	12937.92
910.994	12923.01
911.307	12691.38
911.619	12715.1
911.932	12787.64
912.244	12690.25
912.557	12717.59
912.869	12591.94
913.181	12622
913.494	12579.51
913.806	12437.37
914.118	12467.2
914.43	12368.45
914.742	12425.85
915.054	12324.38
915.366	12221.11
915.678	12225.62
915.99	12210.26
916.302	12105.85
916.613	12085.97
916.925	12101.79
917.236	12025.4
917.548	11988.34
917.859	12047.32
918.171	11879.19
918.482	11910.15
918.794	11794.22
919.105	11818.18
919.416	11701.12
919.727	11676.03
920.038	11676.49
920.349	11555.59
920.66	11553.1
920.971	11556.04
921.282	11439.66
921.593	11401.01
921.903	11335.25
922.214	11344.74
922.525	11346.1
922.835	11264.07
923.146	11120.57
923.456	11175.26
923.767	11077.18
924.077	11072.21
924.387	11030.18
924.697	10978.88
925.008	10934.13
925.318	10924.87
925.628	10907.69
925.938	10884.64
926.248	10764.19
926.558	10695.5
926.867	10827.92
927.177	10709.28
927.487	10669.96
927.796	10550.41
928.106	10513.81
928.416	10484.88
928.725	10549.96
929.034	10471.09
929.344	10427.93
929.653	10359.23
929.962	10358.1
930.271	10279.01
930.581	10260.7
930.89	10236.98
931.199	10125.79
931.508	10121.05
931.817	10108.39
932.125	10050.77
932.434	10023.42
932.743	9894.61
933.051	9897.32
933.36	9961.96
933.669	9867.04
933.977	9863.43
934.286	9838.57
934.594	9846.93
934.902	9719.25
935.21	9677.67
935.519	9669.31
935.827	9611.68
936.135	9565.36
936.443	9541.4
936.751	9561.29
937.059	9468.86
937.367	9361.97
937.674	9367.85
937.982	9352.48
938.29	9357.45
938.597	9301.18
938.905	9242.2
939.213	9269.77
939.52	9118.81
939.827	9215.76
940.135	9097.12
940.442	9075.88
940.749	9058.7
941.056	9117.01
941.363	9030
941.67	8987.29
941.977	8866.17
942.284	8881.53
942.591	8928.08
942.898	8817.58
943.205	8754.53
943.511	8702.33
943.818	8763.34
944.125	8640.63
944.431	8618.94
944.738	8606.06
945.044	8587.75
945.35	8600.18
945.657	8502.78
945.963	8420.53
946.269	8399.51
946.575	8343.92
946.881	8367.2
947.187	8381.66
947.493	8259.85
947.799	8228.44
948.105	8197.03
948.41	8129.01
948.716	8175.11
949.022	8121.1
949.327	8156.13
949.633	7990.48
949.938	8056.24
950.244	8079.52
950.549	7938.73
950.854	7931.95
951.16	7902.35
951.465	7819.87
951.77	7818.51
952.075	7845.4
952.38	7846.76
952.685	7789.58
952.99	7764.27
953.294	7755.91
953.599	7682.02
953.904	7646.54
954.209	7639.53
954.513	7607.89
954.818	7555.24
955.122	7525.86
955.426	7490.83
955.731	7474.56
956.035	7416.26
956.339	7421.91
956.643	7332.87
956.948	7349.59
957.252	7299.88
957.556	7257.62
957.86	7253.55
958.163	7245.87
958.467	7201.12
958.771	7189.37
959.075	7160.67
959.378	7103.05
959.682	7153.89
959.985	7126.55
960.289	7060.11
960.592	6985.31
960.896	6970.4
961.199	6948.02
961.502	6939.44
961.805	6881.81
962.108	6806.56
962.411	6771.98
962.714	6765.2
963.017	6729.95
963.32	6825.31
963.623	6755.71
963.926	6727.46
964.228	6634.13
964.531	6712.32
964.833	6621.48
965.136	6567.02
965.438	6597.75
965.741	6515.72
966.043	6497.87
966.345	6475.95
966.648	6493.12
966.95	6421.48
967.252	6394.37
967.554	6360.69
967.856	6329.28
968.158	6267.59
968.46	6214.03
968.761	6261.49
969.063	6245.9
969.365	6192.79
969.666	6155.05
969.968	6062.17
970.269	6067.59
970.571	6116.18
970.872	6072.11
971.174	6004.77
971.475	5987.37
971.776	5987.82
972.077	5969.29
972.378	5976.75
972.679	5969.97
972.98	5941.72
973.281	5907.15
973.582	5902.18
973.883	5851.78
974.183	5835.74
974.484	5828.96
974.785	5733.37
975.085	5743.31
975.386	5752.12
975.686	5717.77
975.986	5666.7
976.287	5624.89
976.587	5638.91
976.887	5636.42
977.187	5625.57
977.487	5669.87
977.787	5581.73
978.087	5507.16
978.387	5469.42
978.687	5459.02
978.987	5468.06
979.286	5404.34
979.586	5400.95
979.885	5349.42
980.185	5338.57
980.484	5323.66
980.784	5319.59
981.083	5225.13
981.382	5245.02
981.682	5226.26
981.981	5188.52
982.28	5213.61
982.579	5148.52
982.878	5160.27
983.177	5077.11
983.475	5079.15
983.774	5093.38
984.073	5052.25
984.372	4977.91
984.67	5001.41
984.969	5048.64
985.267	4963.22
985.566	4981.3
985.864	4903.33
986.162	4943.78
986.461	4890
986.759	4923.9
987.057	4831.02
987.355	4798.02
987.653	4786.72
987.951	4793.5
988.249	4801.41
988.547	4776.78
988.844	4722.32
989.142	4758.25
989.44	4732.71
989.737	4722.55
990.035	4680.74
990.332	4636.67
990.63	4581.98
990.927	4548.54
991.224	4532.49
991.521	4556.22
991.819	4525.26
992.116	4481.42
992.413	4484.59
992.71	4440.07
993.006	4449.11
993.303	4416.34
993.6	4444.36
993.897	4411.82
994.193	4409.11
994.49	4342.44
994.787	4358.94
995.083	4321.65
995.379	4287.98
995.676	4287.08
995.972	4246.85
996.268	4212.95
996.565	4214.76
996.861	4166.4
997.157	4154.88
997.453	4145.61
997.749	4097.25
998.044	4153.97
998.34	4109
998.636	4076.23
998.932	4028.1
999.227	4040.76
999.523	3989.23
999.818	3998.5
1000.114	3935.9
1000.409	3882.12
1000.704	3883.7
1001	3860.42
1001.295	3833.98
1001.59	3839.63
1001.885	3818.39
1002.18	3822.23
1002.475	3772.29
1002.77	3725.51
1003.065	3722.35
1003.359	3746.3
1003.654	3699.97
1003.949	3678.5
1004.243	3652.74
1004.538	3667.21
1004.832	3651.84
1005.127	3621.78
1005.421	3640.31
1005.715	3591.28
1006.009	3572.52
1006.304	3550.82
1006.598	3534.78
1006.892	3514.89
1007.186	3441.68
1007.48	3456.14
1007.773	3450.94
1008.067	3441.9
1008.361	3392.86
1008.655	3382.47
1008.948	3350.38
1009.242	3343.37
1009.535	3306.99
1009.829	3306.31
1010.122	3281.45
1010.415	3217.5
1010.708	3240.55
1011.001	3188.8
1011.295	3177.73
1011.588	3200.55
1011.881	3147.67
1012.173	3137.95
1012.466	3125.75
1012.759	3116.26
1013.052	3105.41
1013.344	3082.59
1013.637	3042.82
1013.93	3022.25
1014.222	3028.8
1014.514	3009.82
1014.807	3022.25
1015.099	2956.94
1015.391	2930.28
1015.683	2907.23
1015.976	2878.53
1016.268	2870.62
1016.56	2913.33
1016.851	2820.22
1017.143	2828.58
1017.435	2806.21
1017.727	2808.92
1018.018	2740.9
1018.31	2728.02
1018.602	2744.29
1018.893	2709.26
1019.185	2684.86
1019.476	2652.09
1019.767	2666.33
1020.058	2646.44
1020.35	2617.74
1020.641	2580.23
1020.932	2565.31
1021.223	2563.05
1021.514	2570.74
1021.804	2526.44
1022.095	2496.39
1022.386	2468.82
1022.677	2450.97
1022.967	2438.54
1023.258	2422.94
1023.548	2399.89
1023.839	2424.75
1024.129	2340.24
1024.419	2354.25
1024.709	2368.71
1025	2333.91
1025.29	2290.52
1025.58	2282.16
1025.87	2307.24
1026.16	2238.54
1026.449	2249.84
1026.739	2217.3
1027.029	2219.79
1027.319	2187.24
1027.608	2165.78
1027.898	2156.29
1028.187	2171.65
1028.477	2123.97
1028.766	2118.09
1029.055	2096.63
1029.344	2085.33
1029.634	2039.45
1029.923	2043.75
1030.212	2048.04
1030.501	2016.63
1030.79	1969.62
1031.078	1977.76
1031.367	1966.91
1031.656	1970.53
1031.945	1963.07
1032.233	1919.46
1032.522	1892.34
1032.81	1883.52
1033.099	1888.72
1033.387	1869.51
1033.675	1872.22
1033.963	1865.67
1034.251	1849.63
1034.54	1781.38
1034.828	1808.05
1035.116	1777.31
1035.403	1792.45
1035.691	1798.55
1035.979	1733.7
1036.267	1712
1036.554	1744.77
1036.842	1730.76
1037.129	1722.4
1037.417	1669.74
1037.704	1641.5
1037.992	1655.96
1038.279	1644.89
1038.566	1645.11
1038.853	1645.11
1039.14	1645.11
