Data from copper_heatsink_FLMS001491_010.txt Node
Date: Tue Feb 07 10:49:04 GMT 2017
User: dcchb
Spectrometer: FLMS00149
Trigger mode: 0
Integration Time (sec): 2.000000E-2
Scans to average: 10
Electric dark correction enabled: true
Nonlinearity correction enabled: false
Boxcar width: 0
XAxis mode: Wavelengths
Number of Pixels in Spectrum: 2048
>>>>>Begin Spectral Data<<<<<
341.393	-6.2
341.776	-6.2
342.16	-6.2
342.543	-76.93
342.927	-40.55
343.31	-64.73
343.693	-60.21
344.077	-83.71
344.46	-63.6
344.843	-55.01
345.226	-52.07
345.61	-26.54
345.993	-17.95
346.376	-3.94
346.759	22.5
347.142	26.12
347.525	49.17
347.908	48.04
348.291	76.51
348.674	89.16
349.057	116.28
349.44	119.22
349.823	137.75
350.206	175.94
350.588	230.18
350.971	253.68
351.354	291.87
351.737	277.86
352.119	280.12
352.502	304.3
352.884	318.76
353.267	322.83
353.65	342.49
354.032	368.25
354.414	346.11
354.797	347.24
355.179	369.83
355.562	370.74
355.944	374.81
356.326	365.77
356.709	377.97
357.091	388.37
357.473	359.67
357.855	384.3
358.238	383.85
358.62	381.36
359.002	390.63
359.384	399.21
359.766	383.85
360.148	378.87
360.53	387.46
360.912	405.54
361.294	373.9
361.676	396.5
362.057	378.87
362.439	376.61
362.821	387.46
363.203	387.46
363.584	364.41
363.966	366.67
364.348	395.82
364.729	372.77
365.111	387.69
365.493	393.56
365.874	383.85
366.256	388.14
366.637	397.63
367.019	378.2
367.4	378.2
367.781	365.54
368.163	378.42
368.544	395.82
368.925	380.46
369.306	371.42
369.688	379.55
370.069	372.32
370.45	368.7
370.831	376.84
371.212	383.62
371.593	369.16
371.974	389.04
372.355	366.45
372.736	408.25
373.117	390.17
373.498	378.42
373.879	400.34
374.26	368.48
374.641	387.69
375.021	384.98
375.402	391.53
375.783	416.16
376.163	408.93
376.544	401.47
376.925	403.51
377.305	397.18
377.686	409.61
378.066	389.95
378.447	408.03
378.827	411.19
379.208	401.7
379.588	401.25
379.968	422.94
380.349	417.97
380.729	418.87
381.109	435.37
381.489	410.96
381.87	428.14
382.25	434.47
382.63	444.64
383.01	427.69
383.39	418.42
383.77	437.4
384.15	460
384.53	441.47
384.91	441.92
385.29	445.99
385.67	455.93
386.049	465.88
386.429	445.99
386.809	455.03
387.189	468.36
387.568	444.64
387.948	445.54
388.328	465.43
388.707	463.62
389.087	469.04
389.466	477.4
389.846	469.27
390.225	486.44
390.605	491.64
390.984	500.9
391.363	483.96
391.743	487.8
392.122	513.79
392.501	497.29
392.881	517.4
393.26	499.32
393.639	505.2
394.018	494.8
394.397	525.09
394.776	508.81
395.155	533.22
395.534	528.02
395.913	530.96
396.292	497.97
396.671	523.96
397.05	522.83
397.429	529.6
397.808	528.47
398.186	526.21
398.565	539.77
398.944	551.07
399.323	558.08
399.701	566.44
400.08	547.46
400.458	551.98
400.837	578.64
401.215	558.3
401.594	572.99
401.972	590.85
402.351	564.86
402.729	577.97
403.107	568.02
403.486	588.36
403.864	581.81
404.242	578.87
404.62	586.1
404.999	600.11
405.377	600.56
405.755	616.83
406.133	620
406.511	603.05
406.889	613.9
407.267	629.04
407.645	623.39
408.023	642.6
408.401	654.35
408.779	646.89
409.156	642.14
409.534	649.83
409.912	660
410.29	651.18
410.667	677.62
411.045	690.96
411.422	692.54
411.8	678.75
412.178	690.28
412.555	693.22
412.933	695.02
413.31	717.4
413.687	728.02
414.065	725.76
414.442	736.15
414.819	754.46
415.197	747.23
415.574	751.07
415.951	747.9
416.328	752.65
416.705	751.52
417.082	763.72
417.46	800.33
417.837	787.68
418.214	802.14
418.591	770.05
418.967	808.24
419.344	787.9
419.721	807.34
420.098	783.38
420.475	811.86
420.852	841.23
421.228	833.33
421.605	822.03
421.982	822.93
422.358	835.13
422.735	843.49
423.111	853.89
423.488	862.48
423.864	863.61
424.241	882.36
424.617	873.1
424.994	875.36
425.37	890.27
425.746	869.26
426.123	911.06
426.499	912.42
426.875	918.75
427.251	927.11
427.627	957.39
428.003	949.71
428.379	947.67
428.756	954.45
429.132	966.66
429.507	1003.49
429.883	987.22
430.259	1016.6
430.635	1010.95
431.011	1019.31
431.387	1061.34
431.763	1052.3
432.138	1061.79
432.514	1048.46
432.89	1040.1
433.265	1067.9
433.641	1099.31
434.016	1088.46
434.392	1111.74
434.767	1130.72
435.143	1142.7
435.518	1125.07
435.894	1161.23
436.269	1139.08
436.644	1176.59
437.02	1181.11
437.395	1161.68
437.77	1218.63
438.145	1201.45
438.52	1203.26
438.895	1246.2
439.271	1242.35
439.646	1244.16
440.021	1234.9
440.395	1270.38
440.77	1281.45
441.145	1300.66
441.52	1290.49
441.895	1306.76
442.27	1321.9
442.645	1293.43
443.019	1322.58
443.394	1310.15
443.769	1304.05
444.143	1340.2
444.518	1335.01
444.892	1343.14
445.267	1388.34
445.641	1340.88
446.016	1402.35
446.39	1383.37
446.764	1383.37
447.139	1412.29
447.513	1386.31
447.887	1397.15
448.262	1404.16
448.636	1429.02
449.01	1426.98
449.384	1441.45
449.758	1424.27
450.132	1478.28
450.506	1482.8
450.88	1450.48
451.254	1480.09
451.628	1524.83
452.002	1518.28
452.376	1526.64
452.75	1544.27
453.123	1537.71
453.497	1585.62
453.871	1567.32
454.244	1589.01
454.618	1602.57
454.992	1626.98
455.365	1646.41
455.739	1695
456.112	1656.58
456.486	1686.18
456.859	1684.6
457.232	1759.4
457.606	1695.45
457.979	1761.89
458.352	1806.18
458.725	1786.29
459.099	1808.67
459.472	1875.11
459.845	1879.63
460.218	1892.73
460.591	1904.94
460.964	1902.22
461.337	1945.16
461.71	1970.7
462.083	1993.07
462.456	2011.37
462.829	1997.81
463.201	2075.78
463.574	2060.86
463.947	2069.68
464.32	2134.76
464.692	2140.41
465.065	2157.58
465.438	2202.56
465.81	2203.01
466.183	2255.21
466.555	2286.17
466.928	2285.04
467.3	2298.82
467.672	2286.17
468.045	2367.97
468.417	2370.01
468.789	2404.36
469.161	2433.74
469.534	2464.02
469.906	2521.19
470.278	2529.1
470.65	2561.42
471.022	2600.06
471.394	2598.7
471.766	2624.24
472.138	2707.63
472.51	2755.76
472.882	2770.45
473.253	2772.03
473.625	2854.06
473.997	2902.2
474.369	2878.92
474.74	2932.71
475.112	3002.53
475.484	3023.32
475.855	3062.87
476.227	3080.27
476.598	3183.77
476.97	3215.41
477.341	3245.69
477.713	3320.94
478.084	3325.24
478.455	3357.55
478.827	3442.75
479.198	3527.72
479.569	3508.51
479.94	3593.03
480.311	3662.63
480.682	3715.28
481.053	3784.43
481.424	3826.92
481.795	3860.82
482.166	3949.85
482.537	3973.81
482.908	4071.21
483.279	4136.29
483.65	4202.05
484.021	4204.99
484.391	4284.08
484.762	4270.07
485.133	4368.83
485.503	4398.88
485.874	4517.07
486.244	4561.59
486.615	4675.71
486.985	4663.06
487.356	4772.66
487.726	4767.23
488.097	4863.28
488.467	4884.52
488.837	4943.27
489.207	5053.55
489.578	5091.52
489.948	5191.18
490.318	5219.2
490.688	5221.91
491.058	5328.35
491.428	5348.69
491.798	5445.18
492.168	5517.5
492.538	5624.61
492.908	5678.17
493.278	5639.75
493.648	5687.44
494.017	5772.63
494.387	5840.43
494.757	5876.13
495.126	5905.28
495.496	5950.48
495.866	5985.05
496.235	6074.77
496.605	6174.88
496.974	6143.24
497.344	6187.31
497.713	6218.95
498.082	6290.58
498.452	6390.92
498.821	6397.7
499.19	6460.52
499.559	6489.9
499.928	6528.54
500.298	6523.8
500.667	6662.55
501.036	6622.33
501.405	6772.38
501.774	6665.49
502.143	6788.42
502.512	6838.59
502.88	6898.93
503.249	6862.77
503.618	6925.59
503.987	6987.29
504.356	7054.63
504.724	7066.16
505.093	7082.65
505.462	7174.85
505.83	7215.3
506.199	7293.27
506.567	7338.24
506.936	7379.37
507.304	7428.41
507.672	7466.82
508.041	7492.81
508.409	7625.01
508.777	7679.7
509.145	7736.42
509.514	7765.12
509.882	7778
510.25	7864.33
510.618	7862.52
510.986	7890.54
511.354	7977.77
511.722	8036.07
512.09	8150.87
512.458	8198.33
512.826	8249.63
513.193	8353.13
513.561	8317.42
513.929	8439.45
514.297	8470.19
514.664	8601.48
515.032	8610.3
515.4	8679.9
515.767	8747.92
516.135	8833.57
516.502	8758.54
516.869	8982.72
517.237	8948.82
517.604	9006.22
517.972	9102.26
518.339	9202.82
518.706	9237.4
519.073	9300.9
519.44	9347.45
519.808	9448.69
520.175	9415.7
520.542	9649.36
520.909	9669.48
521.276	9619.76
521.643	9769.36
522.009	9860.43
522.376	9916.48
522.743	10043.25
523.11	10115.79
523.477	10203.93
523.843	10313.75
524.21	10466.52
524.577	10497.25
524.943	10570.24
525.31	10645.95
525.676	10774.31
526.043	10873.51
526.409	10835.77
526.776	11028.99
527.142	11068.76
527.508	11087.52
527.874	11337.68
528.241	11408.87
528.607	11360.05
528.973	11509.43
529.339	11519.82
529.705	11636.43
530.071	11786.94
530.437	11784.22
530.803	11924.56
531.169	12010.88
531.535	12056.53
531.901	12096.53
532.267	12204.78
532.632	12334.94
532.998	12476.18
533.364	12466.01
533.73	12572.23
534.095	12677.08
534.461	12667.59
534.826	12788.49
535.192	12947.81
535.557	13003.85
535.923	13022.38
536.288	13062.38
536.653	13130.4
537.019	13186.45
537.384	13316.84
537.749	13371.53
538.114	13424.63
538.479	13548.47
538.845	13628.7
539.21	13637.28
539.575	13793.66
539.94	13836.6
540.305	13954.79
540.67	13967.9
541.034	14088.57
541.399	14088.12
541.764	14224.16
542.129	14274.1
542.494	14352.52
542.858	14467.54
543.223	14485.4
543.587	14636.35
543.952	14737.37
544.316	14782.11
544.681	14806.29
545.045	14939.62
545.41	15050.8
545.774	15157.24
546.138	15232.04
546.503	15420.74
546.867	15414.19
547.231	15555.42
547.595	15641.3
547.959	15797
548.324	15845.13
548.688	15933.27
549.052	15980.27
549.416	16139.59
549.779	16235.41
550.143	16406.02
550.507	16490.77
550.871	16628.39
551.235	16649.63
551.599	16883.52
551.962	17001.49
552.326	17135.04
552.689	17238.77
553.053	17179.79
553.417	17305.43
553.78	17673.33
554.143	17666.78
554.507	17910.62
554.87	17992.87
555.234	18274
555.597	18310.83
555.96	18471.28
556.323	18759.63
556.686	18812.06
557.05	19035.56
557.413	19093.41
557.776	19324.36
558.139	19479.61
558.502	19604.81
558.865	19744.24
559.228	20040.5
559.59	20090.22
559.953	20322.3
560.316	20656.53
560.679	20733.37
561.041	21032.79
561.404	21214.26
561.767	21484.76
562.129	21550.75
562.492	21849.72
562.854	22085.2
563.217	22196.15
563.579	22494.45
563.941	22645.41
564.304	22924.27
564.666	23166.3
565.028	23360.42
565.39	23645.61
565.753	23977.35
566.115	24193.84
566.477	24366.94
566.839	24656.43
567.201	25003.54
567.563	25195.62
567.925	25407.59
568.287	25695.95
568.648	25926
569.01	26050.74
569.372	26477.85
569.734	26644.4
570.095	27030.6
570.457	27093.43
570.819	27452.06
571.18	27582.45
571.542	28135.88
571.903	28227.18
572.265	28490.9
572.626	28713.5
572.987	29015.64
573.349	29221.73
573.71	29557.32
574.071	29840.02
574.432	29958.44
574.794	30584.63
575.155	30662.37
575.516	30737.4
575.877	31040.44
576.238	31285.86
576.599	31626.19
576.96	31909.57
577.32	31986.86
577.681	32270.01
578.042	32423.46
578.403	32722.66
578.763	32968.53
579.124	33145.24
579.485	33540.49
579.845	33796.53
580.206	33876.07
580.566	34050.98
580.927	34243.75
581.287	34568.48
581.648	34696.39
582.008	35032.2
582.368	35071.97
582.728	35306.09
583.089	35466.77
583.449	35517.39
583.809	35931.84
584.169	36015.9
584.529	36215.22
584.889	36605.49
585.249	36570.24
585.609	36596.68
585.969	37054.29
586.329	37047.97
586.688	37362.31
587.048	37438.46
587.408	37671.45
587.768	37850.21
588.127	37869.19
588.487	38089.97
588.846	38528.83
589.206	38404.32
589.565	38675.95
589.925	38946.45
590.284	38909.16
590.643	39158.65
591.003	39551.63
591.362	39576.49
591.721	39808.35
592.08	39865.52
592.44	40017.83
592.799	40234.1
593.158	40294.66
593.517	40370.82
593.876	40687.19
594.235	40752.28
594.593	41025.72
594.952	41241.75
595.311	41225.71
595.67	41371.69
596.029	41669.31
596.387	41921.51
596.746	42032.47
597.104	42024.11
597.463	42252.12
597.822	42517.65
598.18	42546.58
598.538	42769.4
598.897	43036.51
599.255	42836.51
599.613	43413.67
599.972	43320.12
600.33	43550.62
600.688	43530.51
601.046	43911.29
601.404	44191.73
601.762	44155.35
602.12	44474.89
602.478	44658.61
602.836	44836.24
603.194	44792.17
603.552	44817.48
603.91	45054.99
604.268	45334.53
604.625	45279.16
604.983	45624.01
605.341	45480.97
605.698	45955.08
606.056	46127.05
606.413	46313.03
606.771	46503.09
607.128	46767.71
607.485	46558
607.843	46685.91
608.2	46902.62
608.557	47296.51
608.914	47165.21
609.272	47427.58
609.629	47768.81
609.986	47798.42
610.343	47817.85
610.7	48250.16
611.057	48328.57
611.414	48306.65
611.771	48379.65
612.127	48663.93
612.484	48786.19
612.841	48983.92
613.198	48932.4
613.554	49045.62
613.911	49381.2
614.267	49443.57
614.624	49652.15
614.98	49729.44
615.337	50091.69
615.693	50092.37
616.05	50040.39
616.406	50485.81
616.762	50284.45
617.118	50320.61
617.475	50529.19
617.831	50728.06
618.187	50939.35
618.543	50970.31
618.899	51135.73
619.255	51191.1
619.611	51273.81
619.967	51414.14
620.323	51675.83
620.678	51622.5
621.034	51551.09
621.39	51660.46
621.746	51735.94
622.101	52148.59
622.457	52045.99
622.812	52245.53
623.168	52279.66
623.523	52315.81
623.879	52561.23
624.234	52325.76
624.589	52676.48
624.945	52633.55
625.3	52724.39
625.655	52745.86
626.01	52890.26
626.365	52887.1
626.72	53042.12
627.075	53061.1
627.43	53151.27
627.785	53130.26
628.14	53245.28
628.495	53259.74
628.85	53344.04
629.205	53296.58
629.559	53478.72
629.914	53455.67
630.269	53522.56
630.623	53515.1
630.978	53466.07
631.332	53582.67
631.687	53822.89
632.041	53812.27
632.396	53744.02
632.75	53870.12
633.104	53894.53
633.459	53798.49
633.813	53828.99
634.167	53937.47
634.521	54032.15
634.875	53992.61
635.229	54044.36
635.583	53945.15
635.937	54090
636.291	54153.51
636.645	54204.13
636.999	54144.24
637.352	54203.45
637.706	54117.8
638.06	54388.98
638.413	54203.45
638.767	54298.59
639.121	54363.67
639.474	54271.02
639.828	54384.91
640.181	54487.96
640.534	54541.07
640.888	54437.34
641.241	54341.3
641.594	54438.24
641.947	54541.29
642.301	54459.03
642.654	54501.52
643.007	54606.15
643.36	54724.56
643.713	54686.15
644.066	54889.98
644.419	54597.34
644.771	54354.18
645.124	54088.2
645.477	54137.69
645.83	53873.06
646.182	54037.35
646.535	54065.82
646.888	54241.64
647.24	54266.27
647.593	54432.82
647.945	54446.38
648.298	54344.46
648.65	54397.11
649.002	54401.86
649.355	54442.54
649.707	54348.75
650.059	54460.16
650.411	54769.99
650.763	54855.63
651.115	55328.84
651.467	55134.95
651.819	55274.38
652.171	55198.22
652.523	55225.34
652.875	55166.81
653.227	55121.62
653.578	55369.52
653.93	55275.51
654.282	55174.5
654.633	55252.46
654.985	55297.66
655.337	55441.16
655.688	55520.25
656.039	55574.03
656.391	55372.91
656.742	55440.48
657.094	55470.53
657.445	55729.06
657.796	55656.29
658.147	55553.02
658.498	55592.79
658.849	55676.18
659.2	55733.35
659.551	55674.6
659.902	55800.92
660.253	55684.31
660.604	55846.12
660.955	55683.18
661.306	55880.01
661.656	55891.09
662.007	55946.45
662.358	55877.3
662.708	55910.75
663.059	55931.54
663.409	55863.97
663.76	56015.83
664.11	56135.83
664.461	56222.83
664.811	56235.71
665.161	56106.45
665.511	56168.59
665.862	56231.87
666.212	56269.83
666.562	56395.71
666.912	56336.5
667.262	56410.62
667.612	56446.78
667.962	56417.63
668.312	56406.78
668.662	56500.34
669.011	56560.22
669.361	56515.25
669.711	56571.75
670.06	56539.88
670.41	56609.71
670.76	56620.33
671.109	56746.66
671.459	56668.02
671.808	56669.6
672.157	56806.09
672.507	56598.41
672.856	56637.51
673.205	56705.75
673.554	56827.56
673.904	56701.01
674.253	56908.91
674.602	56698.75
674.951	56420.79
675.3	56440.9
675.649	56868.69
675.998	56876.37
676.346	56955.01
676.695	56996.59
677.044	56838.63
677.393	56905.07
677.741	56990.04
678.09	56915.01
678.438	56870.95
678.787	57006.09
679.135	56971.06
679.484	56771.74
679.832	56921.12
680.181	56749.14
680.529	56871.17
680.877	56859.42
681.225	56921.34
681.573	57058.97
681.922	57017.38
682.27	56882.02
682.618	56993.2
682.966	56903.94
683.314	57015.8
683.661	56932.19
684.009	56820.33
684.357	56830.05
684.705	56770.61
685.053	56870.5
685.4	56960.89
685.748	56803.38
686.095	56882.7
686.443	56859.2
686.79	56896.94
687.138	56816.26
687.485	56791.18
687.832	56755.47
688.18	56823.72
688.527	56730.39
688.874	56825.98
689.221	56717.28
689.568	56669.37
689.915	56624.85
690.262	56582.59
690.609	56577.85
690.956	56569.26
691.303	56612.65
691.65	56505.53
691.997	56515.03
692.344	56470.96
692.69	56345.54
693.037	56403.16
693.383	56167.69
693.73	56460.79
694.077	56340.57
694.423	56345.09
694.769	56216.28
695.116	56145.09
695.462	56169.72
695.808	56130.18
696.155	56149.16
696.501	55982.61
696.847	56007.24
697.193	55844.31
697.539	56015.15
697.885	55658.1
698.231	55691.77
698.577	55784.2
698.923	55805.21
699.269	55731.32
699.614	55668.04
699.96	55608.61
700.306	55625.11
700.651	55530.42
700.997	55483.64
701.342	55465.56
701.688	55469.4
702.033	55352.8
702.379	55548.27
702.724	55414.72
703.069	55542.85
703.415	55199.58
703.76	55208.39
704.105	55233.7
704.45	55157.77
704.795	55015.18
705.14	54985.57
705.485	55177.43
705.83	55013.37
706.175	55013.6
706.52	54962.75
706.865	54937.89
707.209	54870.77
707.554	54807.95
707.899	54966.59
708.243	54782.87
708.588	54796.88
708.932	54681.4
709.277	54704.9
709.621	54806.82
709.966	54598.24
710.31	54706.71
710.654	54442.54
710.998	54456.55
711.342	54474.18
711.687	54486.6
712.031	54396.44
712.375	54306.5
712.719	54418.36
713.063	54363.9
713.407	54398.47
713.75	54217.68
714.094	54171.58
714.438	54238.02
714.782	54275.99
715.125	54174.97
715.469	54292.03
715.812	53903.34
716.156	54005.49
716.499	54072.15
716.843	54277.57
717.186	53942.89
717.53	54142.21
717.873	54064.47
718.216	53993.51
718.559	53938.14
718.902	53835.1
719.246	54003.68
719.589	53864.7
719.932	53735.89
720.275	53775.21
720.617	53687.98
720.96	53752.84
721.303	53805.04
721.646	53807.07
721.989	53609.34
722.331	53824.93
722.674	53557.14
723.016	53690.01
723.359	53603.69
723.701	53645.5
724.044	53456.8
724.386	53371.61
724.729	53612.73
725.071	53529.34
725.413	53580.64
725.755	53544.71
726.097	53408.89
726.439	53252.06
726.782	53260.65
727.124	53537.7
727.465	53366.41
727.807	53381.77
728.149	53259.97
728.491	53247.54
728.833	53335.9
729.175	53249.8
729.516	53224.94
729.858	53103.14
730.199	53165.51
730.541	53219.52
730.882	53066.75
731.224	53220.42
731.565	53088.22
731.906	53258.84
732.248	53279.63
732.589	53069.47
732.93	52976.36
733.271	53134.1
733.612	53034.66
733.953	53144.72
734.294	53106.98
734.635	53015
734.976	53128.45
735.317	52870.83
735.658	52991.28
735.999	53019.52
736.339	52930.26
736.68	52978.17
737.021	52968.45
737.361	52818.85
737.702	53042.35
738.042	52938.62
738.383	52855.23
738.723	52833.54
739.063	52720.1
739.404	52885.74
739.744	52894.78
740.084	52783.37
740.424	52708.57
740.764	52661.12
741.104	52763.71
741.444	52573.66
741.784	52606.88
742.124	52763.03
742.464	52608.69
742.804	52470.61
743.143	52472.42
743.483	52449.6
743.823	52295.7
744.162	52379.99
744.502	52565.75
744.841	52337.73
745.181	52508.35
745.52	52487.56
745.86	52492.76
746.199	52402.14
746.538	52301.12
746.877	52305.64
747.216	52421.8
747.556	52328.47
747.895	52431.97
748.234	52308.13
748.573	52277.62
748.911	52269.94
749.25	52188.36
749.589	52095.93
749.928	52210.28
750.267	52276.27
750.605	52162.15
750.944	52106.55
751.283	51959.66
751.621	52038.53
751.96	51849.84
752.298	51843.96
752.636	51806
752.975	51550.64
753.313	51493.69
753.651	51713.34
753.989	51559.45
754.327	51583.63
754.666	51449.62
755.004	51464.08
755.342	51459.11
755.679	51418.44
756.017	51335.27
756.355	51465.89
756.693	51199.91
757.031	51336.86
757.368	51160.59
757.706	51091.67
758.044	50987.26
758.381	51138.67
758.719	50960.6
759.056	50843.54
759.394	50867.26
759.731	50674.73
760.068	50651.9
760.405	50536.43
760.743	50538.69
761.08	50613.71
761.417	50374.4
761.754	50237.68
762.091	50353.15
762.428	50213.27
762.765	50094.18
763.102	50211.01
763.438	49977.34
763.775	49889.66
764.112	49908.87
764.449	49876.33
764.785	49670.69
765.122	49539.62
765.458	49618.71
765.795	49448.77
766.131	49420.52
766.467	49275.44
766.804	49164.03
767.14	49091.72
767.476	49116.35
767.812	49062.57
768.148	49084.26
768.485	48757.72
768.821	48536.25
769.157	48601.56
769.492	48345.07
769.828	48448.57
770.164	48020.56
770.5	48163.83
770.836	48309.59
771.171	48016.49
771.507	47949.6
771.842	47754.8
772.178	47809.04
772.513	47497.86
772.849	47383.06
773.184	47200.47
773.519	47222.84
773.855	47010.42
774.19	47092.45
774.525	46895.62
774.86	46905.33
775.195	46832.34
775.53	46632.57
775.865	46433.26
776.2	46259.7
776.535	46102.19
776.87	46031.23
777.205	45999.6
777.539	45650
777.874	45866.27
778.209	45668.98
778.543	45580.17
778.878	45308.09
779.212	45464.69
779.547	45245.27
779.881	45454.3
780.215	45080.98
780.55	45123.46
780.884	44867.2
781.218	44921.88
781.552	44801.89
781.886	44552.4
782.22	44416.59
782.554	44332.07
782.888	44240.55
783.222	44067.67
783.556	43913.32
783.889	43703.84
784.223	43354.92
784.557	43430.4
784.89	43381.13
785.224	43206
785.557	43093.23
785.891	42969.39
786.224	42993.57
786.558	42999.45
786.891	42564.66
787.224	42488.5
787.557	42560.59
787.891	42523.75
788.224	42472.91
788.557	42373.02
788.89	42235.4
789.223	42224.1
789.556	41824.79
789.888	41975.07
790.221	41725.81
790.554	41469.09
790.887	41453.05
791.219	41337.8
791.552	41384.58
791.884	41266.84
792.217	40932.16
792.549	40789.11
792.882	40557.03
793.214	40663.24
793.546	40686.74
793.879	40550.02
794.211	40377.37
794.543	40622.34
794.875	40310.25
795.207	40396.81
795.539	40168.56
795.871	40052.63
796.203	39884.05
796.535	39555.25
796.867	39519.77
797.198	39397.74
797.53	39643.83
797.862	39340.34
798.193	39445.19
798.525	39189.61
798.856	39235.93
799.188	38770.41
799.519	38653.57
799.85	38601.15
800.182	38714.14
800.513	38565.67
800.844	38338.1
801.175	38510.3
801.506	38499.91
801.837	38148.28
802.168	37987.83
802.499	37954.61
802.83	37857.44
803.161	37818.57
803.491	37989.64
803.822	38054.04
804.153	37875.06
804.483	37570.44
804.814	37269.88
805.145	37317.79
805.475	37344.46
805.805	37217.91
806.136	37043.9
806.466	37091.36
806.796	37068.3
807.126	36861.53
807.457	36843
807.787	36794.19
808.117	36715.77
808.447	36614.98
808.777	36647.75
809.107	36448.66
809.436	36370.92
809.766	36305.16
810.096	36183.13
810.426	36044.83
810.755	36209.8
811.085	36029.69
811.414	36060.42
811.744	35710.37
812.073	35832.18
812.403	35756.25
812.732	35408.24
813.061	35586.31
813.39	35368.01
813.719	35365.75
814.049	35511.28
814.378	35520.55
814.707	35263.38
815.036	35243.49
815.365	35179.77
815.693	34744.07
816.022	34753.79
816.351	34770.51
816.68	34615.49
817.008	34675.15
817.337	34514.93
817.665	34589.5
817.994	34535.49
818.322	34649.16
818.651	34375.27
818.979	34269.28
819.307	34450.07
819.636	34222.73
819.964	34032.68
820.292	34228.15
820.62	34287.36
820.948	34088.5
821.276	34304.99
821.604	34246.01
821.932	34284.42
822.259	34321.03
822.587	34308.6
822.915	34074.03
823.243	34261.37
823.57	34236.52
823.898	34379.34
824.225	34156.74
824.553	34332.78
824.88	34201.71
825.207	34206.91
825.535	34068.16
825.862	34120.59
826.189	34060.93
826.516	34217.08
826.843	34335.5
827.17	34248.27
827.497	34290.07
827.824	34380.47
828.151	34519.45
828.478	34353.35
828.805	34406.45
829.131	34418.21
829.458	34310.64
829.785	34227.93
830.111	34274.48
830.438	34547.69
830.764	34261.37
831.09	34481.03
831.417	34098.67
831.743	34270.19
832.069	34364.2
832.395	34127.37
832.722	34406.91
833.048	34336.4
833.374	34319.45
833.7	34200.81
834.026	34240.13
834.351	34330.52
834.677	34301.6
835.003	34480.58
835.329	34442.39
835.654	34222.73
835.98	34169.17
836.306	34310.41
836.631	34027.26
836.956	34197.87
837.282	34345.21
837.607	34246.91
837.932	34058.67
838.258	34073.58
838.583	33948.16
838.908	33795.4
839.233	33972.57
839.558	33701.84
839.883	33710.43
840.208	33585.68
840.533	33712.91
840.858	33622.97
841.182	33752.69
841.507	33541.39
841.832	33395.18
842.156	33519.92
842.481	33467.27
842.805	33397.22
843.13	33504.56
843.454	33301.17
843.778	33334.39
844.103	33317.22
844.427	33226.6
844.751	33194.51
845.075	32995.64
845.399	32864.57
845.723	32713.62
846.047	32922.65
846.371	32616.67
846.695	32594.3
847.019	32413.51
847.343	32238.6
847.666	32149.34
847.99	32038.61
848.313	32087.87
848.637	31774.66
848.96	31938.5
849.284	31693.53
849.607	31521.33
849.931	31300.1
850.254	31136.71
850.577	31013.1
850.9	30963.61
851.223	30844.51
851.546	30782.82
851.869	30585.54
852.192	30717.96
852.515	30370.63
852.838	30414.47
853.161	30507.8
853.483	30390.74
853.806	30251.31
854.129	30015.16
854.451	30054.48
854.774	29863.75
855.096	29899.91
855.419	29827.59
855.741	29660.59
856.063	29482.29
856.385	29555.96
856.708	29409.98
857.03	29320.03
857.352	29276.87
857.674	29247.72
857.996	29157.33
858.318	28927.28
858.64	29045.69
858.961	28934.96
859.283	29010.66
859.605	28653.16
859.926	28656.55
860.248	28677.57
860.57	28707.17
860.891	28593.95
861.212	28317.8
861.534	28368.87
861.855	28375.43
862.176	28421.3
862.498	28360.74
862.819	28181.98
863.14	28128.88
863.461	28089.11
863.782	27947.41
864.103	28119.39
864.424	27999.39
864.745	28098.15
865.065	27948.54
865.386	27782.45
865.707	27817.47
866.027	27888.89
866.348	27780.19
866.668	27849.34
866.989	27813.86
867.309	27418.39
867.63	27694.77
867.95	27598.05
868.27	27483.47
868.59	27523.02
868.91	27560.08
869.23	27578.84
869.55	27440.54
869.87	27569.35
870.19	27356.47
870.51	27248.45
870.83	27269.69
871.15	27137.72
871.469	27319.18
871.789	27399.18
872.109	27270.14
872.428	27054.56
872.748	27290.48
873.067	27227.21
873.386	27202.8
873.706	27015.01
874.025	26778.41
874.344	26919.19
874.663	26929.81
874.982	26793.09
875.301	26725.07
875.62	26660.44
875.939	26651.4
876.258	26687.56
876.577	26569.82
876.896	26641.69
877.214	26489.6
877.533	26613.44
877.852	26461.58
878.17	26476.04
878.489	26428.36
878.807	26469.04
879.125	26381.13
879.444	26488.47
879.762	26502.03
880.08	26412.77
880.398	26351.3
880.716	26414.8
881.034	26191.75
881.352	26286.44
881.67	26146.78
881.988	26121.47
882.306	26163.96
882.624	26129.38
882.941	26047.35
883.259	25911.08
883.577	25842.16
883.894	25799.22
884.212	25723.07
884.529	25752.22
884.846	25600.81
885.164	25628.15
885.481	25488.27
885.798	25671.32
886.115	25371.89
886.432	25446.01
886.75	25342.51
887.067	25329.86
887.383	25227.03
887.7	25194.27
888.017	25235.4
888.334	25158.34
888.651	25051.9
888.967	25014.16
889.284	24973.71
889.6	24940.94
889.917	24779.81
890.233	24737.1
890.55	24602.87
890.866	24681.74
891.182	24452.14
891.498	24514.51
891.815	24472.93
892.131	24480.61
892.447	24287.17
892.763	24113.62
893.079	24059.38
893.395	24112.04
893.71	24112.49
894.026	24072.04
894.342	24121.53
894.657	23902.1
894.973	23791.82
895.289	23776
895.604	23631.82
895.92	23552.5
896.235	23404.71
896.55	23423.24
896.865	23420.98
897.181	23331.49
897.496	23313.64
897.811	23156.35
898.126	23114.1
898.441	23068.9
898.756	22967.43
899.071	22765.4
899.386	22722.02
899.7	22471.63
900.015	22425.07
900.33	22369.26
900.644	22447.45
900.959	22429.59
901.273	22455.36
901.588	22296.04
901.902	22187.79
902.216	22208.36
902.531	22083.84
902.845	21932.66
903.159	21877.97
903.473	21868.48
903.787	21691.99
904.101	21673.91
904.415	21758.65
904.729	21572.89
905.042	21519.79
905.356	21486.12
905.67	21276.63
905.984	21383.97
906.297	21348.27
906.611	21193.92
906.924	21124.32
907.237	21074.83
907.551	21022.85
907.864	20842.74
908.177	20845.23
908.491	20676.87
908.804	20524.56
909.117	20509.87
909.43	20341.74
909.743	20220.61
910.056	20274.62
910.368	20221.97
910.681	20149.2
910.994	19976.1
911.307	19857.01
911.619	19814.75
911.932	19804.13
912.244	19647.29
912.557	19579.73
912.869	19438.26
913.181	19404.59
913.494	19373.4
913.806	19189.68
914.118	19259.51
914.43	19099.29
914.742	19062.45
915.054	18977.03
915.366	18890.48
915.678	18841.89
915.99	18730.71
916.302	18601.22
916.613	18538.85
916.925	18602.58
917.236	18573.42
917.548	18494.78
917.859	18493.65
918.171	18265.41
918.482	18263.38
918.794	18086.88
919.105	18219.54
919.416	17981.35
919.727	17939.54
920.038	17830.84
920.349	17787.23
920.66	17609.38
920.971	17647.35
921.282	17529.61
921.593	17418.43
921.903	17374.81
922.214	17327.81
922.525	17264.08
922.835	17191.77
923.146	17073.35
923.456	16929.4
923.767	16865.67
924.077	16881.04
924.387	16816.41
924.697	16691.89
925.008	16619.35
925.318	16572.12
925.628	16604.66
925.938	16542.52
926.248	16411.22
926.558	16308.62
926.867	16426.59
927.177	16175.97
927.487	16193.6
927.796	15897.34
928.106	16022.08
928.416	15903.89
928.725	15973.27
929.034	15777.34
929.344	15797.68
929.653	15766.72
929.962	15594.52
930.271	15663.9
930.581	15473.17
930.89	15454.18
931.199	15305.26
931.508	15235.88
931.817	15208.99
932.125	15216.9
932.434	15095.1
932.743	14963.58
933.051	14926.06
933.36	14931.03
933.669	14822.79
933.977	14862.56
934.286	14811.94
934.594	14683.81
934.902	14546.64
935.21	14495.79
935.519	14488.56
935.827	14391.16
936.135	14266.19
936.443	14230.49
936.751	14120.89
937.059	14169.47
937.367	14031.85
937.674	14007.44
937.982	13950.04
938.29	13926.77
938.597	13891.74
938.905	13653.1
939.213	13680.22
939.52	13516.83
939.827	13638.19
940.135	13517.74
940.442	13441.58
940.749	13520.22
941.056	13463.73
941.363	13255.37
941.67	13305.31
941.977	13264.41
942.284	13209.05
942.591	13110.97
942.898	13088.37
943.205	13066.68
943.511	12893.12
943.818	12803.63
944.125	12724.76
944.431	12662.17
944.738	12729.74
945.044	12692.67
945.35	12657.65
945.657	12537.42
945.963	12464.43
946.269	12409.74
946.575	12395.06
946.881	12351.89
947.187	12196.42
947.493	12183.54
947.799	12200.48
948.105	12053.82
948.41	11965.01
948.716	12083.65
949.022	11943.32
949.327	11878.46
949.633	11853.37
949.938	11766.37
950.244	11749.65
950.549	11612.7
950.854	11547.39
951.16	11514.63
951.465	11464.23
951.77	11424.23
952.075	11339.26
952.38	11392.37
952.685	11384.01
952.99	11272.6
953.294	11193.28
953.599	11208.19
953.904	11152.6
954.209	11019.72
954.513	11041.87
954.818	10870.35
955.122	10948.54
955.426	10799.39
955.731	10828.77
956.035	10710.81
956.339	10725.72
956.643	10727.53
956.948	10586.29
957.252	10545.84
957.556	10526.86
957.86	10466.52
958.163	10531.83
958.467	10350.14
958.771	10311.49
959.075	10380.65
959.378	10240.08
959.682	10315.79
959.985	10165.74
960.289	10132.97
960.592	10132.74
960.896	10061.56
961.199	9997.38
961.502	9970.49
961.805	9877.83
962.108	9858.85
962.411	9804.39
962.714	9709.93
963.017	9703.6
963.32	9747.44
963.623	9654.56
963.926	9653.43
964.228	9600.1
964.531	9568.92
964.833	9587.45
965.136	9434.68
965.438	9414.79
965.741	9334.57
966.043	9303.84
966.345	9256.83
966.648	9261.8
966.95	9226.33
967.252	9154.91
967.554	9096.84
967.856	9075.82
968.158	8913.57
968.46	8985.2
968.761	8898.88
969.063	8939.1
969.365	8881.25
969.666	8816.62
969.968	8777.98
970.269	8690.97
970.571	8717.41
970.872	8690.29
971.174	8635.38
971.475	8606.23
971.776	8520.36
972.077	8488.27
972.378	8487.59
972.679	8415.27
972.98	8408.49
973.281	8338.66
973.582	8247.59
973.883	8242.17
974.183	8181.38
974.484	8158.78
974.785	8128.95
975.085	8199.91
975.386	8168.5
975.686	8038.79
975.986	7982.52
976.287	7977.54
976.587	7879.24
976.887	7879.02
977.187	7872.46
977.487	7874.04
977.787	7846.02
978.087	7821.62
978.387	7669.3
978.687	7670.89
978.987	7654.16
979.286	7581.85
979.586	7599.48
979.885	7472.47
980.185	7495.3
980.484	7385.92
980.784	7403.55
981.083	7341.4
981.382	7405.13
981.682	7371.46
981.981	7362.65
982.28	7243.33
982.579	7190.22
982.878	7212.59
983.177	7105.7
983.475	7086.72
983.774	7037.68
984.073	6982.99
984.372	6994.97
984.67	6986.61
984.969	6961.53
985.267	6896.67
985.566	6833.39
985.864	6780.97
986.162	6853.96
986.461	6762.21
986.759	6750.23
987.057	6662.1
987.355	6628.2
987.653	6654.87
987.951	6560.41
988.249	6551.14
988.547	6551.14
988.844	6481.09
989.142	6494.19
989.44	6469.79
989.737	6431.14
990.035	6394.76
990.332	6411.03
990.63	6339.85
990.927	6296.23
991.224	6260.08
991.521	6258.49
991.819	6224.6
992.116	6191.83
992.413	6170.36
992.71	6094.88
993.006	6114.77
993.303	6039.06
993.6	6052.4
993.897	6015.79
994.193	5998.84
994.49	5987.54
994.787	5941.67
995.083	5899.63
995.379	5858.5
995.676	5830.26
995.972	5845.62
996.268	5816.92
996.565	5710.03
996.861	5694.21
997.157	5645.85
997.453	5667.1
997.749	5608.34
998.044	5578.51
998.34	5526.76
998.636	5508.91
998.932	5495.8
999.227	5525.63
999.523	5444.05
999.818	5365.86
1000.114	5314.11
1000.409	5347.56
1000.704	5288.35
1001	5239.31
1001.295	5205.64
1001.59	5175.13
1001.885	5187.34
1002.18	5125.42
1002.475	5092.42
1002.77	5088.13
1003.065	5049.71
1003.359	4999.09
1003.654	4946.89
1003.949	4957.06
1004.243	4941.69
1004.538	4875.25
1004.832	4854.69
1005.127	4843.16
1005.421	4751.41
1005.715	4703.73
1006.009	4752.54
1006.304	4711.87
1006.598	4646.56
1006.892	4646.33
1007.186	4573.57
1007.48	4604.75
1007.773	4576.05
1008.067	4526.56
1008.361	4464.42
1008.655	4491.31
1008.948	4470.74
1009.242	4464.19
1009.535	4392.78
1009.829	4355.72
1010.122	4338.54
1010.415	4302.16
1010.708	4282.73
1011.001	4252.22
1011.295	4267.59
1011.588	4210.41
1011.881	4175.61
1012.173	4140.81
1012.466	4098.1
1012.759	4105.33
1013.052	4068.27
1013.344	4055.84
1013.637	4017.42
1013.93	4010.42
1014.222	3979.23
1014.514	3955.05
1014.807	3928.16
1015.099	3906.01
1015.391	3816.52
1015.683	3838.22
1015.976	3809.07
1016.268	3815.17
1016.56	3747.6
1016.851	3746.92
1017.143	3735.62
1017.435	3683.87
1017.727	3629.86
1018.018	3605.68
1018.31	3611.78
1018.602	3561.16
1018.893	3528.62
1019.185	3504.22
1019.476	3458.57
1019.767	3466.25
1020.058	3449.08
1020.35	3399.13
1020.641	3352.81
1020.932	3377.44
1021.223	3321.4
1021.514	3307.84
1021.804	3317.1
1022.095	3273.04
1022.386	3235.3
1022.677	3199.37
1022.967	3181.96
1023.258	3146.71
1023.548	3118.01
1023.839	3109.88
1024.129	3089.54
1024.419	3040.95
1024.709	3032.36
1025	3033.49
1025.29	2987.17
1025.58	2954.4
1025.87	2939.94
1026.16	2969.77
1026.449	2881.63
1026.739	2897.23
1027.029	2856.78
1027.319	2827.17
1027.608	2774.52
1027.898	2790.56
1028.187	2758.02
1028.477	2735.65
1028.766	2738.59
1029.055	2678.47
1029.344	2668.98
1029.634	2659.27
1029.923	2619.95
1030.212	2617.46
1030.501	2565.94
1030.79	2570
1031.078	2555.54
1031.367	2540.85
1031.656	2492.04
1031.945	2466.95
1032.233	2456.33
1032.522	2480.51
1032.81	2452.72
1033.099	2432.61
1033.387	2401.65
1033.675	2353.51
1033.963	2372.95
1034.251	2319.16
1034.54	2311.7
1034.828	2301.76
1035.116	2279.62
1035.403	2247.53
1035.691	2257.24
1035.979	2192.61
1036.267	2211.59
1036.554	2199.17
1036.842	2189.9
1037.129	2165.04
1037.417	2179.28
1037.704	2092.28
1037.992	2107.64
1038.279	2069.9
1038.566	2051.37
1038.853	2051.37
1039.14	2051.37
