Data from copper_heatsink_FLMS001491_034.txt Node
Date: Tue Feb 07 10:49:50 GMT 2017
User: dcchb
Spectrometer: FLMS00149
Trigger mode: 0
Integration Time (sec): 2.000000E-2
Scans to average: 10
Electric dark correction enabled: true
Nonlinearity correction enabled: false
Boxcar width: 0
XAxis mode: Wavelengths
Number of Pixels in Spectrum: 2048
>>>>>Begin Spectral Data<<<<<
341.393	-10.52
341.776	-10.52
342.16	-10.52
342.543	-76.51
342.927	-50.52
343.31	-61.59
343.693	-77.64
344.077	-57.07
344.46	-60.92
344.843	-46.45
345.226	-50.75
345.61	-15.72
345.993	-15.95
346.376	-9.39
346.759	4.62
347.142	37.61
347.525	32.64
347.908	53.43
348.291	69.48
348.674	81.23
349.057	116.48
349.44	109.47
349.823	138.17
350.206	168.46
350.588	209.13
350.971	229.92
351.354	246.87
351.737	235.8
352.119	255.46
352.502	263.14
352.884	290.71
353.267	299.53
353.65	310.83
354.032	311.28
354.414	307.44
354.797	327.32
355.179	338.85
355.562	344.04
355.944	340.2
356.326	327.55
356.709	352.18
357.091	358.51
357.473	357.15
357.855	350.82
358.238	363.71
358.62	366.87
359.002	359.41
359.384	378.62
359.766	341.78
360.148	348.34
360.53	341.33
360.912	358.73
361.294	345.85
361.676	348.11
362.057	353.08
362.439	335.46
362.821	345.4
363.203	335.91
363.584	332.97
363.966	314.89
364.348	353.99
364.729	322.12
365.111	329.36
365.493	345.4
365.874	335.91
366.256	349.69
366.637	334.55
367.019	346.76
367.4	333.42
367.781	314.44
368.163	341.78
368.544	331.39
368.925	332.75
369.306	340.43
369.688	334.55
370.069	337.94
370.45	320.99
370.831	335.68
371.212	324.84
371.593	342.46
371.974	322.35
372.355	329.13
372.736	333.42
373.117	337.94
373.498	351.05
373.879	342.46
374.26	337.72
374.641	360.99
375.021	338.4
375.402	336.14
375.783	352.41
376.163	365.74
376.544	366.42
376.925	357.15
377.305	334.55
377.686	377.26
378.066	360.54
378.447	342.24
378.827	336.14
379.208	330.49
379.588	351.5
379.968	370.71
380.349	350.37
380.729	360.32
381.109	350.15
381.489	362.12
381.87	358.96
382.25	365.51
382.63	365.74
383.01	362.8
383.39	363.25
383.77	376.59
384.15	368.22
384.53	352.63
384.91	372.74
385.29	378.39
385.67	389.02
386.049	403.48
386.429	400.54
386.809	376.36
387.189	369.58
387.568	396.47
387.948	394.66
388.328	405.96
388.707	380.43
389.087	388.34
389.466	384.27
389.846	396.25
390.225	406.19
390.605	392.63
390.984	414.78
391.363	419.52
391.743	415.23
392.122	413.42
392.501	416.59
392.881	417.26
393.26	410.94
393.639	420.43
394.018	412.74
394.397	416.59
394.776	432.4
395.155	434.66
395.534	444.15
395.913	452.29
396.292	438.96
396.671	428.11
397.05	442.57
397.429	425.62
397.808	455.45
398.186	435.57
398.565	430.37
398.944	445.74
399.323	436.92
399.701	457.04
400.08	448.67
400.458	463.14
400.837	485.51
401.215	458.39
401.594	439.41
401.972	460.65
402.351	458.62
402.729	452.97
403.107	454.78
403.486	456.13
403.864	477.6
404.242	478.5
404.62	464.72
404.999	481.89
405.377	486.87
405.755	488.22
406.133	497.71
406.511	491.39
406.889	511.27
407.267	508.11
407.645	523.25
408.023	493.87
408.401	512.18
408.779	506.53
409.156	525.96
409.534	520.31
409.912	531.61
410.29	512.85
410.667	533.42
411.045	535
411.422	536.81
411.8	547.88
412.178	522.57
412.555	552.85
412.933	553.53
413.31	567.77
413.687	573.64
414.065	561.67
414.442	578.84
414.819	540.88
415.197	576.58
415.574	571.16
415.951	559.63
416.328	564.15
416.705	577.03
417.082	594.66
417.46	597.82
417.837	609.12
418.214	616.13
418.591	615.9
418.967	610.48
419.344	602.57
419.721	620.87
420.098	618.61
420.475	634.21
420.852	647.77
421.228	625.17
421.605	652.96
421.982	638.95
422.358	642.12
422.735	640.08
423.111	654.54
423.488	664.26
423.864	670.59
424.241	666.3
424.617	688.89
424.994	666.97
425.37	639.18
425.746	678.05
426.123	705.39
426.499	712.4
426.875	685.5
427.251	702.68
427.627	691.38
428.003	724.83
428.379	741.55
428.756	737.48
429.132	738.16
429.507	728.22
429.883	764.37
430.259	747.65
430.635	746.75
431.011	760.3
431.387	785.16
431.763	786.29
432.138	793.3
432.514	789
432.89	798.27
433.265	809.34
433.641	823.81
434.016	817.03
434.392	826.52
434.767	846.4
435.143	850.25
435.518	856.8
435.894	856.57
436.269	869.45
436.644	876.23
437.02	884.37
437.395	895.89
437.77	886.4
438.145	913.52
438.52	918.72
438.895	914.65
439.271	918.27
439.646	937.7
440.021	941.09
440.395	914.2
440.77	949.23
441.145	932.05
441.52	970.92
441.895	957.59
442.27	966.85
442.645	964.37
443.019	972.95
443.394	1013.41
443.769	983.8
444.143	977.25
444.518	988.1
444.892	1000.07
445.267	1002.11
445.641	996.68
446.016	989.45
446.39	1017.47
446.764	1001.2
447.139	1026.51
447.513	1045.95
447.887	1047.98
448.262	1068.09
448.636	1054.31
449.01	1063.12
449.384	1055.21
449.758	1094.31
450.132	1083.01
450.506	1077.36
450.88	1083.46
451.254	1105.38
451.628	1117.58
452.002	1125.72
452.376	1143.12
452.75	1108.09
453.123	1167.3
453.497	1164.59
453.871	1160.07
454.244	1181.99
454.618	1209.33
454.992	1228.32
455.365	1199.39
455.739	1242.78
456.112	1256.56
456.486	1258.6
456.859	1271.93
457.232	1312.61
457.606	1286.84
457.979	1288.2
458.352	1315.09
458.725	1311.93
459.099	1335.43
459.472	1373.17
459.845	1357.13
460.218	1372.72
460.591	1368.2
460.964	1395.54
461.337	1426.28
461.71	1445.48
462.083	1471.92
462.456	1473.05
462.829	1496.33
463.201	1515.31
463.574	1517.35
463.947	1532.49
464.32	1551.24
464.692	1567.74
465.065	1568.42
465.438	1603.45
465.81	1626.72
466.183	1676.66
466.555	1677.34
466.928	1669.21
467.3	1683.67
467.672	1720.73
468.045	1734.06
468.417	1751.01
468.789	1753.5
469.161	1780.62
469.534	1788.98
469.906	1871.46
470.278	1873.27
470.65	1869.43
471.022	1930.44
471.394	1970.89
471.766	1990.33
472.138	1995.75
472.51	2036.2
472.882	2042.08
473.253	2075.07
473.625	2133.83
473.997	2134.28
474.369	2160.49
474.74	2157.78
475.112	2194.17
475.484	2264.45
475.855	2302.19
476.227	2301.96
476.598	2398
476.97	2374.73
477.341	2423.31
477.713	2469.86
478.084	2526.81
478.455	2565.23
478.827	2556.19
479.198	2650.88
479.569	2712.12
479.94	2727.26
480.311	2790.99
480.682	2834.37
481.053	2911.21
481.424	2887.71
481.795	2930.87
482.166	2986.46
482.537	3061.04
482.908	3072.79
483.279	3129.06
483.65	3188.04
484.021	3275.94
484.391	3288.6
484.762	3335.15
485.133	3378.09
485.503	3445.43
485.874	3533.34
486.244	3515.49
486.615	3589.38
486.985	3643.62
487.356	3723.39
487.726	3720.45
488.097	3802.48
488.467	3818.08
488.837	3876.16
489.207	3927
489.578	3988.47
489.948	4107.56
490.318	4146.88
490.688	4179.42
491.058	4212.64
491.428	4280.21
491.798	4333.77
492.168	4408.12
492.538	4435.01
492.908	4514.33
493.278	4581.45
493.648	4549.81
494.017	4624.61
494.387	4681.78
494.757	4769.24
495.126	4858.5
495.496	4810.14
495.866	4888.33
496.235	4912.96
496.605	4957.26
496.974	5026.86
497.344	5074.77
497.713	5108.89
498.082	5135.11
498.452	5260.98
498.821	5258.27
499.19	5271.82
499.559	5321.77
499.928	5359.05
500.298	5416
500.667	5453.51
501.036	5527.64
501.405	5609.44
501.774	5564.92
502.143	5684.24
502.512	5694.64
502.88	5740.96
503.249	5765.82
503.618	5815.77
503.987	5837.69
504.356	5970.11
504.724	5956.55
505.093	6021.64
505.462	6083.78
505.83	6097.57
506.199	6179.82
506.567	6265.02
506.936	6287.84
507.304	6352.47
507.672	6449.65
508.041	6453.49
508.409	6485.58
508.777	6550.44
509.145	6663.2
509.514	6678.12
509.882	6722.18
510.25	6759.24
510.618	6843.76
510.986	6878.11
511.354	6987.03
511.722	7043.76
512.09	7199.23
512.458	7158.55
512.826	7179.57
513.193	7213.69
513.561	7235.61
513.929	7334.37
514.297	7497.08
514.664	7553.57
515.032	7528.71
515.4	7645.32
515.767	7740.01
516.135	7731.87
516.502	7744.08
516.869	7905.2
517.237	7946.33
517.604	8012.32
517.972	8123.5
518.339	8168.92
518.706	8238.98
519.073	8254.12
519.44	8338.64
519.808	8433.78
520.175	8475.36
520.542	8646.2
520.909	8648.46
521.276	8719.64
521.643	8822.47
522.009	8914.67
522.376	8978.62
522.743	9040.31
523.11	9195.11
523.477	9271.49
523.843	9315.56
524.21	9427.2
524.577	9480.98
524.943	9563.69
525.31	9645.49
525.676	9764.36
526.043	9844.13
526.409	9894.98
526.776	9972.27
527.142	10158.25
527.508	10146.72
527.874	10300.62
528.241	10326.16
528.607	10352.37
528.973	10499.03
529.339	10591.91
529.705	10693.38
530.071	10776.54
530.437	10899.02
530.803	10956.87
531.169	11044.33
531.535	11115.96
531.901	11143.08
532.267	11196.64
532.632	11405
532.998	11402.96
533.364	11460.81
533.73	11503.75
534.095	11696.51
534.461	11712.56
534.826	11836.4
535.192	11919.56
535.557	12016.28
535.923	12060.35
536.288	12048.6
536.653	12237.74
537.019	12341.24
537.384	12418.08
537.749	12442.26
538.114	12474.57
538.479	12571.07
538.845	12616.04
539.21	12680.44
539.575	12802.25
539.94	12863.26
540.305	13011.06
540.67	12991.4
541.034	13095.12
541.399	13230.49
541.764	13287.43
542.129	13330.82
542.494	13419.18
542.858	13548.9
543.223	13578.05
543.587	13685.84
543.952	13758.83
544.316	13871.82
544.681	13850.81
545.045	13999.28
545.41	14112.27
545.774	14205.83
546.138	14329.44
546.503	14402.43
546.867	14413.73
547.231	14613.05
547.595	14599.04
547.959	14791.35
548.324	14858.92
548.688	14871.12
549.052	14952.7
549.416	15086.71
549.779	15093.26
550.143	15278.79
550.507	15483.08
550.871	15525.11
551.235	15624.77
551.599	15802.85
551.962	15940.02
552.326	16024.76
552.689	16179.79
553.053	16163.52
553.417	16256.17
553.78	16617.06
554.143	16702.94
554.507	16809.83
554.87	16937.73
555.234	17252.53
555.597	17194
555.96	17360.09
556.323	17508.57
556.686	17611.61
557.05	17796.02
557.413	17984.03
557.776	18143.35
558.139	18271.71
558.502	18360.97
558.865	18482.32
559.228	18802.77
559.59	18905.82
559.953	18929.54
560.316	19433.49
560.679	19488.63
561.041	19702.18
561.404	19842.51
561.767	20086.35
562.129	20180.36
562.492	20480.24
562.854	20601.59
563.217	20678.2
563.579	20990.96
563.941	21200.45
564.304	21405.64
564.666	21630.49
565.028	21773.99
565.39	22109.12
565.753	22310.92
566.115	22606.06
566.477	22759.5
566.839	22900.06
567.201	23173.5
567.563	23467.96
567.925	23610.78
568.287	23822.75
568.648	23976.42
569.01	24371.44
569.372	24604.42
569.734	24647.13
570.095	25050.51
570.457	25315.37
570.819	25441.01
571.18	25661.35
571.542	25902.02
571.903	26183.14
572.265	26329.35
572.626	26490.93
572.987	26962.78
573.349	27068.31
573.71	27241.42
574.071	27428.3
574.432	27675.53
574.794	28182.41
575.155	28357.77
575.516	28247.94
575.877	28506.92
576.238	28793.47
576.599	29067.58
576.96	29274.58
577.32	29404.52
577.681	29694.46
578.042	29904.4
578.403	30016.71
578.763	30299.42
579.124	30468.45
579.485	30649.01
579.845	30906.18
580.206	31061.66
580.566	31163.8
580.927	31347.75
581.287	31679.94
581.648	31734.86
582.008	31930.78
582.368	32040.39
582.728	32273.83
583.089	32354.95
583.449	32524.44
583.809	32639.92
584.169	32834.26
584.529	32908.61
584.889	33306.34
585.249	33249.17
585.609	33368.49
585.969	33504.75
586.329	33735.26
586.688	33831.07
587.048	33983.16
587.408	34071.75
587.768	34252.76
588.127	34297.5
588.487	34395.35
588.846	34719.41
589.206	34779.52
589.565	34861.1
589.925	35010.03
590.284	35214.99
590.643	35257.48
591.003	35513.74
591.362	35682.55
591.721	35759.38
592.08	35755.09
592.44	36021.07
592.799	36100.39
593.158	36095.19
593.517	36300.61
593.876	36430.55
594.235	36462.87
594.593	36745.35
594.952	36884.55
595.311	36803.2
595.67	37068.28
596.029	37447.25
596.387	37477.31
596.746	37618.54
597.104	37523.63
597.463	37681.82
597.822	37779.67
598.18	37838.65
598.538	38039.1
598.897	38390.5
599.255	38193.44
599.613	38831.62
599.972	38645.18
600.33	38907.78
600.688	38663.49
601.046	39038.17
601.404	39276.81
601.762	39247.88
602.12	39489.23
602.478	39479.06
602.836	39677.7
603.194	39631.37
603.552	39816
603.91	39871.37
604.268	40349.32
604.625	40111.13
604.983	40444.91
605.341	40299.6
605.698	40546.83
606.056	40731.91
606.413	40788.18
606.771	41068.4
607.128	41269.75
607.485	41197.66
607.843	41204.44
608.2	41630.64
608.557	41639
608.914	41861.6
609.272	42059.56
609.629	42136.17
609.986	42360.34
610.343	42302.72
610.7	42575.93
611.057	42698.19
611.414	42717.17
611.771	42723.5
612.127	43134.78
612.484	43200.54
612.841	43425.62
613.198	43378.17
613.554	43430.6
613.911	43749.23
614.267	43781.32
614.624	43905.16
614.98	43972.95
615.337	44246.39
615.693	44245.94
616.05	44464.47
616.406	44690.45
616.762	44704.23
617.118	44817.68
617.475	44934.74
617.831	45010.44
618.187	44990.33
618.543	45239.36
618.899	45418.57
619.255	45499.69
619.611	45532.01
619.967	45621.27
620.323	45821.72
620.678	45833.47
621.034	45818.56
621.39	45800.7
621.746	45878.89
622.101	46480.91
622.457	46103.07
622.812	46374.25
623.168	46446.56
623.523	46583.51
623.879	46782.15
624.234	46454.02
624.589	46699.66
624.945	46770.85
625.3	46858.53
625.655	46746.44
626.01	46887.68
626.365	47058.52
626.72	47001.12
627.075	47215.81
627.43	47079.09
627.785	47032.99
628.14	47258.07
628.495	47341.9
628.85	47393.2
629.205	47360.66
629.559	47663.03
629.914	47442.92
630.269	47519.53
630.623	47461.22
630.978	47540.77
631.332	47838.16
631.687	47758.84
632.041	47634.55
632.396	47728.34
632.75	47696.7
633.104	47950.7
633.459	47794.55
633.813	47798.62
634.167	47877.26
634.521	47912.96
634.875	47995.9
635.229	47989.35
635.583	47726.3
635.937	47894.43
636.291	47843.81
636.645	48072.73
636.999	47912.74
637.352	47993.87
637.706	47867.54
638.06	48067.99
638.413	48059.85
638.767	48004.71
639.121	48169.45
639.474	47903.02
639.828	47969.01
640.181	48068.67
640.534	48106.86
640.888	48146.18
641.241	47913.42
641.594	48123.58
641.947	48205.84
642.301	48148.66
642.654	48163.8
643.007	48225.05
643.36	48216.91
643.713	48162.9
644.066	48402.22
644.419	48268.21
644.771	48106.4
645.124	47697.6
645.477	47609.92
645.83	47346.65
646.182	47359.98
646.535	47394.56
646.888	47517.49
647.24	47319.76
647.593	47663.25
647.945	47634.33
648.298	47494.22
648.65	47489.7
649.002	47307.78
649.355	47463.94
649.707	47473.43
650.059	47492.64
650.411	48056.01
650.763	48124.48
651.115	48558.6
651.467	48446.96
651.819	48523.79
652.171	48453.51
652.523	48427.98
652.875	48460.07
653.227	48394.31
653.578	48718.14
653.93	48477.69
654.282	48503.23
654.633	48495.77
654.985	48621.87
655.337	48556.11
655.688	48495.09
656.039	48766.5
656.391	48317.25
656.742	48514.98
657.094	48712.72
657.445	48788.19
657.796	48734.41
658.147	48758.82
658.498	48795.65
658.849	48818.25
659.2	48815.31
659.551	48742.32
659.902	48961.07
660.253	48804.92
660.604	48866.84
660.955	48834.3
661.306	48917
661.656	48930.11
662.007	48930.11
662.358	48891.69
662.708	48825.71
663.059	48979.38
663.409	48716.11
663.76	49058.47
664.11	49002.65
664.461	48958.59
664.811	49039.94
665.161	49146.6
665.511	49003.1
665.862	49152.93
666.212	49266.15
666.562	49160.39
666.912	49086.04
667.262	49203.1
667.612	49175.08
667.962	49434.05
668.312	49154.06
668.662	49401.74
669.011	49360.38
669.361	49513.6
669.711	49433.15
670.06	49337.78
670.41	49373.04
670.76	49317.45
671.109	49600.6
671.459	49518.12
671.808	49489.87
672.157	49610.09
672.507	49397.9
672.856	49336.2
673.205	49469.98
673.554	49612.13
673.904	49427.05
674.253	49712.92
674.602	49618.46
674.951	49073.16
675.3	48941.18
675.649	49679.92
675.998	49536.88
676.346	49615.07
676.695	49775.74
677.044	49462.3
677.393	49593.82
677.741	49666.82
678.09	49487.84
678.438	49547.95
678.787	49815.74
679.135	49678.11
679.484	49491.23
679.832	49588.63
680.181	49541.17
680.529	49680.83
680.877	49488.29
681.225	49463.88
681.573	49576.42
681.922	49436.54
682.27	49466.59
682.618	49445.35
682.966	49305.02
683.314	49524.9
683.661	49310.21
684.009	49258.69
684.357	49050.79
684.705	49094.63
685.053	49229.76
685.4	49270.89
685.748	49113.84
686.095	49077.23
686.443	48893.73
686.79	48972.14
687.138	49010.34
687.485	49084.01
687.832	49077
688.18	49076.32
688.527	48836.55
688.874	48808.53
689.221	48782.32
689.568	48687.18
689.915	48634.07
690.262	48629.55
690.609	48641.76
690.956	48536.9
691.303	48480.86
691.65	48357.25
691.997	48229.11
692.344	48150.02
692.69	48124.26
693.037	48214.65
693.383	47939.18
693.73	48182.79
694.077	47861.89
694.423	47883.13
694.769	47922.23
695.116	47790.71
695.462	47787.99
695.808	47703.03
696.155	47813.08
696.501	47522.24
696.847	47401.34
697.193	47295.58
697.539	47420.09
697.885	47141.23
698.231	47115.7
698.577	47153.44
698.923	47103.72
699.269	46913.67
699.614	46653.56
699.96	46752.54
700.306	46867.12
700.651	46719.55
700.997	46651.98
701.342	46731.07
701.688	46492.44
702.033	46406.79
702.379	46430.52
702.724	46279.56
703.069	46363.63
703.415	45715.28
703.76	45862.4
704.105	46004.09
704.45	45952.34
704.795	45721.61
705.14	45716.18
705.485	45537.88
705.83	45478.45
706.175	45594.61
706.52	45514.61
706.865	45463.99
707.209	45385.8
707.554	45252.92
707.899	45336.53
708.243	45155.75
708.588	45173.6
708.932	44873.72
709.277	44866.72
709.621	44902.42
709.966	44581.3
710.31	44729.54
710.654	44573.84
710.998	44678.25
711.342	44714.63
711.687	44621.3
712.031	44506.05
712.375	44413.85
712.719	44350.8
713.063	44228.77
713.407	44503.56
713.75	44263.57
714.094	44307.63
714.438	44158.71
714.782	44137.92
715.125	43919.62
715.469	43997.36
715.812	43889.79
716.156	43757.59
716.499	43781.32
716.843	43788.33
717.186	43489.35
717.53	43860.87
717.873	43810.02
718.216	43573.42
718.559	43516.69
718.902	43303.14
719.246	43471.72
719.589	43348.79
719.932	43228.79
720.275	43306.08
720.617	43174.1
720.96	43190.83
721.303	43073.54
721.646	43220.66
721.989	43154.44
722.331	43152.64
722.674	43107.67
723.016	43046.42
723.359	43040.55
723.701	43145.18
724.044	42708.35
724.386	42511.52
724.729	42812.53
725.071	42765.75
725.413	42704.29
725.755	42699.32
726.097	42577.96
726.439	42563.95
726.782	42506.33
727.124	42671.52
727.465	42460.9
727.807	42540.9
728.149	42321.25
728.491	42282.6
728.833	42328.48
729.175	42175.04
729.516	42148.6
729.858	42168.71
730.199	42100.91
730.541	42110.4
730.882	41998.77
731.224	42051.65
731.565	41725.78
731.906	41904.53
732.248	42104.08
732.589	41852.78
732.93	41785.21
733.271	41751.77
733.612	41994.93
733.953	41924.42
734.294	41724.43
734.635	41635.39
734.976	41526.92
735.317	41612.11
735.658	41651.21
735.999	41441.27
736.339	41403.08
736.68	41495.5
737.021	41297.09
737.361	41243.31
737.702	41332.12
738.042	41265
738.383	41203.76
738.723	41414.38
739.063	41170.77
739.404	41373.02
739.744	41073.6
740.084	41148.62
740.424	41277.88
740.764	41161.5
741.104	41187.72
741.444	40824.11
741.784	40935.52
742.124	40995.18
742.464	40818.46
742.804	40860.49
743.143	40900.49
743.483	40781.4
743.823	40659.82
744.162	40683.77
744.502	40735.52
744.841	40696.88
745.181	40856.43
745.52	40688.97
745.86	40629.09
746.199	40469.77
746.538	40472.26
746.877	40517.9
747.216	40373.5
747.556	40401.52
747.895	40405.82
748.234	40180.74
748.573	40109.33
748.911	40092.38
749.25	40130.8
749.589	40003.79
749.928	40081.76
750.267	40006.96
750.605	39878.82
750.944	39799.5
751.283	39781.88
751.621	40010.35
751.96	39679.06
752.298	39694.2
752.636	39832.95
752.975	39559.51
753.313	39440.64
753.651	39405.16
753.989	39303.47
754.327	39251.72
754.666	39135.12
755.004	39162.01
755.342	39170.82
755.679	39120.43
756.017	38928.34
756.355	39105.51
756.693	38901.67
757.031	38986.19
757.368	38697.84
757.706	38608.12
758.044	38524.74
758.381	38539.65
758.719	38402.03
759.056	38588.69
759.394	38253.1
759.731	38110.96
760.068	38115.71
760.405	37881.14
760.743	37938.31
761.08	37948.03
761.417	37805.21
761.754	37828.03
762.091	37713.01
762.428	37579.45
762.765	37289.29
763.102	37442.73
763.438	37440.7
763.775	37137.2
764.112	37338.55
764.449	37184.88
764.785	37119.35
765.122	36856.98
765.458	36778.57
765.795	36659.25
766.131	36572.02
766.467	36490.89
766.804	36563.43
767.14	36384
767.476	36402.76
767.812	36297.22
768.148	36369.54
768.485	36179.26
768.821	35806.39
769.157	35895.43
769.492	35813.17
769.828	35855.88
770.164	35510.8
770.5	35550.58
770.836	35300.19
771.171	35205.05
771.507	35227.65
771.842	34908.79
772.178	34938.39
772.513	34835.79
772.849	34652.97
773.184	34636.25
773.519	34725.97
773.855	34345.86
774.19	34374.11
774.525	34253.89
774.86	34222.7
775.195	34187.45
775.53	33971.41
775.865	33887.57
776.2	33495.04
776.535	33369.84
776.87	33326.45
777.205	33360.13
777.539	33237.87
777.874	33166.01
778.209	33000.36
778.543	32906.8
778.878	32873.36
779.212	32812.57
779.547	32695.06
779.881	32573.03
780.215	32404.9
780.55	32432.24
780.884	32285.13
781.218	32302.98
781.552	32283.32
781.886	32048.97
782.22	31925.14
782.554	31867.06
782.888	31450.35
783.222	31421.65
783.556	31382.1
783.889	31258.71
784.223	30996.8
784.557	31101.2
784.89	31171.48
785.224	31042.22
785.557	31061.2
785.891	30921.77
786.224	30835.45
786.558	30797.03
786.891	30633.87
787.224	30441.78
787.557	30514.78
787.891	30310.71
788.224	30327.66
788.557	30257.38
788.89	30014.22
789.223	29993.43
789.556	29694.91
789.888	29670.51
790.221	29516.61
790.554	29486.56
790.887	29549.38
791.219	29474.35
791.552	29414.24
791.884	29201.14
792.217	29218.99
792.549	29181.7
792.882	28908.72
793.214	28910.07
793.546	28974.25
793.879	28784.88
794.211	28620.14
794.543	28837.53
794.875	28635.28
795.207	28681.15
795.539	28546.24
795.871	28368.17
796.203	28265.8
796.535	28135.86
796.867	28196.87
797.198	28031.9
797.53	27999.14
797.862	27937.67
798.193	27809.76
798.525	27683.89
798.856	27769.09
799.188	27346.27
799.519	27501.07
799.85	27249.55
800.182	27405.71
800.513	27365.71
800.844	27010.69
801.175	27186.05
801.506	27054.3
801.837	26932.72
802.168	26976.34
802.499	26746.29
802.83	26763.69
803.161	26616.57
803.491	26734.54
803.822	26641.43
804.153	26570.02
804.483	26458.16
804.814	26390.82
805.145	26314.89
805.475	26259.3
805.805	26238.05
806.136	26106.76
806.466	26212.74
806.796	26238.51
807.126	25912.64
807.457	25946.54
807.787	25741.34
808.117	25749.48
808.447	25687.79
808.777	25805.3
809.107	25657.73
809.436	25763.72
809.766	25572.76
810.096	25481.69
810.426	25332.99
810.755	25445.98
811.085	25421.8
811.414	25295.48
811.744	25166.44
812.073	25181.36
812.403	25147.01
812.732	24871.08
813.061	25058.2
813.39	24791.76
813.719	24859.78
814.049	24927.13
814.378	24718.54
814.707	24746.79
815.036	24641.48
815.365	24533.47
815.693	24260.25
816.022	24311.32
816.351	24366.69
816.68	24218.9
817.008	24282.4
817.337	24027.94
817.665	24226.13
817.994	24233.13
818.322	24162.63
818.651	23941.84
818.979	23924.44
819.307	24065.23
819.636	23989.07
819.964	23725.12
820.292	23896.42
820.62	23893.03
820.948	23853.26
821.276	23945.46
821.604	23817.1
821.932	23891.22
822.259	23846.93
822.587	23762.19
822.915	23819.13
823.243	23886.48
823.57	23781.39
823.898	24003.54
824.225	23902.97
824.553	23696.2
824.88	23831.56
825.207	23812.58
825.535	23715.41
825.862	23785.91
826.189	23698.68
826.516	23869.75
826.843	23920.83
827.17	23974.84
827.497	23985
827.824	23944.33
828.151	24093.02
828.478	24049.64
828.805	24116.75
829.131	23989.3
829.458	23851.9
829.785	23762.64
830.111	23996.3
830.438	24028.85
830.764	24096.64
831.09	24090.09
831.417	23830.43
831.743	24012.12
832.069	24071.78
832.395	23873.14
832.722	23924.44
833.048	23930.09
833.374	23953.14
833.7	23753.15
834.026	23886.93
834.351	23866.36
834.677	23761.51
835.003	23859.58
835.329	23900.94
835.654	23734.84
835.98	23673.6
836.306	23642.87
836.631	23595.86
836.956	23638.8
837.282	23703.43
837.607	23520.84
837.932	23519.25
838.258	23556.54
838.583	23580.27
838.908	23423.44
839.233	23535.75
839.558	23396.09
839.883	23333.95
840.208	23381.18
840.533	23362.87
840.858	23491.68
841.182	23325.14
841.507	23326.72
841.832	23173.27
842.156	23213.05
842.481	23360.84
842.805	23110.68
843.13	22948.65
843.454	22937.12
843.778	22968.99
844.103	22790.23
844.427	22729.67
844.751	22832.27
845.075	22774.19
845.399	22773.51
845.723	22620.97
846.047	22687.64
846.371	22468.43
846.695	22419.4
847.019	22288.1
847.343	22218.05
847.666	22079.52
847.99	22050.82
848.313	22153.87
848.637	21856.47
848.96	21909.13
849.284	21842.91
849.607	21675.46
849.931	21652.41
850.254	21497.16
850.577	21445.41
850.9	21237.05
851.223	21388.01
851.546	21281.12
851.869	21209.94
852.192	21205.42
852.515	21005.42
852.838	20917.06
853.161	20834.81
853.483	20604.98
853.806	20684.98
854.129	20647.47
854.451	20553.46
854.774	20452.22
855.096	20545.32
855.419	20549.84
855.741	20437.98
856.063	20442.05
856.385	20363.18
856.708	20235.5
857.03	20278.21
857.352	20192.34
857.674	20082.51
857.996	20037.76
858.318	19813.36
858.64	19827.37
858.961	19822.63
859.283	19697.89
859.605	19559.58
859.926	19753.48
860.248	19723.2
860.57	19550.09
860.891	19743.31
861.212	19576.99
861.534	19414.96
861.855	19461.06
862.176	19480.94
862.498	19509.42
862.819	19442.3
863.14	19363.66
863.461	19388.74
863.782	19276.65
864.103	19345.13
864.424	19350.78
864.745	19286.37
865.065	19239.14
865.386	19164.34
865.707	19293.15
866.027	19181.29
866.348	19144.45
866.668	19189.2
866.989	19158.69
867.309	18899.26
867.63	19012.25
867.95	19017
868.27	18744.01
868.59	18868.08
868.91	18787.85
869.23	18783.33
869.55	18637.12
869.87	18770.68
870.19	18673.51
870.51	18690.45
870.83	18674.86
871.15	18474.87
871.469	18605.03
871.789	18678.93
872.109	18603
872.428	18545.6
872.748	18633.96
873.067	18522.78
873.386	18605.94
873.706	18509.67
874.025	18501.53
874.344	18325.04
874.663	18513.96
874.982	18503.12
875.301	18362.1
875.62	18364.14
875.939	18349.22
876.258	18339.28
876.577	18228.09
876.896	18315.78
877.214	18222.22
877.533	18217.7
877.852	18195.1
878.17	18217.47
878.489	18153.52
878.807	18110.58
879.125	17993.75
879.444	18038.04
879.762	18125.27
880.08	18027.2
880.398	18071.49
880.716	17940.19
881.034	17917.59
881.352	17975.67
881.67	17727.99
881.988	17763.25
882.306	17711.95
882.624	17697.71
882.941	17709.92
883.259	17641.22
883.577	17654.55
883.894	17496.81
884.212	17535.23
884.529	17429.92
884.846	17531.62
885.164	17495.23
885.481	17387.44
885.798	17403.71
886.115	17366.65
886.432	17397.16
886.75	17254.33
887.067	17286.2
887.383	17108.12
887.7	17184.28
888.017	17128.69
888.334	17206.65
888.651	17077.62
888.967	17137.73
889.284	16962.36
889.6	16901.58
889.917	16853.22
890.233	16959.2
890.55	16882.37
890.866	16812.76
891.182	16791.07
891.498	16756.95
891.815	16685.99
892.131	16652.77
892.447	16608.25
892.763	16548.14
893.079	16505.88
893.395	16401.48
893.71	16351.31
894.026	16277.86
894.342	16326.45
894.657	16298.2
894.973	16268.6
895.289	16233.57
895.604	16168.04
895.92	16064.99
896.235	16067.92
896.55	15996.06
896.865	15854.6
897.181	15989.06
897.496	15832
897.811	15767.82
898.126	15778.44
898.441	15739.8
898.756	15673.36
899.071	15515.4
899.386	15565.57
899.7	15463.87
900.015	15487.38
900.33	15314.05
900.644	15307.72
900.959	15244.9
901.273	15247.83
901.588	15165.35
901.902	15077.67
902.216	15002.64
902.531	15048.52
902.845	15095.75
903.159	14884.68
903.473	15038.35
903.787	14897.33
904.101	14785.7
904.415	14761.97
904.729	14650.79
905.042	14622.31
905.356	14610.11
905.67	14537.34
905.984	14469.1
906.297	14477.46
906.611	14333.73
906.924	14312.26
907.237	14320.17
907.551	14289.44
907.864	14173.29
908.177	14144.81
908.491	14158.14
908.804	14106.62
909.117	13967.64
909.43	14039.5
909.743	13956.12
910.056	13963.35
910.368	13777.36
910.681	13683.13
910.994	13720.19
911.307	13698.72
911.619	13620.53
911.932	13598.39
912.244	13486.98
912.557	13445.4
912.869	13408.79
913.181	13393.19
913.494	13339.41
913.806	13260.54
914.118	13232.07
914.43	13077.95
914.742	13181.67
915.054	13125.86
915.366	12962.47
915.678	12921.79
915.99	12822.13
916.302	12843.15
916.613	12745.75
916.925	12698.52
917.236	12725.87
917.548	12590.73
917.859	12685.64
918.171	12484.97
918.482	12440.9
918.794	12470.28
919.105	12368.14
919.416	12258.31
919.727	12270.51
920.038	12172.43
920.349	12093.34
920.66	12103.51
920.971	12143.96
921.282	12138.08
921.593	12098.76
921.903	11922.72
922.214	11980.8
922.525	11893.8
922.835	11774.03
923.146	11697.19
923.456	11768.38
923.767	11687.48
924.077	11640.47
924.387	11598.21
924.697	11601.6
925.008	11529.97
925.318	11465.11
925.628	11439.35
925.938	11365.22
926.248	11289.97
926.558	11248.84
926.867	11258.33
927.177	11132.69
927.487	11074.16
927.796	10998
928.106	11082.97
928.416	10920.49
928.725	10916.87
929.034	10880.94
929.344	10878.91
929.653	10802.75
929.962	10735.18
930.271	10705.35
930.581	10594.62
930.89	10598.24
931.199	10596.43
931.508	10500.39
931.817	10520.05
932.125	10452.25
932.434	10385.59
932.743	10284.12
933.051	10385.36
933.36	10288.64
933.669	10233.05
933.977	10187.18
934.286	10145.82
934.594	10163.22
934.902	10069.66
935.21	10057.91
935.519	10014.75
935.827	9994.64
936.135	9917.8
936.443	9826.28
936.751	9795.1
937.059	9772.72
937.367	9714.19
937.674	9675.1
937.982	9698.15
938.29	9610.24
938.597	9632.16
938.905	9458.61
939.213	9417.93
939.52	9451.83
939.827	9430.59
940.135	9274.43
940.442	9323.47
940.749	9245.51
941.056	9276.92
941.363	9116.24
941.67	9116.47
941.977	9066.98
942.284	9122.12
942.591	9043.7
942.898	8966.87
943.205	8948.34
943.511	8925.51
943.818	8887.77
944.125	8887.77
944.431	8823.37
944.738	8768.91
945.044	8737.27
945.35	8765.29
945.657	8670.83
945.963	8648.01
946.269	8651.4
946.575	8627.89
946.881	8530.04
947.187	8524.85
947.493	8467.22
947.799	8408.01
948.105	8354.68
948.41	8292.76
948.716	8275.59
949.022	8147.91
949.327	8237.4
949.633	8149.94
949.938	8165.76
950.244	8129.15
950.549	8060.23
950.854	8056.16
951.16	8010.51
951.465	8032.66
951.77	7927.35
952.075	7913.56
952.38	7828.37
952.685	7891.87
952.99	7787.69
953.294	7809.39
953.599	7723.51
953.904	7728.94
954.209	7654.59
954.513	7657.98
954.818	7564.65
955.122	7642.16
955.426	7521.48
955.731	7510.41
956.035	7410.53
956.339	7368.72
956.643	7360.36
956.948	7359
957.252	7391.09
957.556	7406.91
957.86	7322.84
958.163	7383.63
958.467	7262.05
958.771	7231.1
959.075	7210.53
959.378	7201.72
959.682	7122.62
959.985	7108.39
960.289	7091.89
960.592	7068.61
960.896	6988.84
961.199	6946.13
961.502	6975.73
961.805	6956.3
962.108	6877.88
962.411	6772.58
962.714	6831.11
963.017	6806.93
963.32	6786.14
963.623	6740.49
963.926	6718.11
964.228	6694.39
964.531	6624.33
964.833	6575.29
965.136	6561.73
965.438	6550.66
965.741	6495.97
966.043	6485.8
966.345	6437.67
966.648	6436.31
966.95	6419.14
967.252	6346.6
967.554	6314.51
967.856	6333.04
968.158	6286.04
968.46	6260.5
968.761	6220.73
969.063	6287.84
969.365	6208.07
969.666	6182.31
969.968	6081.52
970.269	6023.9
970.571	6104.8
970.872	6082.42
971.174	6029.09
971.475	6006.04
971.776	6014.86
972.077	5951.81
972.378	5980.51
972.679	5943.67
972.98	5928.3
973.281	5870.9
973.582	5868.87
973.883	5811.02
974.183	5809.66
974.484	5775.77
974.785	5747.52
975.085	5764.02
975.386	5689.44
975.686	5638.14
975.986	5618.71
976.287	5651.25
976.587	5549.33
976.887	5521.31
977.187	5561.08
977.487	5505.26
977.787	5428.2
978.087	5379.84
978.387	5481.99
978.687	5403.12
978.987	5371.71
979.286	5392.95
979.586	5348.88
979.885	5250.58
980.185	5302.11
980.484	5246.51
980.784	5252.84
981.083	5158.61
981.382	5232.96
981.682	5173.07
981.981	5174.88
982.28	5118.38
982.579	5064.37
982.878	5025.96
983.177	5073.41
983.475	5032.73
983.774	5017.37
984.073	4997.48
984.372	4971.04
984.67	4972.4
984.969	4923.81
985.267	4950.48
985.566	4946.64
985.864	4884.72
986.162	4808.79
986.461	4795.23
986.759	4797.49
987.057	4729.01
987.355	4719.75
987.653	4701.44
987.951	4712.52
988.249	4663.03
988.547	4692.63
988.844	4612.86
989.142	4673.42
989.44	4556.36
989.737	4528.34
990.035	4555.23
990.332	4549.81
990.63	4480.21
990.927	4459.19
991.224	4468.68
991.521	4463.48
991.819	4471.39
992.116	4431.39
992.413	4346.65
992.71	4285.64
993.006	4288.12
993.303	4352.3
993.6	4294.68
993.897	4280.89
994.193	4258.52
994.49	4236.82
994.787	4209.25
995.083	4179.88
995.379	4152.76
995.676	4152.98
995.972	4122.48
996.268	4102.82
996.565	4095.81
996.861	4060.11
997.157	4079.09
997.453	4026.66
997.749	4009.94
998.044	4001.58
998.34	3979.88
998.636	3940.79
998.932	3931.29
999.227	3855.59
999.523	3896.27
999.818	3878.41
1000.114	3847.46
1000.409	3795.03
1000.704	3819.66
1001	3750.73
1001.295	3758.64
1001.59	3742.15
1001.885	3731.3
1002.18	3694.47
1002.475	3709.61
1002.77	3657.86
1003.065	3642.04
1003.359	3624.18
1003.654	3587.35
1003.949	3486.79
1004.243	3587.12
1004.538	3540.34
1004.832	3528.59
1005.127	3497.18
1005.421	3463.06
1005.715	3433
1006.009	3457.64
1006.304	3407.69
1006.598	3372.44
1006.892	3376.51
1007.186	3329.5
1007.48	3346.23
1007.773	3310.75
1008.067	3240.24
1008.361	3268.04
1008.655	3213.8
1008.948	3209.73
1009.242	3199.56
1009.535	3176.74
1009.829	3148.72
1010.122	3160.02
1010.415	3139.45
1010.708	3106.23
1011.001	3071.43
1011.295	3054.03
1011.588	3036.18
1011.881	3034.82
1012.173	3009.74
1012.466	2992.11
1012.759	2968.61
1013.052	2926.8
1013.344	2940.13
1013.637	2923.19
1013.93	2901.49
1014.222	2865.11
1014.514	2849.74
1014.807	2860.36
1015.099	2808.16
1015.391	2808.61
1015.683	2786.47
1015.976	2772.23
1016.268	2758.67
1016.56	2756.64
1016.851	2686.13
1017.143	2712.57
1017.435	2671.44
1017.727	2688.62
1018.018	2654.72
1018.31	2630.31
1018.602	2603.65
1018.893	2582.63
1019.185	2548.28
1019.476	2527.49
1019.767	2526.81
1020.058	2525.23
1020.35	2513.25
1020.641	2442.75
1020.932	2484.1
1021.223	2442.75
1021.514	2404.33
1021.804	2396.65
1022.095	2363.43
1022.386	2398.68
1022.677	2368.85
1022.967	2347.38
1023.258	2339.47
1023.548	2306.7
1023.839	2297.44
1024.129	2259.93
1024.419	2235.75
1024.709	2242.07
1025	2205.46
1025.29	2220.15
1025.58	2198.91
1025.87	2174.05
1026.16	2195.3
1026.449	2159.36
1026.739	2137.44
1027.029	2143.09
1027.319	2101.06
1027.608	2072.59
1027.898	2072.13
1028.187	2056.99
1028.477	2034.85
1028.766	2024.9
1029.055	2002.31
1029.344	2007.28
1029.634	1968.18
1029.923	1959.82
1030.212	1932.25
1030.501	1921.18
1030.79	1922.53
1031.078	1883.89
1031.367	1859.94
1031.656	1880.28
1031.945	1835.53
1032.233	1852.71
1032.522	1846.15
1032.81	1817.45
1033.099	1828.53
1033.387	1804.8
1033.675	1799.15
1033.963	1773.61
1034.251	1760.28
1034.54	1749.66
1034.828	1752.37
1035.116	1701.3
1035.403	1669.43
1035.691	1684.35
1035.979	1655.65
1036.267	1679.38
1036.554	1635.99
1036.842	1622.88
1037.129	1642.99
1037.417	1597.57
1037.704	1620.4
1037.992	1582.43
1038.279	1587.63
1038.566	1573.16
1038.853	1573.16
1039.14	1573.16
