Data from copper_heatsink_FLMS001491_021.txt Node
Date: Tue Feb 07 10:49:35 GMT 2017
User: dcchb
Spectrometer: FLMS00149
Trigger mode: 0
Integration Time (sec): 2.000000E-2
Scans to average: 10
Electric dark correction enabled: true
Nonlinearity correction enabled: false
Boxcar width: 0
XAxis mode: Wavelengths
Number of Pixels in Spectrum: 2048
>>>>>Begin Spectral Data<<<<<
341.393	-27.49
341.776	-27.49
342.16	-27.49
342.543	-68.61
342.927	-56.86
343.31	-81.95
343.693	-71.1
344.077	-60.25
344.46	-49.63
344.843	-56.18
345.226	-53.7
345.61	-26.81
345.993	-8.95
346.376	-15.06
346.759	24.94
347.142	7.99
347.525	42.34
347.908	72.4
348.291	80.99
348.674	93.42
349.057	101.55
349.44	110.82
349.823	142.68
350.206	170.48
350.588	216.35
350.971	253.41
351.354	253.86
351.737	247.76
352.119	279.4
352.502	309.68
352.884	292.96
353.267	289.12
353.65	297.03
354.032	305.61
354.414	326.4
354.797	324.14
355.179	349.45
355.562	343.58
355.944	364.59
356.326	350.58
356.709	377.93
357.091	359.17
357.473	358.04
357.855	368.21
358.238	353.75
358.62	355.33
359.002	364.37
359.384	360.98
359.766	372.05
360.148	351.71
360.53	356.69
360.912	353.97
361.294	374.09
361.676	359.4
362.057	367.76
362.439	374.09
362.821	360.75
363.203	356.91
363.584	348.78
363.966	343.8
364.348	353.52
364.729	364.37
365.111	360.53
365.493	349.68
365.874	344.03
366.256	359.4
366.637	354.65
367.019	348.78
367.4	331.38
367.781	346.97
368.163	362.34
368.544	343.35
368.925	353.07
369.306	367.31
369.688	354.88
370.069	355.1
370.45	379.28
370.831	359.62
371.212	343.8
371.593	340.64
371.974	334.31
372.355	365.72
372.736	358.49
373.117	345.84
373.498	356.01
373.879	365.27
374.26	366.4
374.641	351.71
375.021	357.36
375.402	334.09
375.783	388.1
376.163	404.37
376.544	383.13
376.925	378.83
377.305	368.89
377.686	392.16
378.066	352.62
378.447	370.24
378.827	380.19
379.208	393.29
379.588	377.7
379.968	384.71
380.349	370.47
380.729	396.91
381.109	380.19
381.489	371.15
381.87	407.31
382.25	386.74
382.63	400.07
383.01	435.33
383.39	400.98
383.77	398.72
384.15	409.11
384.53	409.34
384.91	425.84
385.29	414.54
385.67	434.88
386.049	418.83
386.429	441.88
386.809	417.02
387.189	432.16
387.568	446.85
387.948	409.11
388.328	450.02
388.707	434.42
389.087	426.74
389.466	454.54
389.846	475.1
390.225	460.86
390.605	462.45
390.984	457.7
391.363	442.33
391.743	457.47
392.122	470.81
392.501	483.01
392.881	488.21
393.26	501.09
393.639	504.7
394.018	501.31
394.397	499.51
394.776	500.86
395.155	488.21
395.534	496.34
395.913	483.01
396.292	509.9
396.671	499.96
397.05	490.92
397.429	520.52
397.808	508.77
398.186	530.01
398.565	544.7
398.944	510.81
399.323	530.24
399.701	515.1
400.08	556.68
400.458	550.35
400.837	580.18
401.215	549
401.594	564.36
401.972	552.16
402.351	573.85
402.729	573.63
403.107	542.44
403.486	586.06
403.864	579.73
404.242	560.52
404.62	600.07
404.999	610.92
405.377	597.13
405.755	597.58
406.133	602.1
406.511	621.54
406.889	604.36
407.267	644.14
407.645	627.86
408.023	642.33
408.401	669.45
408.779	647.75
409.156	660.18
409.534	645.72
409.912	647.07
410.29	675.55
410.667	672.84
411.045	681.2
411.422	680.29
411.8	684.59
412.178	711.03
412.555	725.72
412.933	713.06
413.31	725.26
413.687	741.53
414.065	761.19
414.442	735.88
414.819	780.86
415.197	751.48
415.574	776.34
415.951	815.66
416.328	788.99
416.705	758.26
417.082	781.31
417.46	829.44
417.837	814.07
418.214	809.1
418.591	840.97
418.967	832.38
419.344	837.58
419.721	852.94
420.098	827.41
420.475	844.58
420.852	873.73
421.228	882.1
421.605	880.97
421.982	886.62
422.358	889.55
422.735	894.98
423.111	886.16
423.488	905.82
423.864	934.3
424.241	956.67
424.617	936.33
424.994	961.19
425.37	956.22
425.746	960.51
426.123	952.83
426.499	1007.97
426.875	993.96
427.251	1000.28
427.627	1035.31
428.003	1031.47
428.379	1058.81
428.756	1061.75
429.132	1064.69
429.507	1061.53
429.883	1085.71
430.259	1106.04
430.635	1109.21
431.011	1119.83
431.387	1160.05
431.763	1155.99
432.138	1161.86
432.514	1170.45
432.89	1176.55
433.265	1195.99
433.641	1219.26
434.016	1224.01
434.392	1255.64
434.767	1300.84
435.143	1288.86
435.518	1284.34
435.894	1299.49
436.269	1315.53
436.644	1343.78
437.02	1344.68
437.395	1340.61
437.77	1362.53
438.145	1399.6
438.52	1420.16
438.895	1406.6
439.271	1415.19
439.646	1457.67
440.021	1481.63
440.395	1455.19
440.77	1472.81
441.145	1483.89
441.52	1501.97
441.895	1508.52
442.27	1494.06
442.645	1552.36
443.019	1552.59
443.394	1544
443.769	1559.37
444.143	1569.08
444.518	1598.46
444.892	1568.86
445.267	1609.76
445.641	1628.97
446.016	1632.13
446.39	1643.43
446.764	1670.32
447.139	1674.62
447.513	1673.71
447.887	1668.97
448.262	1676.65
448.636	1722.07
449.01	1732.02
449.384	1729.53
449.758	1745.58
450.132	1785.57
450.506	1799.36
450.88	1807.95
451.254	1806.59
451.628	1836.87
452.002	1840.94
452.376	1857.21
452.75	1917.77
453.123	1932.01
453.497	1963.65
453.871	1972.01
454.244	1987.15
454.618	2014.5
454.992	2036.19
455.365	2036.42
455.739	2091.1
456.112	2104.21
456.486	2139.69
456.859	2156.64
457.232	2225.11
457.606	2211.78
457.979	2251.1
458.352	2258.1
458.725	2277.09
459.099	2300.82
459.472	2366.58
459.845	2381.27
460.218	2401.6
460.591	2413.81
460.964	2425.56
461.337	2495.39
461.71	2527.93
462.083	2580.58
462.456	2585.1
462.829	2607.47
463.201	2658.77
463.574	2638.89
463.947	2701.03
464.32	2751.65
464.692	2784.19
465.065	2806.56
465.438	2880.46
465.81	2897.18
466.183	2921.82
466.555	3009.05
466.928	3038.2
467.3	3033.9
467.672	3050.17
468.045	3166.56
468.417	3139.66
468.789	3150.28
469.161	3190.28
469.534	3271.86
469.906	3362.71
470.278	3360.67
470.65	3446.32
471.022	3489.03
471.394	3521.57
471.766	3556.38
472.138	3614.23
472.51	3695.81
472.882	3734.68
473.253	3786.65
473.625	3852.86
473.997	3934.67
474.369	3931.96
474.74	3987.32
475.112	4105.51
475.484	4153.42
475.855	4182.8
476.227	4219.86
476.598	4363.13
476.97	4323.13
477.341	4483.58
477.713	4575.78
478.084	4594.54
478.455	4714.76
478.827	4755.89
479.198	4870.92
479.569	4860.75
479.94	5031.82
480.311	5095.32
480.682	5179.16
481.053	5355.88
481.424	5370.79
481.795	5447.63
482.166	5546.15
482.537	5663.66
482.908	5709.77
483.279	5820.27
483.65	5909.76
484.021	5989.53
484.391	6040.83
484.762	6088.74
485.133	6222.75
485.503	6270.65
485.874	6428.39
486.244	6466.36
486.615	6559.46
486.985	6648.95
487.356	6781.83
487.726	6811.43
488.097	6984.31
488.467	6963.97
488.837	7166
489.207	7246.22
489.578	7347.24
489.948	7431.98
490.318	7495.71
490.688	7586.55
491.058	7682.82
491.428	7785.19
491.798	7885.98
492.168	8028.12
492.538	8045.3
492.908	8094.56
493.278	8271.28
493.648	8239.42
494.017	8355.57
494.387	8471.95
494.757	8552.85
495.126	8682.57
495.496	8665.39
495.866	8702.23
496.235	8944.71
496.605	8925.27
496.974	8964.82
497.344	9026.74
497.713	9148.54
498.082	9151.03
498.452	9338.37
498.821	9425.83
499.19	9437.35
499.559	9479.61
499.928	9518.48
500.298	9545.37
500.667	9650.9
501.036	9660.85
501.405	9753.27
501.774	9867.85
502.143	10003.44
502.512	9947.62
502.88	10045.47
503.249	10115.52
503.618	10165.47
503.987	10266.93
504.356	10300.15
504.724	10370.21
505.093	10413.6
505.462	10442.3
505.83	10545.57
506.199	10677.54
506.567	10771.78
506.936	10746.02
507.304	10957.54
507.672	10998.21
508.041	11019.23
508.409	11162.96
508.777	11170.19
509.145	11256.51
509.514	11236.63
509.882	11354.59
510.25	11480.23
510.618	11502.83
510.986	11587.35
511.354	11717.52
511.722	11731.53
512.09	11906.44
512.458	11921.58
512.826	11980.11
513.193	12083.83
513.561	12176.04
513.929	12230.05
514.297	12357.95
514.664	12452.86
515.032	12561.56
515.4	12618.96
515.767	12662.12
516.135	12775.34
516.502	12715.68
516.869	13009.46
517.237	13006.97
517.604	12983.92
517.972	13115.9
518.339	13213.07
518.706	13290.36
519.073	13425.04
519.44	13493.29
519.808	13634.75
520.175	13642.89
520.542	13809.89
520.909	13948.42
521.276	13963.11
521.643	14102.09
522.009	14226.83
522.376	14303.44
522.743	14454.39
523.11	14573.26
523.477	14727.38
523.843	14774.61
524.21	14940.03
524.577	15081.04
524.943	15147.26
525.31	15218.67
525.676	15333.47
526.043	15471.77
526.409	15598.54
526.776	15802.83
527.142	15865.2
527.508	15883.28
527.874	15996.73
528.241	16085.76
528.607	16143.84
528.973	16389.03
529.339	16424.06
529.705	16470.16
530.071	16636.71
530.437	16692.3
530.803	16965.51
531.169	17017.94
531.535	17011.39
531.901	17092.06
532.267	17251.61
532.632	17395.79
532.998	17374.54
533.364	17606.85
533.73	17541.77
534.095	17663.12
534.461	17718.49
534.826	17850.01
535.192	17973.85
535.557	18077.12
535.923	18125.03
536.288	18242.99
536.653	18298.81
537.019	18291.36
537.384	18424.46
537.749	18538.58
538.114	18650.67
538.479	18682.98
538.845	18859.93
539.21	18812.7
539.575	18912.36
539.94	18929.98
540.305	19179.02
540.67	19242.52
541.034	19301.95
541.399	19409.52
541.764	19400.48
542.129	19525.9
542.494	19746.68
542.858	19887.7
543.223	19824.2
543.587	20000.01
543.952	20058.31
544.316	20040.24
544.681	20071.42
545.045	20289.49
545.41	20393.22
545.774	20561.35
546.138	20550.28
546.503	20666.89
546.867	20698.52
547.231	20998.85
547.595	21057.61
547.959	21130.6
548.324	21164.27
548.688	21129.47
549.052	21406.3
549.416	21377.83
549.779	21577.82
550.143	21694.43
550.507	21871.37
550.871	21985.72
551.235	22049
551.599	22305.03
551.962	22324.02
552.326	22571.92
552.689	22590
553.053	22658.47
553.417	22758.58
553.78	23227.72
554.143	23110.66
554.507	23195.41
554.87	23482.86
555.234	23785.22
555.597	23718.78
555.96	23882.62
556.323	24101.37
556.686	24162.39
557.05	24407.8
557.413	24530.06
557.776	24635.6
558.139	24949.49
558.502	25128.69
558.865	25250.49
559.228	25528.45
559.59	25623.82
559.953	25770.25
560.316	26206.18
560.679	26243.46
561.041	26417.24
561.404	26719.61
561.767	27063.55
562.129	27010.9
562.492	27497.21
562.854	27594.39
563.217	27672.13
563.579	28005.9
563.941	28219.46
564.304	28423.29
564.666	28634.81
565.028	28926.56
565.39	29242.71
565.753	29240.67
566.115	29520.66
566.477	29814.89
566.839	30124.04
567.201	30283.36
567.563	30626.17
567.925	30870.91
568.287	31113.39
568.648	31158.81
569.01	31521.97
569.372	31882.86
569.734	32006.02
570.095	32294.38
570.457	32644.2
570.819	32848.49
571.18	33035.83
571.542	33240.34
571.903	33589.48
572.265	33762.13
572.626	33948.12
572.987	34177.72
573.349	34604.15
573.71	34801.88
574.071	35030.58
574.432	35238.25
574.794	35510.56
575.155	35673.72
575.516	35796.43
575.877	36195.29
576.238	36358
576.599	36641.38
576.96	36866.01
577.32	36856.97
577.681	37206.34
578.042	37446.56
578.403	37702.6
578.763	37741.24
579.124	38144.17
579.485	38268.23
579.845	38697.37
580.206	38619.41
580.566	38864.83
580.927	39124.48
581.287	39368.77
581.648	39222.78
582.008	39575.32
582.368	39762.88
582.728	39959.94
583.089	40093.72
583.449	40197.67
583.809	40434.5
584.169	40451.22
584.529	40626.81
584.889	41057.76
585.249	40784.78
585.609	40893.25
585.969	41288.49
586.329	41445.55
586.688	41596.28
587.048	41520.8
587.408	41738.2
587.768	41867.91
588.127	42101.12
588.487	42123.5
588.846	42484.17
589.206	42228.35
589.565	42598.96
589.925	42907.43
590.284	42881.9
590.643	42897.26
591.003	43174.77
591.362	43374.99
591.721	43317.59
592.08	43582.44
592.44	43765.26
592.799	43798.93
593.158	43973.39
593.517	43982.66
593.876	44250.22
594.235	44132.48
594.593	44449.54
594.952	44511.23
595.311	44550.33
595.67	44675.29
596.029	45203.64
596.387	45176.3
596.746	45268.05
597.104	45424.88
597.463	45429.62
597.822	45648.15
598.18	45647.47
598.538	45689.96
598.897	46027.35
599.255	45838.2
599.613	46540.56
599.972	46344.4
600.33	46482.93
600.688	46564.51
601.046	46822.58
601.404	46926.99
601.762	46990.94
602.12	47312.51
602.478	47417.37
602.836	47482.68
603.194	47359.74
603.552	47653.07
603.91	47674.54
604.268	47792.95
604.625	47647.65
604.983	47899.39
605.341	47766.51
605.698	48154.98
606.056	48361.75
606.413	48380.06
606.771	48611.46
607.128	48740.72
607.485	48668.41
607.843	48802.42
608.2	49223.65
608.557	49290.77
608.914	49216.64
609.272	49447.37
609.629	49574.83
609.986	49888.26
610.343	49717.87
610.7	50202.38
611.057	50118.09
611.414	50159.67
611.771	50280.34
612.127	50467.46
612.484	50596.49
612.841	50726.89
613.198	50586.33
613.554	50771.18
613.911	51038.97
614.267	50984.51
614.624	51097.27
614.98	51276.93
615.337	51344.95
615.693	51417.49
616.05	51431.95
616.406	51687.99
616.762	51620.42
617.118	51670.36
617.475	51712.17
617.831	51915.33
618.187	52018.15
618.543	51989.23
618.899	52329.56
619.255	52323.23
619.611	52231.93
619.967	52456.33
620.323	52497.24
620.678	52563.45
621.034	52524.58
621.39	52619.72
621.746	52657.68
622.101	53012.7
622.457	52803.22
622.812	52968.64
623.168	53065.36
623.523	53058.12
623.879	53300.6
624.234	53127.95
624.589	53306.03
624.945	53373.6
625.3	53397.55
625.655	53463.99
626.01	53411.11
626.365	53529.3
626.72	53533.14
627.075	53582.18
627.43	53629.64
627.785	53666.47
628.14	53670.31
628.495	53883.87
628.85	53814.94
629.205	53743.53
629.559	53927.25
629.914	53707.37
630.269	53840.7
630.623	53811.33
630.978	53833.25
631.332	53932.45
631.687	54120.7
632.041	54025.33
632.396	54147.36
632.75	54056.97
633.104	54107.59
633.459	54030.3
633.813	54040.02
634.167	54103.07
634.521	54157.53
634.875	54234.59
635.229	54125.89
635.583	54043.64
635.937	54189.62
636.291	54087.25
636.645	54171.32
636.999	54196.4
637.352	54242.05
637.706	54113.69
638.06	54235.27
638.413	54250.86
638.767	54175.84
639.121	54285.44
639.474	54156.85
639.828	54183.74
640.181	54269.84
640.534	54289.05
640.888	54181.48
641.241	54134.03
641.594	54247.25
641.947	54315.27
642.301	54226
642.654	54414.02
643.007	54328.6
643.36	54367.69
643.713	54307.81
644.066	54485.88
644.419	54346.68
644.771	54280.92
645.124	54167.25
645.477	54050.19
645.83	53934.26
646.182	53781.72
646.535	53680.48
646.888	53616.08
647.24	53505.34
647.593	53752.8
647.945	53599.58
648.298	53554.38
648.65	53477.77
649.002	53545.8
649.355	53704.44
649.707	53742.17
650.059	53921.38
650.411	54378.54
650.763	54328.6
651.115	54680.68
651.467	54548.93
651.819	54541.25
652.171	54447.01
652.523	54567.24
652.875	54611.76
653.227	54498.76
653.578	54702.15
653.93	54564.75
654.282	54542.15
654.633	54504.64
654.985	54666.22
655.337	54604.98
655.688	54564.98
656.039	54763.39
656.391	54522.94
656.742	54718.42
657.094	54675.03
657.445	54803.39
657.796	54628.03
658.147	54634.58
658.498	54700.12
658.849	54778.08
659.2	54758.19
659.551	54811.75
659.902	54841.35
660.253	54836.16
660.604	54905.99
660.955	54747.12
661.306	54931.07
661.656	54885.2
662.007	54963.39
662.358	54889.26
662.708	54976.27
663.059	54978.3
663.409	54860.56
663.76	55043.38
664.11	55007.45
664.461	55106.43
664.811	55067.11
665.161	55117.73
665.511	54997.28
665.862	55085.64
666.212	55200.89
666.562	55202.02
666.912	55179.2
667.262	55168.13
667.612	55266.2
667.962	55313.88
668.312	55244.73
668.662	55299.42
669.011	55260.78
669.361	55255.36
669.711	55309.36
670.06	55349.59
670.41	55307.11
670.76	55427.1
671.109	55515.91
671.459	55486.08
671.808	55326.99
672.157	55299.65
672.507	55229.82
672.856	55380.1
673.205	55447.67
673.554	55515.24
673.904	55469.13
674.253	55582.58
674.602	55543.71
674.951	55202.25
675.3	55082.25
675.649	55580.77
675.998	55487.44
676.346	55597.72
676.695	55722.91
677.044	55409.25
677.393	55605.18
677.741	55588.23
678.09	55635.68
678.438	55516.37
678.787	55606.08
679.135	55555.01
679.484	55489.7
679.832	55654.67
680.181	55449.25
680.529	55561.56
680.877	55460.77
681.225	55529.92
681.573	55691.5
681.922	55461.23
682.27	55482.24
682.618	55518.62
682.966	55356.6
683.314	55583.03
683.661	55491.28
684.009	55491.06
684.357	55378.52
684.705	55418.97
685.053	55448.12
685.4	55424.84
685.748	55301
686.095	55317.95
686.443	55214.45
686.79	55147.11
687.138	55295.58
687.485	55284.96
687.832	55192.98
688.18	55295.58
688.527	55116.15
688.874	55169.71
689.221	55071.18
689.568	55013.1
689.915	55045.42
690.262	55113.21
690.609	55001.12
690.956	54846.33
691.303	54925.19
691.65	54734.01
691.997	54767.01
692.344	54620.34
692.69	54722.94
693.037	54712.77
693.383	54523.17
693.73	54676.39
694.077	54483.62
694.423	54495.83
694.769	54490.86
695.116	54467.58
695.462	54415.83
695.808	54389.39
696.155	54367.47
696.501	54196.17
696.847	54183.07
697.193	54030.53
697.539	54127.25
697.885	54007.48
698.231	53888.84
698.577	54009.06
698.923	53970.42
699.269	53779.69
699.614	53689.52
699.96	53735.62
700.306	53714.83
700.651	53577.21
700.997	53619.69
701.342	53567.26
701.688	53536.08
702.033	53441.84
702.379	53466.7
702.724	53341.06
703.069	53421.28
703.415	53114.17
703.76	53162.08
704.105	53226.03
704.45	53080.72
704.795	53063.1
705.14	52988.97
705.485	52911.24
705.83	52882.31
706.175	52971.35
706.52	52802.09
706.865	52720.05
707.209	52712.6
707.554	52597.57
707.899	52806.38
708.243	52626.95
708.588	52639.6
708.932	52453.85
709.277	52455.88
709.621	52628.31
709.966	52395.54
710.31	52393.74
710.654	52171.82
710.998	52224.02
711.342	52348.31
711.687	52195.55
712.031	52160.3
712.375	51989.45
712.719	52085.04
713.063	52090.69
713.407	52191.48
713.75	52050.02
714.094	52002.79
714.438	51944.71
714.782	52003.24
715.125	51926.85
715.469	52003.92
715.812	51843.69
716.156	51669.01
716.499	51679.4
716.843	51770.02
717.186	51495
717.53	51725.05
717.873	51770.47
718.216	51670.36
718.559	51622.68
718.902	51435.12
719.246	51621.78
719.589	51539.75
719.932	51223.82
720.275	51392.63
720.617	51355.34
720.96	51256.36
721.303	51382.69
721.646	51319.87
721.989	51241.45
722.331	51251.17
722.674	51170.94
723.016	51188.12
723.359	51316.93
723.701	51281
724.044	51027.22
724.386	50865.87
724.729	51109.48
725.071	51024.05
725.413	51042.58
725.755	51096.82
726.097	50953.32
726.439	50808.47
726.782	50931.17
727.124	51129.59
727.465	50723.72
727.807	50819.31
728.149	50754.23
728.491	50638.98
728.833	50813.89
729.175	50694.8
729.516	50606.44
729.858	50734.8
730.199	50739.09
730.541	50593.78
730.882	50607.12
731.224	50717.85
731.565	50448.7
731.906	50418.42
732.248	50573.67
732.589	50553.56
732.93	50525.99
733.271	50434.69
733.612	50472.43
733.953	50455.93
734.294	50353.56
734.635	50236.73
734.976	50451.64
735.317	50308.37
735.658	50326.45
735.999	50265.88
736.339	50225.88
736.68	50342.72
737.021	50240.35
737.361	50026.11
737.702	50259.33
738.042	50118.31
738.383	50165.09
738.723	50281.47
739.063	50102.04
739.404	50457.06
739.744	50224.53
740.084	50166.68
740.424	50091.65
740.764	50015.94
741.104	50131.65
741.444	50092.1
741.784	49831.09
742.124	50102.72
742.464	50005.55
742.804	49900.47
743.143	49897.08
743.483	49902.73
743.823	49775.5
744.162	49727.82
744.502	50010.52
744.841	49855.72
745.181	49916.06
745.52	49730.53
745.86	49682.39
746.199	49824.99
746.538	49764.43
746.877	49813.24
747.216	49793.35
747.556	49645.11
747.895	49634.94
748.234	49509.74
748.573	49517.43
748.911	49500.03
749.25	49512.68
749.589	49391.1
749.928	49313.59
750.267	49423.87
750.605	49292.12
750.944	49236.3
751.283	49289.64
751.621	49431.1
751.96	49138.68
752.298	49164.89
752.636	49168.51
752.975	49040.6
753.313	49063.2
753.651	49201.5
753.989	49014.62
754.327	48941.62
754.666	48908.4
755.004	48836.54
755.342	48887.39
755.679	48968.29
756.017	48736.43
756.355	48833.15
756.693	48530.33
757.031	48551.58
757.368	48396.55
757.706	48425.93
758.044	48294.63
758.381	48360.17
758.719	48331.7
759.056	48266.84
759.394	48167.63
759.731	47966.06
760.068	48201.08
760.405	48099.39
760.743	47989.56
761.08	47917.69
761.417	47757.47
761.754	47742.78
762.091	47566.74
762.428	47420.53
762.765	47304.38
763.102	47406.75
763.438	47216.02
763.775	46995.69
764.112	47119.98
764.449	47232.52
764.785	46971.28
765.122	46658.07
765.458	46773.54
765.795	46810.15
766.131	46860.77
766.467	46676.82
766.804	46484.51
767.14	46382.37
767.476	46341.47
767.812	46188.93
768.148	46384.63
768.485	46146.44
768.821	45842.04
769.157	45824.64
769.492	45867.81
769.828	45748.94
770.164	45571.54
770.5	45449.51
770.836	45368.84
771.171	45198.67
771.507	45174.04
771.842	44846.82
772.178	44768.4
772.513	44847.95
772.849	44833.26
773.184	44614.96
773.519	44590.55
773.855	44510.78
774.19	44479.37
774.525	44384.91
774.86	44386.94
775.195	44141.07
775.53	44094.07
775.865	43946.95
776.2	43758.48
776.535	43493.86
776.87	43428.55
777.205	43468.09
777.539	43397.59
777.874	43613.4
778.209	43134.54
778.543	43025.17
778.878	42830.6
779.212	42955.57
779.547	42717.38
779.881	42775.91
780.215	42585.41
780.55	42793.08
780.884	42510.15
781.218	42572.52
781.552	42471.51
781.886	42273.55
782.22	41948.13
782.554	41984.97
782.888	41654.13
783.222	41602.15
783.556	41559.67
783.889	41448.71
784.223	41296.4
784.557	41137.08
784.89	41241.71
785.224	41120.13
785.557	40768.96
785.891	40905
786.224	40815.06
786.558	40780.71
786.891	40500.49
787.224	40322.41
787.557	40307.05
787.891	40232.25
788.224	40194.51
788.557	40317.67
788.89	40066.83
789.223	40006.72
789.556	39644.69
789.888	39709.78
790.221	39693.05
790.554	39449.89
790.887	39467.75
791.219	39368.09
791.552	39225.72
791.884	39064.59
792.217	39073.63
792.549	39121.99
792.882	38783.7
793.214	38773.08
793.546	38951.15
793.879	38449.02
794.211	38438.62
794.543	38707.99
794.875	38327.44
795.207	38535.12
795.539	38338.74
795.871	38523.37
796.203	38000.22
796.535	37896.94
796.867	37854.23
797.198	37961.35
797.53	38026.88
797.862	37692.43
798.193	37748.7
798.525	37565.88
798.856	37767.91
799.188	37251.76
799.519	37127.24
799.85	36976.29
800.182	37090.18
800.513	37212.89
800.844	36824.65
801.175	37124.08
801.506	36972.9
801.837	36771.32
802.168	36631.21
802.499	36657.65
802.83	36607.26
803.161	36506.7
803.491	36531.55
803.822	36469.63
804.153	36216.08
804.483	36347.38
804.814	36167.72
805.145	36047.27
805.475	36044.79
805.805	36000.72
806.136	35963.21
806.466	36041.62
806.796	35776.77
807.126	35414.29
807.457	35516.89
807.787	35449.1
808.117	35671.01
808.447	35562.31
808.777	35693.38
809.107	35309.66
809.436	35248.42
809.766	35134.53
810.096	35195.32
810.426	35201.42
810.755	35072.38
811.085	35173.4
811.414	35099.05
811.744	34852.95
812.073	34941.76
812.403	34817.25
812.732	34384.27
813.061	34559.18
813.39	34556.24
813.719	34528.67
814.049	34555.11
814.378	34602.56
814.707	34530.48
815.036	34443.7
815.365	34474.43
815.693	34057.04
816.022	34134.33
816.351	33946.31
816.68	33915.58
817.008	33984.28
817.337	33883.71
817.665	33805.52
817.994	33824.28
818.322	33693.21
818.651	33629.03
818.979	33546.32
819.307	33864.05
819.636	33582.03
819.964	33504.97
820.292	33833.77
820.62	33639.43
820.948	33619.99
821.276	33734.56
821.604	33732.08
821.932	33680.33
822.259	33662.93
822.587	33640.78
822.915	33579.31
823.243	33797.61
823.57	33619.99
823.898	33779.76
824.225	33663.15
824.553	33807.11
824.88	33963.94
825.207	34125.06
825.535	33961.23
825.862	34170.49
826.189	34100.66
826.516	34224.04
826.843	34179.75
827.17	34174.1
827.497	34343.36
827.824	34365.06
828.151	34235.57
828.478	34232.86
828.805	34384.94
829.131	34227.89
829.458	34171.84
829.785	34194.67
830.111	34247.32
830.438	34566.63
830.764	34412.97
831.09	34361.67
831.417	34363.47
831.743	34556.24
832.069	34476.92
832.395	34450.93
832.722	34432.4
833.048	34315.34
833.374	34402.57
833.7	34190.82
834.026	34404.6
834.351	34503.58
834.677	34440.99
835.003	34762.79
835.329	34558.5
835.654	34523.47
835.98	34454.09
836.306	34512.4
836.631	34487.99
836.956	34475.34
837.282	34469.91
837.607	34384.72
837.932	34249.81
838.258	34279.64
838.583	34304.27
838.908	34141.33
839.233	34302.69
839.558	34282.57
839.883	34200.09
840.208	33945.41
840.533	34123.71
840.858	34216.13
841.182	34240.99
841.507	34356.7
841.832	34210.71
842.156	34061.11
842.481	34095.46
842.805	34043.03
843.13	33889.14
843.454	34032.41
843.778	33744.73
844.103	33840.32
844.427	33786.09
844.751	33825.64
845.075	33684.85
845.399	33617.05
845.723	33361.69
846.047	33344.97
846.371	33158.76
846.695	33232.88
847.019	32927.81
847.343	32891.42
847.666	32632
847.99	32443.53
848.313	32652.56
848.637	32532.11
848.96	32464.09
849.284	32352.45
849.607	32178.9
849.931	32052.35
850.254	31909.75
850.577	31920.6
850.9	31805.58
851.223	31899.58
851.546	31613.04
851.869	31439.94
852.192	31668.18
852.515	31371.24
852.838	31288.75
853.161	31399.26
853.483	31093.28
853.806	31086.05
854.129	31066.16
854.451	30893.74
854.774	30899.61
855.096	30844.02
855.419	30909.55
855.741	30841.08
856.063	30648.77
856.385	30554.54
856.708	30542.11
857.03	30503.46
857.352	30547.08
857.674	30552.5
857.996	30455.1
858.318	30359.51
858.64	30266.41
858.961	30188.44
859.283	30125.62
859.605	30006.75
859.926	30170.14
860.248	30057.37
860.57	29852.63
860.891	29875.01
861.212	29758.62
861.534	29773.31
861.855	29860.99
862.176	29895.34
862.498	29727.89
862.819	29776.93
863.14	29581
863.461	29724.5
863.782	29584.84
864.103	29690.6
864.424	29555.92
864.745	29629.36
865.065	29496.94
865.386	29430.05
865.707	29398.86
866.027	29430.05
866.348	29384.17
866.668	29544.62
866.989	29395.02
867.309	29115.48
867.63	29418.29
867.95	29294
868.27	29232.08
868.59	29329.48
868.91	29245.19
869.23	29161.35
869.55	29058.76
869.87	29350.5
870.19	29197.96
870.51	29263.04
870.83	29296.26
871.15	29102.6
871.469	29288.13
871.789	29323.16
872.109	29265.76
872.428	29118.87
872.748	29370.84
873.067	29269.6
873.386	29290.16
873.706	28961.58
874.025	29032.54
874.344	28918.19
874.663	28959.78
874.982	28844.07
875.301	28868.25
875.62	28885.65
875.939	28891.3
876.258	28832.32
876.577	28767.01
876.896	28891.75
877.214	28778.31
877.533	28983.96
877.852	28832.55
878.17	28911.19
878.489	28872.09
878.807	28862.6
879.125	28767.46
879.444	28814.69
879.762	28728.37
880.08	28730.63
880.398	28590.75
880.716	28669.61
881.034	28658.77
881.352	28605.21
881.67	28709.61
881.988	28645.43
882.306	28534.48
882.624	28383.29
882.941	28288.61
883.259	28346.46
883.577	28311.66
883.894	28258.55
884.212	28164.77
884.529	28162.28
884.846	28038.44
885.164	28179
885.481	28034.6
885.798	28119.12
886.115	27986.02
886.432	28087.71
886.75	27783.08
887.067	27881.84
887.383	27809.52
887.7	27908.28
888.017	27645.69
888.334	27706.25
888.651	27814.04
888.967	27687.94
889.284	27564.56
889.6	27420.15
889.917	27322.76
890.233	27474.84
890.55	27254.51
890.866	27370.21
891.182	27384.45
891.498	27238.24
891.815	27118.24
892.131	27127.51
892.447	27014.97
892.763	26933.16
893.079	26974.52
893.395	26812.94
893.71	26804.35
894.026	26813.39
894.342	26686.84
894.657	26587.18
894.973	26652.49
895.289	26688.65
895.604	26713.51
895.92	26373.63
896.235	26183.35
896.55	26500.18
896.865	26298.83
897.181	26251.15
897.496	26159.4
897.811	26137.02
898.126	26125.73
898.441	26147.87
898.756	25966.86
899.071	25886.86
899.386	25944.49
899.7	25630.15
900.015	25635.12
900.33	25448.23
900.644	25395.35
900.959	25442.13
901.273	25261.57
901.588	25305.18
901.902	25266.99
902.216	25250.72
902.531	25041.69
902.845	25070.84
903.159	25099.76
903.473	25106.54
903.787	24961.69
904.101	24881.46
904.415	25003.5
904.729	24739.55
905.042	24450.52
905.356	24367.35
905.67	24346.11
905.984	24346.56
906.297	24113.12
906.611	24018.21
906.924	24010.07
907.237	24020.92
907.551	24022.5
907.864	23934.6
908.177	24027.7
908.491	23757.65
908.804	23818.22
909.117	23687.82
909.43	23532.35
909.743	23501.16
910.056	23476.76
910.368	23456.64
910.681	23332.8
910.994	23170.77
911.307	23166.26
911.619	23106.37
911.932	22999.71
912.244	22776.89
912.557	22900.27
912.869	22785.7
913.181	22750.67
913.494	22770.56
913.806	22534.63
914.118	22445.82
914.43	22361.98
914.742	22391.59
915.054	22204.92
915.366	22199.95
915.678	22112.95
915.99	22014.65
916.302	21765.84
916.613	21783.01
916.925	21714.54
917.236	21540.76
917.548	21601.32
917.859	21626.86
918.171	21335.57
918.482	21291.05
918.794	21275.01
919.105	21341.9
919.416	21195.69
919.727	21174.67
920.038	21184.39
920.349	20983.26
920.66	20905.75
920.971	20963.15
921.282	20952.98
921.593	20729.94
921.903	20784.4
922.214	20592.54
922.525	20467.34
922.835	20451.75
923.146	20259.44
923.456	20329.27
923.767	20274.13
924.077	20414.24
924.387	20178.31
924.697	20160.68
925.008	20034.59
925.318	19920.92
925.628	19709.4
925.938	19736.29
926.248	19649.06
926.558	19600.25
926.867	19672.79
927.177	19509.85
927.487	19489.97
927.796	19259.24
928.106	19347.15
928.416	19226.02
928.725	19313.93
929.034	19177.89
929.344	19210.65
929.653	19009.08
929.962	18957.1
930.271	18867.84
930.581	18891.11
930.89	18748.52
931.199	18682.31
931.508	18626.71
931.817	18561.18
932.125	18637.33
932.434	18391.01
932.743	18248.42
933.051	18284.8
933.36	18278.93
933.669	18049.33
933.977	18050.91
934.286	17927.07
934.594	17953.74
934.902	17748.09
935.21	17864.25
935.519	17767.08
935.827	17758.26
936.135	17663.58
936.443	17519.17
936.751	17539.06
937.059	17495.22
937.367	17401.89
937.674	17380.87
937.982	17242.57
938.29	17209.35
938.597	17239.41
938.905	17072.18
939.213	17079.86
939.52	17003.71
939.827	17024.5
940.135	16757.84
940.442	16800.09
940.749	16660.44
941.056	16800.09
941.363	16580.44
941.67	16583.38
941.977	16554.45
942.284	16457.28
942.591	16446.21
942.898	16242.14
943.205	16258.64
943.511	16238.08
943.818	16024.97
944.125	15944.07
944.431	15928.03
944.738	15928.93
945.044	15892.77
945.35	15809.16
945.657	15658.66
945.963	15591.09
946.269	15482.62
946.575	15561.26
946.881	15535.04
947.187	15340.7
947.493	15340.7
947.799	15233.58
948.105	15283.07
948.41	15157.65
948.716	15105.22
949.022	14965.57
949.327	15111.55
949.633	14831.56
949.938	14894.61
950.244	14987.26
950.549	14835.4
950.854	14753.82
951.16	14784.1
951.465	14663.65
951.77	14675.86
952.075	14520.15
952.38	14540.95
952.685	14419.14
952.99	14293.95
953.294	14252.37
953.599	14200.62
953.904	14104.8
954.209	14065.03
954.513	14153.16
954.818	13987.06
955.122	13998.13
955.426	13958.36
955.731	13951.81
956.035	13759.5
956.339	13670.69
956.643	13615.77
956.948	13604.02
957.252	13553.63
957.556	13544.14
957.86	13482.22
958.163	13503.68
958.467	13393.63
958.771	13377.59
959.075	13351.6
959.378	13227.99
959.682	13362.45
959.985	13198.83
960.289	13164.94
960.592	13044.71
960.896	13030.7
961.199	13092.85
961.502	13081.32
961.805	12859.18
962.108	12833.42
962.411	12709.58
962.714	12691.05
963.017	12689.92
963.32	12696.7
963.623	12476.82
963.926	12611.05
964.228	12445.86
964.531	12508.68
964.833	12480.21
965.136	12437.05
965.438	12314.34
965.741	12129.94
966.043	12153.44
966.345	12083.83
966.648	12063.72
966.95	12097.39
967.252	11995.02
967.554	11986.44
967.856	11894.01
968.158	11803.84
968.46	11825.76
968.761	11821.47
969.063	11754.35
969.365	11659.21
969.666	11618.31
969.968	11515.26
970.269	11519.1
970.571	11464.19
970.872	11434.13
971.174	11335.38
971.475	11380.58
971.776	11383.29
972.077	11250.18
972.378	11239.79
972.679	11202.05
972.98	11175.16
973.281	11111.21
973.582	11093.8
973.883	11042.51
974.183	10964.99
974.484	10967.25
974.785	10910.31
975.085	10863.53
975.386	10803.87
975.686	10762.74
975.986	10662.86
976.287	10598.68
976.587	10602.52
976.887	10585.8
977.187	10553.71
977.487	10543.54
977.787	10434.61
978.087	10504.89
978.387	10402.07
978.687	10396.2
978.987	10306.25
979.286	10159.14
979.586	10200.27
979.885	10150.33
980.185	10063.55
980.484	10043.66
980.784	9996.21
981.083	9994.62
981.382	9964.12
981.682	9840.28
981.981	9838.92
982.28	9761.18
982.579	9745.59
982.878	9796.66
983.177	9686.61
983.475	9613.84
983.774	9610.23
984.073	9600.28
984.372	9487.74
984.67	9464.47
984.969	9464.47
985.267	9485.26
985.566	9413.62
985.864	9401.87
986.162	9343.12
986.461	9270.12
986.759	9265.38
987.057	9147.87
987.355	9143.12
987.653	9163.69
987.951	9076.23
988.249	9145.38
988.547	9025.84
988.844	9007.53
989.142	9047.08
989.44	8857.7
989.737	8822.23
990.035	8779.06
990.332	8862.22
990.63	8781.55
990.927	8752.17
991.224	8661.1
991.521	8637.15
991.819	8610.48
992.116	8609.58
992.413	8548.11
992.71	8482.57
993.006	8384.05
993.303	8377.94
993.6	8338.62
993.897	8258.62
994.193	8292.97
994.49	8257.49
994.787	8191.73
995.083	8162.36
995.379	8100.44
995.676	8071.28
995.972	8001.91
996.268	7996.94
996.565	7918.29
996.861	7901.12
997.157	7887.11
997.453	7843.04
997.749	7810.27
998.044	7725.08
998.34	7685.76
998.636	7801.69
998.932	7684.63
999.227	7554.91
999.523	7622.71
999.818	7565.54
1000.114	7454.8
1000.409	7399.66
1000.704	7366.44
1001	7393.79
1001.295	7337.97
1001.59	7302.27
1001.885	7261.36
1002.18	7203.51
1002.475	7166.22
1002.77	7136.39
1003.065	7107.69
1003.359	7091.2
1003.654	7056.85
1003.949	6951.31
1004.243	6961.48
1004.538	6897.53
1004.832	6885.1
1005.127	6861.15
1005.421	6822.05
1005.715	6731.66
1006.009	6731.89
1006.304	6666.58
1006.598	6622.28
1006.892	6551.32
1007.186	6547.26
1007.48	6499.57
1007.773	6457.32
1008.067	6401.5
1008.361	6329.18
1008.655	6320.82
1008.948	6296.64
1009.242	6238.56
1009.535	6200.37
1009.829	6239.69
1010.122	6196.31
1010.415	6194.05
1010.708	6095.52
1011.001	6074.05
1011.295	6018.01
1011.588	6009.64
1011.881	5858.24
1012.173	5852.13
1012.466	5860.5
1012.759	5822.98
1013.052	5840.16
1013.344	5778.46
1013.637	5707.28
1013.93	5726.04
1014.222	5644.91
1014.514	5647.39
1014.807	5592.93
1015.099	5521.97
1015.391	5538.24
1015.683	5565.59
1015.976	5467.06
1016.268	5441.07
1016.56	5354.97
1016.851	5335.76
1017.143	5318.59
1017.435	5290.34
1017.727	5243.79
1018.018	5226.84
1018.31	5203.56
1018.602	5156.33
1018.893	5047.86
1019.185	4994.53
1019.476	5020.97
1019.767	5015.55
1020.058	4962.44
1020.35	4896.68
1020.641	4909.79
1020.932	4846.51
1021.223	4795.44
1021.514	4781.65
1021.804	4771.03
1022.095	4730.81
1022.386	4699.17
1022.677	4595.44
1022.967	4597.25
1023.258	4581.66
1023.548	4579.63
1023.839	4542.11
1024.129	4524.71
1024.419	4486.97
1024.709	4436.8
1025	4348.9
1025.29	4367.65
1025.58	4258.96
1025.87	4309.58
1026.16	4205.17
1026.449	4263.25
1026.739	4213.08
1027.029	4230.71
1027.319	4178.05
1027.608	4089.69
1027.898	4084.95
1028.187	4072.52
1028.477	4026.42
1028.766	3993.2
1029.055	3942.13
1029.344	3985.97
1029.634	3889.47
1029.923	3917.04
1030.212	3889.02
1030.501	3828.46
1030.79	3794.11
1031.078	3788.69
1031.367	3727.22
1031.656	3701.91
1031.945	3698.97
1032.233	3662.14
1032.522	3636.15
1032.81	3622.59
1033.099	3574.68
1033.387	3533.1
1033.675	3530.39
1033.963	3489.03
1034.251	3465.76
1034.54	3437.28
1034.828	3412.65
1035.116	3367
1035.403	3357.74
1035.691	3316.16
1035.979	3285.42
1036.267	3271.86
1036.554	3218.08
1036.842	3191.64
1037.129	3207.46
1037.417	3170.85
1037.704	3111.19
1037.992	3106.22
1038.279	3094.69
1038.566	3041.59
1038.853	3041.59
1039.14	3041.59
