Data from copper_heatsink_FLMS001491_038.txt Node
Date: Tue Feb 07 10:49:51 GMT 2017
User: dcchb
Spectrometer: FLMS00149
Trigger mode: 0
Integration Time (sec): 2.000000E-2
Scans to average: 10
Electric dark correction enabled: true
Nonlinearity correction enabled: false
Boxcar width: 0
XAxis mode: Wavelengths
Number of Pixels in Spectrum: 2048
>>>>>Begin Spectral Data<<<<<
341.393	-22.03
341.776	-22.03
342.16	-22.03
342.543	-63.16
342.927	-73.78
343.31	-71.75
343.693	-66.1
344.077	-65.65
344.46	-54.8
344.843	-48.25
345.226	-26.1
345.61	-28.81
345.993	-19.55
346.376	5.31
346.759	1.47
347.142	50.96
347.525	24.29
347.908	69.04
348.291	57.29
348.674	83.5
349.057	89.15
349.44	130.28
349.823	139.32
350.206	167.11
350.588	200.79
350.971	233.33
351.354	262.25
351.737	257.06
352.119	271.07
352.502	290.73
352.884	285.53
353.267	299.54
353.65	310.84
354.032	321.23
354.414	340.22
354.797	337.51
355.179	344.96
355.562	346.32
355.944	335.02
356.326	333.44
356.709	340.44
357.091	365.75
357.473	357.39
357.855	357.39
358.238	391.74
358.62	342.02
359.002	344.51
359.384	374.34
359.766	340.22
360.148	347.45
360.53	354.23
360.912	361.69
361.294	358.52
361.676	348.58
362.057	351.97
362.439	360.78
362.821	362.59
363.203	373.89
363.584	353.32
363.966	347.45
364.348	349.71
364.729	341.57
365.111	345.41
365.493	343.61
365.874	350.84
366.256	340.67
366.637	340.67
367.019	350.84
367.4	335.7
367.781	341.12
368.163	344.51
368.544	349.71
368.925	338.41
369.306	348.8
369.688	350.16
370.069	356.04
370.45	347
370.831	325.53
371.212	329.6
371.593	341.12
371.974	328.01
372.355	351.97
372.736	367.79
373.117	336.38
373.498	354.68
373.879	369.59
374.26	359.2
374.641	355.13
375.021	346.54
375.402	370.72
375.783	342.25
376.163	375.7
376.544	368.01
376.925	345.87
377.305	374.34
377.686	357.39
378.066	373.89
378.447	348.58
378.827	349.03
379.208	379.09
379.588	360.56
379.968	364.4
380.349	365.53
380.729	352.42
381.109	360.78
381.489	372.76
381.87	371.63
382.25	356.71
382.63	379.54
383.01	388.8
383.39	365.75
383.77	389.48
384.15	389.03
384.53	375.47
384.91	385.64
385.29	403.27
385.67	402.36
386.049	397.16
386.429	385.19
386.809	387.45
387.189	408.92
387.568	384.96
387.948	408.01
388.328	396.49
388.707	404.17
389.087	421.8
389.466	392.87
389.846	401.91
390.225	408.92
390.605	423.15
390.984	422.7
391.363	415.92
391.743	405.53
392.122	418.63
392.501	428.8
392.881	420.67
393.26	429.71
393.639	425.64
394.018	438.29
394.397	405.75
394.776	428.58
395.155	433.55
395.534	449.82
395.913	448.69
396.292	449.14
396.671	455.92
397.05	471.74
397.429	450.04
397.808	454.79
398.186	443.94
398.565	464.06
398.944	468.35
399.323	464.28
399.701	461.34
400.08	463.83
400.458	449.82
400.837	474
401.215	454.56
401.594	480.33
401.972	471.96
402.351	471.96
402.729	482.36
403.107	495.24
403.486	487.11
403.864	454.11
404.242	466.77
404.62	502.02
404.999	493.43
405.377	479.2
405.755	492.76
406.133	496.15
406.511	520.55
406.889	521.68
407.267	506.31
407.645	519.87
408.023	511.74
408.401	518.97
408.779	508.12
409.156	518.07
409.534	537.73
409.912	555.35
410.29	539.53
410.667	554.9
411.045	519.2
411.422	552.19
411.8	541.79
412.178	558.06
412.555	551.06
412.933	539.31
413.31	547.44
413.687	568.01
414.065	594.22
414.442	567.78
414.819	583.83
415.197	577.72
415.574	588.35
415.951	586.09
416.328	591.74
416.705	594.45
417.082	589.93
417.46	601.68
417.837	611.4
418.214	607.33
418.591	611.4
418.967	617.5
419.344	612.53
419.721	627.44
420.098	621.57
420.475	633.77
420.852	639.87
421.228	637.61
421.605	631.73
421.982	652.53
422.358	652.53
422.735	662.69
423.111	660.89
423.488	683.71
423.864	690.49
424.241	683.03
424.617	661.79
424.994	682.81
425.37	680.55
425.746	680.77
426.123	692.75
426.499	693.2
426.875	718.06
427.251	718.06
427.627	714.9
428.003	718.96
428.379	735.46
428.756	721.45
429.132	725.74
429.507	709.92
429.883	757.83
430.259	775.23
430.635	779.75
431.011	767.32
431.387	770.49
431.763	780.66
432.138	811.17
432.514	789.24
432.89	825.63
433.265	811.39
433.641	837.38
434.016	844.38
434.392	839.41
434.767	851.62
435.143	859.53
435.518	831.28
435.894	863.82
436.269	863.37
436.644	879.86
437.02	873.54
437.395	913.08
437.77	925.06
438.145	896.13
438.52	889.36
438.895	936.36
439.271	897.72
439.646	939.07
440.021	944.72
440.395	944.72
440.77	930.03
441.145	951.27
441.52	945.85
441.895	943.14
442.27	981.1
442.645	974.1
443.019	976.58
443.394	1000.99
443.769	1014.78
444.143	1009.8
444.518	1023.14
444.892	1019.97
445.267	998.28
445.641	981.78
446.016	1030.59
446.39	1026.07
446.764	1037.15
447.139	1045.96
447.513	1052.06
447.887	1046.41
448.262	1044.83
448.636	1058.62
449.01	1093.42
449.384	1097.26
449.758	1065.17
450.132	1108.33
450.506	1089.35
450.88	1129.8
451.254	1135.9
451.628	1124.6
452.002	1133.19
452.376	1132.51
452.75	1169.35
453.123	1145.17
453.497	1193.53
453.871	1193.53
454.244	1217.48
454.618	1207.09
454.992	1229.23
455.365	1222.23
455.739	1225.62
456.112	1272.17
456.486	1268.1
456.859	1283.02
457.232	1283.7
457.606	1293.64
457.979	1316.91
458.352	1333.86
458.725	1351.72
459.099	1319.85
459.472	1376.8
459.845	1396.23
460.218	1383.81
460.591	1404.14
460.964	1417.93
461.337	1448.89
461.71	1456.35
462.083	1463.8
462.456	1460.41
462.829	1488.89
463.201	1531.82
463.574	1509.9
463.947	1572.05
464.32	1586.96
464.692	1580.41
465.065	1595.1
465.438	1604.82
465.81	1624.25
466.183	1658.83
466.555	1680.07
466.928	1692.95
467.3	1686.17
467.672	1733.4
468.045	1748.99
468.417	1740.86
468.789	1787.41
469.161	1781.76
469.534	1830.57
469.906	1839.84
470.278	1849.33
470.65	1911.7
471.022	1917.35
471.394	1928.88
471.766	1966.39
472.138	1999.16
472.51	2007.74
472.882	2080.06
473.253	2114.86
473.625	2111.92
473.997	2140.17
474.369	2155.08
474.74	2188.3
475.112	2233.73
475.484	2268.75
475.855	2278.02
476.227	2348.07
476.598	2348.53
476.97	2413.83
477.341	2455.87
477.713	2515.53
478.084	2532.48
478.455	2552.14
478.827	2567.5
479.198	2656.09
479.569	2676.65
479.94	2763.88
480.311	2768.4
480.682	2840.04
481.053	2906.93
481.424	2941.05
481.795	2976.53
482.166	3012.92
482.537	3045
482.908	3099.24
483.279	3138.11
483.65	3215.62
484.021	3277.99
484.391	3280.93
484.762	3339.91
485.133	3406.35
485.503	3446.12
485.874	3463.75
486.244	3545.56
486.615	3571.54
486.985	3622.16
487.356	3691.99
487.726	3753.01
488.097	3801.82
488.467	3799.56
488.837	3931.54
489.207	3933.79
489.578	4014.47
489.948	4069.16
490.318	4105.09
490.688	4172.21
491.058	4226.67
491.428	4274.35
491.798	4291.3
492.168	4428.25
492.538	4454.69
492.908	4499.43
493.278	4559.09
493.648	4548.47
494.017	4591.63
494.387	4684.28
494.757	4752.76
495.126	4721.12
495.496	4790.95
495.866	4893.32
496.235	4902.36
496.605	4952.3
496.974	5029.59
497.344	5077.04
497.713	5107.1
498.082	5165.4
498.452	5191.84
498.821	5253.76
499.19	5245.85
499.559	5364.72
499.928	5391.84
500.298	5441.33
500.667	5510.48
501.036	5485.39
501.405	5573.07
501.774	5553.64
502.143	5674.54
502.512	5672.28
502.88	5734.2
503.249	5748.89
503.618	5892.84
503.987	5867.98
504.356	5934.87
504.724	5976.45
505.093	5989.33
505.462	6089.67
505.83	6139.39
506.199	6171.02
506.567	6302.77
506.936	6207.18
507.304	6360.62
507.672	6400.62
508.041	6458.93
508.409	6514.52
508.777	6565.14
509.145	6625.48
509.514	6642.88
509.882	6747.73
510.25	6714.29
510.618	6812.36
510.986	6875.19
511.354	6969.2
511.722	7072.47
512.09	7100.49
512.458	7058.68
512.826	7253.71
513.193	7204.67
513.561	7299.13
513.929	7386.36
514.297	7457.09
514.664	7486.7
515.032	7537.54
515.4	7720.36
515.767	7681.94
516.135	7796.52
516.502	7740.25
516.869	7930.3
517.237	8007.36
517.604	7868.38
517.972	8074.02
518.339	8189.05
518.706	8192.89
519.073	8323.06
519.44	8314.47
519.808	8479.66
520.175	8419.1
520.542	8609.6
520.909	8725.31
521.276	8712.88
521.643	8827
522.009	8951.97
522.376	8983.61
522.743	9031.29
523.11	9182.47
523.477	9259.76
523.843	9292.52
524.21	9475.12
524.577	9511.73
524.943	9652.51
525.31	9731.61
525.676	9719.86
526.043	9821.78
526.409	9878.72
526.776	10024.26
527.142	10089.34
527.508	10142.9
527.874	10274.42
528.241	10373.4
528.607	10446.84
528.973	10478.26
529.339	10530.91
529.705	10684.58
530.071	10764.8
530.437	10854.06
530.803	11025.36
531.169	11032.59
531.535	11102.65
531.901	11146.49
532.267	11239.82
532.632	11365.01
532.998	11404.78
533.364	11555.29
533.73	11561.62
534.095	11680.48
534.461	11734.27
534.826	11873.47
535.192	11870.54
535.557	12059.23
535.923	12087.25
536.288	12150.98
536.653	12184.43
537.019	12263.75
537.384	12376.96
537.749	12445.89
538.114	12518.2
538.479	12546.22
538.845	12613.11
539.21	12711.42
539.575	12762.26
539.94	12842.71
540.305	13017.85
540.67	12985.31
541.034	13115.93
541.399	13234.12
541.764	13258.97
542.129	13399.53
542.494	13448.35
542.858	13547.33
543.223	13582.35
543.587	13628.68
543.952	13659.87
544.316	13850.82
544.681	13859.64
545.045	14034.32
545.41	14102.34
545.774	14181.66
546.138	14266.4
546.503	14358.38
546.867	14338.27
547.231	14601.54
547.595	14695.77
547.959	14722.44
548.324	14729.22
548.688	14937.35
549.052	15050.79
549.416	15156.55
549.779	15247.4
550.143	15286.26
550.507	15425.7
550.871	15602.41
551.235	15545.24
551.599	15745.69
551.962	15959.02
552.326	16003.76
552.689	16170.99
553.053	16183.42
553.417	16312.23
553.78	16590.64
554.143	16544.54
554.507	16782.27
554.87	16895.26
555.234	17127.57
555.597	17185.42
555.96	17351.97
556.323	17467
556.686	17579.99
557.05	17752.64
557.413	17882.35
557.776	18000.09
558.139	18290.25
558.502	18453.19
558.865	18641.2
559.228	18744.48
559.59	18878.26
559.953	19018.82
560.316	19423.56
560.679	19478.92
561.041	19684.34
561.404	19894.96
561.767	20052.24
562.129	20116.65
562.492	20541.04
562.854	20508.05
563.217	20764.76
563.579	20969.05
563.941	21207.01
564.304	21378.53
564.666	21748.69
565.028	21880.89
565.39	22003.15
565.753	22253.31
566.115	22579.63
566.477	22791.38
566.839	22987.76
567.201	23233.85
567.563	23416.67
567.925	23635.88
568.287	23780.96
568.648	24042.87
569.01	24383.43
569.372	24644.44
569.734	24805.56
570.095	25070.41
570.457	25247.58
570.819	25394.93
571.18	25574.58
571.542	25872.88
571.903	26064.74
572.265	26410.27
572.626	26624.05
572.987	26808.9
573.349	27003.24
573.71	27190.13
574.071	27577.24
574.432	27676.67
574.794	28021.52
575.155	28180.84
575.516	28210.67
575.877	28468.07
576.238	28857.43
576.599	29000.71
576.96	29174.49
577.32	29394.82
577.681	29593.69
578.042	29854.24
578.403	30058.76
578.763	30192.31
579.124	30391.86
579.485	30763.37
579.845	30960.2
580.206	30983.71
580.566	31173.08
580.927	31441.77
581.287	31671.6
581.648	31599.96
582.008	31908.88
582.368	32046.73
582.728	32217.8
583.089	32248.08
583.449	32446.94
583.809	32745.01
584.169	32785.69
584.529	32832.7
584.889	33290.99
585.249	33238.11
585.609	33288.28
585.969	33542.73
586.329	33690.53
586.688	33891.43
587.048	34020.24
587.408	34058.88
587.768	34230.17
588.127	34286.44
588.487	34382.71
588.846	34747.45
589.206	34614.34
589.565	34761.91
589.925	35102.24
590.284	35120.09
590.643	35263.37
591.003	35449.35
591.362	35608.89
591.721	35729.57
592.08	35724.15
592.44	36077.13
592.799	36019.96
593.158	36250.46
593.517	36394.64
593.876	36483.67
594.235	36378.37
594.593	36584.69
594.952	36752.37
595.311	36820.39
595.67	37027.61
596.029	37277.32
596.387	37359.81
596.746	37475.06
597.104	37612.91
597.463	37600.93
597.822	37955.27
598.18	37894.71
598.538	37931.55
598.897	38347.58
599.255	38133.12
599.613	38683.16
599.972	38612.43
600.33	38864.63
600.688	38684.07
601.046	38935.81
601.404	39089.93
601.762	39096.03
602.12	39449.92
602.478	39561.78
602.836	39602.01
603.194	39608.56
603.552	39914.09
603.91	39821.66
604.268	40209.45
604.625	40123.8
604.983	40358.15
605.341	40234.76
605.698	40527.18
606.056	40548.43
606.413	40676.78
606.771	41018.7
607.128	41219.14
607.485	41094.17
607.843	41166.04
608.2	41519.7
608.557	41625.23
608.914	41673.82
609.272	41970.76
609.629	42090.08
609.986	42342.28
610.343	42273.8
610.7	42485.55
611.057	42568.94
611.414	42630.18
611.771	42859.55
612.127	43173.89
612.484	43168.7
612.841	43467.9
613.198	43340.44
613.554	43473.55
613.911	43741.79
614.267	43780.66
614.624	43687.78
614.98	44017.49
615.337	44287.08
615.693	44264.71
616.05	44369.12
616.406	44541.31
616.762	44616.12
617.118	44653.85
617.475	44809.56
617.831	44889.33
618.187	44967.74
618.543	45119.38
618.899	45476.66
619.255	45487.96
619.611	45357.79
619.967	45574.28
620.323	45720.27
620.678	45778.34
621.034	45695.41
621.39	45782.64
621.746	45731.79
622.101	46355.96
622.457	46059.92
622.812	46310.76
623.168	46378.78
623.523	46551.88
623.879	46784.42
624.234	46537.42
624.589	46748.49
624.945	46723.4
625.3	46741.26
625.655	46693.8
626.01	46952.32
626.365	47038.65
626.72	47060.34
627.075	47013.57
627.43	47068.48
627.785	47141.02
628.14	47306.89
628.495	47344.18
628.85	47376.04
629.205	47360.68
629.559	47678.86
629.914	47449.03
630.269	47551.18
630.623	47452.88
630.978	47504.63
631.332	47811.96
631.687	47722.25
632.041	47669.82
632.396	47815.8
632.75	47776.48
633.104	47893.54
633.459	47703.72
633.813	47670.5
634.167	47747.56
634.521	47898.51
634.875	47963.82
635.229	47933.32
635.583	47858.06
635.937	47791.85
636.291	47904.84
636.645	47897.16
636.999	47889.93
637.352	48010.38
637.706	47884.73
638.06	48078.17
638.413	48187.77
638.767	48019.64
639.121	48215.34
639.474	47963.15
639.828	48095.8
640.181	48130.6
640.534	48116.36
640.888	48032.3
641.241	47976.7
641.594	48106.19
641.947	48257.38
642.301	48107.32
642.654	48177.38
643.007	48359.97
643.36	48197.94
643.713	48216.02
644.066	48411.5
644.419	48109.81
644.771	47919.76
645.124	47716.6
645.477	47699.88
645.83	47444.97
646.182	47435.48
646.535	47321.13
646.888	47451.29
647.24	47394.12
647.593	47652.87
647.945	47608.13
648.298	47435.7
648.65	47385.31
649.002	47305.31
649.355	47444.06
649.707	47326.78
650.059	47572.65
650.411	47964.73
650.763	48125.85
651.115	48572.17
651.467	48456.92
651.819	48499.63
652.171	48462.12
652.523	48418.05
652.875	48444.71
653.227	48427.77
653.578	48682.9
653.93	48500.53
654.282	48411.5
654.633	48360.88
654.985	48553.19
655.337	48426.86
655.688	48494.21
656.039	48768.1
656.391	48312.51
656.742	48590.93
657.094	48529.68
657.445	48798.6
657.796	48660.75
658.147	48670.92
658.498	48838.15
658.849	48884.48
659.2	48726.52
659.551	48759.51
659.902	48964.48
660.253	48792.05
660.604	48907.08
660.955	48775.78
661.306	48941.65
661.656	48900.3
662.007	48957.02
662.358	48823.91
662.708	48963.12
663.059	48955.21
663.409	48844.93
663.76	49135.77
664.11	49051.03
664.461	48991.82
664.811	49037.69
665.161	49159.72
665.511	48973.06
665.862	49233.85
666.212	49216.22
666.562	49162.21
666.912	49106.62
667.262	49302.32
667.612	49274.75
667.962	49371.02
668.312	49344.13
668.662	49569.66
669.011	49366.5
669.361	49372.37
669.711	49568.98
670.06	49281.3
670.41	49400.85
670.76	49287.86
671.109	49580.5
671.459	49551.8
671.808	49496.21
672.157	49610.11
672.507	49349.78
672.856	49353.17
673.205	49548.41
673.554	49593.84
673.904	49549.54
674.253	49593.61
674.602	49539.83
674.951	49082.89
675.3	48878.83
675.649	49612.82
675.998	49578.7
676.346	49564.69
676.695	49751.12
677.044	49470.68
677.393	49609.88
677.741	49716.55
678.09	49611.01
678.438	49581.18
678.787	49650.33
679.135	49695.08
679.484	49380.06
679.832	49662.31
680.181	49502.54
680.529	49575.53
680.877	49347.74
681.225	49423.9
681.573	49691.69
681.922	49455.54
682.27	49389.77
682.618	49485.59
682.966	49411.47
683.314	49444.91
683.661	49195.2
684.009	49110.46
684.357	49133.74
684.705	49240.85
685.053	49108.43
685.4	49220.74
685.748	49064.36
686.095	49071.14
686.443	48931.48
686.79	48922.67
687.138	49059.61
687.485	49168.76
687.832	49038.37
688.18	49061.2
688.527	48885.61
688.874	48633.86
689.221	48809.23
689.568	48641.32
689.915	48761.99
690.262	48585.05
690.609	48656.69
690.956	48533.07
691.303	48543.24
691.65	48212.18
691.997	48285.62
692.344	48019.64
692.69	48071.84
693.037	48241.78
693.383	47846.31
693.73	47918.18
694.077	47814.9
694.423	47963.82
694.769	47888.35
695.116	47809.93
695.462	47932.86
695.808	47741.91
696.155	47861.23
696.501	47515.7
696.847	47572.42
697.193	47259.21
697.539	47540.78
697.885	47121.13
698.231	47026.67
698.577	47083.85
698.923	47110.96
699.269	47000.23
699.614	46830.75
699.96	46789.62
700.306	46879.56
700.651	46661.94
700.997	46587.14
701.342	46524.09
701.688	46481.83
702.033	46500.59
702.379	46374.49
702.724	46272.79
703.069	46358.44
703.415	45983.08
703.76	45974.72
704.105	45872.81
704.45	45870.09
704.795	45751.68
705.14	45737.89
705.485	45723.43
705.83	45413.83
706.175	45544.68
706.52	45454.96
706.865	45445.02
707.209	45351.69
707.554	45300.16
707.899	45345.36
708.243	45188.76
708.588	45055.2
708.932	44893.62
709.277	44876.45
709.621	45050.91
709.966	44726.62
710.31	44839.39
710.654	44353.52
710.998	44648.88
711.342	44645.49
711.687	44638.26
712.031	44424.26
712.375	44212.06
712.719	44458.38
713.063	44284.37
713.407	44387.87
713.75	44296.58
714.094	44233.53
714.438	44120.08
714.782	44232.17
715.125	43830.6
715.469	44071.04
715.812	43912.4
716.156	43706.08
716.499	43632.64
716.843	43858.85
717.186	43718.06
717.53	43727.55
717.873	43726.42
718.216	43521.68
718.559	43463.83
718.902	43198.53
719.246	43381.57
719.589	43233.33
719.932	43327.79
720.275	43140.67
720.617	43171.63
720.96	43246.89
721.303	43048.02
721.646	43104.29
721.989	42937.97
722.331	43181.58
722.674	43090.73
723.016	43054.12
723.359	43084.4
723.701	43027.46
724.044	42733.9
724.386	42526.68
724.729	42790.17
725.071	42705.88
725.413	42750.18
725.755	42726.9
726.097	42570.07
726.439	42463.18
726.782	42579.33
727.124	42627.24
727.465	42299.57
727.807	42483.06
728.149	42341.37
728.491	42251.66
728.833	42416.17
729.175	42287.81
729.516	42146.12
729.858	42212.11
730.199	42069.06
730.541	42034.26
730.882	42007.14
731.224	41895.96
731.565	41876.75
731.906	42032
732.248	42149.97
732.589	41860.71
732.93	41770.09
733.271	41782.07
733.612	41885.34
733.953	41965.56
734.294	41694.16
734.635	41501.17
734.976	41607.15
735.317	41560.15
735.658	41647.61
735.999	41571.9
736.339	41337.78
736.68	41424.79
737.021	41399.48
737.361	41180.73
737.702	41321.06
738.042	41148.18
738.383	41084.91
738.723	41352.25
739.063	41225.47
739.404	41290.78
739.744	41147.05
740.084	41169.43
740.424	41220.95
740.764	41012.82
741.104	41268.86
741.444	40956.1
741.784	40780.74
742.124	41000.62
742.464	40888.53
742.804	40962.88
743.143	40853.28
743.483	40768.76
743.823	40567.63
744.162	40576.67
744.502	40904.12
744.841	40680.85
745.181	40892.37
745.52	40606.95
745.86	40712.26
746.199	40473.63
746.538	40473.17
746.877	40585.49
747.216	40471.82
747.556	40465.49
747.895	40562.89
748.234	40283.35
748.573	40187.53
748.911	40178.49
749.25	40130.36
749.589	39931.49
749.928	39993.41
750.267	40164.93
750.605	39990.02
750.944	39900.53
751.283	39748.45
751.621	39967.88
751.96	39800.87
752.298	39815.79
752.636	39931.04
752.975	39489.02
753.313	39457.83
753.651	39466.42
753.989	39421.9
754.327	39388.68
754.666	39236.6
755.004	39123.6
755.342	39126.32
755.679	39187.78
756.017	38924.74
756.355	39075.47
756.693	38968.35
757.031	38889.26
757.368	38658.76
757.706	38788.47
758.044	38644.75
758.381	38554.35
758.719	38474.36
759.056	38555.03
759.394	38351.87
759.731	38115.72
760.068	38087.47
760.405	38089.96
760.743	38010.41
761.08	37954.82
761.417	37694.72
761.754	37714.83
762.091	37663.08
762.428	37564.77
762.765	37278.45
763.102	37470.31
763.438	37383.99
763.775	37109.42
764.112	37166.82
764.449	37108.52
764.785	37091.12
765.122	36875.08
765.458	36758.47
765.795	36574.52
766.131	36532.03
766.467	36632.14
766.804	36478.7
767.14	36399.38
767.476	36300.85
767.812	36380.4
768.148	36312.38
768.485	35995.32
768.821	35976.79
769.157	35871.71
769.492	35990.81
769.828	35757.14
770.164	35666.29
770.5	35325.96
770.836	35354.21
771.171	35242.12
771.507	35110.83
771.842	34895.24
772.178	34789.03
772.513	34701.8
772.849	34741.12
773.184	34594.01
773.519	34651.41
773.855	34377.29
774.19	34424.97
774.525	34153.57
774.86	34188.14
775.195	34116.96
775.53	34036.05
775.865	33785.44
776.2	33628.16
776.535	33400.36
776.87	33519.23
777.205	33368.28
777.539	33333.7
777.874	33330.76
778.209	33142.52
778.543	33020.94
778.878	32815.97
779.212	32882.64
779.547	32674.28
779.881	32655.98
780.215	32382.99
780.55	32509.31
780.884	32273.84
781.218	32346.38
781.552	32313.39
781.886	32144.13
782.22	31825.04
782.554	31781.65
782.888	31460.53
783.222	31615.1
783.556	31395.67
783.889	31298.05
784.223	31094.89
784.557	31183.02
784.89	31169.24
785.224	31169.46
785.557	31026.42
785.891	30835.01
786.224	30792.52
786.558	30693.09
786.891	30662.36
787.224	30433.66
787.557	30410.84
787.891	30126.33
788.224	30149.15
788.557	30237.96
788.89	30132.43
789.223	30082.03
789.556	29718.88
789.888	29682.72
790.221	29661.48
790.554	29457.19
790.887	29489.96
791.219	29374.48
791.552	29371.54
791.884	29230.3
792.217	29176.75
792.549	29158.67
792.882	28944.66
793.214	28829.41
793.546	29020.82
793.879	28773.37
794.211	28602.3
794.543	28783.08
794.875	28559.14
795.207	28666.03
795.539	28439.82
795.871	28464.22
796.203	28216.55
796.535	28150.11
796.867	28144.23
797.198	28032.82
797.53	28091.8
797.862	27915.31
798.193	27791.7
798.525	27664.47
798.856	27628.09
799.188	27417.47
799.519	27395.32
799.85	27211.15
800.182	27269.9
800.513	27318.49
800.844	27086.86
801.175	27090.93
801.506	27103.36
801.837	26918.28
802.168	26932.29
802.499	26863.14
802.83	26764.38
803.161	26748.79
803.491	26738.62
803.822	26674.67
804.153	26516.93
804.483	26333.66
804.814	26374.11
805.145	26300.21
805.475	26317.39
805.805	26256.82
806.136	26190.38
806.466	26166.66
806.796	26079.2
807.126	25948.13
807.457	25925.53
807.787	25848.02
808.117	25746.78
808.447	25772.54
808.777	25868.36
809.107	25688.48
809.436	25541.59
809.766	25646.22
810.096	25480.35
810.426	25399.67
810.755	25335.27
811.085	25353.34
811.414	25293.46
811.744	25194.48
812.073	25194.93
812.403	25202.84
812.732	25136.18
813.061	25166.23
813.39	24836.07
813.719	24810.99
814.049	24856.86
814.378	24709.52
814.707	24686.7
815.036	24764.43
815.365	24683.53
815.693	24362.18
816.022	24323.09
816.351	24334.84
816.68	24202.87
817.008	24298.91
817.337	24029.09
817.665	24086.71
817.994	24289.19
818.322	24204.22
818.651	24078.12
818.979	23938.24
819.307	23995.64
819.636	23822.99
819.964	23718.81
820.292	23892.59
820.62	23818.92
820.948	23726.27
821.276	23910.67
821.604	23839.49
821.932	23954.74
822.259	23973.04
822.587	23708.64
822.915	23813.27
823.243	23879.49
823.57	23879.49
823.898	23837.9
824.225	23920.16
824.553	23842.88
824.88	23785.7
825.207	23827.06
825.535	23748.87
825.862	23754.52
826.189	23691.47
826.516	23921.52
826.843	23888.07
827.17	23955.42
827.497	24068.63
827.824	23975.08
828.151	24093.26
828.478	23989.09
828.805	24168.29
829.131	24037.22
829.458	23980.95
829.785	23968.52
830.111	23900.95
830.438	24203.77
830.764	24079.48
831.09	24013.72
831.417	23917.22
831.743	24012.59
832.069	23988.41
832.395	23892.82
832.722	23963.78
833.048	24030.22
833.374	23982.76
833.7	23860.73
834.026	23961.29
834.351	23879.26
834.677	23783.22
835.003	23853.72
835.329	23790.22
835.654	23790.67
835.98	23576.22
836.306	23746.83
836.631	23602.2
836.956	23574.63
837.282	23629.1
837.607	23419.61
837.932	23466.39
838.258	23559.04
838.583	23557.46
838.908	23408.76
839.233	23488.76
839.558	23376.22
839.883	23345.49
840.208	23385.49
840.533	23347.3
840.858	23389.33
841.182	23449.67
841.507	23362.21
841.832	23246.73
842.156	23225.27
842.481	23258.71
842.805	23070.92
843.13	23114.99
843.454	23003.35
843.778	22995.67
844.103	22898.27
844.427	22765.84
844.751	22844.71
845.075	22728.78
845.399	22781.89
845.723	22598.84
846.047	22681.32
846.371	22455.34
846.695	22578.05
847.019	22263.03
847.343	22228.46
847.666	22134.22
847.99	22077.72
848.313	22135.58
848.637	21830.95
848.96	21786.88
849.284	21812.19
849.607	21670.5
849.931	21660.56
850.254	21458.98
850.577	21330.17
850.9	21255.37
851.223	21269.38
851.546	21243.62
851.869	21076.62
852.192	21257.86
852.515	21039.33
852.838	20845.67
853.161	20883.63
853.483	20680.93
853.806	20812.22
854.129	20744.65
854.451	20573.58
854.774	20569.52
855.096	20595.73
855.419	20499.69
855.741	20543.75
856.063	20295.4
856.385	20356.87
856.708	20333.14
857.03	20142.18
857.352	20154.84
857.674	20059.7
857.996	19954.16
858.318	19818.57
858.64	19854.73
858.961	19729.09
859.283	19749.42
859.605	19704
859.926	19806.15
860.248	19752.81
860.57	19666.94
860.891	19608.64
861.212	19503.55
861.534	19466.49
861.855	19464.01
862.176	19532.03
862.498	19511.24
862.819	19391.69
863.14	19455.65
863.461	19377.68
863.782	19313.05
864.103	19279.61
864.424	19219.95
864.745	19350.56
865.065	19192.38
865.386	19142.21
865.707	19247.74
866.027	19199.16
866.348	19182.43
866.668	19122.55
866.989	19092.27
867.309	19101.31
867.63	18987.18
867.95	19145.82
868.27	18815.21
868.59	18836.91
868.91	18872.39
869.23	18840.3
869.55	18713.75
869.87	18798.71
870.19	18704.71
870.51	18712.62
870.83	18604.82
871.15	18657.48
871.469	18661.32
871.789	18670.81
872.109	18662.67
872.428	18539.29
872.748	18590.58
873.067	18415.9
873.386	18632.39
873.706	18631.94
874.025	18420.65
874.344	18375.9
874.663	18496.12
874.982	18467.65
875.301	18395.11
875.62	18311.27
875.939	18261.78
876.258	18359.18
876.577	18262.91
876.896	18344.94
877.214	18273.98
877.533	18282.34
877.852	18178.17
878.17	18135.91
878.489	18187.88
878.807	18160.54
879.125	18063.59
879.444	17996.02
879.762	18069.02
880.08	18118.96
880.398	18040.77
880.716	18106.98
881.034	17901.79
881.352	17896.82
881.67	17702.47
881.988	17835.12
882.306	17725.97
882.624	17624.06
882.941	17670.38
883.259	17689.37
883.577	17581.12
883.894	17648.91
884.212	17579.09
884.529	17458.19
884.846	17521.46
885.164	17466.09
885.481	17458.19
885.798	17390.84
886.115	17296.38
886.432	17321.92
886.75	17244.18
887.067	17138.87
887.383	17178.87
887.7	17228.13
888.017	17186.33
888.334	17173.22
888.651	17108.36
888.967	17113.56
889.284	16999.44
889.6	16969.84
889.917	16795.38
890.233	16984.98
890.55	16911.76
890.866	16850.52
891.182	16804.64
891.498	16808.26
891.815	16806.45
892.131	16637.87
892.447	16636.51
892.763	16552.45
893.079	16535.5
893.395	16453.24
893.71	16425.67
894.026	16323.53
894.342	16260.25
894.657	16298.22
894.973	16283.07
895.289	16198.33
895.604	16244.21
895.92	16028.17
896.235	15952.46
896.55	15966.92
896.865	15859.13
897.181	15875.85
897.496	15892.35
897.811	15748.85
898.126	15832.01
898.441	15688.74
898.756	15630.21
899.071	15551.34
899.386	15637.67
899.7	15493.49
900.015	15445.36
900.33	15382.53
900.644	15308.86
900.959	15330.33
901.273	15178.92
901.588	15203.33
901.902	15138.02
902.216	15101.18
902.531	15007.85
902.845	15154.97
903.159	15053.73
903.473	14900.29
903.787	14799.72
904.101	14768.76
904.415	14829.1
904.729	14692.16
905.042	14711.14
905.356	14579.84
905.67	14512.05
905.984	14539.84
906.297	14471.6
906.611	14357.48
906.924	14401.32
907.237	14291.49
907.551	14267.08
907.864	14190.7
908.177	14181.66
908.491	14091.27
908.804	14065.96
909.117	14060.31
909.43	13982.34
909.743	13950.25
910.056	13923.36
910.368	13803.14
910.681	13746.19
910.994	13630.26
911.307	13624.39
911.619	13575.8
911.932	13561.56
912.244	13481.57
912.557	13471.62
912.869	13424.39
913.181	13427.78
913.494	13298.75
913.806	13273.21
914.118	13282.25
914.43	13136.04
914.742	13098.53
915.054	13066.89
915.366	13005.87
915.678	12915.03
915.99	12924.29
916.302	12806.1
916.613	12700.8
916.925	12705.32
917.236	12691.08
917.548	12576.73
917.859	12602.04
918.171	12545.55
918.482	12458.54
918.794	12389.39
919.105	12361.37
919.416	12262.16
919.727	12307.81
920.038	12157.99
920.349	12130.19
920.66	12124.31
920.971	12169.74
921.282	12142.62
921.593	12059.23
921.903	11998.22
922.214	11943.3
922.525	11814.49
922.835	11716.64
923.146	11710.09
923.456	11673.48
923.767	11675.06
924.077	11630.32
924.387	11670.99
924.697	11594.61
925.008	11522.52
925.318	11458.57
925.628	11428.74
925.938	11379.02
926.248	11247.95
926.558	11249.76
926.867	11206.6
927.177	11154.17
927.487	11130.22
927.796	11021.74
928.106	11006.6
928.416	10923.67
928.725	11027.39
929.034	10887.96
929.344	10952.82
929.653	10876.66
929.962	10713.96
930.271	10709.89
930.581	10633.05
930.89	10631.47
931.199	10571.81
931.508	10450.01
931.817	10555.09
932.125	10462.21
932.434	10442.78
932.743	10301.54
933.051	10312.16
933.36	10252.95
933.669	10185.83
933.977	10210.24
934.286	10180.41
934.594	10133.63
934.902	10033.97
935.21	9996.23
935.519	10014.54
935.827	9980.19
936.135	9921.89
936.443	9805.28
936.751	9756.69
937.059	9790.82
937.367	9733.64
937.674	9742.46
937.982	9606.41
938.29	9626.07
938.597	9635.11
938.905	9457.72
939.213	9505.85
939.52	9457.04
939.827	9485.97
940.135	9302.47
940.442	9311.51
940.749	9230.38
941.056	9274.22
941.363	9213.66
941.67	9171.4
941.977	9097.95
942.284	9046.88
942.591	9137.95
942.898	8991.29
943.205	8996.49
943.511	8940.22
943.818	8934.12
944.125	8814.57
944.431	8832.65
944.738	8794.01
945.044	8779.54
945.35	8716.95
945.657	8716.72
945.963	8661.13
946.269	8559.44
946.575	8579.1
946.881	8530.06
947.187	8517.86
947.493	8513.11
947.799	8450.74
948.105	8408.25
948.41	8290.74
948.716	8275.6
949.022	8295.94
949.327	8252.1
949.633	8124.65
949.938	8159.67
950.244	8178.2
950.549	8077.87
950.854	8003.29
951.16	8011.2
951.465	8054.14
951.77	7953.12
952.075	7946.57
952.38	7882.39
952.685	7838.1
952.99	7761.04
953.294	7775.05
953.599	7773.02
953.904	7684.88
954.209	7678.1
954.513	7673.81
954.818	7608.27
955.122	7623.87
955.426	7546.81
955.731	7461.39
956.035	7449.63
956.339	7441.27
956.643	7346.59
956.948	7396.3
957.252	7354.72
957.556	7417.77
957.86	7313.59
958.163	7319.92
958.467	7245.57
958.771	7259.58
959.075	7255.52
959.378	7189.75
959.682	7161.28
959.985	7102.53
960.289	7081.51
960.592	7040.15
960.896	6988.18
961.199	6942.08
961.502	6932.13
961.805	6905.69
962.108	6836.09
962.411	6812.14
962.714	6771.69
963.017	6853.49
963.32	6739.37
963.623	6721.29
963.926	6757.22
964.228	6729.65
964.531	6745.7
964.833	6659.82
965.136	6565.36
965.438	6584.12
965.741	6500.96
966.043	6526.27
966.345	6512.71
966.648	6445.82
966.95	6460.28
967.252	6360.62
967.554	6369.66
967.856	6280.4
968.158	6255.32
968.46	6217.12
968.761	6245.6
969.063	6227.07
969.365	6190.91
969.666	6205.83
969.968	6119.73
970.269	6100.52
970.571	6114.3
970.872	6086.05
971.174	6041.54
971.475	6011.93
971.776	6044.47
972.077	5943.23
972.378	5968.09
972.679	5917.47
972.98	5964.25
973.281	5929
973.582	5881.09
973.883	5823.46
974.183	5860.52
974.484	5777.59
974.785	5731.49
975.085	5727.19
975.386	5752.28
975.686	5654.43
975.986	5651.49
976.287	5636.57
976.587	5545.5
976.887	5600.87
977.187	5581.66
977.487	5518.84
977.787	5470.48
978.087	5412.17
978.387	5402
978.687	5407.65
978.987	5375.34
979.286	5330.14
979.586	5358.39
979.885	5366.07
980.185	5277.49
980.484	5286.53
980.784	5250.37
981.083	5271.39
981.382	5222.8
981.682	5207.66
981.981	5151.62
982.28	5162.69
982.579	5120.2
982.878	5049.92
983.177	5032.3
983.475	5004.73
983.774	5016.7
984.073	5003.82
984.372	4982.81
984.67	4993.88
984.969	4962.02
985.267	4891.28
985.566	4949.36
985.864	4931.51
986.162	4831.17
986.461	4832.75
986.759	4804.28
987.057	4785.07
987.355	4768.8
987.653	4747.33
987.951	4702.36
988.249	4678.63
988.547	4682.93
988.844	4665.75
989.142	4653.78
989.44	4585.76
989.737	4614
990.035	4513.67
990.332	4514.57
990.63	4535.59
990.927	4510.05
991.224	4475.25
991.521	4458.98
991.819	4439.09
992.116	4365.42
992.413	4350.51
992.71	4332.65
993.006	4351.19
993.303	4286.33
993.6	4270.28
993.897	4263.73
994.193	4303.73
994.49	4227.35
994.787	4242.04
995.083	4212.21
995.379	4184.41
995.676	4135.6
995.972	4148.25
996.268	4144.41
996.565	4143.28
996.861	4135.82
997.157	4021.93
997.453	4048.37
997.749	4012.21
998.044	4044.07
998.34	4004.53
998.636	3949.84
998.932	3973.79
999.227	3926.11
999.523	3897.64
999.818	3922.72
1000.114	3862.61
1000.409	3834.36
1000.704	3771.09
1001	3769.96
1001.295	3749.17
1001.59	3750.3
1001.885	3731.09
1002.18	3706.46
1002.475	3673.01
1002.77	3642.73
1003.065	3647.93
1003.359	3663.97
1003.654	3622.62
1003.949	3579.23
1004.243	3545.1
1004.538	3505.56
1004.832	3489.29
1005.127	3497.87
1005.421	3484.54
1005.715	3444.32
1006.009	3436.18
1006.304	3416.97
1006.598	3367.03
1006.892	3390.76
1007.186	3324.09
1007.48	3333.81
1007.773	3287.94
1008.067	3273.25
1008.361	3256.98
1008.655	3247.26
1008.948	3209.07
1009.242	3258.56
1009.535	3189.86
1009.829	3188.28
1010.122	3153.25
1010.415	3128.62
1010.708	3123.65
1011.001	3096.53
1011.295	3079.81
1011.588	3045.23
1011.881	3037.1
1012.173	3052.46
1012.466	3027.15
1012.759	3014.05
1013.052	2958.23
1013.344	2962.97
1013.637	2943.54
1013.93	2895.63
1014.222	2891.11
1014.514	2891.56
1014.807	2842.07
1015.099	2811.79
1015.391	2829.42
1015.683	2780.83
1015.976	2793.26
1016.268	2815.86
1016.56	2727.72
1016.851	2728.4
1017.143	2741.28
1017.435	2656.99
1017.727	2646.37
1018.018	2681.85
1018.31	2670.1
1018.602	2591.91
1018.893	2585.36
1019.185	2593.49
1019.476	2585.13
1019.767	2512.14
1020.058	2519.82
1020.35	2491.57
1020.641	2498.13
1020.932	2444.79
1021.223	2426.04
1021.514	2450.44
1021.804	2400.28
1022.095	2412.93
1022.386	2395.53
1022.677	2369.32
1022.967	2369.99
1023.258	2345.59
1023.548	2325.02
1023.839	2262.43
1024.129	2252.03
1024.419	2267.85
1024.709	2250.45
1025	2193.73
1025.29	2241.18
1025.58	2193.73
1025.87	2189.89
1026.16	2150.11
1026.449	2166.84
1026.739	2116.22
1027.029	2105.37
1027.319	2107.18
1027.608	2099.94
1027.898	2092.94
1028.187	2083.45
1028.477	2060.62
1028.766	2025.14
1029.055	2012.94
1029.344	2014.98
1029.634	1973.17
1029.923	1989.67
1030.212	1948.08
1030.501	1946.73
1030.79	1931.59
1031.078	1922.1
1031.367	1916.45
1031.656	1905.6
1031.945	1873.28
1032.233	1860.63
1032.522	1831.7
1032.81	1812.27
1033.099	1829.67
1033.387	1830.57
1033.675	1814.3
1033.963	1796.22
1034.251	1792.38
1034.54	1744.93
1034.828	1765.49
1035.116	1735.21
1035.403	1729.79
1035.691	1685.49
1035.979	1671.48
1036.267	1698.83
1036.554	1669.22
1036.842	1652.72
1037.129	1645.04
1037.417	1612.5
1037.704	1634.42
1037.992	1612.95
1038.279	1600.07
1038.566	1593.52
1038.853	1593.52
1039.14	1593.52
