Data from copper_heatsink_FLMS001491_026.txt Node
Date: Tue Feb 07 10:49:36 GMT 2017
User: dcchb
Spectrometer: FLMS00149
Trigger mode: 0
Integration Time (sec): 2.000000E-2
Scans to average: 10
Electric dark correction enabled: true
Nonlinearity correction enabled: false
Boxcar width: 0
XAxis mode: Wavelengths
Number of Pixels in Spectrum: 2048
>>>>>Begin Spectral Data<<<<<
341.393	-23.47
341.776	-23.47
342.16	-23.47
342.543	-44.72
342.927	-75.45
343.31	-70.7
343.693	-53.76
344.077	-82.46
344.46	-56.69
344.843	-47.43
345.226	-31.38
345.61	-23.7
345.993	-28.45
346.376	-18.28
346.759	12.91
347.142	25.79
347.525	29.86
347.908	61.5
348.291	83.42
348.674	107.14
349.057	92.23
349.44	121.61
349.823	164.09
350.206	172.68
350.588	222.17
350.971	228.5
351.354	247.25
351.737	242.96
352.119	263.3
352.502	277.08
352.884	306.69
353.267	300.36
353.65	325.67
354.032	305.78
354.414	313.92
354.797	339.23
355.179	338.32
355.562	339.68
355.944	373.35
356.326	334.48
356.709	374.26
357.091	360.47
357.473	365.44
357.855	369.74
358.238	344.65
358.62	360.47
359.002	368.38
359.384	357.08
359.766	369.06
360.148	380.81
360.53	371.32
360.912	341.49
361.294	359.57
361.676	366.35
362.057	380.13
362.439	354.6
362.821	357.31
363.203	347.36
363.584	365.89
363.966	332.9
364.348	349.4
364.729	348.95
365.111	345.33
365.493	369.28
365.874	361.15
366.256	334.71
366.637	335.16
367.019	339.68
367.4	352.34
367.781	339.91
368.163	353.24
368.544	348.04
368.925	343.07
369.306	363.63
369.688	351.43
370.069	346.01
370.45	345.78
370.831	353.24
371.212	327.93
371.593	354.82
371.974	334.71
372.355	330.64
372.736	360.7
373.117	358.44
373.498	339.91
373.879	350.53
374.26	351.88
374.641	367.48
375.021	335.84
375.402	372
375.783	346.46
376.163	388.27
376.544	391.2
376.925	389.62
377.305	363.18
377.686	390.3
378.066	371.54
378.447	381.04
378.827	377.87
379.208	386.68
379.588	372.22
379.968	376.74
380.349	360.02
380.729	369.96
381.109	389.85
381.489	392.79
381.87	397.31
382.25	388.72
382.63	392.79
383.01	395.27
383.39	423.97
383.77	410.86
384.15	398.21
384.53	399.34
384.91	406.35
385.29	431.2
385.67	410.86
386.049	422.84
386.429	438.21
386.809	404.54
387.189	436.17
387.568	441.15
387.948	421.26
388.328	427.14
388.707	433.69
389.087	442.28
389.466	445.89
389.846	447.93
390.225	437.53
390.605	483.63
390.984	476.17
391.363	461.49
391.743	464.42
392.122	479.79
392.501	474.14
392.881	466.91
393.26	499.68
393.639	468.49
394.018	481.82
394.397	486.34
394.776	477.76
395.155	484.76
395.534	490.41
395.913	494.03
396.292	511.88
396.671	513.24
397.05	510.3
397.429	494.48
397.808	512.56
398.186	505.33
398.565	522.5
398.944	527.02
399.323	549.17
399.701	515.04
400.08	534.25
400.458	557.98
400.837	544.42
401.215	547.36
401.594	553.01
401.972	559.11
402.351	577.87
402.729	579.9
403.107	577.64
403.486	574.48
403.864	580.58
404.242	594.59
404.62	590.52
404.999	598.43
405.377	601.37
405.755	581.26
406.133	606.11
406.511	611.76
406.889	611.76
407.267	605.44
407.645	644.31
408.023	639.11
408.401	645.21
408.779	656.28
409.156	659.22
409.534	653.34
409.912	665.55
410.29	683.85
410.667	684.76
411.045	681.59
411.422	689.5
411.8	708.71
412.178	705.09
412.555	714.59
412.933	724.98
413.31	714.59
413.687	734.7
414.065	772.44
414.442	760.01
414.819	768.6
415.197	760.23
415.574	758.43
415.951	748.26
416.328	786.9
416.705	783.51
417.082	807.24
417.46	792.32
417.837	830.06
418.214	842.49
418.591	807.69
418.967	836.62
419.344	822.61
419.721	826.22
420.098	840.91
420.475	868.93
420.852	857.86
421.228	883.85
421.605	893.79
421.982	884.98
422.358	891.98
422.735	907.58
423.111	903.28
423.488	932.21
423.864	936.05
424.241	936.73
424.617	950.74
424.994	955.03
425.37	967.23
425.746	953.9
426.123	980.12
426.499	968.36
426.875	986.89
427.251	1013.33
427.627	1032.54
428.003	1018.98
428.379	1048.14
428.756	1044.52
429.132	1082.26
429.507	1098.53
429.883	1080.45
430.259	1098.98
430.635	1105.76
431.011	1115.48
431.387	1149.83
431.763	1175.82
432.138	1162.26
432.514	1192.54
432.89	1185.31
433.265	1213.78
433.641	1254.23
434.016	1241.35
434.392	1251.52
434.767	1257.85
435.143	1291.07
435.518	1275.47
435.894	1300.11
436.269	1318.19
436.644	1332.2
437.02	1337.85
437.395	1337.17
437.77	1368.13
438.145	1393.44
438.52	1414.45
438.895	1401.8
439.271	1425.08
439.646	1434.57
440.021	1479.54
440.395	1448.58
440.77	1464.4
441.145	1485.86
441.52	1499.88
441.895	1515.47
442.27	1538.74
442.645	1502.36
443.019	1513.43
443.394	1560.44
443.769	1562.7
444.143	1552.98
444.518	1586.2
444.892	1584.17
445.267	1604.05
445.641	1659.42
446.016	1616.71
446.39	1654.45
446.764	1654
447.139	1614
447.513	1662.13
447.887	1661.45
448.262	1663.49
448.636	1688.8
449.01	1722.69
449.384	1718.18
449.758	1746.87
450.132	1766.99
450.506	1774.67
450.88	1784.39
451.254	1809.7
451.628	1825.74
452.002	1866.65
452.376	1863.03
452.75	1897.61
453.123	1905.06
453.497	1936.93
453.871	1939.19
454.244	2016.92
454.618	2006.76
454.992	2031.84
455.365	2046.3
455.739	2084.72
456.112	2115.68
456.486	2114.32
456.859	2139.41
457.232	2160.42
457.606	2199.07
457.979	2241.33
458.352	2279.97
458.725	2293.08
459.099	2314.77
459.472	2369.23
459.845	2384.82
460.218	2402.45
460.591	2433.18
460.964	2451.26
461.337	2519.06
461.71	2507.53
462.083	2550.7
462.456	2591.6
462.829	2617.81
463.201	2628.89
463.574	2655.55
463.947	2702.33
464.32	2760.63
464.692	2763.35
465.065	2771.71
465.438	2847.64
465.81	2882.66
466.183	2926.5
466.555	2967.18
466.928	2975.54
467.3	2998.82
467.672	3018.71
468.045	3164.92
468.417	3115.2
468.789	3158.82
469.161	3205.14
469.534	3272.48
469.906	3336.89
470.278	3352.03
470.65	3408.3
471.022	3467.28
471.394	3522.42
471.766	3539.82
472.138	3629.54
472.51	3683.55
472.882	3726.48
473.253	3787.95
473.625	3880.6
473.997	3939.59
474.369	3971.45
474.74	3982.3
475.112	4045.57
475.484	4113.59
475.855	4218
476.227	4245.57
476.598	4307.26
476.97	4395.62
477.341	4494.6
477.713	4559.23
478.084	4570.98
478.455	4738.21
478.827	4775.5
479.198	4869.05
479.569	4914.48
479.94	4988.15
480.311	5083.51
480.682	5161.02
481.053	5260.23
481.424	5388.36
481.795	5380.9
482.166	5512.2
482.537	5590.16
482.908	5708.58
483.279	5721.46
483.65	5858.86
484.021	5983.15
484.391	6012.07
484.762	6048.23
485.133	6140.21
485.503	6272.63
485.874	6413.87
486.244	6439.86
486.615	6561.89
486.985	6674.66
487.356	6820.64
487.726	6841.2
488.097	6965.27
488.467	7007.75
488.837	7185.83
489.207	7266.05
489.578	7352.6
489.948	7379.72
490.318	7552.82
490.688	7546.95
491.058	7700.84
491.428	7754.17
491.798	7878.24
492.168	8044.56
492.538	8031.23
492.908	8093.6
493.278	8245.69
493.648	8255.63
494.017	8402.29
494.387	8511.22
494.757	8576.75
495.126	8692.46
495.496	8680.93
495.866	8788.72
496.235	8838.44
496.605	8916.63
496.974	9014.03
497.344	9034.82
497.713	9135.38
498.082	9166.57
498.452	9285.21
498.821	9295.38
499.19	9408.59
499.559	9473.23
499.928	9572.43
500.298	9596.61
500.667	9677.74
501.036	9712.32
501.405	9840
501.774	9873.67
502.143	9914.12
502.512	9953.21
502.88	10021.91
503.249	10066.43
503.618	10096.94
503.987	10203.83
504.356	10254
504.724	10391.62
505.093	10393.88
505.462	10483.37
505.83	10575.8
506.199	10664.15
506.567	10804.04
506.936	10723.14
507.304	10889.69
507.672	10954.54
508.041	11039.96
508.409	11106.4
508.777	11262.11
509.145	11296
509.514	11331.71
509.882	11301.88
510.25	11467.75
510.618	11588.88
510.986	11544.36
511.354	11706.61
511.722	11815.08
512.09	11882.65
512.458	11809.21
512.826	12024.8
513.193	12086.04
513.561	12153.38
513.929	12212.59
514.297	12348.86
514.664	12383.88
515.032	12511.11
515.4	12639.02
515.767	12697.77
516.135	12775.96
516.502	12733.25
516.869	13025.22
517.237	13053.7
517.604	12958.78
517.972	13178.66
518.339	13238.78
518.706	13302.05
519.073	13408.04
519.44	13587.47
519.808	13648.03
520.175	13607.35
520.542	13902.26
520.909	13926.67
521.276	13946.55
521.643	14110.39
522.009	14220.67
522.376	14356.26
522.743	14396.71
523.11	14506.77
523.477	14795.8
523.843	14811.84
524.21	14920.99
524.577	15021.1
524.943	15132.29
525.31	15212.28
525.676	15378.83
526.043	15411.15
526.409	15556.68
526.776	15756.45
527.142	15762.33
527.508	15880.29
527.874	16019.95
528.241	16089.32
528.607	16165.48
528.973	16292.93
529.339	16421.29
529.705	16531.12
530.071	16672.58
530.437	16850.21
530.803	16931.11
531.169	16980.15
531.535	17009.75
531.901	17007.04
532.267	17182.85
532.632	17317.09
532.998	17437.99
533.364	17546.69
533.73	17573.35
534.095	17757.98
534.461	17758.43
534.826	17933.57
535.192	17911.65
535.557	18138.53
535.923	18072.1
536.288	18240.9
536.653	18330.17
537.019	18268.25
537.384	18518.86
537.749	18623.04
538.114	18709.37
538.479	18766.31
538.845	18888.8
539.21	18790.95
539.575	18901.45
539.94	19032.97
540.305	19135.34
540.67	19134.21
541.034	19276.36
541.399	19389.57
541.764	19459.63
542.129	19630.47
542.494	19679.96
542.858	19719.96
543.223	19820.3
543.587	19958.6
543.952	20008.09
544.316	20132.38
544.681	20134.87
545.045	20354.07
545.41	20396.1
545.774	20411.92
546.138	20565.59
546.503	20687.85
546.867	20720.16
547.231	20950.44
547.595	20993.15
547.959	21141.39
548.324	21187.04
548.688	21290.99
549.052	21359.92
549.416	21388.39
549.779	21629.06
550.143	21650.53
550.507	21930.3
550.871	22057.08
551.235	22046.68
551.599	22275.6
551.962	22322.15
552.326	22563.95
552.689	22678.98
553.053	22751.97
553.417	22852.31
553.78	23139.08
554.143	23069.48
554.507	23296.14
554.87	23420.2
555.234	23687.99
555.597	23605.74
555.96	23932.28
556.323	23982.22
556.686	24178.6
557.05	24326.17
557.413	24467.18
557.776	24648.19
558.139	24969.54
558.502	25089.76
558.865	25289.98
559.228	25409.53
559.59	25631.67
559.953	25811.78
560.316	26210.41
560.679	26168.83
561.041	26472.33
561.404	26732.66
561.767	26965.42
562.129	26975.59
562.492	27388.46
562.854	27576.93
563.217	27728.11
563.579	27993.19
563.941	28188.44
564.304	28503.01
564.666	28808.76
565.028	28925.37
565.39	29124.01
565.753	29453.49
566.115	29707.27
566.477	29707.72
566.839	30034.27
567.201	30302.06
567.563	30469.96
567.925	30999.44
568.287	31055.26
568.648	31345.64
569.01	31563.49
569.372	31888.46
569.734	31844.61
570.095	32353.98
570.457	32640.75
570.819	32845.04
571.18	32980.63
571.542	33193.05
571.903	33417.23
572.265	33696.77
572.626	33861.74
572.987	34207.49
573.349	34350.99
573.71	34710.53
574.071	35005.44
574.432	35253.79
574.794	35542.82
575.155	35643.16
575.516	35670.5
575.877	36111.17
576.238	36344.84
576.599	36517.49
576.96	36791.15
577.32	37021.88
577.681	37214.64
578.042	37432.04
578.403	37701.18
578.763	37720.62
579.124	38126.48
579.485	38406.48
579.845	38592.23
580.206	38658.9
580.566	38918.33
580.927	39106.8
581.287	39346.79
581.648	39341.59
582.008	39649.61
582.368	39657.74
582.728	39775.25
583.089	39911.97
583.449	40164.17
583.809	40252.08
584.169	40434.22
584.529	40579.98
584.889	41081.43
585.249	40894.09
585.609	40925.96
585.969	41498.82
586.329	41390.35
586.688	41612.49
587.048	41583.12
587.408	41744.02
587.768	41897.23
588.127	41995.53
588.487	42022.43
588.846	42463.09
589.206	42236.43
589.565	42527.72
589.925	42770.2
590.284	42701.96
590.643	42925
591.003	43177.65
591.362	43312.79
591.721	43396.63
592.08	43465.1
592.44	43680.01
592.799	43742.38
593.158	43979.89
593.517	44017.85
593.876	44246.55
594.235	44215.59
594.593	44416.71
594.952	44602.25
595.311	44539.87
595.67	44812.64
596.029	45246.75
596.387	45302.57
596.746	45232.96
597.104	45272.28
597.463	45370.36
597.822	45633.18
598.18	45703.01
598.538	45702.56
598.897	46101.41
599.255	45729.45
599.613	46474.29
599.972	46377.79
600.33	46626.15
600.688	46523.32
601.046	46729.87
601.404	46877.89
601.762	46998.57
602.12	47295.96
602.478	47267.49
602.836	47397.88
603.194	47295.51
603.552	47584.54
603.91	47577.31
604.268	47821.14
604.625	47743.63
604.983	48044.41
605.341	47866.11
605.698	48209.38
606.056	48474.46
606.413	48457.74
606.771	48771.85
607.128	48697.96
607.485	48646.43
607.843	48798.29
608.2	49152.86
608.557	49258.85
608.914	49208.9
609.272	49427.2
609.629	49674.2
609.986	49801.2
610.343	49696.12
610.7	50160.07
611.057	50120.97
611.414	50231.02
611.771	50277.35
612.127	50398.48
612.484	50549.43
612.841	50795.53
613.198	50704.23
613.554	50711.92
613.911	50988.07
614.267	51038.91
614.624	50960.95
614.98	51313.03
615.337	51466.7
615.693	51365.46
616.05	51457.66
616.406	51783.75
616.762	51709.86
617.118	51633.25
617.475	51842.51
617.831	51896.06
618.187	51942.84
618.543	52130.86
618.899	52395.94
619.255	52329.95
619.611	52349.84
619.967	52499.66
620.323	52564.97
620.678	52529.72
621.034	52607.01
621.39	52626.44
621.746	52637.97
622.101	52958.64
622.457	52807.91
622.812	52946.21
623.168	53024.62
623.523	53044.74
623.879	53252.64
624.234	53076.6
624.589	53270.27
624.945	53343.26
625.3	53503.48
625.655	53425.74
626.01	53572.63
626.365	53525.63
626.72	53559.98
627.075	53627.54
627.43	53617.6
627.785	53569.24
628.14	53742.57
628.495	53775.11
628.85	53815.11
629.205	53755.22
629.559	53956.58
629.914	53874.54
630.269	53853.53
630.623	53755.22
630.978	53821.21
631.332	53994.77
631.687	54020.53
632.041	53988.44
632.396	54156.12
632.75	54143.69
633.104	54091.71
633.459	54020.98
633.813	54068.21
634.167	54171.94
634.521	54061.21
634.875	54155.89
635.229	54085.84
635.583	54103.01
635.937	54208.32
636.291	54174.42
636.645	54258.26
636.999	54170.13
637.352	54274.76
637.706	54141.43
638.06	54241.77
638.413	54193.86
638.767	54207.19
639.121	54340.29
639.474	54178.26
639.828	54282.67
640.181	54289.45
640.534	54258.04
640.888	54141.43
641.241	54066.18
641.594	54313.4
641.947	54318.15
642.301	54317.47
642.654	54354.53
643.007	54378.26
643.36	54394.08
643.713	54324.25
644.066	54512.72
644.419	54309.56
644.771	54366.06
645.124	54165.16
645.477	54178.49
645.83	53971.04
646.182	53806.3
646.535	53555.23
646.888	53690.59
647.24	53433.2
647.593	53674.32
647.945	53541.67
648.298	53458.96
648.65	53464.39
649.002	53545.51
649.355	53737.37
649.707	53757.03
650.059	53994.31
650.411	54415.55
650.763	54411.93
651.115	54643.56
651.467	54506.84
651.819	54583.45
652.171	54564.24
652.523	54544.58
652.875	54601.76
653.227	54554.75
653.578	54644.24
653.93	54676.33
654.282	54527.18
654.633	54491.25
654.985	54654.86
655.337	54592.49
655.688	54766.95
656.039	54832.26
656.391	54551.81
656.742	54609.67
657.094	54666.39
657.445	54756.55
657.796	54757.23
658.147	54682.88
658.498	54634.3
658.849	54855.54
659.2	54730.11
659.551	54757.01
659.902	54859.6
660.253	54841.98
660.604	54926.04
660.955	54704.8
661.306	54833.84
661.656	54820.96
662.007	54913.61
662.358	55015.53
662.708	55016.43
663.059	55077.45
663.409	54859.83
663.76	55084.23
664.11	55025.25
664.461	55027.96
664.811	55118.35
665.161	55095.75
665.511	55043.1
665.862	55048.52
666.212	55163.78
666.562	55233.38
666.912	55233.38
667.262	55265.02
667.612	55261.17
667.962	55359.02
668.312	55252.13
668.662	55297.11
669.011	55331.23
669.361	55361.74
669.711	55375.52
670.06	55346.6
670.41	55358.57
670.76	55434.5
671.109	55488.29
671.459	55405.35
671.808	55340.04
672.157	55485.8
672.507	55274.96
672.856	55389.08
673.205	55455.75
673.554	55473.82
673.904	55506.37
674.253	55611
674.602	55507.5
674.951	55157.22
675.3	55049.43
675.649	55578.45
675.998	55584.56
676.346	55602.18
676.695	55732.8
677.044	55497.78
677.393	55658.23
677.741	55713.14
678.09	55666.14
678.438	55607.15
678.787	55747.71
679.135	55637.89
679.484	55463.2
679.832	55687.6
680.181	55477.89
680.529	55606.7
680.877	55529.42
681.225	55513.37
681.573	55672.24
681.922	55423.66
682.27	55457.1
682.618	55500.49
682.966	55460.26
683.314	55560.83
683.661	55415.97
684.009	55431.57
684.357	55378.01
684.705	55421.17
685.053	55391.34
685.4	55429.08
685.748	55310.66
686.095	55296.43
686.443	55222.98
686.79	55186.37
687.138	55206.26
687.485	55346.14
687.832	55184.34
688.18	55260.04
688.527	55102.08
688.874	55149.76
689.221	55061.86
689.568	55038.36
689.915	55147.05
690.262	55147.28
690.609	55048.75
690.956	54804.91
691.303	54954.74
691.65	54769.21
691.997	54736.22
692.344	54597.46
692.69	54725.59
693.037	54790.68
693.383	54571.25
693.73	54685.82
694.077	54508.65
694.423	54588.65
694.769	54493.51
695.116	54505.71
695.462	54333.51
695.808	54378.03
696.155	54337.36
696.501	54160.86
696.847	54225.04
697.193	54088.78
697.539	54122.67
697.885	53982.56
698.231	53991.15
698.577	53937.37
698.923	53964.94
699.269	53896.46
699.614	53813.53
699.96	53697.6
700.306	53726.53
700.651	53645.17
700.997	53664.83
701.342	53554.55
701.688	53528.79
702.033	53413.77
702.379	53366.31
702.724	53326.08
703.069	53408.79
703.415	53228.91
703.76	53232.07
704.105	53233.66
704.45	53045.87
704.795	53010.39
705.14	52996.6
705.485	52931.07
705.83	52887
706.175	52992.31
706.52	52843.61
706.865	52636.38
707.209	52823.27
707.554	52616.95
707.899	52712.09
708.243	52617.4
708.588	52612.88
708.932	52435.26
709.277	52385.09
709.621	52529.72
709.966	52280.24
710.31	52310.97
710.654	52115.04
710.998	52169.73
711.342	52173.8
711.687	52100.81
712.031	52061.71
712.375	52053.35
712.719	52155.04
713.063	52023.75
713.407	52188.26
713.75	52018.55
714.094	52098.09
714.438	51875.73
714.782	52064.42
715.125	51896.97
715.469	51891.09
715.812	51842.28
716.156	51652.68
716.499	51634.38
716.843	51767.03
717.186	51557.32
717.53	51729.06
717.873	51719.12
718.216	51746.46
718.559	51746.01
718.902	51500.14
719.246	51605.45
719.589	51528.84
719.932	51359.58
720.275	51383.76
720.617	51347.15
720.96	51239.36
721.303	51396.42
721.646	51353.25
721.989	51219.92
722.331	51308.51
722.674	51241.84
723.016	51227.83
723.359	51255.63
723.701	51247.49
724.044	51000.5
724.386	50885.92
724.729	51107.16
725.071	50988.52
725.413	51075.07
725.755	51021.06
726.097	50826.71
726.439	50776.55
726.782	50871.68
727.124	51091.57
727.465	50826.04
727.807	50850.67
728.149	50703.1
728.491	50640.28
728.833	50828.3
729.175	50709.66
729.516	50564.8
729.858	50515.31
730.199	50687.96
730.541	50588.98
730.882	50601.41
731.224	50677.11
731.565	50431.02
731.906	50507.4
732.248	50580.85
732.589	50427.63
732.93	50412.71
733.271	50432.6
733.612	50593.73
733.953	50557.34
734.294	50245.94
734.635	50261.98
734.976	50448.87
735.317	50269.89
735.658	50276.67
735.999	50313.51
736.339	50245.49
736.68	50297.46
737.021	50169.33
737.361	50091.37
737.702	50214.08
738.042	50092.72
738.383	50186.73
738.723	50346.95
739.063	50123.91
739.404	50270.57
739.744	50052.72
740.084	49974.31
740.424	50034.42
740.764	50058.15
741.104	50133.4
741.444	49922.56
741.784	49945.16
742.124	50077.13
742.464	50029.22
742.804	49896.8
743.143	49869.9
743.483	49836.01
743.823	49727.76
744.162	49862.9
744.502	50076.68
744.841	49824.48
745.181	49830.58
745.52	49767.31
745.86	49750.81
746.199	49700.19
746.538	49772.96
746.877	49781.77
747.216	49695.22
747.556	49649.12
747.895	49646.18
748.234	49469.24
748.573	49299.3
748.911	49394.89
749.25	49474.21
749.589	49338.84
749.928	49431.27
750.267	49501.33
750.605	49217.72
750.944	49383.59
751.283	49385.62
751.621	49427.88
751.96	49063.6
752.298	49071.05
752.636	49300.88
752.975	49009.81
753.313	48996.03
753.651	49182.92
753.989	48914.9
754.327	48962.81
754.666	48914.22
755.004	48934.56
755.342	48999.64
755.679	49016.82
756.017	48668.35
756.355	48779.99
756.693	48628.58
757.031	48559.66
757.368	48253.67
757.706	48325.76
758.044	48402.6
758.381	48291.19
758.719	48255.26
759.056	48210.51
759.394	48175.71
759.731	47993.12
760.068	48083.51
760.405	47907.24
760.743	47890.52
761.08	47993.12
761.417	47617.53
761.754	47597.42
762.091	47601.04
762.428	47585.67
762.765	47299.12
763.102	47385.22
763.438	47253.7
763.775	46947.27
764.112	47158.34
764.449	47142.29
764.785	46957.89
765.122	46701.4
765.458	46513.16
765.795	46609.2
766.131	46800.83
766.467	46623.21
766.804	46508.18
767.14	46416.21
767.476	46413.95
767.812	46250.34
768.148	46365.59
768.485	46007.18
768.821	45970.12
769.157	45908.88
769.492	45945.94
769.828	45914.3
770.164	45413.3
770.5	45348.44
770.836	45398.16
771.171	45204.72
771.507	45107.77
771.842	44855.8
772.178	44853.99
772.513	44809.02
772.849	44807.66
773.184	44585.97
773.519	44633.2
773.855	44423.27
774.19	44345.98
774.525	44266.21
774.86	44453.32
775.195	44402.93
775.53	44141.01
775.865	43953
776.2	43683.17
776.535	43508.04
776.87	43480.92
777.205	43399.11
777.539	43381.49
777.874	43475.72
778.209	43123.19
778.543	43319.12
778.878	42830.99
779.212	42978.11
779.547	42720.49
779.881	42767.94
780.215	42633.94
780.55	42725.46
780.884	42571.34
781.218	42464.45
781.552	42432.13
781.886	42217
782.22	42000.28
782.554	42066.49
782.888	41813.84
783.222	41750.12
783.556	41515.32
783.889	41502.67
784.223	41180.41
784.557	41188.55
784.89	41258.38
785.224	41105.84
785.557	40846.86
785.891	40791.05
786.224	40773.19
786.558	40803.25
786.891	40521.45
787.224	40462.24
787.557	40257.05
787.891	40340.89
788.224	40243.72
788.557	40052.53
788.89	40025.87
789.223	40003.27
789.556	39722.6
789.888	39582.04
790.221	39555.37
790.554	39279.45
790.887	39367.58
791.219	39308.37
791.552	39059.79
791.884	39122.39
792.217	39042.17
792.549	38965.11
792.882	38788.39
793.214	38629.3
793.546	38714.26
793.879	38587.49
794.211	38375.52
794.543	38559.69
794.875	38340.26
795.207	38544.1
795.539	38478.11
795.871	38342.52
796.203	38082.42
796.535	37872.7
796.867	37873.16
797.198	37893.04
797.53	37930.1
797.862	37569.21
798.193	37852.14
798.525	37483.34
798.856	37683.33
799.188	37336.9
799.519	37155.89
799.85	36874.09
800.182	36912.28
800.513	36993.86
800.844	36699.4
801.175	37057.58
801.506	36990.24
801.837	36743.69
802.168	36614.88
802.499	36559.74
802.83	36459.18
803.161	36433.19
803.491	36417.6
803.822	36576.69
804.153	36349.81
804.483	35971.29
804.814	35980.33
805.145	36070.04
805.475	35942.59
805.805	35882.47
806.136	35970.61
806.466	35997.95
806.796	35870.27
807.126	35674.12
807.457	35470.28
807.787	35523.16
808.117	35350.06
808.447	35438.64
808.777	35497.17
809.107	35364.3
809.436	35143.06
809.766	35180.12
810.096	35242.49
810.426	35136.05
810.755	35082.95
811.085	35070.07
811.414	35030.97
811.744	34813.12
812.073	34992.55
812.403	34814.71
812.732	34442.51
813.061	34621.04
813.39	34556.18
813.719	34592.11
814.049	34757.31
814.378	34540.81
814.707	34413.13
815.036	34520.48
815.365	34327.04
815.693	33911.23
816.022	34036.65
816.351	33972.92
816.68	33996.2
817.008	34017.66
817.337	33812.02
817.665	33722.53
817.994	33780.16
818.322	33737.9
818.651	33621.74
818.979	33555.53
819.307	33712.14
819.636	33679.59
819.964	33474.63
820.292	33693.38
820.62	33711.91
820.948	33586.72
821.276	33846.82
821.604	33577.68
821.932	33573.61
822.259	33472.82
822.587	33641.86
822.915	33638.92
823.243	33845.92
823.57	33696.77
823.898	33776.99
824.225	33632.82
824.553	33673.04
824.88	33815.64
825.207	33960.27
825.535	33925.69
825.862	34065.8
826.189	33880.04
826.516	34021.96
826.843	34180.15
827.17	34186.93
827.497	34235.51
827.824	34253.14
828.151	34263.31
828.478	34386.47
828.805	34446.81
829.131	34235.74
829.458	34173.59
829.785	34175.17
830.111	34247.26
830.438	34331.78
830.764	34280.71
831.09	34396.41
831.417	34151.9
831.743	34367.94
832.069	34462.85
832.395	34212.46
832.722	34405.68
833.048	34255.4
833.374	34425.34
833.7	34176.08
834.026	34381.27
834.351	34433.7
834.677	34438.44
835.003	34654.94
835.329	34509.63
835.654	34578.33
835.98	34330.43
836.306	34574.71
836.631	34487.03
836.956	34373.59
837.282	34472.34
837.607	34277.32
837.932	34246.81
838.258	34371.33
838.583	34265.12
838.908	34134.5
839.233	34392.57
839.558	34230.77
839.883	34112.58
840.208	34007.95
840.533	34066.7
840.858	34158
841.182	34270.77
841.507	34226.92
841.832	34039.81
842.156	34062.86
842.481	33985.8
842.805	33934.96
843.13	33898.57
843.454	33916.2
843.778	33818.12
844.103	33725.7
844.427	33657.9
844.751	33640.5
845.075	33576.55
845.399	33551.69
845.723	33456.1
846.047	33307.63
846.371	33171.36
846.695	33217.46
847.019	32883.23
847.343	32890.24
847.666	32753.74
847.99	32503.58
848.313	32746.29
848.637	32489.12
848.96	32398.27
849.284	32310.82
849.607	32086.42
849.931	32191.5
850.254	32030.82
850.577	31837.61
850.9	31768.23
851.223	31737.95
851.546	31575.24
851.869	31473.32
852.192	31696.6
852.515	31368.02
852.838	31281.69
853.161	31266.78
853.483	31072.21
853.806	31001.92
854.129	31068.36
854.451	31002.38
854.774	30937.75
855.096	30707.24
855.419	30775.26
855.741	30856.17
856.063	30470.87
856.385	30529.4
856.708	30450.08
857.03	30398.78
857.352	30563.29
857.674	30225.67
857.996	30274.49
858.318	30248.5
858.64	30312.9
858.961	30067.03
859.283	30114.94
859.605	30040.37
859.926	30181.16
860.248	29974.16
860.57	29852.35
860.891	29993.59
861.212	29711.11
861.534	29653.49
861.855	29771.67
862.176	29756.76
862.498	29854.16
862.819	29823.42
863.14	29668.63
863.461	29764.9
863.782	29606.93
864.103	29672.92
864.424	29493.72
864.745	29694.61
865.065	29411.46
865.386	29392.25
865.707	29348.18
866.027	29411.01
866.348	29432.47
866.668	29340.5
866.989	29363.78
867.309	29044.24
867.63	29264.12
867.95	29217.11
868.27	29171.46
868.59	29274.06
868.91	29298.01
869.23	29088.3
869.55	29020.51
869.87	29214.63
870.19	29087.4
870.51	29285.59
870.83	29229.32
871.15	29056.89
871.469	29122.65
871.789	29393.83
872.109	29229.54
872.428	28971.47
872.748	29198.36
873.067	29154.29
873.386	29141.18
873.706	29053.5
874.025	28924.92
874.344	28747.07
874.663	28739.84
874.982	28708.88
875.301	28839.95
875.62	28758.37
875.939	28669.78
876.258	28811.25
876.577	28792.72
876.896	28853.51
877.214	28855.99
877.533	28947.52
877.852	28808.76
878.17	28808.76
878.489	28787.52
878.807	28730.8
879.125	28684.25
879.444	28782.55
879.762	28689.9
880.08	28668.65
880.398	28528.54
880.716	28664.13
881.034	28613.06
881.352	28595.66
881.67	28609.22
881.988	28518.37
882.306	28555.21
882.624	28445.61
882.941	28294.43
883.259	28422.33
883.577	28278.83
883.894	28135.33
884.212	28042.91
884.529	28122.23
884.846	28226.86
885.164	28056.69
885.481	27879.75
885.798	28054.43
886.115	27910.71
886.432	27992.29
886.75	27875.91
887.067	27894.44
887.383	27696.25
887.7	27752.74
888.017	27731.05
888.334	27631.84
888.651	27784.61
888.967	27674.78
889.284	27488.12
889.6	27532.64
889.917	27279.76
890.233	27378.52
890.55	27359.53
890.866	27417.39
891.182	27353.89
891.498	27370.61
891.815	27303.72
892.131	27142.82
892.447	27005.87
892.763	26867.57
893.079	26881.36
893.395	26826.67
893.71	26842.03
894.026	26859.66
894.342	26771.53
894.657	26614.02
894.973	26722.94
895.289	26511.87
895.604	26631.19
895.92	26363.63
896.235	26293.35
896.55	26364.08
896.865	26251.32
897.181	26189.62
897.496	26145.56
897.811	26079.79
898.126	26050.87
898.441	25997.99
898.756	25976.75
899.071	25793.47
899.386	25833.7
899.7	25670.09
900.015	25630.54
900.33	25375.63
900.644	25352.13
900.959	25250.66
901.273	25227.16
901.588	25296.09
901.902	25241.85
902.216	25235.97
902.531	25164.34
902.845	25135.86
903.159	25055.19
903.473	25089.31
903.787	24838.25
904.101	24751.92
904.415	24814.74
904.729	24706.72
905.042	24476.45
905.356	24281.42
905.67	24268.54
905.984	24305.83
906.297	24082.11
906.611	24055.89
906.924	24031.49
907.237	24033.75
907.551	23911.26
907.864	23859.74
908.177	23922.11
908.491	23763.7
908.804	23802.79
909.117	23502.69
909.43	23658.16
909.743	23584.49
910.056	23516.02
910.368	23386.31
910.681	23240.1
910.994	23145.41
911.307	23172.3
911.619	22991.29
911.932	22959.88
912.244	22729.6
912.557	22794.91
912.869	22795.81
913.181	22698.87
913.494	22719.88
913.806	22476.95
914.118	22412.77
914.43	22281.7
914.742	22378.42
915.054	22361.25
915.366	22170.29
915.678	22081.48
915.99	21902.96
916.302	21847.14
916.613	21705.45
916.925	21655.05
917.236	21719.68
917.548	21585.68
917.859	21536.86
918.171	21399.69
918.482	21223.88
918.794	21324.21
919.105	21414.61
919.416	21163.77
919.727	21069.08
920.038	21108.4
920.349	20950.21
920.66	20945.47
920.971	21003.54
921.282	20910.21
921.593	20698.02
921.903	20612.59
922.214	20620.05
922.525	20391.58
922.835	20326.05
923.146	20219.38
923.456	20270.46
923.767	20219.16
924.077	20225.26
924.387	20130.8
924.697	19971.03
925.008	20016.45
925.318	19825.5
925.628	19781.2
925.938	19731.26
926.248	19733.97
926.558	19600.42
926.867	19666.4
927.177	19420.08
927.487	19421.44
927.796	19273.87
928.106	19291.72
928.416	19131.28
928.725	19202.46
929.034	19084.05
929.344	19090.83
929.653	18982.35
929.962	18983.03
930.271	18858.52
930.581	18828.01
930.89	18783.49
931.199	18700.78
931.508	18576.49
931.817	18491.52
932.125	18389.6
932.434	18428.7
932.743	18200.91
933.051	18232.32
933.36	18132.66
933.669	18045.66
933.977	17953
934.286	17912.1
934.594	17886.56
934.902	17853.34
935.21	17866.45
935.519	17783.29
935.827	17687.7
936.135	17647.02
936.443	17437.99
936.751	17501.49
937.059	17378.78
937.367	17316.18
937.674	17353.7
937.982	17286.13
938.29	17223.53
938.597	17269.86
938.905	17024.21
939.213	17060.14
939.52	16925.01
939.827	16986.02
940.135	16858.57
940.442	16761.17
940.749	16678.69
941.056	16705.35
941.363	16492.93
941.67	16653.6
941.977	16562.98
942.284	16417.68
942.591	16393.27
942.898	16235.08
943.205	16176.1
943.511	16066.27
943.818	16010.45
944.125	15944.92
944.431	15931.59
944.738	15926.16
945.044	15914.86
945.35	15767.3
945.657	15669.67
945.963	15631.71
946.269	15480.07
946.575	15494.76
946.881	15404.59
947.187	15373.18
947.493	15354.88
947.799	15224.71
948.105	15152.17
948.41	15112.85
948.716	15141.55
949.022	15047.32
949.327	15039.86
949.633	14805.06
949.938	14871.95
950.244	14858.85
950.549	14677.83
950.854	14717.38
951.16	14735.69
951.465	14657.27
951.77	14529.36
952.075	14457.95
952.38	14454.79
952.685	14396.94
952.99	14274.46
953.294	14303.61
953.599	14186.77
953.904	14147
954.209	14006.89
954.513	14095.7
954.818	14051.86
955.122	13964.41
955.426	14005.76
955.731	13863.84
956.035	13806.67
956.339	13723.06
956.643	13768.48
956.948	13644.87
957.252	13587.92
957.556	13731.87
957.86	13540.01
958.163	13527.36
958.467	13338.21
958.771	13384.99
959.075	13245.1
959.378	13310.64
959.682	13238.32
959.985	13169.85
960.289	13106.35
960.592	13082.4
960.896	12923.53
961.199	13018.89
961.502	12994.04
961.805	12929.63
962.108	12729.86
962.411	12715.85
962.714	12741.61
963.017	12684.89
963.32	12710.43
963.623	12507.95
963.926	12585.23
964.228	12556.76
964.531	12468.17
964.833	12441.51
965.136	12323.55
965.438	12292.36
965.741	12276.32
966.043	12154.96
966.345	12085.13
966.648	12093.27
966.95	12069.54
967.252	11949.32
967.554	11962.88
967.856	11874.52
968.158	11845.59
968.46	11807.18
968.761	11783.67
969.063	11743.9
969.365	11688.99
969.666	11619.61
969.968	11504.13
970.269	11416.9
970.571	11423
970.872	11422.78
971.174	11343.68
971.475	11326.06
971.776	11302.1
972.077	11317.92
972.378	11269.34
972.679	11195.44
972.98	11149.11
973.281	11079.74
973.582	11080.64
973.883	10976.46
974.183	10884.71
974.484	10940.31
974.785	10891.95
975.085	10824.6
975.386	10811.72
975.686	10748.9
975.986	10648.79
976.287	10608.79
976.587	10546.64
976.887	10553.65
977.187	10557.26
977.487	10563.14
977.787	10477.27
978.087	10468
978.387	10415.8
978.687	10344.39
978.987	10301.23
979.286	10157.28
979.586	10183.26
979.885	10083.38
980.185	10096.71
980.484	10013.1
980.784	9945.98
981.083	9930.16
981.382	9892.88
981.682	9914.12
981.981	9830.28
982.28	9776.49
982.579	9697.63
982.878	9701.24
983.177	9654.01
983.475	9625.99
983.774	9599.55
984.073	9583.05
984.372	9493.79
984.67	9569.49
984.969	9560.23
985.267	9430.06
985.566	9365.88
985.864	9397.97
986.162	9398.65
986.461	9254.25
986.759	9318.43
987.057	9191.65
987.355	9102.84
987.653	9169.05
987.951	9149.84
988.249	9074.59
988.547	9059.45
988.844	8970.19
989.142	8932
989.44	8890.19
989.737	8880.92
990.035	8775.84
990.332	8836.63
990.63	8775.16
990.927	8714.38
991.224	8645.22
991.521	8636.64
991.819	8523.87
992.116	8527.71
992.413	8497.66
992.71	8439.13
993.006	8383.76
993.303	8356.19
993.6	8407.72
993.897	8349.87
994.193	8289.98
994.49	8209.53
994.787	8173.82
995.083	8143.09
995.379	8096.99
995.676	8056.31
995.972	8035.52
996.268	7970.89
996.565	7955.53
996.861	7918.46
997.157	7894.74
997.453	7826.04
997.749	7682.54
998.044	7810.44
998.34	7756.21
998.636	7727.51
998.932	7692.48
999.227	7567.29
999.523	7632.82
999.818	7571.13
1000.114	7507.63
1000.409	7393.96
1000.704	7385.6
1001	7346.28
1001.295	7316.9
1001.59	7247.52
1001.885	7228.54
1002.18	7187.86
1002.475	7107.86
1002.77	7073.97
1003.065	7080.29
1003.359	7004.36
1003.654	7015.44
1003.949	6938.6
1004.243	6920.75
1004.538	6916.46
1004.832	6884.37
1005.127	6809.79
1005.421	6801.88
1005.715	6735.9
1006.009	6712.17
1006.304	6595.11
1006.598	6543.36
1006.892	6588.78
1007.186	6498.39
1007.48	6509.91
1007.773	6464.49
1008.067	6466.3
1008.361	6377.71
1008.655	6376.81
1008.948	6266.3
1009.242	6287.55
1009.535	6280.32
1009.829	6216.59
1010.122	6220.88
1010.415	6155.8
1010.708	6117.61
1011.001	6030.38
1011.295	6006.42
1011.588	5942.47
1011.881	5916.71
1012.173	5814.11
1012.466	5904.73
1012.759	5832.64
1013.052	5851.85
1013.344	5745.64
1013.637	5738.86
1013.93	5691.86
1014.222	5654.79
1014.514	5604.17
1014.807	5569.15
1015.099	5567.57
1015.391	5575.47
1015.683	5509.94
1015.976	5483.27
1016.268	5397.63
1016.56	5397.4
1016.851	5343.16
1017.143	5323.05
1017.435	5238.31
1017.727	5282.15
1018.018	5246.9
1018.31	5181.36
1018.602	5153.34
1018.893	5057.07
1019.185	5069.95
1019.476	5004.64
1019.767	4943.85
1020.058	4957.64
1020.35	4940.24
1020.641	4835.83
1020.932	4811.43
1021.223	4800.81
1021.514	4777.98
1021.804	4754.25
1022.095	4726.46
1022.386	4647.59
1022.677	4589.29
1022.967	4637.42
1023.258	4560.13
1023.548	4522.17
1023.839	4540.7
1024.129	4509.51
1024.419	4501.6
1024.709	4421.83
1025	4390.2
1025.29	4364.89
1025.58	4347.03
1025.87	4286.7
1026.16	4276.53
1026.449	4212.35
1026.739	4202.86
1027.029	4166.02
1027.319	4145.46
1027.608	4096.19
1027.898	4078.34
1028.187	4046.93
1028.477	4025.23
1028.766	3970.55
1029.055	3933.26
1029.344	3944.56
1029.634	3876.99
1029.923	3843.09
1030.212	3863.2
1030.501	3832.92
1030.79	3778.91
1031.078	3742.98
1031.367	3714.51
1031.656	3707.05
1031.945	3695.75
1032.233	3655.3
1032.522	3596.77
1032.81	3571.69
1033.099	3560.16
1033.387	3553.38
1033.675	3495.76
1033.963	3450.11
1034.251	3453.27
1034.54	3440.62
1034.828	3409.43
1035.116	3394.74
1035.403	3360.39
1035.691	3323.78
1035.979	3314.52
1036.267	3284.01
1036.554	3237.23
1036.842	3212.15
1037.129	3198.81
1037.417	3172.15
1037.704	3120.17
1037.992	3122.88
1038.279	3075.2
1038.566	3073.62
1038.853	3073.62
1039.14	3073.62
