Data from copper_heatsink_FLMS001491_092.txt Node
Date: Tue Feb 07 10:50:52 GMT 2017
User: dcchb
Spectrometer: FLMS00149
Trigger mode: 0
Integration Time (sec): 2.000000E-2
Scans to average: 10
Electric dark correction enabled: true
Nonlinearity correction enabled: false
Boxcar width: 0
XAxis mode: Wavelengths
Number of Pixels in Spectrum: 2048
>>>>>Begin Spectral Data<<<<<
341.393	-23.93
341.776	-23.93
342.16	-23.93
342.543	-65.05
342.927	-58.05
343.31	-94.66
343.693	-69.12
344.077	-58.73
344.46	-51.72
344.843	-51.5
345.226	-31.84
345.61	-13.98
345.993	-23.47
346.376	0.48
346.759	0.25
347.142	24.89
347.525	40.71
347.908	57.43
348.291	77.31
348.674	75.96
349.057	117.99
349.44	126.8
349.823	151.21
350.206	176.75
350.588	204.32
350.971	213.58
351.354	237.08
351.737	254.26
352.119	264.65
352.502	267.59
352.884	300.36
353.267	264.65
353.65	288.38
354.032	295.16
354.414	284.54
354.797	336.74
355.179	345.33
355.562	327.93
355.944	350.08
356.326	313.69
356.709	338.78
357.091	340.13
357.473	322.96
357.855	326.35
358.238	332.22
358.62	340.13
359.002	322.73
359.384	332.9
359.766	340.36
360.148	347.14
360.53	341.94
360.912	336.74
361.294	351.88
361.676	336.97
362.057	360.47
362.439	332.22
362.821	342.39
363.203	347.36
363.584	327.48
363.966	324.77
364.348	333.58
364.729	325.67
365.111	332.45
365.493	332.45
365.874	312.34
366.256	332.67
366.637	315.5
367.019	304.88
367.4	336.06
367.781	333.58
368.163	312.79
368.544	309.4
368.925	313.47
369.306	342.39
369.688	333.58
370.069	300.81
370.45	322.73
370.831	296.97
371.212	323.41
371.593	325.22
371.974	315.5
372.355	305.78
372.736	315.05
373.117	317.99
373.498	332.45
373.879	348.04
374.26	326.8
374.641	298.33
375.021	324.99
375.402	314.6
375.783	334.93
376.163	333.35
376.544	330.87
376.925	346.46
377.305	316.4
377.686	348.04
378.066	336.74
378.447	351.88
378.827	315.5
379.208	365.44
379.588	353.24
379.968	322.28
380.349	360.47
380.729	342.39
381.109	346.69
381.489	362.5
381.87	347.36
382.25	351.43
382.63	361.15
383.01	358.89
383.39	360.02
383.77	335.61
384.15	348.72
384.53	366.57
384.91	358.66
385.29	355.73
385.67	367.48
386.049	356.4
386.429	357.98
386.809	344.88
387.189	374.03
387.568	368.83
387.948	372.22
388.328	358.66
388.707	380.36
389.087	367.25
389.466	373.58
389.846	386.46
390.225	367.7
390.605	367.93
390.984	379
391.363	384.65
391.743	395.72
392.122	395.5
392.501	395.5
392.881	392.79
393.26	386.68
393.639	396.85
394.018	402.5
394.397	394.37
394.776	390.3
395.155	402.96
395.534	378.55
395.913	391.66
396.292	394.14
396.671	400.24
397.05	432.56
397.429	416.51
397.808	411.54
398.186	422.62
398.565	404.31
398.944	412.67
399.323	407.7
399.701	423.07
400.08	417.64
400.458	424.42
400.837	420.58
401.215	409.06
401.594	437.98
401.972	418.77
402.351	425.33
402.729	453.12
403.107	442.05
403.486	429.62
403.864	449.51
404.242	439.11
404.62	435.27
404.999	436.85
405.377	442.5
405.755	428.04
406.133	454.93
406.511	438.66
406.889	450.41
407.267	453.8
407.645	469.85
408.023	464.2
408.401	471.2
408.779	454.03
409.156	478.21
409.534	463.52
409.912	475.27
410.29	474.82
410.667	499.22
411.045	476.4
411.422	498.09
411.8	509.85
412.178	501.03
412.555	485.89
412.933	503.52
413.31	493.8
413.687	508.04
414.065	503.29
414.442	479.34
414.819	537.87
415.197	506.23
415.574	522.95
415.951	523.63
416.328	501.26
416.705	523.86
417.082	543.52
417.46	514.59
417.837	520.47
418.214	529.51
418.591	538.32
418.967	548.04
419.344	532.9
419.721	563.63
420.098	542.84
420.475	559.56
420.852	576.96
421.228	561.6
421.605	542.16
421.982	560.69
422.358	570.41
422.735	555.72
423.111	586.91
423.488	595.27
423.864	575.38
424.241	605.21
424.617	568.83
424.994	582.39
425.37	571.09
425.746	600.24
426.123	614.25
426.499	592.33
426.875	638.2
427.251	613.12
427.627	619.67
428.003	629.84
428.379	618.77
428.756	603.63
429.132	641.82
429.507	638.2
429.883	637.75
430.259	637.53
430.635	681.14
431.011	672.78
431.387	680.46
431.763	694.47
432.138	671.65
432.514	682.04
432.89	684.3
433.265	687.02
433.641	689.28
434.016	719.56
434.392	706
434.767	726.56
435.143	706.68
435.518	722.27
435.894	744.87
436.269	730.4
436.644	720.01
437.02	750.74
437.395	745.32
437.77	745.55
438.145	781.48
438.52	771.53
438.895	786.22
439.271	786.9
439.646	766.79
440.021	805.43
440.395	792.78
440.77	788.26
441.145	802.72
441.52	809.27
441.895	797.97
442.27	807.01
442.645	800.23
443.019	817.63
443.394	815.37
443.769	834.58
444.143	831.19
444.518	827.58
444.892	841.36
445.267	857.18
445.641	839.55
446.016	843.4
446.39	863.51
446.764	842.72
447.139	888.37
447.513	861.7
447.887	877.75
448.262	875.03
448.636	895.15
449.01	903.51
449.384	889.72
449.758	890.85
450.132	887.24
450.506	925.65
450.88	892.89
451.254	901.25
451.628	935.14
452.002	922.72
452.376	955.26
452.75	961.58
453.123	947.57
453.497	948.7
453.871	940.57
454.244	955.94
454.618	987.35
454.992	1009.04
455.365	1005.65
455.739	1029.38
456.112	1012.88
456.486	1034.13
456.859	1024.86
457.232	1044.29
457.606	1065.31
457.979	1048.59
458.352	1073.67
458.725	1057.63
459.099	1065.76
459.472	1127.46
459.845	1139.21
460.218	1127.46
460.591	1125.42
460.964	1115.03
461.337	1167.68
461.71	1181.01
462.083	1182.37
462.456	1171.07
462.829	1203.61
463.201	1245.65
463.574	1201.58
463.947	1237.28
464.32	1282.71
464.692	1276.15
465.065	1286.55
465.438	1296.72
465.81	1314.12
466.183	1332.42
466.555	1351.63
466.928	1337.17
467.3	1362.93
467.672	1376.04
468.045	1392.08
468.417	1393.44
468.789	1377.17
469.161	1431.4
469.534	1452.87
469.906	1461.46
470.278	1492.19
470.65	1486.54
471.022	1515.69
471.394	1531.51
471.766	1548.01
472.138	1569.7
472.51	1574
472.882	1633.66
473.253	1627.78
473.625	1681.11
473.997	1699.64
474.369	1704.39
474.74	1741.45
475.112	1725.86
475.484	1773.99
475.855	1804.5
476.227	1821
476.598	1854.89
476.97	1870.71
477.341	1889.92
477.713	1932.18
478.084	1919.53
478.455	1979.64
478.827	1976.47
479.198	2044.95
479.569	2066.19
479.94	2103.7
480.311	2109.35
480.682	2141.21
481.053	2191.16
481.424	2225.51
481.795	2270.03
482.166	2307.09
482.537	2297.37
482.908	2357.03
483.279	2383.47
483.65	2407.87
484.021	2439.29
484.391	2464.6
484.762	2532.17
485.133	2553.63
485.503	2593.86
485.874	2629.34
486.244	2636.57
486.615	2711.82
486.985	2750.46
487.356	2767.87
487.726	2807.64
488.097	2846.96
488.467	2874.53
488.837	2934.87
489.207	2931.48
489.578	2995.43
489.948	2984.58
490.318	3077.01
490.688	3044.69
491.058	3118.59
491.428	3135.54
491.798	3201.75
492.168	3221.41
492.538	3259.15
492.908	3254.41
493.278	3321.75
493.648	3314.07
494.017	3388.64
494.387	3422.31
494.757	3447.4
495.126	3478.58
495.496	3511.35
495.866	3543.66
496.235	3559.26
496.605	3599.71
496.974	3611.23
497.344	3672.47
497.713	3687.16
498.082	3708.63
498.452	3769.19
498.821	3745.69
499.19	3752.25
499.559	3847.61
499.928	3857.55
500.298	3892.36
500.667	3919.47
501.036	3909.53
501.405	3993.37
501.774	3992.24
502.143	4049.87
502.512	4035.63
502.88	4021.39
503.249	4112.69
503.618	4147.04
503.987	4143.87
504.356	4192.46
504.724	4202.86
505.093	4229.97
505.462	4224.1
505.83	4309.97
506.199	4305.9
506.567	4406.92
506.936	4387.26
507.304	4441.49
507.672	4436.97
508.041	4496.18
508.409	4486.01
508.777	4523.07
509.145	4614.82
509.514	4561.72
509.882	4627.93
510.25	4672.9
510.618	4697.31
510.986	4721.26
511.354	4746.34
511.722	4797.64
512.09	4828.6
512.458	4890.75
512.826	4930.07
513.193	4923.29
513.561	5006.22
513.929	5060.01
514.297	5008.94
514.664	5144.75
515.032	5138.2
515.4	5201.02
515.767	5238.76
516.135	5229.5
516.502	5253.22
516.869	5297.52
517.237	5318.76
517.604	5375.25
517.972	5425.65
518.339	5447.12
518.706	5469.04
519.073	5548.36
519.44	5552.88
519.808	5599.2
520.175	5636.49
520.542	5755.81
520.909	5779.99
521.276	5739.99
521.643	5823.6
522.009	5858.41
522.376	5952.87
522.743	5966.88
523.11	6095.01
523.477	6097.72
523.843	6166.87
524.21	6207.55
524.577	6261.56
524.943	6292.52
525.31	6361.89
525.676	6433.98
526.043	6487.99
526.409	6507.65
526.776	6485.28
527.142	6581.1
527.508	6672.62
527.874	6734.09
528.241	6718.27
528.607	6749.91
528.973	6838.94
529.339	6843.46
529.705	6930.24
530.071	7029
530.437	7053.63
530.803	7035.1
531.169	7158.26
531.535	7130.69
531.901	7180.4
532.267	7230.35
532.632	7304.24
532.998	7325.26
533.364	7404.13
533.73	7423.56
534.095	7471.47
534.461	7495.42
534.826	7572.71
535.192	7690.9
535.557	7672.82
535.923	7683.89
536.288	7758.47
536.653	7798.02
537.019	7791.69
537.384	7922.76
537.749	7952.14
538.114	7960.5
538.479	8028.07
538.845	8072.36
539.21	8064.22
539.575	8082.98
539.94	8114.62
540.305	8211.34
540.67	8207.5
541.034	8335.18
541.399	8345.57
541.764	8416.3
542.129	8425.57
542.494	8489.52
542.858	8485.45
543.223	8597.77
543.587	8700.82
543.952	8681.16
544.316	8732.45
544.681	8733.13
545.045	8755.05
545.41	8859.46
545.774	8886.35
546.138	8906.91
546.503	9008.38
546.867	9093.35
547.231	9138.77
547.595	9155.49
547.959	9218.77
548.324	9263.97
548.688	9306.45
549.052	9425.09
549.416	9468.48
549.779	9487.46
550.143	9477.07
550.507	9616.95
550.871	9668.7
551.235	9682.71
551.599	9884.06
551.962	9874.8
552.326	9966.55
552.689	10063.94
553.053	10023.27
553.417	10171.74
553.78	10316.37
554.143	10307.33
554.507	10346.87
554.87	10412.64
555.234	10559.07
555.597	10572.86
555.96	10715.68
556.323	10733.53
556.686	10866.41
557.05	11025.28
557.413	11037.93
557.776	11157.7
558.139	11182.33
558.502	11322.67
558.865	11418.71
559.228	11505.94
559.59	11606.73
559.953	11704.81
560.316	11878.36
560.679	11903.22
561.041	11985.7
561.404	12112.93
561.767	12286.26
562.129	12306.15
562.492	12489.64
562.854	12603.76
563.217	12656.19
563.579	12791.33
563.941	12925.34
564.304	13139.8
564.666	13217.31
565.028	13297.98
565.39	13425.21
565.753	13605.09
566.115	13761.02
566.477	13803.73
566.839	13873.56
567.201	14089.38
567.563	14066.1
567.925	14374.57
568.287	14476.26
568.648	14525.97
569.01	14724.61
569.372	14828.34
569.734	14830.82
570.095	15083.25
570.457	15268.33
570.819	15313.07
571.18	15435.55
571.542	15504.25
571.903	15719.39
572.265	15852.94
572.626	15942.21
572.987	16014.07
573.349	16164.12
573.71	16278.7
574.071	16448.41
574.432	16627.84
574.794	16741.51
575.155	16899.47
575.516	16894.05
575.877	17014.27
576.238	17169.07
576.599	17387.14
576.96	17484.31
577.32	17518.89
577.681	17641.6
578.042	17804.76
578.403	17811.99
578.763	17961.82
579.124	18003.62
579.485	18272.77
579.845	18284.52
580.206	18380.11
580.566	18408.81
580.927	18541.69
581.287	18570.39
581.648	18680.22
582.008	18817.39
582.368	18868.46
582.728	18949.81
583.089	19057.83
583.449	19064.16
583.809	19252.4
584.169	19229.81
584.529	19282.01
584.889	19573.07
585.249	19564.03
585.609	19633.64
585.969	19712.28
586.329	19743.69
586.688	19847.64
587.048	19901.65
587.408	19914.98
587.768	20022.78
588.127	20032.72
588.487	20091.93
588.846	20342.32
589.206	20261.42
589.565	20377.8
589.925	20445.37
590.284	20440.62
590.643	20585.25
591.003	20631.12
591.362	20777.56
591.721	20747.51
592.08	20818.92
592.44	20920.38
592.799	21081.96
593.158	21119.92
593.517	21143.2
593.876	21219.13
594.235	21125.8
594.593	21250.99
594.952	21370.99
595.311	21410.76
595.67	21565.56
596.029	21578.9
596.387	21643.75
596.746	21750.19
597.104	21607.82
597.463	21757.2
597.822	21888.94
598.18	21750.42
598.538	21984.31
598.897	22174.13
599.255	22018.43
599.613	22359.89
599.972	22222.27
600.33	22371.19
600.688	22277.18
601.046	22504.07
601.404	22689.83
601.762	22572.99
602.12	22755.81
602.478	22733.89
602.836	22871.52
603.194	22743.84
603.552	22913.1
603.91	22915.81
604.268	23001.46
604.625	22975.24
604.983	23155.35
605.341	23024.73
605.698	23283.71
606.056	23449.36
606.413	23387.89
606.771	23443.25
607.128	23600.99
607.485	23490.26
607.843	23557.37
608.2	23805.5
608.557	23991.49
608.914	23724.15
609.272	24062.9
609.629	24167.98
609.986	24235.55
610.343	24116.46
610.7	24357.81
611.057	24262.89
611.414	24463.11
611.771	24443.91
612.127	24748.08
612.484	24521.87
612.841	24865.59
613.198	24661.53
613.554	24802.54
613.911	24984.68
614.267	24956.66
614.624	24989.88
614.98	25004.12
615.337	25321.4
615.693	25252.25
616.05	25225.58
616.406	25402.52
616.762	25321.17
617.118	25393.26
617.475	25534.27
617.831	25673.03
618.187	25669.41
618.543	25723.42
618.899	25924.32
619.255	25948.5
619.611	26001.15
619.967	25881.83
620.323	26146.46
620.678	26081.38
621.034	26016.52
621.39	26124.77
621.746	26132.22
622.101	26531.53
622.457	26266
622.812	26329.96
623.168	26337.64
623.523	26401.59
623.879	26569.95
624.234	26390.29
624.589	26535.38
624.945	26593
625.3	26660.12
625.655	26628.48
626.01	26636.84
626.365	26710.29
626.72	26770.62
627.075	26760
627.43	26669.61
627.785	26662.15
628.14	26874.58
628.495	26883.39
628.85	26928.81
629.205	27003.39
629.559	27033.44
629.914	26920
630.269	27038.87
630.623	27055.14
630.978	27005.19
631.332	27087
631.687	27159.31
632.041	26987.79
632.396	27207.22
632.75	27074.8
633.104	27192.31
633.459	27169.71
633.813	27146.21
634.167	27309.82
634.521	27180.33
634.875	27263.94
635.229	27107.79
635.583	27149.82
635.937	27100.78
636.291	27062.14
636.645	27127.22
636.999	27112.31
637.352	27232.08
637.706	26998.19
638.06	27273.89
638.413	27154.79
638.767	27116.15
639.121	27348.46
639.474	27145.08
639.828	27280.67
640.181	27145.76
640.534	27254.68
640.888	27190.27
641.241	27103.27
641.594	27208.58
641.947	27336.48
642.301	27330.84
642.654	27325.41
643.007	27416.48
643.36	27333.55
643.713	27298.07
644.066	27345.98
644.419	27211.29
644.771	27014.01
645.124	26887.23
645.477	26758.19
645.83	26585.54
646.182	26582.61
646.535	26513
646.888	26710.51
647.24	26563.4
647.593	26703.28
647.945	26747.8
648.298	26623.51
648.65	26732.21
649.002	26668.48
649.355	26581.25
649.707	26532.66
650.059	26533.12
650.411	26930.39
650.763	27135.36
651.115	27354.56
651.467	27350.72
651.819	27269.14
652.171	27286.09
652.523	27167.68
652.875	27263.27
653.227	27168.13
653.578	27403.38
653.93	27350.04
654.282	27218.3
654.633	27200.67
654.985	27277.96
655.337	27297.62
655.688	27303.72
656.039	27360.44
656.391	27173.33
656.742	27314.56
657.094	27362.47
657.445	27546.42
657.796	27430.72
658.147	27411.74
658.498	27328.12
658.849	27409.93
659.2	27357.28
659.551	27244.74
659.902	27377.39
660.253	27237.05
660.604	27424.17
660.955	27147.11
661.306	27469.59
661.656	27339.65
662.007	27491.51
662.358	27542.35
662.708	27518.85
663.059	27561.34
663.409	27328.35
663.76	27646.76
664.11	27587.33
664.461	27650.6
664.811	27618.74
665.161	27599.3
665.511	27576.48
665.862	27841.78
666.212	27742.8
666.562	27824.16
666.912	27656.25
667.262	27739.41
667.612	27824.61
667.962	27804.27
668.312	27774.89
668.662	27931.05
669.011	27839.75
669.361	27811.95
669.711	27900.99
670.06	27841.78
670.41	27684.27
670.76	27659.41
671.109	27845.17
671.459	27837.26
671.808	27699.19
672.157	27881.56
672.507	27664.61
672.856	27688.34
673.205	27784.38
673.554	28030.93
673.904	27887.2
674.253	28037.03
674.602	27934.66
674.951	27595.69
675.3	27568.34
675.649	27903.02
675.998	27952.29
676.346	28009.69
676.695	27966.3
677.044	27896.92
677.393	27901.22
677.741	28008.33
678.09	28059.4
678.438	27986.19
678.787	28071.15
679.135	27928.79
679.484	27841.33
679.832	27924.27
680.181	27768.11
680.529	27812.86
680.877	27895.57
681.225	27880.43
681.573	27910.03
681.922	27735.57
682.27	27818.28
682.618	27771.28
682.966	27695.35
683.314	27682.69
683.661	27720.66
684.009	27495.8
684.357	27562.92
684.705	27618.74
685.053	27703.03
685.4	27673.2
685.748	27480.44
686.095	27505.52
686.443	27397.95
686.79	27563.37
687.138	27442.92
687.485	27394.34
687.832	27471.4
688.18	27436.37
688.527	27339.87
688.874	27285.19
689.221	27209.48
689.568	27191.86
689.915	27230.05
690.262	27288.58
690.609	27063.05
690.956	27025.53
691.303	26945.99
691.65	26821.92
691.997	26913.44
692.344	26886.55
692.69	26768.14
693.037	26825.76
693.383	26527.47
693.73	26730.4
694.077	26553.23
694.423	26496.96
694.769	26603.62
695.116	26566.34
695.462	26464.42
695.808	26442.72
696.155	26378.09
696.501	26317.75
696.847	26350.3
697.193	26215.84
697.539	26374.7
697.885	26041.15
698.231	25993.7
698.577	26102.39
698.923	26080.47
699.269	25930.65
699.614	25842.29
699.96	25887.26
700.306	25934.04
700.651	25786.24
700.997	25722.74
701.342	25824.89
701.688	25813.81
702.033	25724.1
702.379	25668.51
702.724	25632.57
703.069	25597.32
703.415	25279.14
703.76	25362.98
704.105	25438.46
704.45	25325.46
704.795	25178.8
705.14	25158.01
705.485	25332.92
705.83	25182.64
706.175	25161.4
706.52	25088.86
706.865	24996.43
707.209	24980.61
707.554	24927.73
707.899	24987.39
708.243	24812.71
708.588	24836.21
708.932	24657.91
709.277	24654.52
709.621	24800.05
709.966	24675.76
710.31	24755.76
710.654	24405.71
710.998	24524.13
711.342	24609.1
711.687	24489.78
712.031	24459.05
712.375	24283.23
712.719	24318.48
713.063	24395.32
713.407	24400.74
713.75	24294.08
714.094	24245.04
714.438	24234.65
714.782	24266.73
715.125	24186.51
715.469	24263.57
715.812	24006.18
716.156	23933.41
716.499	23898.38
716.843	24070.13
717.186	23718.05
717.53	23881.89
717.873	23893.86
718.216	23937.03
718.559	23870.14
718.902	23822.68
719.246	23847.76
719.589	23948.55
719.932	23633.98
720.275	23754.21
720.617	23729.35
720.96	23810.7
721.303	23743.81
721.646	23815
721.989	23704.72
722.331	23621.1
722.674	23555.12
723.016	23653.87
723.359	23605.28
723.701	23607.32
724.044	23398.51
724.386	23416.36
724.729	23504.49
725.071	23290.26
725.413	23432.86
725.755	23414.1
726.097	23465.4
726.439	23333.2
726.782	23463.37
727.124	23401.9
727.465	23302.92
727.807	23308.12
728.149	23259.76
728.491	23330.71
728.833	23297.72
729.175	23298.85
729.516	23194.9
729.858	23136.6
730.199	23180.21
730.541	23247.78
730.882	23125.07
731.224	23272.64
731.565	23137.72
731.906	23083.94
732.248	23085.52
732.589	22959.88
732.93	23094.11
733.271	23085.75
733.612	23078.74
733.953	23118.97
734.294	23025.64
734.635	22898.41
734.976	23026.99
735.317	22856.38
735.658	22901.57
735.999	22932.76
736.339	22810.05
736.68	22962.59
737.021	22787.23
737.361	22674.69
737.702	22811.18
738.042	22847.56
738.383	22711.3
738.723	22796.27
739.063	22675.14
739.404	22707
739.744	22700.67
740.084	22614.12
740.424	22760.11
740.764	22651.64
741.104	22939.76
741.444	22636.95
741.784	22597.63
742.124	22675.36
742.464	22674.69
742.804	22657.96
743.143	22634.69
743.483	22620.9
743.823	22422.94
744.162	22412.32
744.502	22468.82
744.841	22371.42
745.181	22551.98
745.52	22475.82
745.86	22434.92
746.199	22383.39
746.538	22263.4
746.877	22360.57
747.216	22329.38
747.556	22293
747.895	22292.32
748.234	22204.64
748.573	22217.3
748.911	22198.31
749.25	22178.43
749.589	22057.98
749.928	22076.74
750.267	22166.68
750.605	22015.49
750.944	22045.32
751.283	21895.27
751.621	22035.83
751.96	21874.71
752.298	21841.49
752.636	21944.54
752.975	21798.78
753.313	21789.74
753.651	21813.01
753.989	21647.14
754.327	21672.68
754.666	21631.55
755.004	21665.45
755.342	21686.46
755.679	21746.12
756.017	21560.59
756.355	21596.97
756.693	21567.14
757.031	21562.85
757.368	21373.25
757.706	21350.2
758.044	21343.87
758.381	21458.9
758.719	21227.94
759.056	21366.02
759.394	21296.19
759.731	21054.62
760.068	20981.4
760.405	21083.54
760.743	20991.57
761.08	21015.75
761.417	21046.25
761.754	20855.3
762.091	20951.34
762.428	20804.45
762.765	20765.13
763.102	20917.9
763.438	20725.13
763.775	20588.64
764.112	20765.81
764.449	20733.27
764.785	20591.8
765.122	20428.19
765.458	20401.3
765.795	20343.9
766.131	20310.91
766.467	20221.64
766.804	20081.53
767.14	20047.86
767.476	19961.31
767.812	20018.94
768.148	20038.82
768.485	19933.74
768.821	19833.63
769.157	19895.55
769.492	19855.33
769.828	19812.61
770.164	19610.81
770.5	19611.49
770.836	19653.75
771.171	19519.52
771.507	19440.42
771.842	19404.94
772.178	19258.05
772.513	19329.01
772.849	19388.9
773.184	19257.83
773.519	19322.01
773.855	19223.48
774.19	19064.84
774.525	19034.78
774.86	19035.23
775.195	18955.91
775.53	18911.4
775.865	18779.87
776.2	18708.46
776.535	18506.43
776.87	18514.8
777.205	18495.81
777.539	18317.96
777.874	18452.42
778.209	18270.28
778.543	18359.55
778.878	18184.86
779.212	18214.24
779.547	18146.44
779.881	18236.38
780.215	18082.72
780.55	18116.61
780.884	18141.47
781.218	18032.77
781.552	17980.35
781.886	17879.33
782.22	17734.7
782.554	17809.5
782.888	17599.34
783.222	17564.99
783.556	17524.99
783.889	17487.7
784.223	17437.31
784.557	17407.93
784.89	17431.66
785.224	17289.74
785.557	17310.08
785.891	17290.2
786.224	17153.7
786.558	17126.13
786.891	17113.7
787.224	17039.81
787.557	16973.82
787.891	16852.69
788.224	16920.04
788.557	16937.89
788.89	16935.18
789.223	16851.34
789.556	16711.91
789.888	16633.94
790.221	16588.07
790.554	16502.19
790.887	16435.75
791.219	16423.33
791.552	16424.46
791.884	16338.36
792.217	16337
792.549	16278.47
792.882	16150.11
793.214	16228.08
793.546	16186.5
793.879	16055.88
794.211	15944.92
794.543	16029.21
794.875	16017.46
795.207	16072.37
795.539	15965.48
795.871	15910.57
796.203	15820.63
796.535	15705.15
796.867	15727.3
797.198	15560.3
797.53	15620.41
797.862	15577.7
798.193	15574.31
798.525	15546.74
798.856	15589.9
799.188	15384.93
799.519	15306.52
799.85	15325.5
800.182	15313.07
800.513	15272.17
800.844	15229.91
801.175	15295.9
801.506	15249.8
801.837	15133.42
802.168	15194.88
802.499	15068.78
802.83	15046.19
803.161	14972.29
803.491	15025.4
803.822	14996.92
804.153	14947.88
804.483	14830.6
804.814	14786.98
805.145	14717.16
805.475	14735.69
805.805	14752.86
806.136	14644.84
806.466	14743.82
806.796	14576.37
807.126	14582.92
807.457	14646.2
807.787	14615.46
808.117	14542.47
808.447	14547.22
808.777	14515.35
809.107	14446.2
809.436	14366.66
809.766	14372.98
810.096	14403.04
810.426	14357.16
810.755	14330.72
811.085	14237.62
811.414	14229.48
811.744	14134.57
812.073	14161.46
812.403	14173.21
812.732	14124.63
813.061	14128.02
813.39	14102.93
813.719	14026.55
814.049	14083.73
814.378	13997.17
814.707	13919.44
815.036	13938.19
815.365	13878.08
815.693	13662.72
816.022	13764.19
816.351	13641.93
816.68	13620.91
817.008	13650.52
817.337	13540.46
817.665	13617.52
817.994	13615.49
818.322	13664.98
818.651	13524.19
818.979	13470.18
819.307	13553.57
819.636	13484.87
819.964	13481.48
820.292	13560.58
820.62	13479.9
820.948	13523.51
821.276	13541.14
821.604	13430.41
821.932	13477.41
822.259	13564.64
822.587	13486.23
822.915	13580.46
823.243	13632.89
823.57	13545.89
823.898	13530.52
824.225	13506.57
824.553	13478.09
824.88	13535.94
825.207	13494.81
825.535	13528.26
825.862	13579.78
826.189	13430.18
826.516	13531.42
826.843	13619.78
827.17	13599.9
827.497	13561.71
827.824	13636.05
828.151	13612.1
828.478	13562.84
828.805	13555.38
829.131	13608.48
829.458	13560.58
829.785	13592.89
830.111	13622.04
830.438	13641.93
830.764	13674.47
831.09	13734.36
831.417	13652.1
831.743	13681.7
832.069	13703.85
832.395	13566.45
832.722	13643.29
833.048	13523.06
833.374	13630.63
833.7	13559.67
834.026	13538.2
834.351	13626.34
834.677	13586.34
835.003	13604.42
835.329	13505.44
835.654	13582.95
835.98	13480.8
836.306	13597.18
836.631	13434.48
836.956	13517.19
837.282	13598.09
837.607	13448.94
837.932	13362.84
838.258	13411.65
838.583	13425.21
838.908	13408.26
839.233	13408.04
839.558	13454.14
839.883	13383.86
840.208	13297.53
840.533	13428.15
840.858	13387.47
841.182	13297.31
841.507	13279.23
841.832	13311.99
842.156	13236.29
842.481	13270.64
842.805	13260.7
843.13	13157.65
843.454	13254.14
843.778	13185.67
844.103	13140.47
844.427	13224.77
844.751	13085.56
845.075	13076.75
845.399	13022.96
845.723	12948.84
846.047	12933.93
846.371	12852.35
846.695	12884.89
847.019	12872.23
847.343	12762.18
847.666	12735.51
847.99	12675.18
848.313	12679.47
848.637	12637.89
848.96	12663.88
849.284	12572.13
849.607	12523.31
849.931	12503.2
850.254	12311.79
850.577	12193.61
850.9	12215.53
851.223	12204.68
851.546	12174.4
851.869	12232.02
852.192	12259.37
852.515	12121.29
852.838	12072.03
853.161	12091.24
853.483	12087.85
853.806	12029.54
854.129	11957.68
854.451	11849.21
854.774	11948.64
855.096	11977.79
855.419	11841.3
855.741	11862.09
856.063	11755.88
856.385	11723.11
856.708	11731.7
857.03	11640.85
857.352	11684.01
857.674	11668.87
857.996	11592.94
858.318	11534.87
858.64	11556.79
858.961	11579.38
859.283	11451.7
859.605	11475.43
859.926	11482.89
860.248	11361.76
860.57	11289
860.891	11402.44
861.212	11304.14
861.534	11276.79
861.855	11338.26
862.176	11268.43
862.498	11282.9
862.819	11331.71
863.14	11217.59
863.461	11133.75
863.782	11164.03
864.103	11163.58
864.424	11127.87
864.745	11175.55
865.065	11092.39
865.386	11069.34
865.707	11011.49
866.027	11026.86
866.348	11050.36
866.668	11060.3
866.989	11013.07
867.309	10961.32
867.63	10981.89
867.95	10953.64
868.27	10933.98
868.59	10950.47
868.91	10925.62
869.23	10919.74
869.55	10841.33
869.87	10958.38
870.19	10888.78
870.51	10928.78
870.83	10984.37
871.15	10860.76
871.469	10891.72
871.789	10945.73
872.109	10862.12
872.428	10801.55
872.748	10738.05
873.067	10717.26
873.386	10774.21
873.706	10740.31
874.025	10726.53
874.344	10649.47
874.663	10765.85
874.982	10734.66
875.301	10742.8
875.62	10701.22
875.939	10678.84
876.258	10703.02
876.577	10695.34
876.896	10613.08
877.214	10618.51
877.533	10652.86
877.852	10611.73
878.17	10679.3
878.489	10602.46
878.807	10663.25
879.125	10604.27
879.444	10598.62
879.762	10550.71
880.08	10590.48
880.398	10495.57
880.716	10592.52
881.034	10500.09
881.352	10556.81
881.67	10442.24
881.988	10491.73
882.306	10458.51
882.624	10472.75
882.941	10389.81
883.259	10433.88
883.577	10327.67
883.894	10361.79
884.212	10317.72
884.529	10362.02
884.846	10312.3
885.164	10255.58
885.481	10242.92
885.798	10278.85
886.115	10254.9
886.432	10240.21
886.75	10239.98
887.067	10233.43
887.383	10153.21
887.7	10284.5
888.017	10070.05
888.334	10144.39
888.651	10066.2
888.967	10049.93
889.284	10003.83
889.6	9972.65
889.917	9882.71
890.233	9920.22
890.55	9864.4
890.866	9920.9
891.182	9926.77
891.498	9875.25
891.815	9846.55
892.131	9825.31
892.447	9733.56
892.763	9770.39
893.079	9741.24
893.395	9665.08
893.71	9680.45
894.026	9699.66
894.342	9720.45
894.657	9637.29
894.973	9628.25
895.289	9640
895.604	9600.45
895.92	9521.13
896.235	9520.91
896.55	9486.11
896.865	9531.3
897.181	9392.1
897.496	9475.49
897.811	9308.26
898.126	9321.82
898.441	9309.84
898.756	9311.87
899.071	9324.98
899.386	9346.22
899.7	9279.78
900.015	9242.5
900.33	9191.65
900.644	9188.71
900.959	9114.59
901.273	9061.94
901.588	9010.41
901.902	8940.58
902.216	9025.1
902.531	8986.01
902.845	8953.24
903.159	8849.97
903.473	8845.67
903.787	8760.93
904.101	8755.28
904.415	8753.24
904.729	8708.5
905.042	8735.62
905.356	8689.07
905.67	8647.71
905.984	8562.74
906.297	8628.5
906.611	8576.3
906.924	8536.75
907.237	8539.69
907.551	8473.93
907.864	8406.81
908.177	8380.15
908.491	8464.44
908.804	8305.57
909.117	8273.71
909.43	8278.91
909.743	8212.47
910.056	8261.05
910.368	8197.33
910.681	8195.52
910.994	8189.19
911.307	8144.45
911.619	8072.81
911.932	8077.56
912.244	8034.39
912.557	8096.54
912.869	7984
913.181	7998.24
913.494	7996.88
913.806	7945.58
914.118	7942.42
914.43	7872.82
914.742	7946.94
915.054	7898.35
915.366	7835.08
915.678	7768.19
915.99	7734.06
916.302	7722.76
916.613	7616.78
916.925	7624.91
917.236	7652.71
917.548	7588.53
917.859	7588.3
918.171	7506.05
918.482	7425.82
918.794	7437.8
919.105	7471.47
919.416	7441.19
919.727	7344.69
920.038	7352.83
920.349	7240.52
920.66	7237.13
920.971	7246.84
921.282	7158.71
921.593	7186.96
921.903	7151.48
922.214	7172.27
922.525	7119.84
922.835	7036.68
923.146	7117.58
923.456	7047.75
923.767	7024.48
924.077	7004.36
924.387	6974.31
924.697	6921.65
925.008	6843.69
925.318	6871.94
925.628	6835.78
925.938	6844.59
926.248	6745.84
926.558	6756.69
926.867	6738.38
927.177	6730.47
927.487	6675.33
927.796	6579.74
928.106	6658.16
928.416	6651.38
928.725	6593.08
929.034	6537.48
929.344	6492.96
929.653	6531.61
929.962	6488.67
930.271	6460.88
930.581	6450.71
930.89	6398.05
931.199	6330.71
931.508	6349.24
931.817	6309.47
932.125	6289.58
932.434	6302.91
932.743	6264.04
933.051	6208
933.36	6216.14
933.669	6196.25
933.977	6150.6
934.286	6143.82
934.594	6112.64
934.902	6077.38
935.21	6053.88
935.519	6019.76
935.827	6036.71
936.135	5994.9
936.443	5928.69
936.751	5936.37
937.059	5906.99
937.367	5864.05
937.674	5890.49
937.982	5855.47
938.29	5832.19
938.597	5855.92
938.905	5746.09
939.213	5758.07
939.52	5721.01
939.827	5772.53
940.135	5682.82
940.442	5654.79
940.749	5687.34
941.056	5713.1
941.363	5674.23
941.67	5598.75
941.977	5609.6
942.284	5514.91
942.591	5605.98
942.898	5534.35
943.205	5533.44
943.511	5476.27
943.818	5461.58
944.125	5380
944.431	5372.54
944.738	5370.96
945.044	5375.71
945.35	5376.16
945.657	5346.55
945.963	5339.77
946.269	5293.9
946.575	5273.56
946.881	5208.48
947.187	5227.01
947.493	5156.05
947.799	5182.49
948.105	5140.91
948.41	5094.36
948.716	5142.27
949.022	5103.17
949.327	5080.35
949.633	5030.86
949.938	5006.22
950.244	5018.88
950.549	4993.12
950.854	4925.55
951.16	4935.94
951.465	4945.89
951.77	4906.11
952.075	4834.48
952.38	4881.03
952.685	4876.74
952.99	4822.73
953.294	4794.03
953.599	4800.81
953.904	4770.3
954.209	4715.61
954.513	4727.14
954.818	4651.21
955.122	4655.27
955.426	4626.12
955.731	4639.45
956.035	4622.05
956.339	4600.59
956.643	4582.96
956.948	4582.28
957.252	4557.65
957.556	4553.58
957.86	4550.87
958.163	4521.94
958.467	4491.44
958.771	4449.63
959.075	4448.72
959.378	4388.39
959.682	4430.42
959.985	4413.02
960.289	4406.47
960.592	4321.95
960.896	4388.61
961.199	4404.66
961.502	4371.89
961.805	4318.11
962.108	4266.58
962.411	4276.3
962.714	4233.59
963.017	4178
963.32	4176.42
963.623	4170.99
963.926	4170.99
964.228	4125.8
964.531	4161.73
964.833	4152.01
965.136	4102.97
965.438	4086.02
965.741	4117.21
966.043	4064.78
966.345	4036.98
966.648	4020.49
966.95	4016.42
967.252	3964.9
967.554	3964.44
967.856	3949.53
968.158	3946.59
968.46	3934.61
968.761	3939.81
969.063	3915.41
969.365	3908.85
969.666	3881.73
969.968	3822.07
970.269	3802.41
970.571	3801.51
970.872	3816.65
971.174	3757.22
971.475	3803.54
971.776	3770.32
972.077	3758.57
972.378	3714.96
972.679	3726.48
972.98	3760.38
973.281	3656.2
973.582	3662.53
973.883	3670.89
974.183	3618.69
974.484	3611.91
974.785	3608.52
975.085	3626.37
975.386	3602.65
975.686	3572.14
975.986	3547.28
976.287	3524.91
976.587	3519.94
976.887	3530.33
977.187	3532.59
977.487	3510.22
977.787	3487.17
978.087	3491.46
978.387	3443.55
978.687	3482.2
978.987	3378.7
979.286	3382.76
979.586	3413.95
979.885	3410.79
980.185	3345.03
980.484	3319.49
980.784	3354.29
981.083	3275.65
981.382	3302.31
981.682	3301.41
981.981	3272.26
982.28	3255.99
982.579	3218.25
982.878	3233.16
983.177	3208.53
983.475	3243.78
983.774	3171.24
984.073	3194.52
984.372	3133.51
984.67	3137.8
984.969	3117.69
985.267	3067.29
985.566	3090.57
985.864	3063
986.162	3081.76
986.461	3063.68
986.759	3080.63
987.057	3046.5
987.355	3033.39
987.653	2967.18
987.951	2992.27
988.249	3018.48
988.547	2963.57
988.844	2955.88
989.142	2955.2
989.44	2925.15
989.737	2906.39
990.035	2926.96
990.332	2921.76
990.63	2928.54
990.927	2874.3
991.224	2859.39
991.521	2826.39
991.819	2837.92
992.116	2804.02
992.413	2816.9
992.71	2778.94
993.006	2796.79
993.303	2778.94
993.6	2748.66
993.897	2733.74
994.193	2746.85
994.49	2762.22
994.787	2737.81
995.083	2717.92
995.379	2713.18
995.676	2679.51
995.972	2662.78
996.268	2676.57
996.565	2614.65
996.861	2615.1
997.157	2621.65
997.453	2605.61
997.749	2606.74
998.044	2557.48
998.34	2575.78
998.636	2551.37
998.932	2532.62
999.227	2517.93
999.523	2511.83
999.818	2517.7
1000.114	2496.91
1000.409	2464.6
1000.704	2483.8
1001	2425.05
1001.295	2434.54
1001.59	2408.78
1001.885	2428.89
1002.18	2365.84
1002.475	2357.71
1002.77	2363.58
1003.065	2340.76
1003.359	2329.46
1003.654	2347.54
1003.949	2324.26
1004.243	2346.63
1004.538	2291.27
1004.832	2289.91
1005.127	2266.18
1005.421	2232.51
1005.715	2223.02
1006.009	2237.71
1006.304	2241.55
1006.598	2201.55
1006.892	2204.26
1007.186	2190.93
1007.48	2179.18
1007.773	2172.17
1008.067	2128.11
1008.361	2121.55
1008.655	2085.62
1008.948	2119.52
1009.242	2086.75
1009.535	2069.13
1009.829	2059.18
1010.122	2052.4
1010.415	2040.2
1010.708	2060.31
1011.001	2014.89
1011.295	2009.24
1011.588	2029.13
1011.881	1973.99
1012.173	1948.68
1012.466	1964.04
1012.759	1949.58
1013.052	1918.17
1013.344	1948.68
1013.637	1943.71
1013.93	1903.71
1014.222	1883.14
1014.514	1910.26
1014.807	1901.9
1015.099	1872.52
1015.391	1861.45
1015.683	1854.67
1015.976	1827.78
1016.268	1843.14
1016.56	1799.08
1016.851	1811.73
1017.143	1784.39
1017.435	1765.63
1017.727	1769.02
1018.018	1753.88
1018.31	1750.94
1018.602	1720.89
1018.893	1712.75
1019.185	1683.83
1019.476	1706.2
1019.767	1687.44
1020.058	1666.2
1020.35	1625.52
1020.641	1621
1020.932	1629.59
1021.223	1617.39
1021.514	1625.75
1021.804	1617.39
1022.095	1598.63
1022.386	1553.21
1022.677	1576.03
1022.967	1556.37
1023.258	1576.94
1023.548	1577.61
1023.839	1553.66
1024.129	1566.99
1024.419	1572.42
1024.709	1538.07
1025	1501.46
1025.29	1501.68
1025.58	1475.7
1025.87	1481.57
1026.16	1477.73
1026.449	1461.46
1026.739	1446.32
1027.029	1425.3
1027.319	1426.21
1027.608	1442.02
1027.898	1441.35
1028.187	1384.62
1028.477	1393.44
1028.766	1372.2
1029.055	1354.12
1029.344	1381.23
1029.634	1351.41
1029.923	1347.79
1030.212	1320.9
1030.501	1320.45
1030.79	1308.02
1031.078	1316.6
1031.367	1261.69
1031.656	1285.42
1031.945	1301.01
1032.233	1286.1
1032.522	1259.43
1032.81	1232.99
1033.099	1238.19
1033.387	1228.24
1033.675	1224.18
1033.963	1209.94
1034.251	1223.95
1034.54	1173.56
1034.828	1206.78
1035.116	1199.32
1035.403	1175.14
1035.691	1198.87
1035.979	1161.81
1036.267	1134.24
1036.554	1118.19
1036.842	1132.2
1037.129	1123.39
1037.417	1121.81
1037.704	1105.31
1037.992	1114.8
1038.279	1130.85
1038.566	1085.88
1038.853	1085.88
1039.14	1085.88
