Data from copper_heatsink_FLMS001491_079.txt Node
Date: Tue Feb 07 10:50:34 GMT 2017
User: dcchb
Spectrometer: FLMS00149
Trigger mode: 0
Integration Time (sec): 2.000000E-2
Scans to average: 10
Electric dark correction enabled: true
Nonlinearity correction enabled: false
Boxcar width: 0
XAxis mode: Wavelengths
Number of Pixels in Spectrum: 2048
>>>>>Begin Spectral Data<<<<<
341.393	-8.97
341.776	-8.97
342.16	-8.97
342.543	-79.93
342.927	-72.02
343.31	-73.15
343.693	-49.65
344.077	-75.18
344.46	-48.74
344.843	-45.35
345.226	-44
345.61	-42.41
345.993	-8.97
346.376	4.59
346.759	-4.22
347.142	29.67
347.525	24.93
347.908	63.12
348.291	83.46
348.674	69.9
349.057	116
349.44	114.19
349.823	126.62
350.206	158.26
350.588	223.79
350.971	218.6
351.354	259.05
351.737	261.53
352.119	290.46
352.502	286.39
352.884	317.58
353.267	303.34
353.65	322.55
354.032	307.18
354.414	331.36
354.797	335.43
355.179	337.24
355.562	347.63
355.944	372.72
356.326	345.6
356.709	349.67
357.091	400.06
357.473	382.66
357.855	355.54
358.238	370.23
358.62	351.25
359.002	374.3
359.384	368.87
359.766	379.5
360.148	347.18
360.53	372.72
360.912	350.8
361.294	373.17
361.676	377.46
362.057	349.21
362.439	364.58
362.821	361.87
363.203	375.65
363.584	361.64
363.966	352.38
364.348	350.34
364.729	342.66
365.111	361.19
365.493	367.97
365.874	357.35
366.256	364.58
366.637	336.11
367.019	353.06
367.4	356.67
367.781	346.05
368.163	348.54
368.544	347.86
368.925	348.54
369.306	355.77
369.688	352.6
370.069	378.37
370.45	352.6
370.831	342.43
371.212	354.86
371.593	343.11
371.974	373.39
372.355	370
372.736	331.59
373.117	368.65
373.498	361.19
373.879	364.58
374.26	334.07
374.641	358.48
375.021	356.67
375.402	348.08
375.783	372.94
376.163	384.92
376.544	366.84
376.925	387.41
377.305	388.31
377.686	377.24
378.066	398.25
378.447	379.95
378.827	373.17
379.208	391.02
379.588	394.86
379.968	396.67
380.349	419.04
380.729	417.69
381.109	373.85
381.489	381.08
381.87	398.7
382.25	407.97
382.63	421.3
383.01	391.25
383.39	388.76
383.77	404.81
384.15	421.53
384.53	402.77
384.91	409.55
385.29	407.52
385.67	420.85
386.049	431.92
386.429	416.56
386.809	423.11
387.189	431.92
387.568	427.4
387.948	452.26
388.328	435.99
388.707	445.93
389.087	468.76
389.466	455.2
389.846	446.39
390.225	439.16
390.605	447.52
390.984	448.65
391.363	457.46
391.743	463.34
392.122	456.56
392.501	482.09
392.881	460.4
393.26	475.99
393.639	460.85
394.018	476.22
394.397	480.96
394.776	493.39
395.155	495.2
395.534	473.96
395.913	492.49
396.292	498.59
396.671	509.21
397.05	501.98
397.429	499.94
397.808	503.56
398.186	508.76
398.565	497.23
398.944	484.35
399.323	515.09
399.701	509.44
400.08	518.7
400.458	535.65
400.837	529.32
401.215	534.75
401.594	525.03
401.972	542.2
402.351	558.93
402.729	513.73
403.107	556.21
403.486	524.58
403.864	565.03
404.242	558.47
404.62	578.59
404.999	567.97
405.377	590.56
405.755	586.04
406.133	576.33
406.511	584.69
406.889	591.92
407.267	631.92
407.645	607.29
408.023	615.87
408.401	619.04
408.779	626.49
409.156	628.98
409.534	632.82
409.912	645.93
410.29	634.18
410.667	666.72
411.045	665.14
411.422	660.17
411.8	683.22
412.178	669.43
412.555	673.73
412.933	710.56
413.31	694.74
413.687	683.22
414.065	699.26
414.442	720.5
414.819	718.92
415.197	708.07
415.574	730.67
415.951	741.52
416.328	748.75
416.705	744.46
417.082	758.02
417.46	766.83
417.837	759.37
418.214	764.57
418.591	795.98
418.967	790.78
419.344	804.12
419.721	796.89
420.098	798.69
420.475	811.8
420.852	834.17
421.228	814.96
421.605	848.18
421.982	836.43
422.358	826.49
422.735	838.24
423.111	850.9
423.488	855.64
423.864	861.97
424.241	878.01
424.617	887.05
424.994	866.49
425.37	906.71
425.746	886.6
426.123	942.19
426.499	916.2
426.875	930.22
427.251	951.46
427.627	950.1
428.003	978.35
428.379	982.64
428.756	1003.66
429.132	998.01
429.507	990.55
429.883	1011.12
430.259	1022.19
430.635	1024.68
431.011	1043.43
431.387	1042.08
431.763	1082.08
432.138	1099.25
432.514	1121.17
432.89	1122.75
433.265	1142.87
433.641	1132.24
434.016	1145.58
434.392	1163.88
434.767	1211.11
435.143	1198.68
435.518	1214.05
435.894	1207.04
436.269	1255.63
436.644	1231
437.02	1265.12
437.395	1242.98
437.77	1269.64
438.145	1282.3
438.52	1274.16
438.895	1297.21
439.271	1314.39
439.646	1333.59
440.021	1341.28
440.395	1350.54
440.77	1343.99
441.145	1369.75
441.52	1422.41
441.895	1364.1
442.27	1436.42
442.645	1434.16
443.019	1442.74
443.394	1421.95
443.769	1430.32
444.143	1463.31
444.518	1469.18
444.892	1470.31
445.267	1478
445.641	1507.15
446.016	1490.2
446.39	1542.85
446.764	1529.3
447.139	1526.13
447.513	1553.7
447.887	1541.27
448.262	1576.07
448.636	1560.93
449.01	1604.32
449.384	1598.9
449.758	1621.5
450.132	1639.8
450.506	1651.1
450.88	1630.08
451.254	1671.21
451.628	1642.74
452.002	1701.72
452.376	1709.4
452.75	1750.08
453.123	1752.79
453.497	1758.67
453.871	1779.23
454.244	1786.46
454.618	1821.04
454.992	1861.94
455.365	1830.53
455.739	1901.72
456.112	1912.79
456.486	1933.58
456.859	1926.12
457.232	1957.08
457.606	1988.27
457.979	1999.34
458.352	2047.93
458.725	2097.19
459.099	2092.9
459.472	2134.7
459.845	2161.82
460.218	2163.18
460.591	2188.49
460.964	2207.02
461.337	2253.34
461.71	2260.12
462.083	2312.33
462.456	2367.92
462.829	2332.44
463.201	2369.5
463.574	2395.94
463.947	2429.39
464.32	2465.09
464.692	2474.36
465.065	2490.63
465.438	2534.92
465.81	2585.99
466.183	2612.21
466.555	2642.04
466.928	2665.54
467.3	2670.96
467.672	2726.55
468.045	2808.36
468.417	2777.85
468.789	2803.39
469.161	2866.66
469.534	2922.93
469.906	2941.01
470.278	2969.71
470.65	3007
471.022	3092.64
471.394	3111.85
471.766	3118.86
472.138	3172.87
472.51	3221.23
472.882	3292.64
473.253	3344.62
473.625	3391.17
473.997	3444.27
474.369	3454.22
474.74	3496.7
475.112	3550.03
475.484	3691.5
475.855	3697.83
476.227	3781.89
476.598	3803.81
476.97	3842.91
477.341	3958.16
477.713	3977.14
478.084	4004.94
478.455	4104.14
478.827	4207.19
479.198	4302.78
479.569	4320.41
479.94	4406.28
480.311	4479.95
480.682	4540.74
481.053	4659.38
481.424	4701.19
481.795	4728.31
482.166	4832.03
482.537	4891.24
482.908	4977.11
483.279	5055.08
483.65	5142.31
484.021	5189.31
484.391	5277.9
484.762	5369.87
485.133	5382.75
485.503	5436.54
485.874	5567.38
486.244	5641.5
486.615	5739.35
486.985	5824.32
487.356	5975.73
487.726	5918.56
488.097	6079.01
488.467	6129.85
488.837	6242.17
489.207	6334.14
489.578	6364.2
489.948	6465.66
490.318	6554.25
490.688	6573.01
491.058	6698.65
491.428	6850.51
491.798	6855.03
492.168	7049.83
492.538	7089.38
492.908	7125.31
493.278	7222.71
493.648	7212.31
494.017	7292.31
494.387	7497.73
494.757	7499.76
495.126	7593.09
495.496	7683.94
495.866	7752.18
496.235	7743.6
496.605	7869.02
496.974	7919.18
497.344	7990.37
497.713	8049.12
498.082	8127.77
498.452	8205.73
498.821	8292.06
499.19	8332.51
499.559	8413.41
499.928	8406.4
500.298	8505.84
500.667	8618.15
501.036	8643.23
501.405	8706.28
501.774	8809.56
502.143	8810.69
502.512	8911.93
502.88	8972.72
503.249	8993.73
503.618	9119.15
503.987	9086.84
504.356	9212.26
504.724	9271.69
505.093	9323.67
505.462	9390.78
505.83	9510.78
506.199	9551.01
506.567	9656.77
506.936	9693.38
507.304	9808.4
507.672	9880.49
508.041	10009.98
508.409	10016.98
508.777	10114.83
509.145	10298.78
509.514	10193.7
509.882	10389.4
510.25	10462.17
510.618	10538.32
510.986	10523.86
511.354	10621.03
511.722	10775.38
512.09	10896.51
512.458	10934.92
512.826	10995.94
513.193	11070.74
513.561	11104.19
513.929	11280
514.297	11357.74
514.664	11479.09
515.032	11509.15
515.4	11660.78
515.767	11708.46
516.135	11810.38
516.502	11730.84
516.869	12096.48
517.237	12117.94
517.604	12113.42
517.972	12274.1
518.339	12382.12
518.706	12449.91
519.073	12510.93
519.44	12601.32
519.808	12736.91
520.175	12811.94
520.542	13038.37
520.909	13221.64
521.276	13162.66
521.643	13258.93
522.009	13424.8
522.376	13511.35
522.743	13596.55
523.11	13818.24
523.477	13907.5
523.843	14042.64
524.21	14227.04
524.577	14417.54
524.943	14401.5
525.31	14567.82
525.676	14778.89
526.043	14790.42
526.409	14914.93
526.776	15084.87
527.142	15181.82
527.508	15296.17
527.874	15471.08
528.241	15538.42
528.607	15620.68
528.973	15808.47
529.339	15923.04
529.705	16083.04
530.071	16146.99
530.437	16367.55
530.803	16466.76
531.169	16521.67
531.535	16517.15
531.901	16685.06
532.267	16780.19
532.632	16997.14
532.998	16966.63
533.364	17200.75
533.73	17324.81
534.095	17406.17
534.461	17450.23
534.826	17661.3
535.192	17761.19
535.557	17976.55
535.923	17962.54
536.288	18078.01
536.653	18238.46
537.019	18292.92
537.384	18405.69
537.749	18408.85
538.114	18564.33
538.479	18685.23
538.845	18852.23
539.21	18937.2
539.575	19050.64
539.94	19110.75
540.305	19301.48
540.67	19301.94
541.034	19405.89
541.399	19540.8
541.764	19695.6
542.129	19787.57
542.494	19861.92
542.858	20123.38
543.223	20127.9
543.587	20320.89
543.952	20430.27
544.316	20617.16
544.681	20672.07
545.045	20812.4
545.41	20864.83
545.774	21109.35
546.138	21235.22
546.503	21182.79
546.867	21313.63
547.231	21695.09
547.595	21790.23
547.959	21891.7
548.324	21986.61
548.688	22036.33
549.052	22357.67
549.416	22426.15
549.779	22533.04
550.143	22686.03
550.507	22929.64
550.871	23068.84
551.235	23247.59
551.599	23373.02
551.962	23603.29
552.326	23766.68
552.689	23938.65
553.053	23970.06
553.417	24143.39
553.78	24605.53
554.143	24458.18
554.507	24754.22
554.87	24920.32
555.234	25344.49
555.597	25214.1
555.96	25646.18
556.323	25789.9
556.686	25842.55
557.05	26242.77
557.413	26414.29
557.776	26676.21
558.139	26844.56
558.502	27154.84
558.865	27289.3
559.228	27659.46
559.59	27922.73
559.953	28031.88
560.316	28403.84
560.679	28697.62
561.041	28987.78
561.404	29208.79
561.767	29581.67
562.129	29562.46
562.492	30128.09
562.854	30313.4
563.217	30509.78
563.579	30900.05
563.941	31234.73
564.304	31479.47
564.666	31827.03
565.028	31988.61
565.39	32295.27
565.753	32692.54
566.115	32955.14
566.477	33207.79
566.839	33562.58
567.201	34010.7
567.563	34092.06
567.925	34543.57
568.287	34840.51
568.648	35008.87
569.01	35352.59
569.372	35814.04
569.734	35889.07
570.095	36322.73
570.457	36803.85
570.819	36971.08
571.18	37119.77
571.542	37502.59
571.903	37785.29
572.265	38223.25
572.626	38430.92
572.987	38675.89
573.349	38955.66
573.71	39414.4
574.071	39709.76
574.432	40059.81
574.794	40355.39
575.155	40611.88
575.516	40749.73
575.877	41064.75
576.238	41364.63
576.599	41640.56
576.96	41917.84
577.32	42193.54
577.681	42486.19
578.042	42708.1
578.403	42863.8
578.763	43168.88
579.124	43430.34
579.485	43869.88
579.845	43984
580.206	44183.32
580.566	44322.3
580.927	44591.44
581.287	44905.56
581.648	44895.39
582.008	45293.79
582.368	45430.51
582.728	45748.7
583.089	45769.94
583.449	45957.28
583.809	46118.18
584.169	46522.24
584.529	46493.09
584.889	46871.61
585.249	46757.94
585.609	46861.89
585.969	47233.63
586.329	47254.2
586.688	47417.13
587.048	47707.52
587.408	47764.46
587.768	47895.76
588.127	47978.7
588.487	48173.95
588.846	48395.41
589.206	48381.4
589.565	48535.07
589.925	48860.48
590.284	48812.35
590.643	48986.58
591.003	49254.82
591.362	49466.79
591.721	49468.15
592.08	49494.81
592.44	49702.72
592.799	49782.94
593.158	49960.34
593.517	49989.94
593.876	50178.86
594.235	50247.56
594.593	50313.78
594.952	50539.76
595.311	50544.5
595.67	50670.15
596.029	51090.93
596.387	51144.26
596.746	51269.23
597.104	51186.3
597.463	51314.65
597.822	51577.7
598.18	51563.91
598.538	51629.67
598.897	51840.06
599.255	51761.65
599.613	52286.15
599.972	52059.94
600.33	52172.03
600.688	52377
601.046	52492.02
601.404	52748.97
601.762	52720.27
602.12	52866.03
602.478	52969.53
602.836	53067.6
603.194	53051.56
603.552	53195.06
603.91	53256.52
604.268	53418.55
604.625	53512.34
604.983	53645.89
605.341	53550.08
605.698	53791.2
606.056	53987.35
606.413	54068.93
606.771	54135.14
607.128	54330.85
607.485	54260.79
607.843	54290.62
608.2	54585.53
608.557	54725.64
608.914	54735.58
609.272	54866.88
609.629	55051.28
609.986	55168.34
610.343	55165.85
610.7	55334.21
611.057	55366.75
611.414	55440.19
611.771	55555.9
612.127	55707.31
612.484	55832.95
612.841	55921.31
613.198	55906.17
613.554	56006.96
613.911	56215.99
614.267	56263.22
614.624	56290.79
614.98	56345.93
615.337	56573.95
615.693	56606.27
616.05	56609.2
616.406	56846.03
616.762	56764.68
617.118	56884.45
617.475	56975.3
617.831	57036.76
618.187	57175.06
618.543	57270.66
618.899	57432.91
619.255	57384.55
619.611	57410.99
619.967	57536.18
620.323	57690.53
620.678	57594.94
621.034	57639.91
621.39	57711.77
621.746	57746.57
622.101	58047.58
622.457	57832
622.812	57938.89
623.168	58097.53
623.523	58072.89
623.879	58284.64
624.234	58180.01
624.589	58323.96
624.945	58396.5
625.3	58496.39
625.655	58467.46
626.01	58552.88
626.365	58590.17
626.72	58713.56
627.075	58692.76
627.43	58708.58
627.785	58784.06
628.14	58858.41
628.495	58963.27
628.85	58908.8
629.205	58872.87
629.559	58977.05
629.914	58947
630.269	59025.64
630.623	59050.27
630.978	58988.8
631.332	59235.35
631.687	59310.38
632.041	59252.75
632.396	59236.93
632.75	59261.34
633.104	59328.45
633.459	59240.55
633.813	59267.89
634.167	59339.08
634.521	59354.89
634.875	59418.17
635.229	59392.18
635.583	59404.84
635.937	59361.67
636.291	59463.37
636.645	59445.06
636.999	59503.36
637.352	59567.32
637.706	59467.43
638.06	59695.9
638.413	59658.39
638.767	59622.46
639.121	59686.86
639.474	59533.42
639.828	59585.62
640.181	59748.56
640.534	59823.13
640.888	59730.93
641.241	59681.89
641.594	59754.88
641.947	59882.34
642.301	59827.88
642.654	59888.67
643.007	59897.7
643.36	59898.16
643.713	59890.7
644.066	59984.48
644.419	59909.23
644.771	59902.68
645.124	59818.38
645.477	59742.23
645.83	59685.51
646.182	59476.02
646.535	59411.62
646.888	59450.48
647.24	59304.27
647.593	59536.13
647.945	59464.27
648.298	59452.74
648.65	59411.84
649.002	59390.15
649.355	59614.55
649.707	59605.96
650.059	59757.37
650.411	60103.12
650.763	60180.86
651.115	60440.06
651.467	60338.37
651.819	60458.37
652.171	60423.34
652.523	60384.02
652.875	60419.72
653.227	60367.75
653.578	60553.51
653.93	60530
654.282	60516.9
654.633	60433.96
654.985	60578.59
655.337	60568.42
655.688	60657.91
656.039	60774.07
656.391	60591.7
656.742	60698.36
657.094	60683.9
657.445	60818.81
657.796	60760.96
658.147	60816.78
658.498	60847.06
658.849	60931.35
659.2	60866.72
659.551	60872.82
659.902	60968.19
660.253	60990.78
660.604	61028.52
660.955	61007.96
661.306	61076.66
661.656	61007.96
662.007	61068.97
662.358	61139.25
662.708	61165.47
663.059	61166.15
663.409	61065.58
663.76	61284.79
664.11	61312.81
664.461	61404.11
664.811	61294.28
665.161	61393.71
665.511	61321.85
665.862	61354.16
666.212	61479.13
666.562	61531.33
666.912	61476.87
667.262	61528.17
667.612	61529.75
667.962	61525.23
668.312	61567.27
668.662	61725.23
669.011	61744.21
669.361	61743.98
669.711	61822.4
670.06	61737.66
670.41	61770.2
670.76	61776.3
671.109	61873.92
671.459	61887.48
671.808	61873.25
672.157	62022.62
672.507	61839.57
672.856	61937.65
673.205	61953.47
673.554	62039.57
673.904	61948.95
674.253	62143.97
674.602	62102.84
674.951	61852
675.3	61683.87
675.649	62188.04
675.998	62139.91
676.346	62182.39
676.695	62299.45
677.044	62146.01
677.393	62316.85
677.741	62318.43
678.09	62263.97
678.438	62299.68
678.787	62339.67
679.135	62319.79
679.484	62266.91
679.832	62420.35
680.181	62336.28
680.529	62350.07
680.877	62317.3
681.225	62322.05
681.573	62517.07
681.922	62280.01
682.27	62271.2
682.618	62349.17
682.966	62341.71
683.314	62509.16
683.661	62388.26
684.009	62322.27
684.357	62306.68
684.705	62299.9
685.053	62379
685.4	62399.56
685.748	62352.56
686.095	62411.31
686.443	62343.97
686.79	62350.52
687.138	62365.89
687.485	62421.93
687.832	62394.36
688.18	62428.49
688.527	62296.06
688.874	62352.78
689.221	62398.88
689.568	62294.48
689.915	62254.25
690.262	62326.12
690.609	62242.5
690.956	62213.12
691.303	62225.33
691.65	62127.48
691.997	62114.37
692.344	62107.36
692.69	62067.59
693.037	62117.31
693.383	61975.39
693.73	62033.24
694.077	61960.25
694.423	61989.85
694.769	61948.27
695.116	61939.23
695.462	61972.9
695.808	61830.76
696.155	61964.99
696.501	61807.03
696.847	61837.09
697.193	61801.84
697.539	61902.85
697.885	61809.29
698.231	61781.27
698.577	61749.63
698.923	61834.15
699.269	61712.8
699.614	61657.21
699.96	61592.8
700.306	61612.01
700.651	61495.4
700.997	61446.36
701.342	61465.35
701.688	61468.28
702.033	61408.4
702.379	61469.41
702.724	61482.3
703.069	61565.91
703.415	61336.54
703.76	61422.86
704.105	61464.9
704.45	61403.43
704.795	61283.21
705.14	61290.44
705.485	61232.36
705.83	61172.25
706.175	61249.31
706.52	61180.61
706.865	61199.37
707.209	61154.62
707.554	61077.56
707.899	61201.4
708.243	61086.15
708.588	61112.81
708.932	61053.83
709.277	61004.79
709.621	61057.22
709.966	61001.18
710.31	61106.94
710.654	60835.08
710.998	60956.43
711.342	60959.37
711.687	60947.17
712.031	60863.78
712.375	60852.93
712.719	60885.93
713.063	60918.69
713.407	61012.7
713.75	60763.9
714.094	60829.66
714.438	60681.19
714.782	60856.32
715.125	60760.73
715.469	60802.54
715.812	60718.93
716.156	60679.83
716.499	60653.39
716.843	60738.13
717.186	60666.27
717.53	60785.36
717.873	60789.66
718.216	60772.26
718.559	60664.92
718.902	60490.68
719.246	60605.71
719.589	60614.3
719.932	60583.34
720.275	60520.97
720.617	60625.37
720.96	60590.12
721.303	60620.62
721.646	60660.4
721.989	60477.58
722.331	60572.04
722.674	60547.63
723.016	60573.39
723.359	60529.78
723.701	60552.38
724.044	60457.01
724.386	60334.3
724.729	60516.67
725.071	60430.35
725.413	60474.64
725.755	60487.07
726.097	60434.64
726.439	60320.29
726.782	60398.03
727.124	60473.73
727.465	60455.2
727.807	60399.84
728.149	60382.21
728.491	60376.56
728.833	60438.26
729.175	60387.18
729.516	60318.71
729.858	60398.93
730.199	60510.57
730.541	60377.92
730.882	60415.21
731.224	60474.86
731.565	60280.52
731.906	60273.74
732.248	60353.96
732.589	60303.8
732.93	60229.45
733.271	60342.44
733.612	60377.24
733.953	60427.41
734.294	60339.5
734.635	60325.72
734.976	60425.15
735.317	60268.09
735.658	60293.63
735.999	60245.04
736.339	60287.98
736.68	60356.68
737.021	60231.48
737.361	60223.35
737.702	60315.55
738.042	60241.88
738.383	60184.48
738.723	60345.83
739.063	60151.26
739.404	60353.96
739.744	60208.66
740.084	60257.92
740.424	60328.65
740.764	60306.28
741.104	60386.28
741.444	60264.93
741.784	60193.74
742.124	60283.01
742.464	60164.59
742.804	60233.74
743.143	60152.39
743.483	60200.52
743.823	60044.82
744.162	60174.76
744.502	60143.35
744.841	60094.54
745.181	60212.05
745.52	60140.64
745.86	60237.81
746.199	60190.8
746.538	60167.08
746.877	60202.56
747.216	60252.05
747.556	60174.08
747.895	60164.59
748.234	60156.91
748.573	60094.99
748.911	60156
749.25	60116.23
749.589	60030.58
749.928	60081.88
750.267	60116.91
750.605	60084.59
750.944	59997.59
751.283	59928.21
751.621	60032.84
751.96	59821.77
752.298	59817.03
752.636	59913.07
752.975	59792.62
753.313	59824.26
753.651	59897.03
753.989	59762.12
754.327	59725.73
754.666	59633.76
755.004	59730.03
755.342	59836.01
755.679	59735.9
756.017	59572.06
756.355	59751.04
756.693	59683.7
757.031	59711.95
757.368	59593.76
757.706	59525.74
758.044	59458.39
758.381	59507.66
758.719	59389.24
759.056	59483.7
759.394	59474.44
759.731	59299.08
760.068	59383.59
760.405	59300.21
760.743	59285.07
761.08	59330.49
761.417	59129.36
761.754	59068.12
762.091	59014.56
762.428	58993.1
762.765	58917.62
763.102	59036.03
763.438	58957.62
763.775	58855.25
764.112	58849.14
764.449	58904.74
764.785	58783.38
765.122	58762.82
765.458	58693.44
765.795	58597.85
766.131	58626.55
766.467	58633.78
766.804	58470.4
767.14	58415.71
767.476	58361.93
767.812	58349.27
768.148	58416.39
768.485	58192.44
768.821	58113.12
769.157	58151.54
769.492	58124.42
769.828	58072.67
770.164	57892.11
770.5	57847.14
770.836	57897.31
771.171	57834.71
771.507	57790.19
771.842	57561.72
772.178	57691.89
772.513	57601.95
772.849	57564.21
773.184	57500.48
773.519	57550.2
773.855	57460.03
774.19	57341.61
774.525	57261.84
774.86	57164.67
775.195	57166.7
775.53	57051.68
775.865	56974.62
776.2	56914.73
776.535	56737.34
776.87	56750.67
777.205	56634.51
777.539	56564.23
777.874	56611.92
778.209	56422.32
778.543	56340.06
778.878	56231.59
779.212	56321.75
779.547	56135.77
779.881	56283.79
780.215	56157.24
780.55	56178.03
780.884	56051.93
781.218	55992.27
781.552	56161.31
781.886	55955.89
782.22	55834.53
782.554	55721.32
782.888	55501.21
783.222	55504.6
783.556	55391.61
783.889	55401.55
784.223	55192.29
784.557	55149.58
784.89	55160.43
785.224	54971.05
785.557	54865.97
785.891	54879.76
786.224	54790.04
786.558	54796.37
786.891	54611.29
787.224	54520.22
787.557	54542.59
787.891	54439.32
788.224	54393.89
788.557	54496.04
788.89	54450.39
789.223	54405.87
789.556	54263.28
789.888	54240
790.221	54154.8
790.554	53904.87
790.887	53876.17
791.219	53790.75
791.552	53889.05
791.884	53654.71
792.217	53586.01
792.549	53466.69
792.882	53379.46
793.214	53288.84
793.546	53305.34
793.879	53073.25
794.211	53060.14
794.543	53257.65
794.875	53166.13
795.207	53302.62
795.539	53086.58
795.871	53221.95
796.203	52965.91
796.535	52833.03
796.867	52672.36
797.198	52621.51
797.53	52655.86
797.862	52497.9
798.193	52538.12
798.525	52362.08
798.856	52338.36
799.188	52046.84
799.519	52083.9
799.85	51903.34
800.182	51987.63
800.513	51978.36
800.844	51741.76
801.175	51931.81
801.506	51882.32
801.837	51673.74
802.168	51676
802.499	51543.57
802.83	51340.64
803.161	51383.58
803.491	51446.18
803.822	51432.62
804.153	51107.65
804.483	51018.62
804.814	50908.34
805.145	50920.09
805.475	50931.16
805.805	50815.23
806.136	50931.84
806.466	50893.87
806.796	50718.29
807.126	50626.99
807.457	50615.91
807.787	50578.18
808.117	50419.54
808.447	50306.54
808.777	50308.35
809.107	50187.23
809.436	50188.81
809.766	50289.82
810.096	50147.23
810.426	50030.62
810.755	50033.56
811.085	49866.78
811.414	49772.32
811.744	49495.49
812.073	49702.49
812.403	49641.48
812.732	49492.55
813.061	49627.01
813.39	49466.57
813.719	49467.7
814.049	49808.93
814.378	49546.79
814.707	49434.03
815.036	49330.52
815.365	49073.36
815.693	48905.9
816.022	49010.08
816.351	48911.55
816.68	48804.66
817.008	48874.49
817.337	48595.4
817.665	48613.71
817.994	48706.36
818.322	48650.09
818.651	48536.2
818.979	48420.94
819.307	48555.18
819.636	48533.03
819.964	48257.33
820.292	48564.44
820.62	48465.91
820.948	48400.83
821.276	48495.97
821.604	48374.39
821.932	48575.06
822.259	48614.84
822.587	48505.91
822.915	48468.4
823.243	48657.1
823.57	48657.1
823.898	48618.23
824.225	48572.58
824.553	48702.07
824.88	48644.67
825.207	48705.46
825.535	48790.88
825.862	48932.57
826.189	48688.96
826.516	49022.28
826.843	49023.64
827.17	49021.83
827.497	49030.65
827.824	49028.39
828.151	49142.73
828.478	48987.26
828.805	49068.16
829.131	48857.54
829.458	48949.97
829.785	48905.68
830.111	49081.49
830.438	49146.8
830.764	49144.99
831.09	49244.43
831.417	48991.1
831.743	49298.21
832.069	49190.64
832.395	49160.59
832.722	49205.1
833.048	49263.63
833.374	49263.41
833.7	49119.01
834.026	49142.28
834.351	49246.23
834.677	49132.79
835.003	49088.05
835.329	49187.48
835.654	49213.47
835.98	49034.49
836.306	49127.59
836.631	49051.89
836.956	49124.65
837.282	49159
837.607	49092.11
837.932	48981.83
838.258	49040.14
838.583	48846.24
838.908	48639.02
839.233	48843.76
839.558	48741.16
839.883	48623.2
840.208	48808.73
840.533	48771.22
840.858	48614.39
841.182	48766.7
841.507	48595.18
841.832	48395.63
842.156	48430.66
842.481	48427.5
842.805	48334.62
843.13	48203.1
843.454	48295.3
843.778	48086.04
844.103	48036.32
844.427	48068.41
844.751	47948.87
845.075	47695.77
845.399	47709.32
845.723	47728.76
846.047	47757.46
846.371	47439.73
846.695	47548.2
847.019	47462.1
847.343	47317.24
847.666	47083.58
847.99	46889.69
848.313	46856.47
848.637	46486.53
848.96	46451.05
849.284	46504.61
849.607	46148.69
849.931	46125.64
850.254	45934.23
850.577	45870.95
850.9	45636.16
851.223	45539.44
851.546	45188.71
851.869	45183.97
852.192	45423.06
852.515	45054.71
852.838	44847.03
853.161	45086.34
853.483	44742.85
853.806	44578.33
854.129	44718.44
854.451	44429.41
854.774	44442.52
855.096	44360.49
855.419	44262.41
855.741	44190.32
856.063	43894.06
856.385	43870.56
856.708	43744.46
857.03	43797.56
857.352	43578.36
857.674	43483.67
857.996	43385.37
858.318	43282.1
858.64	43381.53
858.961	43171.82
859.283	43110.8
859.605	42972.05
859.926	43116.23
860.248	42982.67
860.57	42825.84
860.891	42845.5
861.212	42803.24
861.534	42700.42
861.855	42554.88
862.176	42783.35
862.498	42533.64
862.819	42579.52
863.14	42501.33
863.461	42459.75
863.782	42368.22
864.103	42462.68
864.424	42439.63
864.745	42447.99
865.065	42355.79
865.386	42332.97
865.707	42269.47
866.027	42426.07
866.348	42210.26
866.668	42168.68
866.989	42018.63
867.309	41855.69
867.63	41946.54
867.95	41949.48
868.27	41716.71
868.59	41895.47
868.91	41845.07
869.23	41707.67
869.55	41579.32
869.87	41782.47
870.19	41585.64
870.51	41687.11
870.83	41624.74
871.15	41391.52
871.469	41509.49
871.789	41617.51
872.109	41627.9
872.428	41337.97
872.748	41493.44
873.067	41494.12
873.386	41513.56
873.706	41397.17
874.025	41183.62
874.344	41137.97
874.663	41289.83
874.982	41213.68
875.301	41352.2
875.62	41165.32
875.939	40903.63
876.258	41022.04
876.577	41059.78
876.896	40987.02
877.214	40887.36
877.533	40945.43
877.852	40970.97
878.17	40849.62
878.489	40788.83
878.807	40772.56
879.125	40684.88
879.444	40582.96
879.762	40433.36
880.08	40658.66
880.398	40429.74
880.716	40571.43
881.034	40406.92
881.352	40603.07
881.67	40464.54
881.988	40398.56
882.306	40519.46
882.624	40271.1
882.941	40009.64
883.259	39923.09
883.577	40045.12
883.894	39969.64
884.212	39827.95
884.529	39983.88
884.846	39824.56
885.164	39882.41
885.481	39646.49
885.798	39608.75
886.115	39374.85
886.432	39278.13
886.75	39217.12
887.067	39210.11
887.383	38998.59
887.7	39240.17
888.017	38932.15
888.334	39057.12
888.651	38993.4
888.967	38859.61
889.284	38718.37
889.6	38713.85
889.917	38459.62
890.233	38540.53
890.55	38428.66
890.866	38436.57
891.182	38146.41
891.498	38030.26
891.815	38083.36
892.131	37898.74
892.447	37688.57
892.763	37690.83
893.079	37512.98
893.395	37452.42
893.71	37476.15
894.026	37408.35
894.342	37251.97
894.657	37067.34
894.973	37191.18
895.289	37148.47
895.604	37174.01
895.92	36800.46
896.235	36796.39
896.55	36755.71
896.865	36750.97
897.181	36724.53
897.496	36650.18
897.811	36553.91
898.126	36383.52
898.441	36210.19
898.756	36193.47
899.071	35972.23
899.386	36116.86
899.7	35718.45
900.015	35692.24
900.33	35378.58
900.644	35478.69
900.959	35355.98
901.273	35195.98
901.588	35086.15
901.902	34943.78
902.216	35159.6
902.531	34931.81
902.845	34846.61
903.159	34665.15
903.473	34599.84
903.787	34429.9
904.101	34400.3
904.415	34330.02
904.729	34097.03
905.042	34082.34
905.356	33769.58
905.67	33885.73
905.984	33736.36
906.297	33726.19
906.611	33370.72
906.924	33405.75
907.237	33365.07
907.551	33195.58
907.864	33180.44
908.177	33128.47
908.491	32901.8
908.804	32776.84
909.117	32597.63
909.43	32415.94
909.743	32413.46
910.056	32279.67
910.368	32163.29
910.681	32106.12
910.994	31951.09
911.307	31887.37
911.619	31724.89
911.932	31851.44
912.244	31605.34
912.557	31555.85
912.869	31154.05
913.181	31232.47
913.494	31137.33
913.806	30964.68
914.118	30855.08
914.43	30573.73
914.742	30627.97
915.054	30518.59
915.366	30273.4
915.678	30242.67
915.99	30247.41
916.302	30022.56
916.613	29868.44
916.925	29848.33
917.236	29856.69
917.548	29656.01
917.859	29708.89
918.171	29506.64
918.482	29503.48
918.794	29298.28
919.105	29386.64
919.416	29089.7
919.727	29088.8
920.038	28879.09
920.349	28793.21
920.66	28730.84
920.971	28625.98
921.282	28457.4
921.593	28386.44
921.903	28197.75
922.214	28116.39
922.525	28082.95
922.835	28010.86
923.146	27792.56
923.456	27785.78
923.767	27510.53
924.077	27566.58
924.387	27449.52
924.697	27389.18
925.008	27406.81
925.318	27234.61
925.628	27172.24
925.938	26984.22
926.248	26636.66
926.558	26655.19
926.867	26540.62
927.177	26498.13
927.487	26262.66
927.796	26146.05
928.106	26151.02
928.416	26155.09
928.725	25929.78
929.034	25715.55
929.344	25873.29
929.653	25774.76
929.962	25546.52
930.271	25474.2
930.581	25434.66
930.89	25185.17
931.199	25131.39
931.508	25057.94
931.817	25008.23
932.125	24909.7
932.434	24847.55
932.743	24517.17
933.051	24511.74
933.36	24529.82
933.669	24276.04
933.977	24257.51
934.286	24305.87
934.594	24203.5
934.902	24011.87
935.21	23921.93
935.519	23913.57
935.827	23843.51
936.135	23721.93
936.443	23549.96
936.751	23555.38
937.059	23540.02
937.367	23422.73
937.674	23268.16
937.982	23249.18
938.29	23228.39
938.597	23221.61
938.905	22942.74
939.213	22789.08
939.52	22698.23
939.827	22653.94
940.135	22418.69
940.442	22357.9
940.749	22265.25
941.056	22397.22
941.363	22208.75
941.67	22260.73
941.977	22146.83
942.284	21880.63
942.591	21828.2
942.898	21738.26
943.205	21705.26
943.511	21573.74
943.818	21530.35
944.125	21444.03
944.431	21262.34
944.738	21120.87
945.044	21157.25
945.35	21174.43
945.657	21043.36
945.963	20909.58
946.269	20759.52
946.575	20706.19
946.881	20523.82
947.187	20449.02
947.493	20451.74
947.799	20329.48
948.105	20225.3
948.41	20102.37
948.716	20156.15
949.022	19941.92
949.327	19902.15
949.633	19707.8
949.938	19843.84
950.244	19702.83
950.549	19585.32
950.854	19479.56
951.16	19342.61
951.465	19322.27
951.77	19308.04
952.075	19274.59
952.38	19142.17
952.685	19147.36
952.99	18953.02
953.294	18839.12
953.599	18904.43
953.904	18750.54
954.209	18671.9
954.513	18676.42
954.818	18539.02
955.122	18397.1
955.426	18455.63
955.731	18311.68
956.035	18141.74
956.339	18087.96
956.643	18049.54
956.948	17922.99
957.252	17859.71
957.556	17762.09
957.86	17627.4
958.163	17636.44
958.467	17592.38
958.771	17574.3
959.075	17471.25
959.378	17281.42
959.682	17360.52
959.985	17172.05
960.289	17134.54
960.592	16990.13
960.896	16897.93
961.199	16973.64
961.502	16893.86
961.805	16870.36
962.108	16758.5
962.411	16695.45
962.714	16628.11
963.017	16683.02
963.32	16535.91
963.623	16438.73
963.926	16446.42
964.228	16228.12
964.531	16306.31
964.833	16238.97
965.136	16090.95
965.438	16085.52
965.741	16009.14
966.043	15969.59
966.345	15914
966.648	15765.31
966.95	15768.47
967.252	15659.32
967.554	15545.88
967.856	15547.46
968.158	15460.23
968.46	15406.45
968.761	15361.25
969.063	15265.43
969.365	15177.75
969.666	14992.9
969.968	14959
970.269	14983.86
970.571	14970.52
970.872	14958.55
971.174	14716.75
971.475	14676.97
971.776	14570.99
972.077	14495.96
972.378	14509.97
972.679	14471.55
972.98	14353.14
973.281	14166.93
973.582	14202.86
973.883	14138
974.183	14077.89
974.484	14051.45
974.785	13940.5
975.085	13953.6
975.386	13892.36
975.686	13766.26
975.986	13773.95
976.287	13743.21
976.587	13618.47
976.887	13602.2
977.187	13512.48
977.487	13479.26
977.787	13323.79
978.087	13361.08
978.387	13181.19
978.687	13212.38
978.987	13110.69
979.286	12990.24
979.586	13034.98
979.885	12875.44
980.185	12863.01
980.484	12824.82
980.784	12753.86
981.083	12733.52
981.382	12659.85
981.682	12582.56
981.981	12555.9
982.28	12547.99
982.579	12436.81
982.878	12427.54
983.177	12341.67
983.475	12318.16
983.774	12240.2
984.073	12172.63
984.372	12095.35
984.67	12176.25
984.969	12081.56
985.267	11969.93
985.566	11924.05
985.864	11894.45
986.162	11837.5
986.461	11732.19
986.759	11698.75
987.057	11647
987.355	11544.85
987.653	11512.08
987.951	11484.74
988.249	11444.97
988.547	11373.56
988.844	11316.38
989.142	11206.56
989.44	11196.84
989.737	11215.59
990.035	11059.67
990.332	11040.23
990.63	10983.06
990.927	10950.52
991.224	10858.54
991.521	10903.29
991.819	10784.42
992.116	10688.38
992.413	10732.67
992.71	10637.31
993.006	10594.14
993.303	10602.5
993.6	10510.53
993.897	10430.98
994.193	10380.59
994.49	10277.99
994.787	10301.04
995.083	10173.81
995.379	10184.21
995.676	10181.95
995.972	10080.94
996.268	10020.37
996.565	9989.19
996.861	9941.05
997.157	9952.35
997.453	9803.65
997.749	9701.28
998.044	9655.86
998.34	9598.91
998.636	9546.03
998.932	9563.66
999.227	9475.08
999.523	9435.3
999.818	9365.02
1000.114	9297
1000.409	9243.44
1000.704	9182.43
1001	9137.01
1001.295	9073.28
1001.59	9172.71
1001.885	9075.99
1002.18	8922.77
1002.475	8936.33
1002.77	8902.44
1003.065	8841.42
1003.359	8806.62
1003.654	8713.51
1003.949	8636.68
1004.243	8671.03
1004.538	8581.31
1004.832	8539.73
1005.127	8510.58
1005.421	8433.07
1005.715	8374.31
1006.009	8352.62
1006.304	8315.33
1006.598	8193.53
1006.892	8200.08
1007.186	8066.07
1007.48	8028.56
1007.773	8050.03
1008.067	7998.96
1008.361	7922.8
1008.655	7885.29
1008.948	7783.59
1009.242	7752.86
1009.535	7674.22
1009.829	7588.35
1010.122	7537.27
1010.415	7524.62
1010.708	7508.35
1011.001	7430.84
1011.295	7361.68
1011.588	7328.47
1011.881	7240.78
1012.173	7255.25
1012.466	7189.94
1012.759	7134.35
1013.052	7122.82
1013.344	7020
1013.637	6993.79
1013.93	6992.66
1014.222	6960.11
1014.514	6911.98
1014.807	6805.99
1015.099	6811.19
1015.391	6822.49
1015.683	6749.05
1015.976	6676.28
1016.268	6617.07
1016.56	6572.78
1016.851	6484.19
1017.143	6481.48
1017.435	6417.53
1017.727	6403.97
1018.018	6394.25
1018.31	6326.68
1018.602	6272.45
1018.893	6187.48
1019.185	6143.64
1019.476	6080.14
1019.767	6112.68
1020.058	6024.09
1020.35	5981.61
1020.641	5929.86
1020.932	5857.77
1021.223	5838.79
1021.514	5793.36
1021.804	5705.01
1022.095	5723.08
1022.386	5709.3
1022.677	5621.62
1022.967	5581.17
1023.258	5532.81
1023.548	5508.85
1023.839	5444.45
1024.129	5401.06
1024.419	5388.63
1024.709	5326.71
1025	5342.98
1025.29	5246.94
1025.58	5248.97
1025.87	5198.58
1026.16	5165.13
1026.449	5154.74
1026.739	5118.35
1027.029	5058.92
1027.319	4980.05
1027.608	4970.11
1027.898	4933.05
1028.187	4908.19
1028.477	4796.55
1028.766	4793.39
1029.055	4738.03
1029.344	4693.96
1029.634	4685.6
1029.923	4658.93
1030.212	4599.72
1030.501	4578.03
1030.79	4579.16
1031.078	4460.07
1031.367	4510.69
1031.656	4430.69
1031.945	4424.59
1032.233	4345.27
1032.522	4366.28
1032.81	4310.47
1033.099	4265.72
1033.387	4235.67
1033.675	4181.2
1033.963	4159.28
1034.251	4131.04
1034.54	4079.29
1034.828	4029.12
1035.116	4014.65
1035.403	4008.55
1035.691	3969.01
1035.979	3948.44
1036.267	3890.82
1036.554	3880.65
1036.842	3860.53
1037.129	3846.3
1037.417	3767.43
1037.704	3710.48
1037.992	3693.53
1038.279	3657.38
1038.566	3626.42
1038.853	3626.42
1039.14	3626.42
