Data from copper_heatsink_FLMS001491_060.txt Node
Date: Tue Feb 07 10:50:12 GMT 2017
User: dcchb
Spectrometer: FLMS00149
Trigger mode: 0
Integration Time (sec): 2.000000E-2
Scans to average: 10
Electric dark correction enabled: true
Nonlinearity correction enabled: false
Boxcar width: 0
XAxis mode: Wavelengths
Number of Pixels in Spectrum: 2048
>>>>>Begin Spectral Data<<<<<
341.393	2.43
341.776	2.43
342.16	2.43
342.543	-72.82
342.927	-56.1
343.31	-58.59
343.693	-85.03
344.077	-62.43
344.46	-48.64
344.843	-58.81
345.226	-33.28
345.61	-21.98
345.993	-9.1
346.376	-6.84
346.759	23.67
347.142	14.86
347.525	51.69
347.908	46.5
348.291	52.82
348.674	87.4
349.057	107.74
349.44	126.72
349.823	139.15
350.206	158.81
350.588	234.51
350.971	234.51
351.354	233.16
351.737	266.38
352.119	255.53
352.502	291.69
352.884	277.68
353.267	287.17
353.65	301.86
354.032	315.64
354.414	328.3
354.797	303.21
355.179	342.76
355.562	331.46
355.944	346.15
356.326	333.49
356.709	347.28
357.091	351.8
357.473	371.01
357.855	355.64
358.238	342.99
358.62	363.1
359.002	344.34
359.384	352.7
359.766	349.31
360.148	338.92
360.53	355.19
360.912	348.86
361.294	343.66
361.676	352.7
362.057	359.71
362.439	347.73
362.821	342.31
363.203	353.61
363.584	347.73
363.966	345.92
364.348	328.75
364.729	324
365.111	333.72
365.493	339.37
365.874	324.23
366.256	322.65
366.637	345.7
367.019	333.95
367.4	329.65
367.781	327.62
368.163	344.34
368.544	336.43
368.925	335.75
369.306	340.5
369.688	321.29
370.069	338.47
370.45	342.31
370.831	326.04
371.212	335.08
371.593	309.54
371.974	331.01
372.355	341.86
372.736	352.25
373.117	332.59
373.498	347.28
373.879	325.36
374.26	331.69
374.641	318.13
375.021	340.95
375.402	363.78
375.783	340.27
376.163	335.08
376.544	376.2
376.925	369.43
377.305	370.78
377.686	363.78
378.066	368.75
378.447	328.3
378.827	368.07
379.208	365.13
379.588	384.57
379.968	385.02
380.349	376.2
380.729	355.41
381.109	360.61
381.489	363.78
381.87	370.33
382.25	380.5
382.63	384.34
383.01	361.97
383.39	387.73
383.77	392.02
384.15	368.52
384.53	374.85
384.91	385.92
385.29	393.61
385.67	395.19
386.049	403.1
386.429	407.16
386.809	392.48
387.189	401.29
387.568	398.35
387.948	395.41
388.328	411.23
388.707	405.36
389.087	408.07
389.466	393.83
389.846	399.48
390.225	419.14
390.605	410.1
390.984	417.11
391.363	406.71
391.743	426.37
392.122	410.55
392.501	418.92
392.881	425.7
393.26	422.08
393.639	430.67
394.018	414.17
394.397	437.22
394.776	434.06
395.155	434.51
395.534	425.92
395.913	451.91
396.292	436.99
396.671	457.11
397.05	442.42
397.429	459.82
397.808	438.35
398.186	467.5
398.565	451.46
398.944	465.24
399.323	485.13
399.701	456.43
400.08	464.79
400.458	441.06
400.837	500.95
401.215	475.41
401.594	465.92
401.972	465.24
402.351	461.85
402.729	464.11
403.107	490.33
403.486	494.62
403.864	480.16
404.242	476.32
404.62	497.11
404.999	476.54
405.377	505.47
405.755	504.79
406.133	502.53
406.511	525.13
406.889	522.42
407.267	525.58
407.645	510.89
408.023	505.01
408.401	527.16
408.779	523.77
409.156	554.96
409.534	566.71
409.912	566.03
410.29	544.34
410.667	538.46
411.045	565.58
411.422	577.56
411.8	546.82
412.178	583.88
412.555	566.03
412.933	599.7
413.31	564.67
413.687	599.7
414.065	608.06
414.442	599.7
414.819	602.87
415.197	607.61
415.574	603.54
415.951	632.7
416.328	616.88
416.705	616.88
417.082	645.35
417.46	639.47
417.837	634.5
418.214	664.33
418.591	635.86
418.967	659.81
419.344	639.25
419.721	651.68
420.098	679.7
420.475	662.07
420.852	665.69
421.228	660.49
421.605	678.8
421.982	668.85
422.358	700.49
422.735	692.81
423.111	685.35
423.488	709.3
423.864	705.91
424.241	711.56
424.617	693.26
424.994	742.52
425.37	710.66
425.746	725.57
426.123	736.42
426.499	730.55
426.875	727.83
427.251	748.62
427.627	762.86
428.003	750.43
428.379	765.35
428.756	742.97
429.132	786.14
429.507	795.4
429.883	801.05
430.259	796.08
430.635	804.89
431.011	813.71
431.387	820.26
431.763	854.61
432.138	846.7
432.514	851.67
432.89	842.86
433.265	861.16
433.641	857.1
434.016	871.78
434.392	883.54
434.767	897.77
435.143	907.26
435.518	902.74
435.894	916.53
436.269	905.91
436.644	947.04
437.02	938.9
437.395	922.18
437.77	939.58
438.145	981.16
438.52	968.28
438.895	966.02
439.271	966.92
439.646	990.65
440.021	980.03
440.395	991.33
440.77	1020.93
441.145	1006.7
441.52	1028.39
441.895	1020.26
442.27	1037.43
442.645	1006.02
443.019	1056.41
443.394	1039.46
443.769	1064.32
444.143	1035.4
444.518	1070.88
444.892	1064.1
445.267	1069.75
445.641	1070.88
446.016	1094.6
446.39	1085.56
446.764	1116.07
447.139	1081.95
447.513	1110.42
447.887	1109.07
448.262	1130.99
448.636	1108.39
449.01	1107.49
449.384	1180.7
449.758	1152.23
450.132	1151.1
450.506	1138.67
450.88	1204.88
451.254	1178.44
451.628	1189.52
452.002	1201.95
452.376	1200.82
452.75	1205.34
453.123	1246.92
453.497	1228.61
453.871	1253.47
454.244	1261.83
454.618	1308.16
454.992	1287.82
455.365	1310.87
455.739	1312.68
456.112	1334.15
456.486	1319.68
456.859	1337.31
457.232	1393.81
457.606	1382.28
457.979	1413.47
458.352	1414.14
458.725	1442.39
459.099	1442.17
459.472	1470.19
459.845	1466.57
460.218	1482.84
460.591	1517.19
460.964	1497.98
461.337	1553.35
461.71	1583.18
462.083	1558.77
462.456	1562.16
462.829	1589.28
463.201	1615.49
463.574	1613.01
463.947	1629.51
464.32	1689.39
464.692	1664.98
465.065	1687.13
465.438	1720.35
465.81	1725.1
466.183	1749.95
466.555	1793.57
466.928	1824.75
467.3	1810.97
467.672	1817.52
468.045	1852.55
468.417	1846.45
468.789	1883.06
469.161	1935.71
469.534	1938.65
469.906	1958.54
470.278	1960.57
470.65	2000.79
471.022	2030.62
471.394	2079.44
471.766	2071.3
472.138	2090.51
472.51	2147.23
472.882	2163.73
473.253	2201.02
473.625	2219.55
473.997	2288.02
474.369	2285.31
474.74	2302.93
475.112	2343.84
475.484	2377.96
475.855	2415.47
476.227	2459.54
476.598	2481.23
476.97	2530.27
477.341	2573.21
477.713	2609.82
478.084	2608.46
478.455	2686.2
478.827	2704.05
479.198	2794.9
479.569	2797.84
479.94	2852.52
480.311	2879.87
480.682	2958.74
481.053	3025.85
481.424	3107.66
481.795	3085.74
482.166	3125.06
482.537	3138.39
482.908	3246.86
483.279	3260.42
483.65	3297.71
484.021	3420.19
484.391	3407.09
484.762	3424.03
485.133	3485.28
485.503	3527.99
485.874	3608.44
486.244	3643.46
486.615	3718.94
486.985	3724.59
487.356	3783.35
487.726	3814.76
488.097	3923
488.467	3934.08
488.837	4039.84
489.207	4032.38
489.578	4113.51
489.948	4156.44
490.318	4197.8
490.688	4227.4
491.058	4322.09
491.428	4311.24
491.798	4394.86
492.168	4470.79
492.538	4487.51
492.908	4551.24
493.278	4590.78
493.648	4583.78
494.017	4691.57
494.387	4740.38
494.757	4819.7
495.126	4841.17
495.496	4825.58
495.866	4863.77
496.235	4957.78
496.605	4983.77
496.974	4994.39
497.344	5096.08
497.713	5087.49
498.082	5120.49
498.452	5190.54
498.821	5220.82
499.19	5254.95
499.559	5279.58
499.928	5357.99
500.298	5369.07
500.667	5434.15
501.036	5423.3
501.405	5492.68
501.774	5497.88
502.143	5575.39
502.512	5636.18
502.88	5602.73
503.249	5702.17
503.618	5721.37
503.987	5732.22
504.356	5805.67
504.724	5865.33
505.093	5893.35
505.462	5944.87
505.83	5942.84
506.199	5966.11
506.567	6096.73
506.936	6071.87
507.304	6150.74
507.672	6199.33
508.041	6234.81
508.409	6302.6
508.777	6310.51
509.145	6361.81
509.514	6457.17
509.882	6551.41
510.25	6510.05
510.618	6619.43
510.986	6611.07
511.354	6643.84
511.722	6750.05
512.09	6811.97
512.458	6752.99
512.826	6870.72
513.193	6866.2
513.561	6905.3
513.929	7002.7
514.297	7110.49
514.664	7156.14
515.032	7223.26
515.4	7311.84
515.767	7343.25
516.135	7390.48
516.502	7310.71
516.869	7458.96
517.237	7526.3
517.604	7434.1
517.972	7530.37
518.339	7664.15
518.706	7686.75
519.073	7774.43
519.44	7852.62
519.808	7920.87
520.175	7940.07
520.542	8047.19
520.909	8172.16
521.276	8161.31
521.643	8203.34
522.009	8305.94
522.376	8368.09
522.743	8447.41
523.11	8522.88
523.477	8604.46
523.843	8652.15
524.21	8768.75
524.577	8792.03
524.943	8859.6
525.31	8913.61
525.676	9034.51
526.043	9109.53
526.409	9114.96
526.776	9282.64
527.142	9366.25
527.508	9403.76
527.874	9540.71
528.241	9529.18
528.607	9637.66
528.973	9759.91
529.339	9749.29
529.705	9814.37
530.071	9891.89
530.437	10041.26
530.803	10104.31
531.169	10149.96
531.535	10146.8
531.901	10200.58
532.267	10279.67
532.632	10422.04
532.998	10450.97
533.364	10487.8
533.73	10567.35
534.095	10677.4
534.461	10746.78
534.826	10773.22
535.192	10834.69
535.557	10910.17
535.923	10963.5
536.288	11084.85
536.653	11103.38
537.019	11080.1
537.384	11151.97
537.749	11335.46
538.114	11316.93
538.479	11318.29
538.845	11434.22
539.21	11564.16
539.575	11497.49
539.94	11639.19
540.305	11715.57
540.67	11643.25
541.034	11804.6
541.399	11851.38
541.764	11839.18
542.129	11982.23
542.494	12138.61
542.858	12176.8
543.223	12181.54
543.587	12386.51
543.952	12384.93
544.316	12395.55
544.681	12453.85
545.045	12638.48
545.41	12809.1
545.774	12757.12
546.138	12809.78
546.503	12941.3
546.867	12978.13
547.231	13126.6
547.595	13170.67
547.959	13214.51
548.324	13322.76
548.688	13360.04
549.052	13402.75
549.416	13428.29
549.779	13583.32
550.143	13718.68
550.507	13843.2
550.871	13901.72
551.235	13932.46
551.599	14140.59
551.962	14153.24
552.326	14265.33
552.689	14402.95
553.053	14445.44
553.417	14502.39
553.78	14767.24
554.143	14750.97
554.507	14876.39
554.87	14960.68
555.234	15223.27
555.597	15091.07
555.96	15293.33
556.323	15371.06
556.686	15546.88
557.05	15771.28
557.413	15863.48
557.776	15989.81
558.139	16141.21
558.502	16204.49
558.865	16412.62
559.228	16684.48
559.59	16674.99
559.953	16799.95
560.316	17069.78
560.679	17139.38
561.041	17315.19
561.404	17482.42
561.767	17715.86
562.129	17646.71
562.492	17966.48
562.854	18067.04
563.217	18097.77
563.579	18311.55
563.941	18625.67
564.304	18771.65
564.666	18944.98
565.028	19037.18
565.39	19253.67
565.753	19550.84
566.115	19716.49
566.477	19805.07
566.839	19943.37
567.201	20284.38
567.563	20331.84
567.925	20669
568.287	20740.64
568.648	20852.73
569.01	21103.34
569.372	21246.16
569.734	21333.62
570.095	21509.43
570.457	21813.83
570.819	21890.67
571.18	22162.3
571.542	22430.09
571.903	22563.64
572.265	22722.74
572.626	22945.33
572.987	22992.33
573.349	23228.71
573.71	23447.46
574.071	23574.24
574.432	23856.27
574.794	24029.14
575.155	24150.27
575.516	24202.7
575.877	24426.42
576.238	24542.12
576.599	24743.25
576.96	24852.85
577.32	24954.77
577.681	25242.9
578.042	25323.57
578.403	25366.73
578.763	25632.72
579.124	25828.87
579.485	25978.47
579.845	26252.13
580.206	26220.05
580.566	26427.05
580.927	26419.14
581.287	26738.68
581.648	26824.77
582.008	26982.74
582.368	26990.87
582.728	27065.22
583.089	27229.96
583.449	27300.02
583.809	27479.67
584.169	27579.11
584.529	27585.43
584.889	27947.68
585.249	27971.41
585.609	27924.18
585.969	28069.26
586.329	28144.29
586.688	28401.91
587.048	28405.75
587.408	28534.33
587.768	28560.1
588.127	28721.9
588.487	28767.1
588.846	28932.52
589.206	28882.8
589.565	29118.5
589.925	29341.77
590.284	29225.62
590.643	29311.49
591.003	29522.11
591.362	29619.28
591.721	29655.43
592.08	29786.73
592.44	29878.03
592.799	29898.82
593.158	30027.85
593.517	30146.04
593.876	30116.89
594.235	30299.26
594.593	30448.18
594.952	30459.26
595.311	30413.38
595.67	30640.27
596.029	30894.95
596.387	31122.06
596.746	31256.3
597.104	31006.81
597.463	31148.95
597.822	31335.62
598.18	31249.74
598.538	31355.73
598.897	31562.28
599.255	31428.04
599.613	31924.75
599.972	31817.41
600.33	32113.45
600.688	31899.67
601.046	32090.4
601.404	32377.17
601.762	32334.46
602.12	32534.23
602.478	32589.82
602.836	32696.03
603.194	32610.16
603.552	32759.08
603.91	32726.99
604.268	33053.76
604.625	32947.55
604.983	33057.15
605.341	33138.51
605.698	33307.99
606.056	33463.47
606.413	33443.58
606.771	33731.03
607.128	33826.4
607.485	33726.74
607.843	33960.63
608.2	34156.79
608.557	34414.41
608.914	34265.03
609.272	34439.72
609.629	34496.89
609.986	34773.49
610.343	34652.59
610.7	35101.17
611.057	34979.59
611.414	35062.07
611.771	35148.4
612.127	35181.39
612.484	35286.47
612.841	35523.53
613.198	35395.62
613.554	35505
613.911	35729.85
614.267	35701.38
614.624	35897.98
614.98	36076.51
615.337	36267.46
615.693	36347.24
616.05	36316.05
616.406	36602.37
616.762	36517.85
617.118	36598.08
617.475	36596.95
617.831	36849.37
618.187	36912.65
618.543	36932.98
618.899	37251.62
619.255	37199.19
619.611	37219.76
619.967	37386.08
620.323	37558.73
620.678	37464.5
621.034	37567.09
621.39	37454.78
621.746	37512.63
622.101	38055.89
622.457	37698.39
622.812	37995.1
623.168	37939.28
623.523	38030.81
623.879	38269.9
624.234	37918.27
624.589	38171.14
624.945	38334.53
625.3	38321.87
625.655	38447.75
626.01	38514.86
626.365	38511.47
626.72	38630.11
627.075	38547.86
627.43	38751.47
627.785	38549.89
628.14	38736.55
628.495	38793.95
628.85	38916.89
629.205	38797.79
629.559	39120.72
629.914	38854.97
630.269	39138.12
630.623	39036.21
630.978	38914.85
631.332	39267.16
631.687	39238.91
632.041	39208.4
632.396	39189.42
632.75	39200.49
633.104	39101.97
633.459	39098.8
633.813	39054.06
634.167	39020.39
634.521	39311.45
634.875	39254.73
635.229	39386.7
635.583	39300.61
635.937	39247.73
636.291	39225.35
636.645	39421.51
636.999	39478.23
637.352	39500.15
637.706	39217.22
638.06	39385.35
638.413	39249.76
638.767	39352.13
639.121	39353.03
639.474	39257.22
639.828	39500.83
640.181	39619.01
640.534	39639.35
640.888	39423.99
641.241	39403.2
641.594	39496.98
641.947	39669.86
642.301	39476.42
642.654	39583.76
643.007	39592.12
643.36	39661.5
643.713	39475.97
644.066	39666.92
644.419	39562.75
644.771	39336.08
645.124	39118.24
645.477	39137.22
645.83	38861.29
646.182	38868.3
646.535	38779.49
646.888	38716.67
647.24	38560.29
647.593	38824.01
647.945	38747.85
648.298	38782.65
648.65	38673.05
649.002	38611.81
649.355	38767.96
649.707	38734.07
650.059	38906.72
650.411	39441.84
650.763	39501.05
651.115	39797.77
651.467	39801.83
651.819	39979.01
652.171	39779.24
652.523	39805.45
652.875	39847.26
653.227	39802.74
653.578	40104.65
653.93	40018.1
654.282	39809.52
654.633	39873.92
654.985	40096.52
655.337	40077.53
655.688	40133.8
656.039	40185.78
656.391	39946.69
656.742	40010.42
657.094	40090.19
657.445	40380.58
657.796	40223.07
658.147	40040.7
658.498	40136.52
658.849	40280.92
659.2	40290.86
659.551	40278.21
659.902	40487.24
660.253	40343.06
660.604	40458.99
660.955	40239.11
661.306	40443.4
661.656	40296.06
662.007	40428.49
662.358	40573.34
662.708	40670.96
663.059	40602.49
663.409	40382.38
663.76	40692.66
664.11	40683.62
664.461	40751.19
664.811	40859.43
665.161	40748.02
665.511	40778.98
665.862	40787.57
666.212	41065.3
666.562	41095.59
666.912	40899.66
667.262	40800.23
667.612	40966.55
667.962	41098.52
668.312	41031.41
668.662	41191.85
669.011	41156.6
669.361	41227.33
669.711	41228.92
670.06	41225.53
670.41	41168.13
670.76	40963.16
671.109	41296.03
671.459	41183.27
671.808	41079.54
672.157	41328.35
672.507	41284.51
672.856	41198.41
673.205	41318.18
673.554	41382.58
673.904	41298.52
674.253	41658.06
674.602	41545.29
674.951	41029.83
675.3	40898.3
675.649	41519.08
675.998	41482.24
676.346	41651.28
676.695	41670.26
677.044	41448.35
677.393	41669.58
677.741	41693.76
678.09	41562.01
678.438	41577.38
678.787	41520.89
679.135	41673.42
679.484	41324.05
679.832	41706.42
680.181	41428.23
680.529	41723.37
680.877	41514.78
681.225	41670.49
681.573	41799.97
681.922	41504.61
682.27	41455.35
682.618	41731.28
682.966	41442.7
683.314	41678.62
683.661	41513.65
684.009	41383.04
684.357	41334.45
684.705	41216.71
685.053	41578.06
685.4	41303.94
685.748	41169.03
686.095	41234.34
686.443	41168.58
686.79	41090.39
687.138	41273.89
687.485	41281.12
687.832	41195.7
688.18	41169.03
688.527	40967.68
688.874	40980.33
689.221	41039.77
689.568	40902.37
689.915	40670.29
690.262	40790.96
690.609	40615.15
690.956	40611.53
691.303	40689.04
691.65	40476.85
691.997	40654.24
692.344	40409.95
692.69	40477.07
693.037	40590.51
693.383	40250.18
693.73	40506.9
694.077	40417.86
694.423	40400.01
694.769	40200.47
695.116	40288.83
695.462	40241.82
695.808	40042.51
696.155	39969.97
696.501	39805
696.847	39937.65
697.193	39634.16
697.539	39784.43
697.885	39727.71
698.231	39764.32
698.577	39705.79
698.923	39538.79
699.269	39569.3
699.614	39203.43
699.96	39170.89
700.306	39297.89
700.651	39185.13
700.997	39030.33
701.342	39012.03
701.688	39136.32
702.033	38961.18
702.379	39040.5
702.724	38852.26
703.069	38974.06
703.415	38584.24
703.76	38844.57
704.105	38846.83
704.45	38677.57
704.795	38507.63
705.14	38570.23
705.485	38517.8
705.83	38325.04
706.175	38509.44
706.52	38290.24
706.865	38188.77
707.209	38292.27
707.554	38296.11
707.899	38391.25
708.243	38060.86
708.588	38274.42
708.932	38024.25
709.277	37838.72
709.621	38051.6
709.966	37811.15
710.31	37977.7
710.654	37690.7
710.998	37836.24
711.342	37774.54
711.687	37822.68
712.031	37744.49
712.375	37673.98
712.719	37679.63
713.063	37583.59
713.407	37682.79
713.75	37508.56
714.094	37514.44
714.438	37225.63
714.782	37279.42
715.125	37210.94
715.469	37469.47
715.812	37252.98
716.156	37030.16
716.499	37162.58
716.843	37325.06
717.186	37046.43
717.53	37314.22
717.873	37105.86
718.216	37179.98
718.559	37189.93
718.902	36862.7
719.246	36976.37
719.589	36879.65
719.932	36634.91
720.275	36928.69
720.617	36824.51
720.96	37021.79
721.303	36913.32
721.646	36926.66
721.989	36842.36
722.331	36882.36
722.674	36778.64
723.016	36779.54
723.359	36770.95
723.701	36946.09
724.044	36564.18
724.386	36522.82
724.729	36745.87
725.071	36688.24
725.413	36794.23
725.755	36566.67
726.097	36500.9
726.439	36413.68
726.782	36391.75
727.124	36589.72
727.465	36267.69
727.807	36271.53
728.149	36183.62
728.491	36104.98
728.833	36429.49
729.175	36293.9
729.516	36259.1
729.858	36300.01
730.199	36241.25
730.541	36191.76
730.882	36009.39
731.224	36300.01
731.565	36024.31
731.906	35999.22
732.248	36241.93
732.589	35986.34
732.93	35941.6
733.271	35918.55
733.612	35923.07
733.953	36042.16
734.294	35904.31
734.635	35869.73
734.976	35898.89
735.317	35770.98
735.658	35804.65
735.999	35885.78
736.339	35892.79
736.68	35944.08
737.021	35941.37
737.361	35825.44
737.702	35913.12
738.042	35834.71
738.383	35655.73
738.723	35803.52
739.063	35665.9
739.404	35658.21
739.744	35575.51
740.084	35478.11
740.424	35638.78
740.764	35519.46
741.104	35709.06
741.444	35546.58
741.784	35537.99
742.124	35648.05
742.464	35526.47
742.804	35406.24
743.143	35380.48
743.483	35545
743.823	35278.11
744.162	35420.93
744.502	35569.86
744.841	35295.06
745.181	35543.87
745.52	35356.98
745.86	35297.55
746.199	35251.9
746.538	35310.2
746.877	35427.71
747.216	35584.09
747.556	35303.87
747.895	35575.28
748.234	35316.3
748.573	35225.91
748.911	35302.29
749.25	35488.5
749.589	35080.38
749.928	35189.53
750.267	35218.9
750.605	35083.99
750.944	34972.81
751.283	35032.24
751.621	35016.88
751.96	34929.87
752.298	34886.26
752.636	34925.8
752.975	34891
753.313	34695.08
753.651	34890.55
753.989	34725.81
754.327	34723.78
754.666	34592.25
755.004	34605.81
755.342	34623.67
755.679	34640.39
756.017	34304.13
756.355	34558.36
756.693	34286.73
757.031	34515.42
757.368	34243.11
757.706	34344.35
758.044	34142.1
758.381	34314.97
758.719	34100.97
759.056	34085.83
759.394	34063.91
759.731	33948.66
760.068	33805.16
760.405	33766.51
760.743	33597.93
761.08	33686.97
761.417	33559.29
761.754	33426.41
762.091	33378.27
762.428	33441.32
762.765	33200.43
763.102	33423.25
763.438	33218.05
763.775	33157.04
764.112	33053.54
764.449	33142.57
764.785	32845.18
765.122	32800.89
765.458	32703.49
765.795	32504.63
766.131	32556.83
766.467	32556.83
766.804	32245.42
767.14	32250.62
767.476	32352.31
767.812	32312.99
768.148	32381.69
768.485	32075.48
768.821	31977.86
769.157	31926.79
769.492	31883.62
769.828	31999.78
770.164	31794.59
770.5	31726.11
770.836	31566.35
771.171	31418.1
771.507	31492.22
771.842	31297.88
772.178	31236.41
772.513	31184.89
772.849	31154.83
773.184	30976.76
773.519	30931.33
773.855	30911.22
774.19	30917.55
774.525	30828.51
774.86	30828.96
775.195	30695.18
775.53	30634.84
775.865	30577.22
776.2	30371.12
776.535	30255.42
776.87	30162.77
777.205	30064.69
777.539	29925.48
777.874	30065.14
778.209	29695.21
778.543	29781.53
778.878	29509.22
779.212	29654.98
779.547	29450.24
779.881	29538.83
780.215	29277.37
780.55	29337.93
780.884	29212.06
781.218	29141.55
781.552	29141.55
781.886	29003.93
782.22	29010.03
782.554	28959.41
782.888	28671.28
783.222	28489.82
783.556	28513.32
783.889	28409.14
784.223	28285.98
784.557	28353.32
784.89	28182.93
785.224	28010.73
785.557	28001.92
785.891	28052.54
786.224	27971.41
786.558	28065.42
786.891	27854.35
787.224	27771.87
787.557	27637.18
787.891	27549.5
788.224	27695.71
788.557	27599.67
788.89	27441.93
789.223	27409.39
789.556	27314.25
789.888	27284.88
790.221	27102.28
790.554	27058.89
790.887	27114.03
791.219	27025
791.552	26918.33
791.884	26870.42
792.217	26791.56
792.549	26599.24
792.882	26650.54
793.214	26465.69
793.546	26551.34
793.879	26270.44
794.211	26345.47
794.543	26335.52
794.875	26318.8
795.207	26461.62
795.539	26338.69
795.871	26216.88
796.203	25924.01
796.535	25865.48
796.867	25782.32
797.198	25872.71
797.53	25769.21
797.862	25623.45
798.193	25595.43
798.525	25502.78
798.856	25607.18
799.188	25214.42
799.519	25167.64
799.85	25147.53
800.182	25154.54
800.513	25179.62
800.844	24964.94
801.175	25096.46
801.506	25054.43
801.837	24951.6
802.168	24949.12
802.499	24844.26
802.83	24814.88
803.161	24737.82
803.491	24863.47
803.822	24722.23
804.153	24623.93
804.483	24475.68
804.814	24457.83
805.145	24313.43
805.475	24390.26
805.805	24296.25
806.136	24446.53
806.466	24362.92
806.796	24337.38
807.126	24199.76
807.457	24051.74
807.787	24245.63
808.117	23958.86
808.447	24016.49
808.777	24083.15
809.107	23906.21
809.436	23766.32
809.766	23785.31
810.096	23771.52
810.426	23692.88
810.755	23644.52
811.085	23558.87
811.414	23599.55
811.744	23403.4
812.073	23416.05
812.403	23522.26
812.732	23378.09
813.061	23332.21
813.39	23327.69
813.719	23168.15
814.049	23332.89
814.378	23229.84
814.707	23146
815.036	23128.6
815.365	23123.18
815.693	22811.77
816.022	22874.82
816.351	22848.61
816.68	22653.81
817.008	22790.98
817.337	22636.86
817.665	22680.93
817.994	22666.01
818.322	22652
818.651	22601.84
818.979	22591.44
819.307	22708.27
819.636	22575.4
819.964	22452.91
820.292	22532.68
820.62	22528.16
820.948	22412.91
821.276	22556.19
821.604	22597.77
821.932	22528.84
822.259	22522.52
822.587	22527.03
822.915	22430.09
823.243	22526.36
823.57	22422.4
823.898	22457.66
824.225	22450.43
824.553	22504.66
824.88	22519.8
825.207	22555.73
825.535	22591.44
825.862	22618.78
826.189	22510.31
826.516	22699.01
826.843	22688.61
827.17	22639.8
827.497	22659.23
827.824	22756.41
828.151	22861.26
828.478	22649.97
828.805	22738.55
829.131	22640.7
829.458	22657.88
829.785	22497.43
830.111	22620.37
830.438	22766.8
830.764	22800.25
831.09	22896.74
831.417	22698.78
831.743	22929.74
832.069	22909.17
832.395	22834.37
832.722	22788.72
833.048	22884.54
833.374	22971.54
833.7	22827.59
834.026	22849.51
834.351	22906.46
834.677	22843.41
835.003	22818.55
835.329	22819
835.654	22769.51
835.98	22797.54
836.306	22808.61
836.631	22717.09
836.956	22694.04
837.282	22669.4
837.607	22657.65
837.932	22474.61
838.258	22590.08
838.583	22596.41
838.908	22451.33
839.233	22572.91
839.558	22527.03
839.883	22512.57
840.208	22435.06
840.533	22502.85
840.858	22564.1
841.182	22493.36
841.507	22506.24
841.832	22345.8
842.156	22376.3
842.481	22331.56
842.805	22266.48
843.13	22253.37
843.454	22212.92
843.778	22182.19
844.103	22103.09
844.427	22098.12
844.751	22080.27
845.075	22100.15
845.399	22028.29
845.723	21882.31
846.047	21889.09
846.371	21697.23
846.695	21912.14
847.019	21688.41
847.343	21578.81
847.666	21464.24
847.99	21435.09
848.313	21389.89
848.637	21259.5
848.96	21298.14
849.284	21233.96
849.607	21076
849.931	20991.93
850.254	20854.31
850.577	20893.86
850.9	20728.44
851.223	20647.99
851.546	20521.66
851.869	20312.18
852.192	20450.93
852.515	20397.15
852.838	20429.46
853.161	20338.62
853.483	20283.25
853.806	20121.22
854.129	20181.33
854.451	20153.31
854.774	20090.49
855.096	20120.54
855.419	19995.12
855.741	20055.24
856.063	19869.93
856.385	19925.52
856.708	19824.73
857.03	19803.72
857.352	19752.87
857.674	19726.66
857.996	19562.59
858.318	19585.42
858.64	19565.08
858.961	19636.72
859.283	19417.96
859.605	19217.07
859.926	19511.75
860.248	19400.11
860.57	19287.8
860.891	19293.67
861.212	19183.85
861.534	19204.41
861.855	19051.42
862.176	19093.68
862.498	19151.3
862.819	19168.03
863.14	19062.95
863.461	19029.73
863.782	19007.58
864.103	18986.56
864.424	19013
864.745	19045.54
865.065	18936.39
865.386	18976.62
865.707	18976.17
866.027	18818.66
866.348	18899.79
866.668	18932.55
866.989	18932.33
867.309	18680.13
867.63	18783.18
867.95	18808.49
868.27	18645.33
868.59	18688.27
868.91	18536.63
869.23	18549.06
869.55	18491.21
869.87	18696.63
870.19	18591.77
870.51	18578.21
870.83	18526.69
871.15	18348.16
871.469	18464.77
871.789	18576.4
872.109	18538.44
872.428	18327.15
872.748	18409.4
873.067	18361.49
873.386	18372.57
873.706	18448.27
874.025	18352
874.344	18328.73
874.663	18305.45
874.982	18311.55
875.301	18316.98
875.62	18359.01
875.939	18407.6
876.258	18318.78
876.577	18231.1
876.896	18268.62
877.214	18235.85
877.533	18262.06
877.852	18216.64
878.17	18185.91
878.489	18163.76
878.807	18103.65
879.125	18046.7
879.444	18176.64
879.762	17950.66
880.08	18072.24
880.398	17953.37
880.716	17984.78
881.034	17913.37
881.352	17913.37
881.67	17926.93
881.988	17969.19
882.306	17939.58
882.624	17796.09
882.941	17745.01
883.259	17656.65
883.577	17684.68
883.894	17611.23
884.212	17663.66
884.529	17697.56
884.846	17689.2
885.164	17696.2
885.481	17623.43
885.798	17608.75
886.115	17632.7
886.432	17593.15
886.75	17489.65
887.067	17613.94
887.383	17404.46
887.7	17439.48
888.017	17358.13
888.334	17408.3
888.651	17370.11
888.967	17323.78
889.284	17246.72
889.6	17197.23
889.917	16941.64
890.233	17088.99
890.55	17100.06
890.866	17032.94
891.182	16997.46
891.498	16980.29
891.815	17023.22
892.131	16846.28
892.447	16919.05
892.763	16736.9
893.079	16757.47
893.395	16701.65
893.71	16618.26
894.026	16635.89
894.342	16554.08
894.657	16561.54
894.973	16463.01
895.289	16476.35
895.604	16578.04
895.92	16333.3
896.235	16274.77
896.55	16288.33
896.865	16319.97
897.181	16360.87
897.496	16233.41
897.811	16100.54
898.126	16084.94
898.441	16020.54
898.756	15936.25
899.071	15872.07
899.386	15935.8
899.7	15866.64
900.015	15732.41
900.33	15634.56
900.644	15533.55
900.959	15628.69
901.273	15550.27
901.588	15481.12
901.902	15375.81
902.216	15375.58
902.531	15435.02
902.845	15372.87
903.159	15352.08
903.473	15250.39
903.787	15165.65
904.101	15097.85
904.415	15068.02
904.729	15070.73
905.042	15062.15
905.356	15116.16
905.67	14896.73
905.984	14891.53
906.297	14978.53
906.611	14725.21
906.924	14774.92
907.237	14749.39
907.551	14766.33
907.864	14538.77
908.177	14510.75
908.491	14441.82
908.804	14429.39
909.117	14345.33
909.43	14285.9
909.743	14261.72
910.056	14294.03
910.368	14172.68
910.681	14138.33
910.994	14097.2
911.307	14052.91
911.619	13826.7
911.932	13912.12
912.244	13854.04
912.557	13901.72
912.869	13859.01
913.181	13722.07
913.494	13726.14
913.806	13690.66
914.118	13577.21
914.43	13590.32
914.742	13537.67
915.054	13529.76
915.366	13395.52
915.678	13446.6
915.99	13310.1
916.302	13273.04
916.613	13261.74
916.925	13237.11
917.236	13197.79
917.548	13115.3
917.859	13136.77
918.171	13118.02
918.482	12960.51
918.794	12923.9
919.105	12952.15
919.416	12841.41
919.727	12700.17
920.038	12728.42
920.349	12760.29
920.66	12669.44
920.971	12628.31
921.282	12520.29
921.593	12491.37
921.903	12400.75
922.214	12430.58
922.525	12347.19
922.835	12380.86
923.146	12180.19
923.456	12097.48
923.767	12127.99
924.077	12020.42
924.387	12069.46
924.697	12018.84
925.008	11899.74
925.318	11963.92
925.628	11979.97
925.938	11896.81
926.248	11666.98
926.558	11705.17
926.867	11676.7
927.177	11693.65
927.487	11621.56
927.796	11540.88
928.106	11514.89
928.416	11465.18
928.725	11467.21
929.034	11267.9
929.344	11302.02
929.653	11352.19
929.962	11208.91
930.271	11210.04
930.581	11218.63
930.89	11114.68
931.199	11094.12
931.508	11102.48
931.817	11112.19
932.125	10929.83
932.434	10955.81
932.743	10861.58
933.051	10855.03
933.36	10799.89
933.669	10733.9
933.977	10727.12
934.286	10717.63
934.594	10827.23
934.902	10594.47
935.21	10529.61
935.519	10566.67
935.827	10469.27
936.135	10429.27
936.443	10343.63
936.751	10253.69
937.059	10315.6
937.367	10262.27
937.674	10297.53
937.982	10267.7
938.29	10153.57
938.597	10155.16
938.905	10052.11
939.213	10008.72
939.52	9907.93
939.827	10043.97
940.135	9939.34
940.442	9927.82
940.749	9905.45
941.056	9882.4
941.363	9718.11
941.67	9737.09
941.977	9663.64
942.284	9628.16
942.591	9632.46
942.898	9612.57
943.205	9579.35
943.511	9485.12
943.818	9435.63
944.125	9344.56
944.431	9336.87
944.738	9286.7
945.044	9346.14
945.35	9286.7
945.657	9210.77
945.963	9224.56
946.269	9119.48
946.575	9124.9
946.881	9097.56
947.187	9114.05
947.493	9082.64
947.799	8995.64
948.105	8983.44
948.41	8844
948.716	8816.21
949.022	8770.56
949.327	8783.89
949.633	8808.53
949.938	8747.51
950.244	8726.72
950.549	8700.28
950.854	8649.66
951.16	8612.37
951.465	8590
951.77	8635.2
952.075	8486.27
952.38	8450.12
952.685	8468.65
952.99	8327.18
953.294	8366.96
953.599	8286.96
953.904	8264.81
954.209	8178.71
954.513	8228.88
954.818	8205.15
955.122	8122.89
955.426	8107.98
955.731	8071.37
956.035	8050.13
956.339	7994.54
956.643	7992.28
956.948	7970.81
957.252	7978.49
957.556	7932.39
957.86	7842.68
958.163	7923.58
958.467	7805.16
958.771	7794.31
959.075	7774.2
959.378	7718.16
959.682	7655.11
959.985	7696.24
960.289	7576.92
960.592	7579.63
960.896	7576.69
961.199	7548.67
961.502	7533.08
961.805	7484.49
962.108	7446.08
962.411	7430.93
962.714	7395.23
963.017	7427.77
963.32	7359.98
963.623	7294.21
963.926	7212.86
964.228	7191.62
964.531	7187.55
964.833	7123.37
965.136	7062.36
965.438	7105.97
965.741	7042.47
966.043	6997.73
966.345	6995.24
966.648	6981.45
966.95	6943.49
967.252	6929.25
967.554	6901
967.856	6934.9
968.158	6751.18
968.46	6856.94
968.761	6734
969.063	6786.43
969.365	6708.92
969.666	6719.31
969.968	6671.18
970.269	6668.24
970.571	6544.4
970.872	6603.16
971.174	6578.98
971.475	6501.69
971.776	6525.65
972.077	6468.93
972.378	6476.38
972.679	6503.05
972.98	6352.09
973.281	6428.48
973.582	6375.14
973.883	6285.65
974.183	6293.79
974.484	6277.52
974.785	6240.46
975.085	6231.64
975.386	6253.79
975.686	6177.63
975.986	6122.27
976.287	6131.76
976.587	6087.69
976.887	6054.7
977.187	6094.02
977.487	6005.66
977.787	5963.63
978.087	6052.21
978.387	5948.71
978.687	5930.18
978.987	5880.69
979.286	5839.11
979.586	5883.63
979.885	5851.32
980.185	5800.24
980.484	5771.77
980.784	5712.11
981.083	5764.54
981.382	5708.49
981.682	5691.09
981.981	5606.58
982.28	5691.77
982.579	5564.77
982.878	5660.13
983.177	5550.76
983.475	5549.63
983.774	5469.18
984.073	5448.39
984.372	5437.99
984.67	5390.54
984.969	5437.77
985.267	5427.82
985.566	5367.94
985.864	5272.12
986.162	5346.47
986.461	5290.88
986.759	5237.09
987.057	5239.58
987.355	5257.43
987.653	5214.5
987.951	5172.01
988.249	5154.16
988.547	5129.3
988.844	5120.03
989.142	5067.83
989.44	5073.26
989.737	5027.83
990.035	4963.43
990.332	4982.86
990.63	4981.06
990.927	4941.51
991.224	4949.19
991.521	4893.83
991.819	4903.77
992.116	4867.39
992.413	4856.31
992.71	4849.76
993.006	4825.13
993.303	4780.38
993.6	4786.26
993.897	4714.17
994.193	4715.53
994.49	4685.92
994.787	4668.3
995.083	4677.33
995.379	4684.34
995.676	4650.44
995.972	4565.02
996.268	4566.38
996.565	4513.05
996.861	4525.25
997.157	4520.05
997.453	4494.74
997.749	4421.07
998.044	4421.3
998.34	4402.09
998.636	4386.95
998.932	4346.27
999.227	4357.8
999.523	4298.59
999.818	4302.43
1000.114	4252.94
1000.409	4209.55
1000.704	4228.08
1001	4250.45
1001.295	4144.02
1001.59	4156.22
1001.885	4123.68
1002.18	4096.11
1002.475	4081.64
1002.77	4048.42
1003.065	4045.71
1003.359	4003.68
1003.654	3975.43
1003.949	3978.14
1004.243	3919.84
1004.538	3868.32
1004.832	3904.25
1005.127	3887.75
1005.421	3816.11
1005.715	3850.92
1006.009	3820.86
1006.304	3816.11
1006.598	3787.64
1006.892	3729.34
1007.186	3750.81
1007.48	3749.45
1007.773	3696.8
1008.067	3641.66
1008.361	3643.69
1008.655	3648.44
1008.948	3608.66
1009.242	3584.93
1009.535	3569.57
1009.829	3546.97
1010.122	3554.2
1010.415	3521.66
1010.708	3452.06
1011.001	3530.02
1011.295	3443.92
1011.588	3448.67
1011.881	3427.65
1012.173	3352.4
1012.466	3308.56
1012.759	3332.06
1013.052	3325.73
1013.344	3298.84
1013.637	3306.98
1013.93	3219.29
1014.222	3264.26
1014.514	3238.28
1014.807	3177.49
1015.099	3171.61
1015.391	3154.89
1015.683	3144.04
1015.976	3139.3
1016.268	3075.12
1016.56	3044.61
1016.851	3069.47
1017.143	3046.87
1017.435	3011.84
1017.727	2997.15
1018.018	2935.91
1018.31	2942.24
1018.602	2872.18
1018.893	2871.05
1019.185	2883.94
1019.476	2888.68
1019.767	2878.06
1020.058	2823.37
1020.35	2787.67
1020.641	2770.04
1020.932	2781.57
1021.223	2754.67
1021.514	2743.6
1021.804	2719.87
1022.095	2690.27
1022.386	2679.2
1022.677	2625.86
1022.967	2639.2
1023.258	2587.45
1023.548	2602.36
1023.839	2551.29
1024.129	2551.06
1024.419	2531.85
1024.709	2504.06
1025	2484.85
1025.29	2503.83
1025.58	2473.78
1025.87	2451.4
1026.16	2423.38
1026.449	2416.83
1026.739	2386.32
1027.029	2406.89
1027.319	2386.32
1027.608	2389.71
1027.898	2323.95
1028.187	2327.11
1028.477	2323.95
1028.766	2280.11
1029.055	2272.2
1029.344	2247.34
1029.634	2249.6
1029.923	2216.61
1030.212	2234.01
1030.501	2224.07
1030.79	2193.56
1031.078	2164.86
1031.367	2109.27
1031.656	2132.09
1031.945	2095.03
1032.233	2086.89
1032.522	2077.4
1032.81	2083.28
1033.099	2048.03
1033.387	2027.01
1033.675	2003.05
1033.963	1969.16
1034.251	2018.42
1034.54	2020
1034.828	1925.32
1035.116	1911.53
1035.403	1938.88
1035.691	1890.52
1035.979	1923.96
1036.267	1891.65
1036.554	1893.68
1036.842	1867.92
1037.129	1855.94
1037.417	1813
1037.704	1814.81
1037.992	1773.68
1038.279	1784.3
1038.566	1763.06
1038.853	1763.06
1039.14	1763.06
