Data from copper_heatsink_FLMS001491_075.txt Node
Date: Tue Feb 07 10:50:33 GMT 2017
User: dcchb
Spectrometer: FLMS00149
Trigger mode: 0
Integration Time (sec): 2.000000E-2
Scans to average: 10
Electric dark correction enabled: true
Nonlinearity correction enabled: false
Boxcar width: 0
XAxis mode: Wavelengths
Number of Pixels in Spectrum: 2048
>>>>>Begin Spectral Data<<<<<
341.393	-16.47
341.776	-16.47
342.16	-16.47
342.543	-70.25
342.927	-34.77
343.31	-72.29
343.693	-75.68
344.077	-45.17
344.46	-40.42
344.843	-51.95
345.226	-41.55
345.61	-30.93
345.993	-5.4
346.376	1.38
346.759	5.9
347.142	19.46
347.525	41.61
347.908	49.97
348.291	58.56
348.674	79.35
349.057	107.14
349.44	132
349.823	135.62
350.206	181.94
350.588	233.47
350.971	247.71
351.354	261.49
351.737	275.73
352.119	280.7
352.502	295.61
352.884	297.65
353.267	313.47
353.65	314.14
354.032	337.19
354.414	333.13
354.797	339
355.179	353.24
355.562	352.11
355.944	367.93
356.326	398.89
356.709	348.27
357.091	385.33
357.473	395.27
357.855	366.35
358.238	373.58
358.62	391.2
359.002	368.15
359.384	371.09
359.766	381.49
360.148	381.26
360.53	383.75
360.912	386.23
361.294	352.79
361.676	378.55
362.057	359.79
362.439	383.97
362.821	365.44
363.203	371.09
363.584	364.09
363.966	353.92
364.348	363.86
364.729	361.15
365.111	346.01
365.493	360.47
365.874	382.39
366.256	363.86
366.637	361.15
367.019	359.34
367.4	359.79
367.781	369.06
368.163	363.63
368.544	375.16
368.925	344.43
369.306	370.41
369.688	345.78
370.069	373.13
370.45	355.95
370.831	378.78
371.212	374.26
371.593	386.01
371.974	378.32
372.355	364.09
372.736	376.97
373.117	388.04
373.498	367.25
373.879	363.63
374.26	351.66
374.641	359.11
375.021	373.58
375.402	334.93
375.783	374.71
376.163	369.06
376.544	416.51
376.925	404.54
377.305	380.36
377.686	379.68
378.066	390.53
378.447	387.14
378.827	384.2
379.208	403.18
379.588	393.46
379.968	376.74
380.349	391.88
380.729	415.16
381.109	413.58
381.489	417.42
381.87	431.2
382.25	397.08
382.63	429.17
383.01	423.07
383.39	421.26
383.77	398.66
384.15	436.4
384.53	408.15
384.91	426.01
385.29	416.29
385.67	423.52
386.049	442.28
386.429	442.5
386.809	424.88
387.189	422.62
387.568	429.85
387.948	428.49
388.328	433.24
388.707	455.61
389.087	446.12
389.466	459.9
389.846	467.59
390.225	470.3
390.605	464.42
390.984	446.57
391.363	484.08
391.743	492.9
392.122	463.52
392.501	473.91
392.881	477.3
393.26	496.06
393.639	480.24
394.018	498.09
394.397	499.9
394.776	508.94
395.155	492.22
395.534	517.75
395.913	514.37
396.292	506.68
396.671	512.78
397.05	506.68
397.429	506.68
397.808	518.88
398.186	510.52
398.565	524.53
398.944	509.39
399.323	529.96
399.701	527.25
400.08	544.19
400.458	539
400.837	547.13
401.215	553.91
401.594	553.69
401.972	526.57
402.351	555.95
402.729	572.89
403.107	572.89
403.486	553.23
403.864	564.31
404.242	561.82
404.62	569.5
404.999	568.15
405.377	582.16
405.755	583.06
406.133	596.4
406.511	596.85
406.889	595.04
407.267	596.17
407.645	611.99
408.023	619.22
408.401	630.07
408.779	623.29
409.156	639.11
409.534	650.18
409.912	644.76
410.29	646.56
410.667	648.82
411.045	649.73
411.422	682.27
411.8	677.07
412.178	673.46
412.555	678.65
412.933	683.85
413.31	679.11
413.687	699.67
414.065	726.34
414.442	724.75
414.819	733.79
415.197	740.57
415.574	754.58
415.951	756.39
416.328	754.58
416.705	753.45
417.082	740.35
417.46	768.37
417.837	778.99
418.214	771.31
418.591	783.51
418.967	790.97
419.344	798.2
419.721	796.39
420.098	807.01
420.475	798.88
420.852	810.4
421.228	823.06
421.605	828.26
421.982	835.49
422.358	833.9
422.735	852.89
423.111	863.06
423.488	862.6
423.864	880.46
424.241	867.35
424.617	902.15
424.994	894.24
425.37	896.95
425.746	909.61
426.123	924.98
426.499	952.55
426.875	920
427.251	949.38
427.627	962.49
428.003	995.93
428.379	1014.46
428.756	990.96
429.132	984.86
429.507	1033
429.883	1009.72
430.259	1033.9
430.635	1044.52
431.011	1048.81
431.387	1077.51
431.763	1083.62
432.138	1096.95
432.514	1127.91
432.89	1096.27
433.265	1120.22
433.641	1134.24
434.016	1170.84
434.392	1168.36
434.767	1190.05
435.143	1200
435.518	1220.34
435.894	1211.75
436.269	1231.18
436.644	1232.54
437.02	1245.19
437.395	1247.23
437.77	1283.61
438.145	1301.01
438.52	1314.57
438.895	1314.12
439.271	1344.4
439.646	1352.99
440.021	1325.87
440.395	1395.92
440.77	1393.66
441.145	1363.61
441.52	1399.09
441.895	1388.92
442.27	1409.71
442.645	1403.16
443.019	1457.39
443.394	1402.7
443.769	1460.78
444.143	1456.71
444.518	1468.01
444.892	1467.56
445.267	1511.4
445.641	1483.61
446.016	1519.08
446.39	1535.58
446.764	1556.6
447.139	1541
447.513	1567.44
447.887	1573.77
448.262	1563.83
448.636	1581.91
449.01	1598.63
449.384	1646.76
449.758	1622.13
450.132	1613.32
450.506	1663.26
450.88	1669.59
451.254	1654
451.628	1684.28
452.002	1704.62
452.376	1703.71
452.75	1740.77
453.123	1745.07
453.497	1745.97
453.871	1787.33
454.244	1808.79
454.618	1841.11
454.992	1874.56
455.365	1846.99
455.739	1902.13
456.112	1916.36
456.486	1954.55
456.859	1933.54
457.232	1989.13
457.606	1964.5
457.979	2030.26
458.352	2017.38
458.725	2086.08
459.099	2082.69
459.472	2140.99
459.845	2158.84
460.218	2184.15
460.591	2206.52
460.964	2218.28
461.337	2263.7
461.71	2278.61
462.083	2328.55
462.456	2313.19
462.829	2343.7
463.201	2355.22
463.574	2375.78
463.947	2425.73
464.32	2493.3
464.692	2489.91
465.065	2513.18
465.438	2563.58
465.81	2581.66
466.183	2580.75
466.555	2655.55
466.928	2686.96
467.3	2719.5
467.672	2745.94
468.045	2776.45
468.417	2787.98
468.789	2811.71
469.161	2851.7
469.534	2883.57
469.906	2999.95
470.278	2997.46
470.65	3011.25
471.022	3062.55
471.394	3140.28
471.766	3140.51
472.138	3201.07
472.51	3285.59
472.882	3344.8
473.253	3335.31
473.625	3414.4
473.997	3458.92
474.369	3453.27
474.74	3472.25
475.112	3583.21
475.484	3609.88
475.855	3710.67
476.227	3709.31
476.598	3832.92
476.97	3852.36
477.341	3907.95
477.713	3999.7
478.084	4065.23
478.455	4149.75
478.827	4224.78
479.198	4263.64
479.569	4250.76
479.94	4416.64
480.311	4434.94
480.682	4543.41
481.053	4673.8
481.424	4702.28
481.795	4764.2
482.166	4795.61
482.537	4909.73
482.908	5002.38
483.279	5041.25
483.65	5088.03
484.021	5262.94
484.391	5298.42
484.762	5370.51
485.133	5397.63
485.503	5468.13
485.874	5578.19
486.244	5633.33
486.615	5775.7
486.985	5808.69
487.356	5913.55
487.726	5998.29
488.097	6099.53
488.467	6133.65
488.837	6280.77
489.207	6352.86
489.578	6383.36
489.948	6498.16
490.318	6580.87
490.688	6561.21
491.058	6734.31
491.428	6771.15
491.798	6847.08
492.168	7021.54
492.538	7071.03
492.908	7146.06
493.278	7216.11
493.648	7255.2
494.017	7416.56
494.387	7481.19
494.757	7486.16
495.126	7593.5
495.496	7645.02
495.866	7771.8
496.235	7771.8
496.605	7877.34
496.974	7930.67
497.344	7978.35
497.713	8075.52
498.082	8152.13
498.452	8304.22
498.821	8258.12
499.19	8329.07
499.559	8399.36
499.928	8500.37
500.298	8454.72
500.667	8587.15
501.036	8677.54
501.405	8687.48
501.774	8792.34
502.143	8825.78
502.512	8884.54
502.88	9010.86
503.249	8962.73
503.618	9098.32
503.987	9162.73
504.356	9260.12
504.724	9273.91
505.093	9373.57
505.462	9459.21
505.83	9432.77
506.199	9543.28
506.567	9717.74
506.936	9661.7
507.304	9854.01
507.672	9983.72
508.041	9990.73
508.409	10054.45
508.777	10127.9
509.145	10248.8
509.514	10296.71
509.882	10343.71
510.25	10321.11
510.618	10559.75
510.986	10557.26
511.354	10633.87
511.722	10814.21
512.09	10911.83
512.458	10882.91
512.826	11046.74
513.193	11126.29
513.561	11176.46
513.929	11290.8
514.297	11415.1
514.664	11466.39
515.032	11567.86
515.4	11671.36
515.767	11755.88
516.135	11776.44
516.502	11806.05
516.869	12060.28
517.237	12111.35
517.604	12140.27
517.972	12291.46
518.339	12435.86
518.706	12453.94
519.073	12590.21
519.44	12655.97
519.808	12787.49
520.175	12771.44
520.542	13005.34
520.909	13092.79
521.276	13137.99
521.643	13222.96
522.009	13448.26
522.376	13606
522.743	13636.51
523.11	13733.45
523.477	13963.95
523.843	14061.35
524.21	14223.16
524.577	14380.67
524.943	14437.84
525.31	14523.49
525.676	14723.48
526.043	14874.44
526.409	14878.73
526.776	15145.39
527.142	15095.22
527.508	15276.91
527.874	15416.57
528.241	15526.85
528.607	15651.14
528.973	15732.72
529.339	15835.09
529.705	16091.58
530.071	16224.91
530.437	16242.54
530.803	16412.7
531.169	16462.87
531.535	16581.29
531.901	16665.35
532.267	16794.39
532.632	16893.14
532.998	17026.02
533.364	17177.2
533.73	17261.27
534.095	17358.22
534.461	17566.12
534.826	17597.08
535.192	17779.67
535.557	17965.66
535.923	17943.96
536.288	18061.93
536.653	18227.35
537.019	18174.69
537.384	18396.83
537.749	18479.32
538.114	18599.31
538.479	18695.81
538.845	18828.23
539.21	18950.72
539.575	18971.96
539.94	18996.59
540.305	19329.46
540.67	19359.07
541.034	19506.41
541.399	19590.02
541.764	19667.08
542.129	19944.36
542.494	19908.43
542.858	20105.71
543.223	20170.57
543.587	20290.57
543.952	20416.89
544.316	20484.24
544.681	20600.16
545.045	20762.19
545.41	20985.69
545.774	21060.04
546.138	21170.32
546.503	21180.71
546.867	21470.2
547.231	21680.14
547.595	21793.35
547.959	21770.53
548.324	21984.08
548.688	22019.11
549.052	22389.95
549.416	22485.09
549.779	22538.42
550.143	22760.56
550.507	22924.4
550.871	23105.64
551.235	23186.99
551.599	23449.13
551.962	23581.1
552.326	23726.86
552.689	23925.27
553.053	23904.03
553.417	24187.64
553.78	24519.38
554.143	24608.65
554.507	24903.55
554.87	24971.8
555.234	25259.48
555.597	25315.29
555.96	25497.89
556.323	25693.14
556.686	25900.59
557.05	26280.24
557.413	26538.31
557.776	26607.69
558.139	26947.57
558.502	27089.94
558.865	27288.35
559.228	27610.38
559.59	27845.17
559.953	28059.86
560.316	28472.73
560.679	28646.28
561.041	29002.43
561.404	29255.53
561.767	29683.09
562.129	29664.33
562.492	30145.22
562.854	30286.24
563.217	30423.18
563.579	30824.08
563.941	31151.3
564.304	31540.67
564.666	31814.78
565.028	32009.58
565.39	32268.11
565.753	32661.54
566.115	32976.56
566.477	33265.82
566.839	33567.51
567.201	34060.38
567.563	34119.81
567.925	34494.94
568.287	34773.8
568.648	35052.44
569.01	35456.05
569.372	35806.54
569.734	36034.34
570.095	36364.04
570.457	36647.43
570.819	36892.84
571.18	37280.86
571.542	37543.9
571.903	37814.63
572.265	38181.85
572.626	38456.42
572.987	38977.53
573.349	39126.01
573.71	39431.99
574.071	39833.33
574.432	40000.11
574.794	40441.22
575.155	40587.89
575.516	40679.41
575.877	41046.18
576.238	41442.78
576.599	41665.6
576.96	41919.15
577.32	42164.34
577.681	42493.15
578.042	42645.69
578.403	42988.95
578.763	43273.69
579.124	43573.8
579.485	43852.66
579.845	44136.04
580.206	44164.06
580.566	44404.74
580.927	44606.76
581.287	44857.61
581.648	44889.47
582.008	45271.83
582.368	45456.46
582.728	45613.29
583.089	45881.08
583.449	45794.98
583.809	46172.15
584.169	46380.96
584.529	46430.9
584.889	46958.12
585.249	46829.76
585.609	46905.91
585.969	47269.07
586.329	47321.04
586.688	47444.66
587.048	47707.93
587.408	47708.6
587.768	47844.19
588.127	47950.86
588.487	48078.99
588.846	48537.28
589.206	48331.64
589.565	48467.23
589.925	48771.85
590.284	48875.58
590.643	48937.27
591.003	49198.28
591.362	49395.79
591.721	49489.57
592.08	49434.21
592.44	49629.01
592.799	49888.43
593.158	49961.65
593.517	50029.45
593.876	50153.29
594.235	50203.45
594.593	50334.98
594.952	50523.45
595.311	50466.27
595.67	50662.65
596.029	50995.98
596.387	51053.83
596.746	51242.75
597.104	51206.59
597.463	51379.02
597.822	51572.46
598.18	51397.32
598.538	51618.56
598.897	51909.4
599.255	51812
599.613	52305.55
599.972	52113.01
600.33	52296.51
600.688	52183.29
601.046	52501.25
601.404	52719.55
601.762	52672.99
602.12	52872.76
602.478	52895.81
602.836	53046.32
603.194	52974.23
603.552	53194.56
603.91	53231.4
604.268	53369.47
604.625	53419.41
604.983	53614.44
605.341	53543.25
605.698	53797.26
606.056	54004.03
606.413	53963.36
606.771	54194.08
607.128	54297.58
607.485	54179.85
607.843	54368.54
608.2	54502.1
608.557	54782.54
608.914	54682.43
609.272	54906.61
609.629	54929.88
609.986	55144.34
610.343	55144.79
610.7	55384.33
611.057	55337.1
611.414	55422.75
611.771	55545.01
612.127	55728.51
612.484	55764.21
612.841	55915.17
613.198	55866.81
613.554	55956.98
613.911	56229.51
614.267	56197.65
614.624	56280.58
614.98	56370.75
615.337	56507.02
615.693	56555.38
616.05	56617.97
616.406	56840.79
616.762	56773.9
617.118	56790.4
617.475	57005.99
617.831	57075.14
618.187	57164.17
618.543	57252.53
618.899	57388.12
619.255	57344.96
619.611	57453.21
619.967	57546.09
620.323	57649.81
620.678	57598.97
621.034	57683.94
621.39	57695.46
621.746	57793.99
622.101	58086.64
622.457	57900.43
622.812	57986.98
623.168	58117.14
623.523	58106.52
623.879	58304.03
624.234	58181.78
624.589	58347.19
624.945	58442.11
625.3	58470.13
625.655	58418.61
626.01	58533.63
626.365	58628.77
626.72	58610.24
627.075	58726.62
627.43	58764.58
627.785	58777.47
628.14	58847.97
628.495	58913.06
628.85	58903.79
629.205	58889.78
629.559	59070.79
629.914	59004.13
630.269	58989.89
630.623	58991.02
630.978	59028.76
631.332	59170.45
631.687	59269.66
632.041	59206.16
632.396	59335.19
632.75	59260.16
633.104	59329.99
633.459	59242.76
633.813	59283.22
634.167	59345.36
634.521	59367.51
634.875	59429.43
635.229	59404.34
635.583	59384.68
635.937	59447.28
636.291	59467.17
636.645	59577.9
636.999	59419.26
637.352	59572.7
637.706	59507.16
638.06	59731.57
638.413	59636.65
638.767	59569.31
639.121	59757.33
639.474	59560.72
639.828	59624.45
640.181	59779.47
640.534	59850.21
640.888	59718.23
641.241	59648.86
641.594	59757.55
641.947	59867.38
642.301	59838
642.654	59924.55
643.007	59891.56
643.36	59941.5
643.713	59932.24
644.066	59955.51
644.419	59884.78
644.771	59906.25
645.124	59763.65
645.477	59768.17
645.83	59649.08
646.182	59494.74
646.535	59398.92
646.888	59476.43
647.24	59303.33
647.593	59497.22
647.945	59474.62
648.298	59475.3
648.65	59446.37
649.002	59373.38
649.355	59612.47
649.707	59619.25
650.059	59772.24
650.411	60128.39
650.763	60146.02
651.115	60433.24
651.467	60339.68
651.819	60448.38
652.171	60377.42
652.523	60411.32
652.875	60428.04
653.227	60388.95
653.578	60554.37
653.93	60547.59
654.282	60499.23
654.633	60421.94
654.985	60591.2
655.337	60641.82
655.688	60659.22
656.039	60799.11
656.391	60579
656.742	60619.9
657.094	60719.11
657.445	60807.24
657.796	60782.38
658.147	60832.1
658.498	60811.76
658.849	60906.22
659.2	60872.78
659.551	60911.87
659.902	60991.64
660.253	61007.46
660.604	61086.33
660.955	60961.82
661.306	61071.64
661.656	61026.9
662.007	61095.82
662.358	61138.76
662.708	61253.33
663.059	61212.66
663.409	61083.17
663.76	61313.67
664.11	61269.83
664.461	61346.21
664.811	61339.88
665.161	61364.74
665.511	61314.35
665.862	61414.91
666.212	61507.56
666.562	61523.83
666.912	61473.21
667.262	61533.55
667.612	61583.04
667.962	61564.06
668.312	61583.04
668.662	61786.88
669.011	61761.57
669.361	61739.65
669.711	61834.11
670.06	61732.87
670.41	61762.92
670.76	61755.92
671.109	61854.67
671.459	61876.59
671.808	61956.14
672.157	61955.01
672.507	61866.88
672.856	61914.33
673.205	62037.95
673.554	62109.58
673.904	62075.68
674.253	62157.26
674.602	62061.22
674.951	61801.57
675.3	61673.89
675.649	62146.19
675.998	62095.34
676.346	62170.14
676.695	62294.44
677.044	62111.62
677.393	62283.36
677.741	62385.96
678.09	62231.84
678.438	62247.43
678.787	62301.44
679.135	62338.05
679.484	62270.03
679.832	62397.48
680.181	62268.9
680.529	62365.17
680.877	62291.95
681.225	62316.13
681.573	62493.3
681.922	62360.87
682.27	62320.2
682.618	62392.74
682.966	62378.73
683.314	62422.79
683.661	62390.7
684.009	62365.39
684.357	62360.87
684.705	62308.9
685.053	62404.94
685.4	62391.38
685.748	62320.65
686.095	62409.01
686.443	62398.39
686.79	62369.01
687.138	62348.67
687.485	62482.68
687.832	62345.06
688.18	62413.08
688.527	62361.55
688.874	62409.01
689.221	62325.85
689.568	62325.4
689.915	62310.25
690.262	62313.64
690.609	62275.68
690.956	62182.35
691.303	62187.55
691.65	62141.45
691.997	62074.78
692.344	62077.49
692.69	61994.1
693.037	62113.88
693.383	61958.17
693.73	62084.27
694.077	61944.84
694.423	61965.86
694.769	61961.11
695.116	61949.36
695.462	61992.52
695.808	61905.97
696.155	61966.76
696.501	61852.64
696.847	61886.76
697.193	61807.67
697.539	61917.27
697.885	61789.14
698.231	61730.38
698.577	61851.06
698.923	61803.6
699.269	61692.42
699.614	61707.78
699.96	61625.3
700.306	61598.86
700.651	61546.66
700.997	61489.94
701.342	61487.9
701.688	61489.03
702.033	61473.21
702.379	61530.39
702.724	61521.57
703.069	61554.12
703.415	61380.56
703.76	61476.15
704.105	61448.13
704.45	61411.97
704.795	61288.81
705.14	61237.74
705.485	61283.39
705.83	61219.21
706.175	61234.35
706.52	61201.13
706.865	61160.45
707.209	61148.7
707.554	61145.77
707.899	61252.2
708.243	61062.15
708.588	61111.87
708.932	61015.15
709.277	61024.64
709.621	61080.46
709.966	60983.74
710.31	61082.72
710.654	60826
710.998	60971.76
711.342	60906.22
711.687	60952.32
712.031	60870.07
712.375	60835.72
712.719	60960.46
713.063	60858.77
713.407	60980.57
713.75	60865.09
714.094	60901.48
714.438	60685.44
714.782	60786
715.125	60732.22
715.469	60799.33
715.812	60722.27
716.156	60660.13
716.499	60666.23
716.843	60739.67
717.186	60642.73
717.53	60781.48
717.873	60846.56
718.216	60746.91
718.559	60640.02
718.902	60540.13
719.246	60535.16
719.589	60621.26
719.932	60589.17
720.275	60562.05
720.617	60581.94
720.96	60639.56
721.303	60583.29
721.646	60599.79
721.989	60554.37
722.331	60576.97
722.674	60489.96
723.016	60582.39
723.359	60543.52
723.701	60632.33
724.044	60480.92
724.386	60372.9
724.729	60523.41
725.071	60460.81
725.413	60501.26
725.755	60442.96
726.097	60428.72
726.439	60323.41
726.782	60397.31
727.124	60516.18
727.465	60377.42
727.807	60370.64
728.149	60416.52
728.491	60365.67
728.833	60388.5
729.175	60471.43
729.516	60432.56
729.858	60310.31
730.199	60482.96
730.541	60427.82
730.882	60379.91
731.224	60444.09
731.565	60290.65
731.906	60259.91
732.248	60411.55
732.589	60268.5
732.93	60161.16
733.271	60310.76
733.612	60380.81
733.953	60440.7
734.294	60312.11
734.635	60324.54
734.976	60369.29
735.317	60252
735.658	60310.08
735.999	60293.13
736.339	60339.91
736.68	60334.49
737.021	60280.93
737.361	60220.82
737.702	60356.18
738.042	60255.39
738.383	60239.8
738.723	60253.36
739.063	60253.59
739.404	60274.38
739.744	60245.22
740.084	60211.33
740.424	60294.26
740.764	60264.66
741.104	60381.04
741.444	60249.52
741.784	60282.74
742.124	60282.96
742.464	60213.59
742.804	60190.99
743.143	60222.63
743.483	60198.45
743.823	60102.18
744.162	60150.31
744.502	60159.8
744.841	60123.42
745.181	60253.81
745.52	60154.6
745.86	60275.05
746.199	60226.47
746.538	60114.61
746.877	60259.91
747.216	60282.74
747.556	60182.17
747.895	60220.37
748.234	60120.93
748.573	60139.24
748.911	60113.25
749.25	60156.19
749.589	60027.83
749.928	60061.05
750.267	60130.88
750.605	60086.36
750.944	60027.6
751.283	60033.48
751.621	60030.99
751.96	59889.3
752.298	59895.4
752.636	59936.53
752.975	59862.18
753.313	59830.55
753.651	59962.07
753.989	59772.24
754.327	59840.94
754.666	59680.94
755.004	59779.02
755.342	59801.17
755.679	59747.16
756.017	59653.6
756.355	59779.7
756.693	59623.32
757.031	59748.74
757.368	59530.44
757.706	59461.97
758.044	59484.34
758.381	59456.09
758.719	59401.18
759.056	59496.99
759.394	59478.24
759.731	59381.29
760.068	59447.05
760.405	59344.46
760.743	59274.63
761.08	59368.18
761.417	59086.38
761.754	59007.29
762.091	58981.98
762.428	59005.03
762.765	58964.81
763.102	59040.51
763.438	58877.35
763.775	58833.06
764.112	58896.56
764.449	58943.79
764.785	58828.09
765.122	58702.67
765.458	58622.67
765.795	58621.54
766.131	58656.79
766.467	58640.29
766.804	58511.03
767.14	58416.57
767.476	58441.2
767.812	58380.87
768.148	58462.22
768.485	58244.15
768.821	58130.03
769.157	58171.38
769.492	58103.59
769.828	58173.41
770.164	57931.61
770.5	57826.08
770.836	57976.58
771.171	57855.91
771.507	57789.02
771.842	57650.49
772.178	57664.95
772.513	57607.55
772.849	57602.36
773.184	57453.88
773.519	57470.83
773.855	57346.32
774.19	57305.87
774.525	57266.09
774.86	57244.4
775.195	57167.34
775.53	57058.41
775.865	57037.62
776.2	56909.72
776.535	56741.81
776.87	56824.3
777.205	56700.46
777.539	56575.94
777.874	56594.7
778.209	56437.19
778.543	56382.05
778.878	56255.27
779.212	56321.94
779.547	56196.29
779.881	56338.66
780.215	56109.06
780.55	56269.28
780.884	56115.39
781.218	56036.75
781.552	56136.63
781.886	55967.37
782.22	55853.25
782.554	55755.62
782.888	55450.1
783.222	55478.57
783.556	55481.51
783.889	55399.48
784.223	55152.02
784.557	55256.88
784.89	55198.58
785.224	55062.99
785.557	54937.11
785.891	54987.96
786.224	54812.15
786.558	54829.77
786.891	54608.76
787.224	54637.91
787.557	54503.91
787.891	54566.96
788.224	54482.21
788.557	54520.18
788.89	54540.74
789.223	54495.54
789.556	54329
789.888	54323.12
790.221	54170.58
790.554	53995.9
790.887	53985.28
791.219	53855.79
791.552	53808.1
791.884	53791.16
792.217	53664.83
792.549	53537.15
792.882	53496.25
793.214	53281.79
793.546	53379.42
793.879	53206.99
794.211	53164.73
794.543	53258.97
794.875	53217.16
795.207	53305.52
795.539	53096.26
795.871	53292.64
796.203	52952.31
796.535	52771.3
796.867	52686.55
797.198	52615.37
797.53	52669.83
797.862	52448.82
798.193	52559.32
798.525	52442.27
798.856	52446.33
799.188	52082.95
799.519	52069.39
799.85	51913.92
800.182	52141.71
800.513	51950.53
800.844	51769.97
801.175	51989.62
801.506	51839.12
801.837	51824.88
802.168	51696.07
802.499	51611.55
802.83	51385.34
803.161	51348.28
803.491	51438
803.822	51423.31
804.153	51358.23
804.483	51034.84
804.814	50946.71
805.145	50894.96
805.475	50932.47
805.805	50918.69
806.136	50922.31
806.466	51050.89
806.796	50945.13
807.126	50536.1
807.457	50616.1
807.787	50602.54
808.117	50472.15
808.447	50285.49
808.777	50478.47
809.107	50294.98
809.436	50349.66
809.766	50234.87
810.096	50089.78
810.426	50004.82
810.755	50036.23
811.085	49901.54
811.414	49800.3
811.744	49564.83
812.073	49754.43
812.403	49809.79
812.732	49469.69
813.061	49530.48
813.39	49509.46
813.719	49583.36
814.049	49960.52
814.378	49595.79
814.707	49393.08
815.036	49360.54
815.365	49248.22
815.693	48935.01
816.022	49084.61
816.351	49080.77
816.68	48868.8
817.008	48944.28
817.337	48682.14
817.665	48744.06
817.994	48821.57
818.322	48695.92
818.651	48509.71
818.979	48336.84
819.307	48535.48
819.636	48475.59
819.964	48314.46
820.292	48512.88
820.62	48454.57
820.948	48417.06
821.276	48465.42
821.604	48462.48
821.932	48477.4
822.259	48608.24
822.587	48581.35
822.915	48500.22
823.243	48752.42
823.57	48605.08
823.898	48728.46
824.225	48535.02
824.553	48557.4
824.88	48777.5
825.207	48815.24
825.535	48847.78
825.862	48939.08
826.189	48774.11
826.516	48918.97
826.843	49026.76
827.17	49119.87
827.497	49167.55
827.824	49069.25
828.151	49209.58
828.478	48969.14
828.805	49273.53
829.131	48916.93
829.458	48994.9
829.785	48912.19
830.111	48973.43
830.438	49249.35
830.764	49148.34
831.09	49194.21
831.417	49133.65
831.743	49252.29
832.069	49245.06
832.395	49114.67
832.722	49323.7
833.048	49320.99
833.374	49412.06
833.7	49197.6
834.026	49252.07
834.351	49431.04
834.677	49147.66
835.003	49159.41
835.329	49192.63
835.654	49178.85
835.98	49164.39
836.306	49334.55
836.631	48937.95
836.956	49224.72
837.282	49219.53
837.607	49131.84
837.932	49025.41
838.258	48940.44
838.583	48886.43
838.908	48763.49
839.233	48943.6
839.558	48650.5
839.883	48857.5
840.208	48728.69
840.533	48729.59
840.858	48857.95
841.182	48854.56
841.507	48660.9
841.832	48389.94
842.156	48533.89
842.481	48468.13
842.805	48392.43
843.13	48220.68
843.454	48255.48
843.778	48104.07
844.103	48148.14
844.427	48050.06
844.751	47999.22
845.075	47905.21
845.399	47923.51
845.723	47876.74
846.047	47911.31
846.371	47533.24
846.695	47553.58
847.019	47521.49
847.343	47284.43
847.666	47059.13
847.99	46983.2
848.313	46821.62
848.637	46565.58
848.96	46455.53
849.284	46522.42
849.607	46117.91
849.931	46034.3
850.254	45912.04
850.577	45838.6
850.9	45478.61
851.223	45625.27
851.546	45327.88
851.869	45215.11
852.192	45401.09
852.515	45070.93
852.838	44794.33
853.161	45095.11
853.483	44907.1
853.806	44797.49
854.129	44542.36
854.451	44591.17
854.774	44444.96
855.096	44293.1
855.419	44189.6
855.741	44292.2
856.063	43995.48
856.385	43890.4
856.708	43912.77
857.03	43783.74
857.352	43811.98
857.674	43671.2
857.996	43507.81
858.318	43243.86
858.64	43369.28
858.961	43161.38
859.283	43088.16
859.605	43063.98
859.926	43153.24
860.248	42993.25
860.57	43040.93
860.891	42952.12
861.212	42709.87
861.534	42742.86
861.855	42537.67
862.176	42583.54
862.498	42615.18
862.819	42592.35
863.14	42465.58
863.461	42442.3
863.782	42359.37
864.103	42434.84
864.424	42400.95
864.745	42519.36
865.065	42336.77
865.386	42227.17
865.707	42275.53
866.027	42334.96
866.348	42154.63
866.668	42014.52
866.989	42097.45
867.309	41789.66
867.63	41978.13
867.95	41977.23
868.27	41843.9
868.59	42038.47
868.91	41857.46
869.23	41720.74
869.55	41594.19
869.87	41834.86
870.19	41646.39
870.51	41648.42
870.83	41713.96
871.15	41427.64
871.469	41464.02
871.789	41711.02
872.109	41711.93
872.428	41470.8
872.748	41558.03
873.067	41397.36
873.386	41544.02
873.706	41486.62
874.025	41345.16
874.344	41301.77
874.663	41400.3
874.982	41332.73
875.301	41348.09
875.62	41249.79
875.939	41125.73
876.258	41113.75
876.577	41021.32
876.896	40910.59
877.214	40774.78
877.533	41020.87
877.852	40932.51
878.17	40904.26
878.489	40856.81
878.807	40821.33
879.125	40763.25
879.444	40549.02
879.762	40534.78
880.08	40511.05
880.398	40581.11
880.716	40505.63
881.034	40443.03
881.352	40540.43
881.67	40318.06
881.988	40430.38
882.306	40524.84
882.624	40337.95
882.941	40019.31
883.259	40062.48
883.577	39964.4
883.894	40168.92
884.212	39926.66
884.529	39975.02
884.846	39852.77
885.164	39777.29
885.481	39768.02
885.798	39778.42
886.115	39316.06
886.432	39298.88
886.75	39259.56
887.067	39260.92
887.383	38996.52
887.7	39146.8
888.017	38936.63
888.334	39004.65
888.651	38979.34
888.967	38992
889.284	38815.05
889.6	38700.93
889.917	38433.59
890.233	38486.25
890.55	38393.37
890.866	38443.31
891.182	38097.78
891.498	38062.98
891.815	37948.63
892.131	37761.07
892.447	37838.58
892.763	37733.05
893.079	37562.66
893.395	37534.41
893.71	37543
894.026	37507.74
894.342	37192.27
894.657	37148.66
894.973	37184.81
895.289	37201.31
895.604	37049.22
895.92	36872.05
896.235	36675.9
896.55	36751.6
896.865	36706.18
897.181	36706.18
897.496	36623.92
897.811	36542.57
898.126	36477.04
898.441	36288.34
898.756	36117.72
899.071	36024.39
899.386	36091.06
899.7	35697.62
900.015	35673.67
900.33	35412.88
900.644	35461.92
900.959	35395.93
901.273	35277.29
901.588	35205.66
901.902	35057.86
902.216	35082.04
902.531	34910.75
902.845	34807.7
903.159	34616.29
903.473	34576.52
903.787	34390.54
904.101	34266.7
904.415	34312.12
904.729	34208.85
905.042	34006.37
905.356	33859.25
905.67	33875.75
905.984	33838.01
906.297	33756.2
906.611	33289.32
906.924	33366.38
907.237	33257.23
907.551	33196.67
907.864	33236.44
908.177	33115.99
908.491	32847.53
908.804	32795.55
909.117	32706.51
909.43	32589.23
909.743	32389.01
910.056	32437.82
910.368	32185.17
910.681	32132.06
910.994	32028.34
911.307	31916.48
911.619	31780.44
911.932	31906.99
912.244	31584.73
912.557	31520.56
912.869	31282.14
913.181	31296.83
913.494	31200.79
913.806	31111.3
914.118	31043.28
914.43	30638.77
914.742	30662.95
915.054	30468.61
915.366	30351.09
915.678	30298.67
915.99	30344.09
916.302	30120.59
916.613	29981.84
916.925	29819.58
917.236	30051.67
917.548	29705.69
917.859	29813.03
918.171	29476.54
918.482	29534.17
918.794	29479.71
919.105	29476.77
919.416	29146.83
919.727	29110.9
920.038	28991.81
920.349	28821.19
920.66	28817.35
920.971	28672.72
921.282	28440.64
921.593	28329.23
921.903	28355.67
922.214	28098.05
922.525	28184.6
922.835	28050.14
923.146	27954.55
923.456	27731.73
923.767	27622.58
924.077	27504.62
924.387	27651.28
924.697	27376.71
925.008	27440.89
925.318	27172.42
925.628	27225.3
925.938	27029.15
926.248	26755.03
926.558	26736.5
926.867	26689.95
927.177	26583.96
927.487	26329.96
927.796	26040.02
928.106	26103.75
928.416	26007.03
928.725	25954.37
929.034	25917.09
929.344	25960.48
929.653	25821.27
929.962	25588.73
930.271	25657.21
930.581	25360.72
930.89	25271.45
931.199	25142.87
931.508	25093.61
931.817	25031.23
932.125	24932.03
932.434	24918.7
932.743	24620.4
933.051	24492.72
933.36	24598.93
933.669	24397.35
933.977	24255.44
934.286	24230.13
934.594	24182.44
934.902	23995.56
935.21	24042.11
935.519	23956.23
935.827	23826.75
936.135	23777.48
936.443	23672.4
936.751	23638.95
937.059	23576.36
937.367	23463.37
937.674	23394.67
937.982	23331.39
938.29	23234.67
938.597	23250.26
938.905	22871.52
939.213	22848.69
939.52	22741.13
939.827	22702.71
940.135	22503.62
940.442	22263.62
940.749	22411.64
941.056	22455.03
941.363	22184.08
941.67	22296.39
941.977	22245.77
942.284	21900.24
942.591	21898.44
942.898	21744.77
943.205	21698.44
943.511	21549.52
943.818	21570.53
944.125	21365.57
944.431	21296.87
944.738	21241.5
945.044	21194.05
945.35	21032.02
945.657	20960.16
945.963	20977.56
946.269	20809.2
946.575	20729.65
946.881	20642.42
947.187	20510.45
947.493	20455.54
947.799	20390.23
948.105	20244.47
948.41	20164.47
948.716	20154.98
949.022	20023
949.327	20041.31
949.633	19807.64
949.938	19798.15
950.244	19718.38
950.549	19476.35
950.854	19447.43
951.16	19542.11
951.465	19413.76
951.77	19273.87
952.075	19275.91
952.38	19130.15
952.685	19251.95
952.99	18972.64
953.294	18991.62
953.599	18866.65
953.904	18757.5
954.209	18794.79
954.513	18656.26
954.818	18577.84
955.122	18392.31
955.426	18308.93
955.731	18271.64
956.035	18248.81
956.339	18213.56
956.643	18030.51
956.948	18087.46
957.252	17997.3
957.556	17801.14
957.86	17684.99
958.163	17652.22
958.467	17577.87
958.771	17619.9
959.075	17435.28
959.378	17315.96
959.682	17367.71
959.985	17214.72
960.289	17150.54
960.592	17016.08
960.896	16976.98
961.199	16990.54
961.502	17014.95
961.805	16794.84
962.108	16820.6
962.411	16761.85
962.714	16759.59
963.017	16546.49
963.32	16544
963.623	16489.54
963.926	16455.87
964.228	16302.65
964.531	16236.66
964.833	16202.31
965.136	16093.16
965.438	16118.02
965.741	16029.89
966.043	16004.81
966.345	15880.74
966.648	15813.85
966.95	15758.26
967.252	15631.71
967.554	15603.23
967.856	15424.26
968.158	15424.03
968.46	15436.46
968.761	15405.72
969.063	15243.02
969.365	15139.07
969.666	15112.63
969.968	14923.03
970.269	14994.66
970.571	14983.82
970.872	14844.84
971.174	14690.04
971.475	14554.22
971.776	14610.04
972.077	14536.37
972.378	14529.14
972.679	14494.34
972.98	14448.91
973.281	14240.56
973.582	14141.8
973.883	14107.23
974.183	13958.08
974.484	14039.89
974.785	13991.75
975.085	13899.78
975.386	13994.69
975.686	13831.3
975.986	13735.71
976.287	13724.64
976.587	13535.49
976.887	13532.1
977.187	13503.4
977.487	13413.91
977.787	13299.57
978.087	13292.56
978.387	13222.05
978.687	13202.84
978.987	13078.78
979.286	13016.64
979.586	13013.7
979.885	13008.73
980.185	12863.87
980.484	12829.52
980.784	12707.94
981.083	12686.47
981.382	12729.41
981.682	12627.49
981.981	12549.75
982.28	12521.28
982.579	12462.07
982.878	12473.6
983.177	12415.3
983.475	12325.35
983.774	12263.43
984.073	12259.59
984.372	12214.62
984.67	12180.27
984.969	12078.58
985.267	11993.39
985.566	12027.73
985.864	11877.91
986.162	11847.17
986.461	11774.63
986.759	11783.67
987.057	11634.75
987.355	11658.7
987.653	11603.11
987.951	11471.59
988.249	11380.97
988.547	11364.02
988.844	11290.35
989.142	11305.95
989.44	11204.03
989.737	11091.04
990.035	11038.16
990.332	11097.14
990.63	11033.18
990.927	10962.45
991.224	10872.96
991.521	10897.14
991.819	10820.76
992.116	10791.38
992.413	10701.67
992.71	10627.32
993.006	10562.01
993.303	10569.47
993.6	10566.08
993.897	10396.82
994.193	10388.23
994.49	10279.53
994.787	10333.09
995.083	10237.95
995.379	10187.78
995.676	10166.09
995.972	10005.64
996.268	10060.78
996.565	10008.13
996.861	9896.94
997.157	9896.27
997.453	9781.24
997.749	9752.99
998.044	9698.3
998.34	9664.18
998.636	9631.64
998.932	9550.29
999.227	9470.51
999.523	9474.81
999.818	9360.46
1000.114	9270.52
1000.409	9245.21
1000.704	9257.64
1001	9207.02
1001.295	9143.74
1001.59	9106.46
1001.885	9049.73
1002.18	9045.89
1002.475	8931.32
1002.77	8898.78
1003.065	8850.19
1003.359	8815.84
1003.654	8770.42
1003.949	8634.83
1004.243	8701.04
1004.538	8585.11
1004.832	8458.11
1005.127	8491.78
1005.421	8453.37
1005.715	8385.12
1006.009	8380.37
1006.304	8279.13
1006.598	8302.86
1006.892	8172.92
1007.186	8135.63
1007.48	8100.38
1007.773	8032.59
1008.067	7966.15
1008.361	7866.94
1008.655	7910.1
1008.948	7864.45
1009.242	7762.08
1009.535	7663.1
1009.829	7667.4
1010.122	7525.25
1010.415	7487.97
1010.708	7455.2
1011.001	7480.96
1011.295	7334.98
1011.588	7352.15
1011.881	7257.92
1012.173	7287.75
1012.466	7204.58
1012.759	7205.49
1013.052	7119.84
1013.344	7042.1
1013.637	7027.87
1013.93	7012.27
1014.222	6949.22
1014.514	6914.65
1014.807	6881.88
1015.099	6840.53
1015.391	6710.36
1015.683	6772.28
1015.976	6706.97
1016.268	6646.63
1016.56	6550.36
1016.851	6550.14
1017.143	6469.24
1017.435	6446.86
1017.727	6415.9
1018.018	6354.66
1018.31	6310.14
1018.602	6290.26
1018.893	6231.95
1019.185	6133.65
1019.476	6079.19
1019.767	6089.13
1020.058	6095.69
1020.35	6007.55
1020.641	5948.57
1020.932	5893.43
1021.223	5841.91
1021.514	5810.27
1021.804	5744.51
1022.095	5764.17
1022.386	5745.64
1022.677	5646.89
1022.967	5613.44
1023.258	5532.99
1023.548	5508.36
1023.839	5463.84
1024.129	5404.18
1024.419	5405.31
1024.709	5347.46
1025	5322.37
1025.29	5299.1
1025.58	5208.25
1025.87	5202.6
1026.16	5171.87
1026.449	5143.85
1026.739	5088.93
1027.029	5071.99
1027.319	5049.16
1027.608	4989.95
1027.898	4949.05
1028.187	4908.6
1028.477	4842.39
1028.766	4741.6
1029.055	4724.42
1029.344	4721.49
1029.634	4708.38
1029.923	4664.09
1030.212	4622.73
1030.501	4607.82
1030.79	4545.45
1031.078	4504.99
1031.367	4487.14
1031.656	4459.57
1031.945	4389.52
1032.233	4374.6
1032.522	4356.3
1032.81	4285.79
1033.099	4266.81
1033.387	4269.75
1033.675	4218.45
1033.963	4212.35
1034.251	4165.34
1034.54	4055.51
1034.828	4076.53
1035.116	4013.48
1035.403	3999.25
1035.691	3995.63
1035.979	3908.85
1036.267	3925.57
1036.554	3897.1
1036.842	3815.3
1037.129	3815.3
1037.417	3758.35
1037.704	3759.93
1037.992	3716.99
1038.279	3678.35
1038.566	3640.16
1038.853	3640.16
1039.14	3640.16
