Data from copper_heatsink_FLMS001491_035.txt Node
Date: Tue Feb 07 10:49:50 GMT 2017
User: dcchb
Spectrometer: FLMS00149
Trigger mode: 0
Integration Time (sec): 2.000000E-2
Scans to average: 10
Electric dark correction enabled: true
Nonlinearity correction enabled: false
Boxcar width: 0
XAxis mode: Wavelengths
Number of Pixels in Spectrum: 2048
>>>>>Begin Spectral Data<<<<<
341.393	-18.22
341.776	-18.22
342.16	-18.22
342.543	-67.48
342.927	-61.83
343.31	-69.97
343.693	-44.89
344.077	-65.68
344.46	-40.37
344.843	-53.47
345.226	-25.68
345.61	-25.45
345.993	-26.58
346.376	-20.03
346.759	17.94
347.142	15
347.525	60.2
347.908	44.38
348.291	56.58
348.674	79.4
349.057	98.61
349.44	124.38
349.823	151.72
350.206	138.84
350.588	212.96
350.971	206.63
351.354	236.91
351.737	256.35
352.119	262.68
352.502	276.91
352.884	277.82
353.267	295.22
353.65	310.81
354.032	300.19
354.414	313.52
354.797	338.83
355.179	319.62
355.562	334.54
355.944	349.23
356.326	361.43
356.709	344.48
357.091	346.97
357.473	355.33
357.855	367.53
358.238	367.53
358.62	366.18
359.002	368.89
359.384	346.52
359.766	340.41
360.148	346.74
360.53	367.08
360.912	323.92
361.294	345.16
361.676	349.91
362.057	346.74
362.439	348.32
362.821	354.65
363.203	355.78
363.584	343.58
363.966	343.35
364.348	344.93
364.729	346.52
365.111	345.84
365.493	339.51
365.874	345.16
366.256	337.7
366.637	349.23
367.019	329.57
367.4	354.43
367.781	335.22
368.163	339.06
368.544	353.97
368.925	337.48
369.306	344.71
369.688	328.89
370.069	325.5
370.45	344.71
370.831	348.55
371.212	310.36
371.593	322.79
371.974	347.42
372.355	348.55
372.736	350.81
373.117	351.94
373.498	337.93
373.879	358.95
374.26	332.73
374.641	325.05
375.021	349.23
375.402	326.18
375.783	349
376.163	355.33
376.544	352.17
376.925	370.7
377.305	347.19
377.686	357.82
378.066	346.97
378.447	351.49
378.827	361.21
379.208	354.65
379.588	336.57
379.968	346.97
380.349	378.61
380.729	342.45
381.109	364.82
381.489	349.91
381.87	374.99
382.25	379.28
382.63	358.72
383.01	389.45
383.39	363.24
383.77	396.68
384.15	364.82
384.53	386.74
384.91	372.28
385.29	385.61
385.67	382.45
386.049	381.77
386.429	388.1
386.809	389.45
387.189	383.58
387.568	375.22
387.948	399.17
388.328	396.68
388.707	400.98
389.087	391.49
389.466	404.37
389.846	392.62
390.225	388.32
390.605	409.11
390.984	417.47
391.363	403.69
391.743	408.89
392.122	430.36
392.501	401.66
392.881	389.68
393.26	422.67
393.639	428.55
394.018	417.02
394.397	434.88
394.776	435.55
395.155	418.83
395.534	406.85
395.913	429.68
396.292	434.65
396.671	457.02
397.05	452.5
397.429	444.37
397.808	432.62
398.186	457.25
398.565	459.73
398.944	459.06
399.323	459.28
399.701	456.57
400.08	454.99
400.458	464.48
400.837	451.37
401.215	481.2
401.594	473.74
401.972	480.75
402.351	458.6
402.729	480.52
403.107	477.13
403.486	476
403.864	474.2
404.242	481.43
404.62	499.51
404.999	478.72
405.377	454.99
405.755	483.46
406.133	480.07
406.511	489.34
406.889	484.59
407.267	489.34
407.645	511.48
408.023	507.19
408.401	506.29
408.779	502.9
409.156	528.21
409.534	512.61
409.912	529.11
410.29	555.55
410.667	514.87
411.045	525.72
411.422	550.58
411.8	560.3
412.178	536.12
412.555	567.53
412.933	555.1
413.31	561.88
413.687	591.48
414.065	569.79
414.442	566.4
414.819	562.78
415.197	581.99
415.574	570.24
415.951	595.78
416.328	584.93
416.705	571.14
417.082	595.78
417.46	597.81
417.837	603.91
418.214	594.87
418.591	613.18
418.967	596.68
419.344	614.98
419.721	623.8
420.098	618.15
420.475	618.83
420.852	634.42
421.228	634.42
421.605	631.03
421.982	634.19
422.358	654.3
422.735	645.49
423.111	668.32
423.488	626.51
423.864	655.21
424.241	669.45
424.617	686.39
424.994	673.51
425.37	683.46
425.746	708.54
426.123	718.03
426.499	701.08
426.875	678.94
427.251	701.99
427.627	711.7
428.003	722.1
428.379	725.72
428.756	743.34
429.132	748.31
429.507	759.84
429.883	767.97
430.259	774.98
430.635	767.07
431.011	769.33
431.387	757.35
431.763	775.88
432.138	796.22
432.514	800.74
432.89	803
433.265	813.85
433.641	827.63
434.016	832.15
434.392	827.41
434.767	857.01
435.143	871.25
435.518	839.61
435.894	868.99
436.269	871.7
436.644	886.62
437.02	869.21
437.395	879.16
437.77	908.76
438.145	909.21
438.52	919.83
438.895	925.26
439.271	924.81
439.646	945.6
440.021	937.69
440.395	948.08
440.77	920.74
441.145	926.16
441.52	950.12
441.895	954.41
442.27	971.58
442.645	951.47
443.019	992.6
443.394	968.87
443.769	971.36
444.143	991.47
444.518	991.25
444.892	1004.8
445.267	1019.49
445.641	1013.62
446.016	1009.32
446.39	1004.58
446.764	1025.14
447.139	1015.43
447.513	1052.94
447.887	1072.15
448.262	1045.26
448.636	1031.24
449.01	1036.44
449.384	1083.67
449.758	1093.62
450.132	1079.6
450.506	1086.84
450.88	1122.32
451.254	1102.65
451.628	1114.18
452.002	1108.3
452.376	1141.07
452.75	1105.37
453.123	1130.9
453.497	1166.61
453.871	1162.77
454.244	1182.88
454.618	1161.18
454.992	1205.7
455.365	1229.2
455.739	1237.57
456.112	1246.61
456.486	1267.85
456.859	1265.14
457.232	1271.01
457.606	1290.45
457.979	1314.4
458.352	1329.99
458.725	1322.08
459.099	1370.67
459.472	1397.56
459.845	1381.07
460.218	1420.16
460.591	1399.82
460.964	1403.66
461.337	1432.36
461.71	1474.17
462.083	1461.74
462.456	1470.33
462.829	1483.89
463.201	1518.24
463.574	1493.6
463.947	1553.04
464.32	1543.77
464.692	1539.25
465.065	1566.6
465.438	1581.96
465.81	1624.9
466.183	1630.32
466.555	1658.57
466.928	1695.41
467.3	1651.34
467.672	1714.62
468.045	1747.61
468.417	1751.23
468.789	1766.82
469.161	1797.1
469.534	1807.04
469.906	1853.37
470.278	1862.86
470.65	1875.29
471.022	1919.36
471.394	1958
471.766	1960.49
472.138	1995.06
472.51	2008.39
472.882	2087.71
473.253	2068.73
473.625	2128.16
473.997	2144.44
474.369	2140.59
474.74	2155.28
475.112	2188.05
475.484	2285.9
475.855	2298.78
476.227	2316.18
476.598	2343.07
476.97	2365.45
477.341	2457.65
477.713	2444.09
478.084	2491.54
478.455	2534.93
478.827	2563.63
479.198	2652.67
479.569	2682.73
479.94	2758.66
480.311	2740.58
480.682	2811.99
481.053	2868.03
481.424	2921.14
481.795	2929.73
482.166	2978.76
482.537	3027.8
482.908	3071.64
483.279	3127.91
483.65	3217.4
484.021	3245.88
484.391	3262.6
484.762	3355.25
485.133	3385.53
485.503	3412.88
485.874	3499.88
486.244	3519.09
486.615	3552.08
486.985	3648.12
487.356	3711.4
487.726	3741.91
488.097	3814
488.467	3866.88
488.837	3920.43
489.207	3925.41
489.578	3993.88
489.948	4073.88
490.318	4140.54
490.688	4152.29
491.058	4214.66
491.428	4301.44
491.798	4337.37
492.168	4407.43
492.538	4484.03
492.908	4489.01
493.278	4552.73
493.648	4555.22
494.017	4637.7
494.387	4663.24
494.757	4739.85
495.126	4797.7
495.496	4833.63
495.866	4884.02
496.235	4907.53
496.605	5001.08
496.974	5037.24
497.344	5070.46
497.713	5092.38
498.082	5220.06
498.452	5222.55
498.821	5265.71
499.19	5239.04
499.559	5328.76
499.928	5366.05
500.298	5382.77
500.667	5530.79
501.036	5524.69
501.405	5559.03
501.774	5601.52
502.143	5659.14
502.512	5687.39
502.88	5706.83
503.249	5812.36
503.618	5838.58
503.987	5854.39
504.356	5937.56
504.724	5992.47
505.093	6006.71
505.462	6012.81
505.83	6127.38
506.199	6185.91
506.567	6299.35
506.936	6306.13
507.304	6355.17
507.672	6394.04
508.041	6422.51
508.409	6454.15
508.777	6537.31
509.145	6599.69
509.514	6666.58
509.882	6689.85
510.25	6759.91
510.618	6836.06
510.986	6881.71
511.354	6958.55
511.722	7001.71
512.09	7091.2
512.458	7079.22
512.826	7230.4
513.193	7212.55
513.561	7314.47
513.929	7407.12
514.297	7433.34
514.664	7507.68
515.032	7625.42
515.4	7628.13
515.767	7680.11
516.135	7763.27
516.502	7725.53
516.869	7887.33
517.237	7945.64
517.604	7957.84
517.972	8104.5
518.339	8166.88
518.706	8154.9
519.073	8262.69
519.44	8352.63
519.808	8417.26
520.175	8479.64
520.542	8594.66
520.909	8666.07
521.276	8749.01
521.643	8800.08
522.009	8826.97
522.376	8976.35
522.743	8996.68
523.11	9154.19
523.477	9267.64
523.843	9334.3
524.21	9475.99
524.577	9454.53
524.943	9583.79
525.31	9659.72
525.676	9801.41
526.043	9803.44
526.409	9867.62
526.776	10045.02
527.142	10138.58
527.508	10148.97
527.874	10285.69
528.241	10337.44
528.607	10423.09
528.973	10541.95
529.339	10588.73
529.705	10706.02
530.071	10888.39
530.437	10855.39
530.803	10879.8
531.169	10976.97
531.535	11139.9
531.901	11114.37
532.267	11311.43
532.632	11360.92
532.998	11471.42
533.364	11540.35
533.73	11464.42
534.095	11700.12
534.461	11700.57
534.826	11848.36
535.192	11847.68
535.557	11993.67
535.923	12028.92
536.288	12152.99
536.653	12221.91
537.019	12251.06
537.384	12317.95
537.749	12478.85
538.114	12469.14
538.479	12572.41
538.845	12656.25
539.21	12775.79
539.575	12730.82
539.94	12893.76
540.305	12919.97
540.67	12958.39
541.034	13206.97
541.399	13246.97
541.764	13309.57
542.129	13394.08
542.494	13440.86
542.858	13448.54
543.223	13592.27
543.587	13693.06
543.952	13731.02
544.316	13839.49
544.681	13877.69
545.045	14039.72
545.41	14125.82
545.774	14107.51
546.138	14274.29
546.503	14341.85
546.867	14352.48
547.231	14561.28
547.595	14654.39
547.959	14663.43
548.324	14735.52
548.688	14930.09
549.052	15111.1
549.416	15094.15
549.779	15173.47
550.143	15294.6
550.507	15439.23
550.871	15499.11
551.235	15655.94
551.599	15780.01
551.962	15802.61
552.326	16093.67
552.689	16222.26
553.053	16220.22
553.417	16332.54
553.78	16518.29
554.143	16612.53
554.507	16843.48
554.87	16858.4
555.234	17192.4
555.597	17125.74
555.96	17302.23
556.323	17497.25
556.686	17545.84
557.05	17720.52
557.413	17879.61
557.776	18142.66
558.139	18195.31
558.502	18441.86
558.865	18478.02
559.228	18757.78
559.59	18893.15
559.953	19104.44
560.316	19312.35
560.679	19501.27
561.041	19660.13
561.404	19942.39
561.767	20104.87
562.129	20079.1
562.492	20536.72
562.854	20602.25
563.217	20811.29
563.579	20957.95
563.941	21168.34
564.304	21458.28
564.666	21694.2
565.028	21911.6
565.39	22032.95
565.753	22253.74
566.115	22598.59
566.477	22727.62
566.839	23029.99
567.201	23196.99
567.563	23479.92
567.925	23734.6
568.287	23872.45
568.648	24029.06
569.01	24347.24
569.372	24614.13
569.734	24787
570.095	24936.38
570.457	25228.8
570.819	25428.79
571.18	25633.31
571.542	25890.48
571.903	26129.34
572.265	26363.46
572.626	26591.93
572.987	26797.8
573.349	27079.37
573.71	27327.73
574.071	27508.06
574.432	27759.35
574.794	28032.57
575.155	28195.05
575.516	28298.78
575.877	28594.14
576.238	28890.85
576.599	28929.49
576.96	29188.24
577.32	29474.56
577.681	29699.64
578.042	29858.06
578.403	30001.1
578.763	30170.59
579.124	30556.57
579.485	30716.11
579.845	30857.58
580.206	31068.87
580.566	31113.84
580.927	31391.8
581.287	31697.33
581.648	31612.36
582.008	32027.94
582.368	32141.39
582.728	32259.8
583.089	32256.86
583.449	32448.27
583.809	32631.77
584.169	32899.78
584.529	32919.67
584.889	33152.43
585.249	33326.44
585.609	33323.5
585.969	33664.28
586.329	33507.45
586.688	33867.67
587.048	33938.85
587.408	34044.84
587.768	34173.2
588.127	34317.15
588.487	34442.12
588.846	34813.18
589.206	34614.54
589.565	34756.23
589.925	34996.9
590.284	34945.83
590.643	35217.92
591.003	35493.16
591.362	35557.12
591.721	35730.22
592.08	35747.62
592.44	36002.3
592.799	36155.07
593.158	36141.96
593.517	36212.69
593.876	36389.41
594.235	36413.36
594.593	36696.07
594.952	36818.78
595.311	36803.18
595.67	37054.93
596.029	37348.26
596.387	37413.34
596.746	37627.12
597.104	37563.84
597.463	37761.8
597.822	37896.26
598.18	37846.77
598.538	37879.54
598.897	38242.24
599.255	38198.18
599.613	38864.83
599.972	38796.35
600.33	38801.32
600.688	38771.49
601.046	39043.8
601.404	39151.37
601.762	39174.42
602.12	39441.08
602.478	39545.94
602.836	39721.07
603.194	39535.99
603.552	39784.35
603.91	39861.41
604.268	40184.79
604.625	39990.9
604.983	40224.56
605.341	40296.43
605.698	40665
606.056	40737.09
606.413	40778.45
606.771	41126.91
607.128	41146.8
607.485	41112.22
607.843	41275.84
608.2	41554.02
608.557	41631.76
608.914	41685.09
609.272	41973.9
609.629	42026.32
609.986	42298.63
610.343	42241.23
610.7	42637.83
611.057	42695.01
611.414	42640.09
611.771	42680.77
612.127	43100.19
612.484	43267.2
612.841	43461.31
613.198	43343.13
613.554	43443.69
613.911	43682.1
614.267	43747.41
614.624	43776.56
614.98	43985.59
615.337	44280.28
615.693	44302.87
616.05	44403.89
616.406	44739.93
616.762	44651.79
617.118	44827.83
617.475	44722.98
617.831	45028.28
618.187	45038.22
618.543	45182.63
618.899	45411.77
619.255	45521.37
619.611	45522.05
619.967	45669.62
620.323	45747.36
620.678	45909.39
621.034	45807.47
621.39	45803.4
621.746	45926.79
622.101	46357.96
622.457	46161.81
622.812	46228.7
623.168	46422.82
623.523	46514.34
623.879	46631.4
624.234	46591.85
624.589	46703.04
624.945	46793.88
625.3	46813.09
625.655	46768.57
626.01	47010.15
626.365	47072.75
626.72	47076.59
627.075	47108
627.43	47151.84
627.785	47173.76
628.14	47280.65
628.495	47358.39
628.85	47362.91
629.205	47319.07
629.559	47703.46
629.914	47454.66
630.269	47639.06
630.623	47480.42
630.978	47612.62
631.332	47815.32
631.687	47600.19
632.041	47629.11
632.396	47668.66
632.75	47684.93
633.104	47804.25
633.459	47647.19
633.813	47726.97
634.167	47752.28
634.521	47917.24
634.875	47938.94
635.229	47949.56
635.583	47758.38
635.937	48010.57
636.291	48028.2
636.645	48038.82
636.999	47967.19
637.352	47971.93
637.706	47763.8
638.06	48108.65
638.413	47924.02
638.767	48131.47
639.121	48030.46
639.474	48027.75
639.828	48109.78
640.181	48067.3
640.534	48126.95
640.888	48093.96
641.241	47989.56
641.594	48086.96
641.947	48231.58
642.301	48098.48
642.654	48144.36
643.007	48144.13
643.36	48201.53
643.713	48258.02
644.066	48370.34
644.419	48111.59
644.771	48024.58
645.124	47661.43
645.477	47575.56
645.83	47415.79
646.182	47297.82
646.535	47383.92
646.888	47392.28
647.24	47353.19
647.593	47685.61
647.945	47649.68
648.298	47468.89
648.65	47430.25
649.002	47303.7
649.355	47480.19
649.707	47354.55
650.059	47538.27
650.411	47965.38
650.763	48120.18
651.115	48503.67
651.467	48397.23
651.819	48504.8
652.171	48393.39
652.523	48405.82
652.875	48477.23
653.227	48299.83
653.578	48637
653.93	48458.7
654.282	48516.78
654.633	48501.41
654.985	48526.04
655.337	48637.68
655.688	48525.14
656.039	48703.44
656.391	48298.48
656.742	48596.55
657.094	48587.28
657.445	48856.88
657.796	48809.2
658.147	48751.57
658.498	48747.73
658.849	48985.92
659.2	48756.09
659.551	48778.92
659.902	49022.52
660.253	48886.03
660.604	48921.74
660.955	48837.22
661.306	48923.77
661.656	48846.71
662.007	48963.77
662.358	48889.19
662.708	48893.26
663.059	48959.93
663.409	48804.45
663.76	49138
664.11	49071.56
664.461	49129.64
664.811	49124.22
665.161	49039.02
665.511	49076.08
665.862	49179.13
666.212	49205.34
666.562	49177.55
666.912	49146.82
667.262	49239.92
667.612	49256.19
667.962	49335.96
668.312	49115.63
668.662	49533.7
669.011	49401.5
669.361	49522.4
669.711	49439.69
670.06	49421.84
670.41	49313.14
670.76	49210.77
671.109	49547.48
671.459	49520.36
671.808	49555.39
672.157	49767.59
672.507	49401.95
672.856	49408.05
673.205	49475.62
673.554	49551.55
673.904	49394.94
674.253	49658.21
674.602	49517.2
674.951	49124.44
675.3	48974.16
675.649	49560.14
675.998	49509.74
676.346	49709.51
676.695	49795.39
677.044	49363.76
677.393	49637.65
677.741	49612.34
678.09	49591.55
678.438	49644.66
678.787	49736.63
679.135	49698.44
679.484	49575.5
679.832	49596.07
680.181	49465.45
680.529	49619.57
680.877	49427.03
681.225	49443.76
681.573	49625.45
681.922	49467.71
682.27	49327.15
682.618	49363.98
682.966	49383.42
683.314	49441.04
683.661	49250.54
684.009	49171.67
684.357	49096.42
684.705	49085.8
685.053	49285.57
685.4	48994.5
685.748	49157.66
686.095	49200.82
686.443	48946.14
686.79	48919.7
687.138	49055.52
687.485	49094.84
687.832	49101.84
688.18	49075.18
688.527	48831.34
688.874	48855.75
689.221	48810.1
689.568	48601.74
689.915	48652.36
690.262	48697.34
690.609	48541.86
690.956	48538.47
691.303	48478.36
691.65	48225.03
691.997	48263.45
692.344	48100.74
692.69	48110.91
693.037	48183.9
693.383	47923.34
693.73	48069.1
694.077	47792.27
694.423	47924.47
694.769	47994.08
695.116	47860.97
695.462	47672.05
695.808	47749.11
696.155	47692.84
696.501	47455.79
696.847	47411.49
697.193	47271.16
697.539	47398.61
697.885	47129.02
698.231	47107.32
698.577	47136.47
698.923	47146.19
699.269	46864.84
699.614	46792.75
699.96	46802.7
700.306	46820.32
700.651	46698.97
700.997	46487.68
701.342	46621.01
701.688	46430.28
702.033	46381.46
702.379	46418.75
702.724	46227.12
703.069	46389.15
703.415	45904.41
703.76	45845.21
704.105	45804.3
704.45	45804.98
704.795	45809.5
705.14	45813.34
705.485	45631.88
705.83	45368.61
706.175	45508.49
706.52	45531.99
706.865	45327.48
707.209	45413.81
707.554	45230.08
707.899	45330.19
708.243	45127.71
708.588	45171.33
708.932	44895.18
709.277	44823.99
709.621	44902.41
709.966	44626.48
710.31	44683.43
710.654	44511
710.998	44657.44
711.342	44650.66
711.687	44588.74
712.031	44448.18
712.375	44465.81
712.719	44412.02
713.063	44261.52
713.407	44440.27
713.75	44226.94
714.094	44216.32
714.438	44237.11
714.782	44210.22
715.125	43910.34
715.469	44000.74
715.812	43922.55
716.156	43736.79
716.499	43758.71
716.843	43798.26
717.186	43537.47
717.53	43906.5
717.873	43938.82
718.216	43553.29
718.559	43629.45
718.902	43262.9
719.246	43358.04
719.589	43267.65
719.932	43240.53
720.275	43180.42
720.617	43179.97
720.96	43118.27
721.303	43074.88
721.646	43192.62
721.989	43170.25
722.331	43236.91
722.674	43032.63
723.016	43076.47
723.359	43045.05
723.701	43057.48
724.044	42735.91
724.386	42738.4
724.729	42879.86
725.071	42641.68
725.413	42714.89
725.755	42668.34
726.097	42538.63
726.439	42471.51
726.782	42385.86
727.124	42613.43
727.465	42496.82
727.807	42486.65
728.149	42391.29
728.491	42355.81
728.833	42387.44
729.175	42157.62
729.516	42109.71
729.858	42167.34
730.199	42215.02
730.541	42035.82
730.882	41892.99
731.224	42100.22
731.565	41749.27
731.906	42071.07
732.248	42014.35
732.589	41957.63
732.93	41814.13
733.271	41775.26
733.612	41851.19
733.953	41895.25
734.294	41815.03
734.635	41746.56
734.976	41677.18
735.317	41608.03
735.658	41603.28
735.999	41424.53
736.339	41420.24
736.68	41377.08
737.021	41251.2
737.361	41204.88
737.702	41328.72
738.042	41192.9
738.383	41276.74
738.723	41373.01
739.063	41162.39
739.404	41297.98
739.744	41281.71
740.084	41166.46
740.424	41142.28
740.764	41047.59
741.104	41196.97
741.444	40986.8
741.784	40779.13
742.124	41017.99
742.464	40822.29
742.804	40860.93
743.143	40791.78
743.483	40820.71
743.823	40586.81
744.162	40693.48
744.502	40764.89
744.841	40665.46
745.181	40918.33
745.52	40661.61
745.86	40599.7
746.199	40508.4
746.538	40457.1
746.877	40555.4
747.216	40466.82
747.556	40375.07
747.895	40356.76
748.234	40229.54
748.573	40184.56
748.911	40098.92
749.25	40207.84
749.589	39962.42
749.928	39919.94
750.267	40028.86
750.605	39899.37
750.944	39874.06
751.283	39766.04
751.621	39962.65
751.96	39852.37
752.298	39731.92
752.636	39729.89
752.975	39497.13
753.313	39522.89
753.651	39388.88
753.989	39340.75
754.327	39371.7
754.666	39040.87
755.004	39256.68
755.342	39193.4
755.679	39053.52
756.017	38877.03
756.355	39099.4
756.693	38982.56
757.031	38876.12
757.368	38718.16
757.706	38730.37
758.044	38526.3
758.381	38504.61
758.719	38341.45
759.056	38469.58
759.394	38260.77
759.731	38267.78
760.068	38009.03
760.405	37920.44
760.743	38040.44
761.08	38007.45
761.417	37978.75
761.754	37718.64
762.091	37698.08
762.428	37553.9
762.765	37321.82
763.102	37429.16
763.438	37493.34
763.775	37133.12
764.112	37162.5
764.449	37156.62
764.785	36992.78
765.122	36811.77
765.458	36756.63
765.795	36668.27
766.131	36558.45
766.467	36604.09
766.804	36569.74
767.14	36388.73
767.476	36344.89
767.812	36347.6
768.148	36423.53
768.485	36129.98
768.821	36024
769.157	35912.81
769.492	35921.17
769.828	35864.45
770.164	35442.77
770.5	35325.71
770.836	35405.26
771.171	35080.97
771.507	35094.76
771.842	34836.23
772.178	34905.16
772.513	34746.74
772.849	34634.65
773.184	34565.5
773.519	34641.21
773.855	34505.62
774.19	34433.08
774.525	34248
774.86	34182.01
775.195	34009.81
775.53	34038.96
775.865	33791.06
776.2	33684.17
776.535	33434.23
776.87	33357.85
777.205	33308.59
777.539	33197.86
777.874	33391.52
778.209	32905.89
778.543	32977.97
778.878	32749.96
779.212	32857.53
779.547	32582.73
779.881	32573.24
780.215	32313.36
780.55	32478.1
780.884	32277.88
781.218	32223.19
781.552	32213.93
781.886	32003.31
782.22	31847.83
782.554	31702.53
782.888	31535.3
783.222	31449.2
783.556	31422.76
783.889	31309.54
784.223	31178.7
784.557	31217.79
784.89	31260.73
785.224	30961.3
785.557	30994.98
785.891	30903.45
786.224	30816.22
786.558	30754.53
786.891	30658.49
787.224	30369.91
787.557	30234.32
787.891	30289.23
788.224	30181.21
788.557	30180.76
788.89	30140.99
789.223	29915.46
789.556	29745.52
789.888	29743.71
790.221	29586.43
790.554	29393.21
790.887	29487.22
791.219	29452.64
791.552	29422.81
791.884	29218.98
792.217	29243.16
792.549	29103.5
792.882	28974.69
793.214	28817.18
793.546	28840.91
793.879	28669.61
794.211	28614.47
794.543	28930.17
794.875	28532.67
795.207	28604.53
795.539	28466
795.871	28404.08
796.203	28254.71
796.535	28252.45
796.867	28131.32
797.198	28042.74
797.53	27941.95
797.862	27881.61
798.193	27832.8
798.525	27611.11
798.856	27679.58
799.188	27402.53
799.519	27410.66
799.85	27234.4
800.182	27326.6
800.513	27197.34
800.844	26912.37
801.175	27252.7
801.506	27021.97
801.837	26856.1
802.168	26922.31
802.499	26870.79
802.83	26665.15
803.161	26689.33
803.491	26674.19
803.822	26651.36
804.153	26607.52
804.483	26331.6
804.814	26389.45
805.145	26379.28
805.475	26422.21
805.805	26091.6
806.136	26113.3
806.466	26111.04
806.796	26089.57
807.126	25893.19
807.457	25818.16
807.787	25937.93
808.117	25747.43
808.447	25749.24
808.777	25857.94
809.107	25732.06
809.436	25663.14
809.766	25545.4
810.096	25459.53
810.426	25349.25
810.755	25404.61
811.085	25364.62
811.414	25236.48
811.744	25178.63
812.073	25233.55
812.403	25048.47
812.732	25078.07
813.061	24923.72
813.39	24910.39
813.719	24728.7
814.049	24848.92
814.378	24832.88
814.707	24737.51
815.036	24687.57
815.365	24576.39
815.693	24247.81
816.022	24377.3
816.351	24188.83
816.68	24238.32
817.008	24233.35
817.337	24059.11
817.665	24104.08
817.994	24250.07
818.322	24163.52
818.651	24014.14
818.979	24001.71
819.307	24045.1
819.636	23956.52
819.964	23733.47
820.292	23945.9
820.62	23893.92
820.948	23809.18
821.276	23921.49
821.604	23744.32
821.932	23944.09
822.259	23921.26
822.587	23794.49
822.915	23809.4
823.243	23938.21
823.57	23858.67
823.898	23933.01
824.225	23808.5
824.553	23792.45
824.88	23631.55
825.207	23731.44
825.535	23781.61
825.862	23789.29
826.189	23785
826.516	23939.34
826.843	23830.64
827.17	23956.29
827.497	23914.71
827.824	24029.06
828.151	24064.76
828.478	24036.06
828.805	24043.75
829.131	23990.19
829.458	24030.41
829.785	23895.5
830.111	24060.47
830.438	24166
830.764	24062.28
831.09	24001.49
831.417	23947.48
831.743	24045.78
832.069	24004.88
832.395	23983.41
832.722	23991.77
833.048	23935.73
833.374	24033.13
833.7	23866.12
834.026	23879.91
834.351	23900.47
834.677	23846.01
835.003	23763.98
835.329	23850.76
835.654	23769.63
835.98	23731.66
836.306	23703.87
836.631	23563.53
836.956	23683.53
837.282	23614.15
837.607	23585.45
837.932	23500.94
838.258	23616.41
838.583	23603.76
838.908	23443.76
839.233	23341.62
839.558	23370.09
839.883	23417.55
840.208	23354.5
840.533	23366.25
840.858	23355.4
841.182	23320.38
841.507	23425.23
841.832	23219.59
842.156	23149.98
842.481	23297.55
842.805	23136.2
843.13	22967.84
843.454	23030.44
843.778	22809.88
844.103	22883.32
844.427	22745.48
844.751	22685.36
845.075	22636.33
845.399	22706.83
845.723	22646.04
846.047	22648.75
846.371	22456.9
846.695	22460.96
847.019	22326.73
847.343	22241.08
847.666	22143.91
847.99	22013.29
848.313	22063.91
848.637	21806.29
848.96	21818.49
849.284	21887.42
849.607	21612.85
849.931	21580.31
850.254	21541.21
850.577	21405.62
850.9	21340.09
851.223	21340.54
851.546	21259.41
851.869	21139.19
852.192	21178.96
852.515	21001.79
852.838	20843.83
853.161	20907.33
853.483	20810.39
853.806	20687.22
854.129	20609.03
854.451	20548.47
854.774	20529.94
855.096	20542.6
855.419	20424.86
855.741	20466.44
856.063	20358.87
856.385	20382.15
856.708	20292.43
857.03	20161.81
857.352	20170.4
857.674	20001.59
857.996	19988.49
858.318	19810.64
858.64	19872.78
858.961	19764.31
859.283	19649.51
859.605	19571.55
859.926	19747.59
860.248	19665.1
860.57	19654.48
860.891	19695.61
861.212	19543.53
861.534	19428.05
861.855	19480.7
862.176	19503.75
862.498	19441.16
862.819	19439.8
863.14	19358.45
863.461	19338.56
863.782	19290.88
864.103	19283.19
864.424	19319.12
864.745	19291.55
865.065	19245.45
865.386	19160.71
865.707	19209.98
866.027	19229.41
866.348	19192.57
866.668	19161.39
866.989	19164.78
867.309	18965.69
867.63	18937.67
867.95	19019.25
868.27	18776.99
868.59	18894.05
868.91	18784.45
869.23	18773.38
869.55	18793.26
869.87	18789.87
870.19	18683.21
870.51	18742.64
870.83	18652.02
871.15	18508.3
871.469	18626.04
871.789	18596.43
872.109	18743.77
872.428	18576.55
872.748	18558.92
873.067	18546.26
873.386	18595.08
873.706	18484.34
874.025	18482.76
874.344	18338.59
874.663	18544.23
874.982	18430.79
875.301	18371.81
875.62	18454.51
875.939	18331.13
876.258	18403.67
876.577	18238.7
876.896	18335.87
877.214	18192.37
877.533	18218.81
877.852	18230.11
878.17	18110.34
878.489	18122.09
878.807	18238.25
879.125	18123
879.444	18150.79
879.762	18017.69
880.08	18062.43
880.398	18010.91
880.716	18020.4
881.034	17941.08
881.352	17819.96
881.67	17829.9
881.988	17748.77
882.306	17716.46
882.624	17706.06
882.941	17607.98
883.259	17626.51
883.577	17568.21
883.894	17497.7
884.212	17479.17
884.529	17563.46
884.846	17469
885.164	17528.44
885.481	17446.41
885.798	17463.13
886.115	17375.45
886.432	17285.73
886.75	17262.46
887.067	17295
887.383	17148.79
887.7	17150.37
888.017	17179.52
888.334	17170.93
888.651	17152.85
888.967	17086.42
889.284	16991.28
889.6	16936.59
889.917	16878.51
890.233	16958.73
890.55	16844.84
890.866	16744.96
891.182	16764.39
891.498	16836.48
891.815	16725.29
892.131	16607.56
892.447	16534.34
892.763	16541.12
893.079	16494.34
893.395	16465.41
893.71	16428.58
894.026	16370.73
894.342	16236.95
894.657	16175.93
894.973	16261.58
895.289	16144.29
895.604	16179.77
895.92	16017.74
896.235	16054.58
896.55	15931.19
896.865	15901.14
897.181	15813.45
897.496	15833.34
897.811	15701.59
898.126	15838.76
898.441	15627.47
898.756	15693.01
899.071	15547.25
899.386	15589.05
899.7	15470.64
900.015	15494.59
900.33	15289.85
900.644	15352.45
900.959	15323.75
901.273	15161.04
901.588	15137.77
901.902	15092.34
902.216	15044.66
902.531	15076.07
902.845	14992.46
903.159	14949.97
903.473	14956.98
903.787	14815.51
904.101	14687.83
904.415	14778.23
904.729	14678.79
905.042	14650.55
905.356	14596.54
905.67	14446.71
905.984	14475.18
906.297	14345.92
906.611	14359.03
906.924	14309.54
907.237	14283.1
907.551	14240.39
907.864	14185.47
908.177	14144.35
908.491	14062.09
908.804	13990.23
909.117	13980.06
909.43	14065.93
909.743	13873.62
910.056	13892.83
910.368	13755.88
910.681	13756.79
910.994	13631.36
911.307	13641.08
911.619	13574.19
911.932	13628.43
912.244	13425.72
912.557	13551.14
912.869	13396.34
913.181	13331.03
913.494	13343.91
913.806	13254.2
914.118	13273.86
914.43	13144.37
914.742	13111.83
915.054	12994.55
915.366	12992.51
915.678	12839.52
915.99	12864.15
916.302	12820.76
916.613	12738.73
916.925	12697.15
917.236	12672.29
917.548	12541.9
917.859	12599.75
918.171	12459.42
918.482	12444.05
918.794	12418.06
919.105	12355.24
919.416	12239.31
919.727	12232.31
920.038	12181.23
920.349	12180.33
920.66	12052.42
920.971	12076.83
921.282	12104.85
921.593	12000.67
921.903	11916.61
922.214	11895.82
922.525	11877.96
922.835	11700.79
923.146	11653.11
923.456	11709.16
923.767	11760.91
924.077	11676.39
924.387	11585.54
924.697	11567.01
925.008	11555.04
925.318	11429.61
925.628	11386
925.938	11366.34
926.248	11275.72
926.558	11217.42
926.867	11212.9
927.177	11178.77
927.487	11089.06
927.796	11007.25
928.106	11046.12
928.416	10936.97
928.725	10984.43
929.034	10942.85
929.344	10878.22
929.653	10776.98
929.962	10750.54
930.271	10665.79
930.581	10636.64
930.89	10626.02
931.199	10494.95
931.508	10472.58
931.817	10514.38
932.125	10456.76
932.434	10346.25
932.743	10320.04
933.051	10336.31
933.36	10227.16
933.669	10218.35
933.977	10214.28
934.286	10131.34
934.594	10060.84
934.902	10002.31
935.21	10033.95
935.519	10040.72
935.827	9989.2
936.135	9927.06
936.443	9781.97
936.751	9738.36
937.059	9742.2
937.367	9694.52
937.674	9684.12
937.982	9644.12
938.29	9642.77
938.597	9659.49
938.905	9479.84
939.213	9482.55
939.52	9407.3
939.827	9438.25
940.135	9355.54
940.442	9278.03
940.749	9304.25
941.056	9241.88
941.363	9153.06
941.67	9127.53
941.977	9071.71
942.284	9108.77
942.591	9017.7
942.898	9031.94
943.205	9019.73
943.511	8879.4
943.818	8959.4
944.125	8863.81
944.431	8794.88
944.738	8791.27
945.044	8765.73
945.35	8721.89
945.657	8648.22
945.963	8653.19
946.269	8559.41
946.575	8575.68
946.881	8519.63
947.187	8541.78
947.493	8488.68
947.799	8422.69
948.105	8343.59
948.41	8308.57
948.716	8297.49
949.022	8230.38
949.327	8192.86
949.633	8086.65
949.938	8127.78
950.244	8173.88
950.549	8102.24
950.854	8027.44
951.16	7988.12
951.465	7962.36
951.77	7914.9
952.075	7874
952.38	7882.14
952.685	7824.06
952.99	7750.62
953.294	7821.57
953.599	7754.68
953.904	7669.04
954.209	7620.9
954.513	7628.58
954.818	7626.78
955.122	7623.61
955.426	7543.84
955.731	7558.08
956.035	7484.18
956.339	7441.02
956.643	7440.79
956.948	7442.6
957.252	7339.78
957.556	7472.43
957.86	7324.64
958.163	7314.02
958.467	7302.49
958.771	7242.61
959.075	7196.51
959.378	7197.64
959.682	7181.36
959.985	7090.97
960.289	7031.09
960.592	7040.58
960.896	6996.51
961.199	7001.48
961.502	6916.29
961.805	6937.76
962.108	6877.42
962.411	6790.87
962.714	6808.72
963.017	6762.17
963.32	6738.66
963.623	6738.44
963.926	6682.85
964.228	6652.11
964.531	6719.46
964.833	6643.07
965.136	6549.52
965.438	6523.08
965.741	6542.29
966.043	6487.15
966.345	6420.48
966.648	6450.31
966.95	6386.13
967.252	6302.07
967.554	6342.06
967.856	6298
968.158	6308.62
968.46	6286.02
968.761	6279.47
969.063	6232.92
969.365	6218.9
969.666	6125.12
969.968	6096.42
970.269	6126.25
970.571	6080.6
970.872	6105.46
971.174	6040.15
971.475	6004.9
971.776	6027.04
972.077	5947.72
972.378	5952.02
972.679	5949.76
972.98	5905.92
973.281	5846.03
973.582	5893.94
973.883	5806.94
974.183	5810.78
974.484	5805.58
974.785	5724.91
975.085	5681.29
975.386	5707.05
975.686	5665.7
975.986	5658.47
976.287	5573.5
976.587	5529.88
976.887	5509.54
977.187	5510.67
977.487	5548.87
977.787	5469.09
978.087	5470
978.387	5381.86
978.687	5438.36
978.987	5395.65
979.286	5354.07
979.586	5333.05
979.885	5281.98
980.185	5265.26
980.484	5255.54
980.784	5250.12
981.083	5255.31
981.382	5249.44
981.682	5204.69
981.981	5170.57
982.28	5162.43
982.579	5088.54
982.878	5086.28
983.177	5068.2
983.475	5052.38
983.774	5059.84
984.073	4944.14
984.372	4927.19
984.67	4944.59
984.969	4878.83
985.267	4954.98
985.566	4905.49
985.864	4889.22
986.162	4839.73
986.461	4790.69
986.759	4806.51
987.057	4742.33
987.355	4678.61
987.653	4722.22
987.951	4730.13
988.249	4728.77
988.547	4664.14
988.844	4655.56
989.142	4665.72
989.44	4605.84
989.737	4548.89
990.035	4532.39
990.332	4523.13
990.63	4484.26
990.927	4482.68
991.224	4472.28
991.521	4453.98
991.819	4452.17
992.116	4385.73
992.413	4391.38
992.71	4308.67
993.006	4374.66
993.303	4321.33
993.6	4307.99
993.897	4247.2
994.193	4243.81
994.49	4222.35
994.787	4243.14
995.083	4199.52
995.379	4186.19
995.676	4137.15
995.972	4118.85
996.268	4093.08
996.565	4088.11
996.861	4061.9
997.157	4031.62
997.453	4036.14
997.749	4005.18
998.044	3983.26
998.34	3955.46
998.636	3923.37
998.932	3919.3
999.227	3894.45
999.523	3889.93
999.818	3900.1
1000.114	3845.18
1000.409	3804.28
1000.704	3803.15
1001	3747.1
1001.295	3728.35
1001.59	3758.63
1001.885	3755.92
1002.18	3664.85
1002.475	3682.93
1002.77	3628.92
1003.065	3642.7
1003.359	3638.41
1003.654	3601.8
1003.949	3585.98
1004.243	3531.97
1004.538	3461.24
1004.832	3445.64
1005.127	3473.89
1005.421	3443.38
1005.715	3424.63
1006.009	3449.94
1006.304	3383.27
1006.598	3369.04
1006.892	3326.32
1007.186	3372.43
1007.48	3318.87
1007.773	3256.95
1008.067	3239.55
1008.361	3238.19
1008.655	3249.04
1008.948	3204.75
1009.242	3213.11
1009.535	3178.76
1009.829	3160.91
1010.122	3171.98
1010.415	3093.11
1010.708	3043.85
1011.001	3046.78
1011.295	3080.91
1011.588	3047.91
1011.881	3027.12
1012.173	3014.02
1012.466	2968.14
1012.759	2966.79
1013.052	2958.2
1013.344	2925.88
1013.637	2905.77
1013.93	2903.06
1014.222	2865.77
1014.514	2840.69
1014.807	2852.67
1015.099	2845.89
1015.391	2852.44
1015.683	2782.61
1015.976	2810.63
1016.268	2754.81
1016.56	2698.32
1016.851	2661.48
1017.143	2721.82
1017.435	2695.61
1017.727	2649.51
1018.018	2676.17
1018.31	2672.78
1018.602	2632.78
1018.893	2601.37
1019.185	2533.58
1019.476	2518.21
1019.767	2513.24
1020.058	2511.66
1020.35	2472.34
1020.641	2476.86
1020.932	2449.74
1021.223	2428.72
1021.514	2417.2
1021.804	2381.04
1022.095	2381.04
1022.386	2373.36
1022.677	2350.76
1022.967	2313.92
1023.258	2293.36
1023.548	2295.17
1023.839	2301.49
1024.129	2285.45
1024.419	2254.94
1024.709	2241.16
1025	2216.07
1025.29	2223.08
1025.58	2189.86
1025.87	2160.71
1026.16	2160.93
1026.449	2138.11
1026.739	2121.84
1027.029	2126.81
1027.319	2102.18
1027.608	2097.88
1027.898	2085
1028.187	2072.35
1028.477	2034.61
1028.766	2001.39
1029.055	1998.22
1029.344	2005.23
1029.634	1990.99
1029.923	1953.48
1030.212	1940.15
1030.501	1921.62
1030.79	1925.46
1031.078	1883.65
1031.367	1893.14
1031.656	1887.27
1031.945	1866.93
1032.233	1827.16
1032.522	1850.66
1032.81	1827.16
1033.099	1807.04
1033.387	1824.44
1033.675	1788.29
1033.963	1786.25
1034.251	1791
1034.54	1751
1034.828	1723.43
1035.116	1696.31
1035.403	1705.35
1035.691	1676.88
1035.979	1678.68
1036.267	1660.61
1036.554	1653.37
1036.842	1632.36
1037.129	1632.58
1037.417	1617.22
1037.704	1609.08
1037.992	1585.81
1038.279	1569.76
1038.566	1577.44
1038.853	1577.44
1039.14	1577.44
