Data from copper_heatsink_FLMS001491_027.txt Node
Date: Tue Feb 07 10:49:37 GMT 2017
User: dcchb
Spectrometer: FLMS00149
Trigger mode: 0
Integration Time (sec): 2.000000E-2
Scans to average: 10
Electric dark correction enabled: true
Nonlinearity correction enabled: false
Boxcar width: 0
XAxis mode: Wavelengths
Number of Pixels in Spectrum: 2048
>>>>>Begin Spectral Data<<<<<
341.393	-25.48
341.776	-25.48
342.16	-25.48
342.543	-55.54
342.927	-59.15
343.31	-70
343.693	-43.56
344.077	-69.32
344.46	-58.93
344.843	-40.85
345.226	-46.04
345.61	-40.62
345.993	-20.06
346.376	-6.72
346.759	19.27
347.142	40.73
347.525	52.94
347.908	55.87
348.291	50.45
348.674	86.16
349.057	90.68
349.44	105.14
349.823	126.38
350.206	170.67
350.588	213.16
350.971	226.49
351.354	253.16
351.737	257.22
352.119	265.81
352.502	256.32
352.884	296.09
353.267	290.44
353.65	302.87
354.032	315.98
354.414	309.43
354.797	327.96
355.179	326.83
355.562	339.93
355.944	338.8
356.326	343.78
356.709	357.56
357.091	356.66
357.473	354.62
357.855	333.38
358.238	351.46
358.62	348.75
359.002	371.35
359.384	358.92
359.766	358.92
360.148	368.86
360.53	370.44
360.912	354.62
361.294	353.27
361.676	352.14
362.057	343.32
362.439	366.37
362.821	352.36
363.203	354.85
363.584	360.5
363.966	353.04
364.348	333.83
364.729	353.95
365.111	319.37
365.493	352.14
365.874	352.82
366.256	334.96
366.637	331.35
367.019	327.96
367.4	360.05
367.781	329.54
368.163	349.88
368.544	354.85
368.925	361.18
369.306	349.88
369.688	341.74
370.069	344.45
370.45	351.91
370.831	358.69
371.212	323.66
371.593	358.47
371.974	345.13
372.355	360.27
372.736	343.55
373.117	356.21
373.498	374.28
373.879	364.79
374.26	353.95
374.641	352.59
375.021	350.1
375.402	334.74
375.783	361.18
376.163	380.84
376.544	372.02
376.925	357.56
377.305	365.02
377.686	376.32
378.066	381.29
378.447	398.01
378.827	381.06
379.208	362.08
379.588	379.03
379.968	382.42
380.349	384
380.729	396.2
381.109	400.72
381.489	394.62
381.87	411.12
382.25	393.94
382.63	418.35
383.01	401.18
383.39	367.5
383.77	405.47
384.15	423.32
384.53	421.06
384.91	406.83
385.29	426.49
385.67	431.91
386.049	443.43
386.429	406.37
386.809	421.51
387.189	428.97
387.568	442.53
387.948	419.71
388.328	412.48
388.707	433.04
389.087	451.34
389.466	456.54
389.846	452.93
390.225	426.49
390.605	448.63
390.984	452.93
391.363	442.76
391.743	459.71
392.122	479.14
392.501	462.19
392.881	484.56
393.26	495.64
393.639	472.13
394.018	500.16
394.397	477.11
394.776	496.77
395.155	483.89
395.534	500.16
395.913	507.39
396.292	513.72
396.671	488.18
397.05	522.75
397.429	506.03
397.808	516.65
398.186	531.34
398.565	521.85
398.944	532.47
399.323	525.47
399.701	539.93
400.08	566.82
400.458	544.9
400.837	532.7
401.215	533.6
401.594	544.67
401.972	537.22
402.351	558.23
402.729	549.87
403.107	560.95
403.486	573.83
403.864	571.57
404.242	598.01
404.62	552.58
404.999	601.17
405.377	591
405.755	600.49
406.133	600.49
406.511	597.33
406.889	627.61
407.267	630.77
407.645	625.35
408.023	624.45
408.401	626.71
408.779	655.63
409.156	638.01
409.534	648.18
409.912	653.6
410.29	679.59
410.667	668.97
411.045	694.28
411.422	699.7
411.8	700.15
412.178	705.35
412.555	710.32
412.933	722.07
413.31	758
413.687	714.16
414.065	727.04
414.442	765.23
414.819	764.1
415.197	759.58
415.574	766.82
415.951	766.36
416.328	794.84
416.705	816.98
417.082	796.19
417.46	787.61
417.837	820.83
418.214	814.5
418.591	808.4
418.967	845.46
419.344	817.89
419.721	847.49
420.098	845.91
420.475	853.82
420.852	855.63
421.228	864.67
421.605	866.02
421.982	885.46
422.358	913.25
422.735	895.63
423.111	902.63
423.488	918.68
423.864	910.32
424.241	921.39
424.617	944.89
424.994	972.01
425.37	945.79
425.746	958.9
426.123	988.96
426.499	958.22
426.875	975.62
427.251	998.9
427.627	1018.79
428.003	1006.58
428.379	1044.32
428.756	1054.94
429.132	1062.85
429.507	1081.61
429.883	1078.22
430.259	1104.43
430.635	1134.04
431.011	1114.6
431.387	1165.9
431.763	1161.83
432.138	1171.55
432.514	1178.78
432.89	1184.43
433.265	1196.86
433.641	1216.07
434.016	1229.63
434.392	1282.73
434.767	1261.04
435.143	1294.26
435.518	1282.51
435.894	1278.89
436.269	1275.96
436.644	1343.3
437.02	1340.81
437.395	1368.16
437.77	1379
438.145	1397.53
438.52	1396.86
438.895	1403.64
439.271	1444.99
439.646	1427.14
440.021	1449.96
440.395	1461.04
440.77	1444.54
441.145	1455.61
441.52	1503.07
441.895	1507.81
442.27	1486.8
442.645	1509.85
443.019	1542.16
443.394	1520.69
443.769	1550.3
444.143	1569.73
444.518	1590.52
444.892	1561.6
445.267	1582.16
445.641	1621.93
446.016	1649.05
446.39	1633.46
446.764	1668.26
447.139	1667.36
447.513	1671.65
447.887	1682.5
448.262	1717.07
448.636	1700.35
449.01	1731.08
449.384	1715.27
449.758	1743.97
450.132	1749.84
450.506	1796.85
450.88	1800.01
451.254	1783.29
451.628	1857.86
452.002	1835.49
452.376	1851.08
452.75	1879.78
453.123	1910.29
453.497	1939.89
453.871	1954.81
454.244	1963.85
454.618	2037.07
454.992	2019.89
455.365	2014.47
455.739	2087.69
456.112	2094.46
456.486	2105.09
456.859	2166.78
457.232	2190.28
457.606	2200.9
457.979	2181.69
458.352	2235.93
458.725	2286.1
459.099	2355.02
459.472	2348.24
459.845	2385.3
460.218	2404.06
460.591	2401.12
460.964	2433.89
461.337	2507.11
461.71	2535.58
462.083	2527.22
462.456	2543.72
462.829	2593.21
463.201	2649.25
463.574	2636.15
463.947	2694.45
464.32	2737.39
464.692	2737.61
465.065	2805.18
465.438	2821.9
465.81	2865.74
466.183	2918.62
466.555	2961.11
466.928	2996.14
467.3	3005.63
467.672	3029.58
468.045	3138.05
468.417	3176.47
468.789	3186.19
469.161	3195.9
469.534	3237.71
469.906	3336.01
470.278	3338.73
470.65	3424.83
471.022	3452.62
471.394	3488.55
471.766	3548.44
472.138	3603.8
472.51	3642.67
472.882	3725.61
473.253	3764.25
473.625	3813.97
473.997	3912.27
474.369	3921.54
474.74	3999.27
475.112	4085.82
475.484	4178.93
475.855	4198.82
476.227	4280.85
476.598	4342.32
476.97	4386.83
477.341	4430.9
477.713	4515.64
478.084	4581.63
478.455	4714.73
478.827	4790.21
479.198	4850.78
479.569	4909.31
479.94	4971.23
480.311	5058.45
480.682	5163.99
481.053	5300.48
481.424	5366.47
481.795	5405.79
482.166	5526.46
482.537	5600.14
482.908	5704.54
483.279	5783.18
483.65	5917.19
484.021	5970.52
484.391	6028.37
484.762	6113.34
485.133	6190.4
485.503	6249.16
485.874	6417.97
486.244	6457.97
486.615	6593.1
486.985	6656.6
487.356	6778.64
487.726	6873.1
488.097	7002.81
488.467	7005.97
488.837	7146.08
489.207	7257.72
489.578	7367.55
489.948	7450.48
490.318	7525.06
490.688	7522.8
491.058	7709.01
491.428	7768.21
491.798	7887.76
492.168	8026.51
492.538	8044.14
492.908	8164.14
493.278	8261.99
493.648	8250.69
494.017	8400.06
494.387	8441.64
494.757	8560.06
495.126	8651.35
495.496	8690
495.866	8759.15
496.235	8826.27
496.605	8961.4
496.974	8968.63
497.344	9106.48
497.713	9113.26
498.082	9254.95
498.452	9270.32
498.821	9360.71
499.19	9413.37
499.559	9487.49
499.928	9460.15
500.298	9586.7
500.667	9636.87
501.036	9744.43
501.405	9802.06
501.774	9812
502.143	9937.65
502.512	9963.64
502.88	10050.41
503.249	10051.09
503.618	10189.62
503.987	10246.57
504.356	10322.27
504.724	10370.86
505.093	10363.63
505.462	10510.29
505.83	10545.99
506.199	10593.68
506.567	10699.89
506.936	10753.22
507.304	10920.45
507.672	11038.86
508.041	10919.32
508.409	11138.29
508.777	11188.46
509.145	11374.45
509.514	11262.13
509.882	11444.73
510.25	11443.37
510.618	11503.93
510.986	11561.33
511.354	11674.1
511.722	11784.83
512.09	11949.35
512.458	11947.99
512.826	12043.36
513.193	12084.03
513.561	12141.88
513.929	12241.99
514.297	12371.03
514.664	12517.69
515.032	12535.32
515.4	12679.27
515.767	12694.64
516.135	12748.2
516.502	12693.28
516.869	12954.97
517.237	13081.97
517.604	12987.51
517.972	13190.9
518.339	13187.96
518.706	13344.11
519.073	13354.06
519.44	13531
519.808	13646.7
520.175	13650.32
520.542	13914.49
520.909	13965.11
521.276	13952.46
521.643	14147.71
522.009	14216.63
522.376	14324.43
522.743	14424.54
523.11	14607.81
523.477	14677.86
523.843	14772.1
524.21	14907.01
524.577	15030.85
524.943	15167.79
525.31	15211.41
525.676	15365.75
526.043	15457.96
526.409	15509.71
526.776	15743.6
527.142	15814.1
527.508	15869.7
527.874	16023.59
528.241	16123.47
528.607	16144.26
528.973	16306.52
529.339	16339.06
529.705	16611.82
530.071	16652.73
530.437	16853.17
530.803	16932.94
531.169	17011.59
531.535	16986.5
531.901	17135.2
532.267	17163.67
532.632	17346.27
532.998	17427.85
533.364	17482.99
533.73	17575.41
534.095	17685.24
534.461	17834.84
534.826	17898.57
535.192	17936.99
535.557	18149.64
535.923	18187.15
536.288	18318.67
536.653	18335.39
537.019	18367.71
537.384	18468.95
537.749	18547.37
538.114	18681.37
538.479	18720.92
538.845	18922.95
539.21	18833.69
539.575	18945.77
539.94	19033.68
540.305	19057.18
540.67	19208.36
541.034	19297.63
541.399	19395.7
541.764	19456.04
542.129	19681.8
542.494	19630.73
542.858	19804.51
543.223	19853.32
543.587	19903.26
543.952	19952.98
544.316	20105.29
544.681	20132.63
545.045	20296.92
545.41	20490.82
545.774	20449.91
546.138	20546.18
546.503	20730.81
546.867	20752.28
547.231	20932.61
547.595	20960.86
547.959	21129.22
548.324	21104.59
548.688	21254.41
549.052	21393.17
549.416	21522.88
549.779	21588.42
550.143	21671.13
550.507	21906.6
550.871	21858.69
551.235	22045.58
551.599	22257.32
551.962	22357.89
552.326	22458.68
552.689	22736.63
553.053	22657.77
553.417	22792
553.78	23072.67
554.143	23081.03
554.507	23255.72
554.87	23469.04
555.234	23641.24
555.597	23662.49
555.96	23930.95
556.323	23990.39
556.686	24201.45
557.05	24410.49
557.413	24519.19
557.776	24681.67
558.139	24979.96
558.502	25016.12
558.865	25213.18
559.228	25542.89
559.59	25640.29
559.953	25686.61
560.316	26183.1
560.679	26222.64
561.041	26605.01
561.404	26747.38
561.767	26886.58
562.129	27000.02
562.492	27418.32
562.854	27557.07
563.217	27673.91
563.579	27857.63
563.941	28218.75
564.304	28517.72
564.666	28725.63
565.028	28776.93
565.39	29170.14
565.753	29335.78
566.115	29515.44
566.477	29931.02
566.839	30020.74
567.201	30313.38
567.563	30507.5
567.925	30912.24
568.287	31131.89
568.648	31243.53
569.01	31550.19
569.372	31843.29
569.734	31959.67
570.095	32276.04
570.457	32566.43
570.819	32855.24
571.18	32767.33
571.542	33263.59
571.903	33397.82
572.265	33732.28
572.626	33985.6
572.987	34311.24
573.349	34433.5
573.71	34663.33
574.071	35071
574.432	35143.09
574.794	35576.97
575.155	35732
575.516	35824.65
575.877	36089.05
576.238	36388.03
576.599	36545.54
576.96	36814.91
577.32	36840.9
577.681	37201.79
578.042	37539.18
578.403	37787.31
578.763	37899.62
579.124	38128.55
579.485	38404.47
579.845	38667.97
580.206	38568.76
580.566	38893.05
580.927	39006.26
581.287	39272.7
581.648	39269.98
582.008	39741.16
582.368	39698.22
582.728	39850.76
583.089	39992.23
583.449	40075.16
583.809	40240.13
584.169	40553.57
584.529	40646.9
584.889	40922.6
585.249	40774.8
585.609	40887.79
585.969	41271.74
586.329	41298.18
586.688	41518.74
587.048	41655.23
587.408	41758.51
587.768	41918.73
588.127	42081.89
588.487	42024.49
588.846	42417.47
589.206	42292.73
589.565	42485.49
589.925	42822.66
590.284	42698.14
590.643	42874.64
591.003	42944.01
591.362	43304.45
591.721	43387.84
592.08	43481.63
592.44	43718.91
592.799	43810.2
593.158	43887.72
593.517	44097.2
593.876	44228.95
594.235	44252.23
594.593	44377.87
594.952	44594.59
595.311	44527.25
595.67	44781.03
596.029	45034.13
596.387	45160.45
596.746	45339.88
597.104	45315.48
597.463	45529.03
597.822	45546.88
598.18	45572.87
598.538	45614
598.897	45993.42
599.255	45612.87
599.613	46527.65
599.972	46311.61
600.33	46553.63
600.688	46490.13
601.046	46756.34
601.404	46945.04
601.762	46984.58
602.12	47260.73
602.478	47259.15
602.836	47359.94
603.194	47432.48
603.552	47628.86
603.91	47559.94
604.268	47841.74
604.625	47724
604.983	48035.86
605.341	47926.48
605.698	48192.01
606.056	48288.5
606.413	48459.12
606.771	48578.89
607.128	48757.19
607.485	48681.26
607.843	48883.06
608.2	49095.26
608.557	49320.12
608.914	49203.06
609.272	49450.73
609.629	49635.59
609.986	49881.46
610.343	49862.47
610.7	50091.85
611.057	50090.72
611.414	50274.67
611.771	50273.99
612.127	50575.45
612.484	50550.14
612.841	50746.07
613.198	50646.86
613.554	50735.45
613.911	50967.98
614.267	51065.83
614.624	51079.62
614.98	51157.81
615.337	51384.47
615.693	51368.42
616.05	51385.15
616.406	51753.27
616.762	51725.02
617.118	51835.98
617.475	51877.34
617.831	51918.47
618.187	51972.7
618.543	52113.49
618.899	52252.92
619.255	52264.67
619.611	52346.02
619.967	52476.87
620.323	52587.15
620.678	52451.56
621.034	52448.17
621.39	52635.73
621.746	52682.74
622.101	53021.71
622.457	52785.11
622.812	52913.24
623.168	53000.02
623.523	53042.96
623.879	53183.06
624.234	53144.2
624.589	53261.25
624.945	53295.83
625.3	53377.64
625.655	53457.41
626.01	53579.21
626.365	53495.6
626.72	53542.83
627.075	53610.62
627.43	53614.01
627.785	53612.21
628.14	53736.95
628.495	53879.77
628.85	53868.92
629.205	53808.36
629.559	53988.69
629.914	53860.11
630.269	53917.73
630.623	53823.95
630.978	53758.87
631.332	54026.21
631.687	54087.9
632.041	54016.94
632.396	54125.86
632.75	54078.18
633.104	54068.69
633.459	54004.29
633.813	54099.65
634.167	54095.13
634.521	54081.12
634.875	54217.84
635.229	54108.24
635.583	54041.57
635.937	54171.74
636.291	54279.53
636.645	54253.32
636.999	54202.25
637.352	54330.15
637.706	54193.43
638.06	54278.63
638.413	54173.55
638.767	54139.42
639.121	54353.2
639.474	54218.52
639.828	54193.66
640.181	54270.72
640.534	54284.28
640.888	54242.7
641.241	54181
641.594	54332.64
641.947	54440.66
642.301	54335.12
642.654	54452.41
643.007	54407.89
643.36	54429.36
643.713	54372.19
644.066	54495.57
644.419	54398.17
644.771	54389.13
645.124	54258.29
645.477	54155.92
645.83	54077.5
646.182	53869.37
646.535	53602.26
646.888	53671.64
647.24	53420.57
647.593	53612.88
647.945	53595.48
648.298	53462.61
648.65	53559.78
649.002	53500.57
649.355	53812.2
649.707	53736.27
650.059	53973.1
650.411	54418.74
650.763	54452.86
651.115	54658.96
651.467	54579.41
651.819	54546.19
652.171	54555.68
652.523	54647.21
652.875	54657.83
653.227	54573.76
653.578	54733.53
653.93	54587.55
654.282	54570.6
654.633	54457.16
654.985	54637.49
655.337	54608.79
655.688	54657.6
656.039	54811.95
656.391	54632.74
656.742	54626.64
657.094	54669.81
657.445	54864.6
657.796	54757.03
658.147	54703.48
658.498	54700.09
658.849	54794.1
659.2	54871.83
659.551	54731.27
659.902	54879.97
660.253	54853.98
660.604	54956.58
660.955	54741.44
661.306	54868.44
661.656	54831.16
662.007	54949.35
662.358	54990.25
662.708	55016.01
663.059	54988.89
663.409	54831.16
663.76	54967.88
664.11	54990.02
664.461	55124.03
664.811	55046.29
665.161	55114.77
665.511	55091.04
665.862	55105.5
666.212	55228.66
666.562	55230.92
666.912	55240.19
667.262	55171.71
667.612	55267.08
667.962	55326.06
668.312	55321.09
668.662	55410.58
669.011	55305.95
669.361	55343.23
669.711	55368.32
670.06	55333.74
670.41	55343.46
670.76	55402.89
671.109	55490.8
671.459	55403.35
671.808	55364.02
672.157	55452.38
672.507	55248.77
672.856	55419.39
673.205	55416.23
673.554	55495.32
673.904	55455.55
674.253	55567.41
674.602	55590.69
674.951	55149.11
675.3	55003.13
675.649	55538.71
675.998	55517.24
676.346	55628.42
676.695	55736.44
677.044	55491.25
677.393	55711.13
677.741	55719.27
678.09	55657.35
678.438	55602.66
678.787	55689.89
679.135	55684.02
679.484	55487.64
679.832	55705.03
680.181	55580.29
680.529	55589.1
680.877	55565.83
681.225	55498.71
681.573	55705.48
681.922	55547.52
682.27	55430.69
682.618	55491.25
682.966	55465.72
683.314	55511.14
683.661	55501.87
684.009	55422.33
684.357	55384.36
684.705	55469.78
685.053	55454.64
685.4	55433.85
685.748	55434.08
686.095	55320.86
686.443	55237.25
686.79	55126.52
687.138	55284.48
687.485	55298.94
687.832	55257.36
688.18	55247.87
688.527	55134.2
688.874	55176.46
689.221	55055.33
689.568	55102.34
689.915	55113.18
690.262	55096.69
690.609	55030.25
690.956	54945.28
691.303	54874.55
691.65	54769.92
691.997	54838.39
692.344	54666.87
692.69	54697.83
693.037	54753.42
693.383	54493.31
693.73	54672.74
694.077	54433.65
694.423	54515.23
694.769	54499.87
695.116	54426.2
695.462	54379.19
695.808	54305.3
696.155	54314.11
696.501	54176.94
696.847	54207.22
697.193	54023.49
697.539	54175.13
697.885	53970.16
698.231	53985.53
698.577	53941.69
698.923	54097.17
699.269	53899.88
699.614	53819.66
699.96	53750.51
700.306	53769.49
700.651	53614.24
700.997	53560.46
701.342	53534.92
701.688	53538.54
702.033	53418.31
702.379	53392.1
702.724	53275.49
703.069	53401.82
703.415	53200.01
703.76	53258.09
704.105	53215.83
704.45	53193.91
704.795	53093.12
705.14	53050.19
705.485	53098.32
705.83	52883.86
706.175	52940.13
706.52	52816.97
706.865	52735.39
707.209	52805.67
707.554	52613.14
707.899	52736.75
708.243	52564.1
708.588	52635.96
708.932	52490.65
709.277	52463.31
709.621	52598.9
709.966	52396.64
710.31	52386.25
710.654	52165.01
710.998	52310.32
711.342	52283.88
711.687	52273.03
712.031	52153.71
712.375	52008.86
712.719	52154.17
713.063	52056.09
713.407	52201.85
713.75	52005.02
714.094	52007.73
714.438	51924.11
714.782	52050.67
715.125	51844.79
715.469	51957.79
715.812	51778.58
716.156	51674.18
716.499	51621.3
716.843	51642.77
717.186	51471.02
717.53	51778.81
717.873	51745.14
718.216	51689.32
718.559	51641.86
718.902	51504.24
719.246	51525.26
719.589	51512.37
719.932	51416.56
720.275	51393.73
720.617	51284.81
720.96	51294.3
721.303	51376.56
721.646	51332.72
721.989	51179.28
722.331	51240.07
722.674	51264.25
723.016	51394.41
723.359	51218.82
723.701	51290.01
724.044	50998.04
724.386	50898.15
724.729	51017.92
725.071	51024.7
725.413	50987.19
725.755	51035.78
726.097	50889.34
726.439	50786.29
726.782	50887.98
727.124	51070.8
727.465	50850.92
727.807	50793.98
728.149	50772.05
728.491	50686.63
728.833	50818.38
729.175	50713.98
729.516	50692.51
729.858	50605.51
730.199	50639.63
730.541	50546.3
730.882	50655.22
731.224	50635.34
731.565	50548.11
731.906	50518.95
732.248	50608.67
732.589	50483.93
732.93	50401.67
733.271	50487.32
733.612	50619.74
733.953	50523.47
734.294	50333.42
734.635	50387.43
734.976	50440.99
735.317	50346.53
735.658	50365.51
735.999	50262.24
736.339	50264.72
736.68	50319.19
737.021	50225.4
737.361	50103.82
737.702	50155.57
738.042	50148.79
738.383	50248.9
738.723	50280.32
739.063	50078.97
739.404	50381.56
739.744	50203.71
740.084	50060.44
740.424	50172.3
740.764	49971.62
741.104	50177.27
741.444	49942.25
741.784	49894.79
742.124	50033.77
742.464	49869.03
742.804	49904.06
743.143	49849.14
743.483	49846.43
743.823	49744.06
744.162	49877.16
744.502	50044.84
744.841	49804.17
745.181	49901.8
745.52	49722.59
745.86	49770.73
746.199	49840.33
746.538	49658.86
746.877	49846.43
747.216	49859.08
747.556	49699.77
747.895	49666.32
748.234	49343.84
748.573	49438.76
748.911	49502.71
749.25	49364.41
749.589	49393.56
749.928	49417.74
750.267	49521.92
750.605	49396.27
750.944	49351.3
751.283	49387.46
751.621	49344.97
751.96	49132.55
752.298	49219.33
752.636	49195.6
752.975	48986.11
753.313	48961.71
753.651	49166
753.989	48905.66
754.327	49025.66
754.666	48856.17
755.004	48829.96
755.342	49041.03
755.679	48923.74
756.017	48693.92
756.355	48751.99
756.693	48595.39
757.031	48550.87
757.368	48342.06
757.706	48396.07
758.044	48241.27
758.381	48382.29
758.719	48180.03
759.056	48170.09
759.394	48112.01
759.731	47982.75
760.068	48062.52
760.405	47983.2
760.743	47853.04
761.08	47978.46
761.417	47653.72
761.754	47673.38
762.091	47547.28
762.428	47487.17
762.765	47345.93
763.102	47391.8
763.438	47082.43
763.775	47031.14
764.112	47094.86
764.449	47052.83
764.785	47000.63
765.122	46681.99
765.458	46605.61
765.795	46647.64
766.131	46544.6
766.467	46494.65
766.804	46506.18
767.14	46310.7
767.476	46336.24
767.812	46147.32
768.148	46370.14
768.485	46121.56
768.821	46011.28
769.157	45880.88
769.492	45816.03
769.828	45701.45
770.164	45533.77
770.5	45441.8
770.836	45358.41
771.171	45095.82
771.507	45035.03
771.842	44716.62
772.178	44849.05
772.513	44839.56
772.849	44752.33
773.184	44583.07
773.519	44552.78
773.855	44357.76
774.19	44476.4
774.525	44338.78
774.86	44108.28
775.195	44302.85
775.53	44176.97
775.865	44035.73
776.2	43712.58
776.535	43574.05
776.87	43439.59
777.205	43445.69
777.539	43391.68
777.874	43400.27
778.209	43194.63
778.543	43075.76
778.878	42812.26
779.212	42881.41
779.547	42639.16
779.881	42628.09
780.215	42523.46
780.55	42794.41
780.884	42542.67
781.218	42395.55
781.552	42505.38
781.886	42250.7
782.22	41996.92
782.554	41909.24
782.888	41790.37
783.222	41637.38
783.556	41510.6
783.889	41452.3
784.223	41149.93
784.557	41003.72
784.89	41230.61
785.224	41027.9
785.557	40824.75
785.891	40818.19
786.224	40894.12
786.558	40831.75
786.891	40467.92
787.224	40398.54
787.557	40329.62
787.891	40275.16
788.224	40172.33
788.557	40233.35
788.89	40152.22
789.223	39916.97
789.556	39632.69
789.888	39674.72
790.221	39485.57
790.554	39258.69
790.887	39236.76
791.219	39370.09
791.552	39121.29
791.884	39080.61
792.217	39100.95
792.549	38978.69
792.882	38735.08
793.214	38622.32
793.546	38741.41
793.879	38518.82
794.211	38250.12
794.543	38575.31
794.875	38361.31
795.207	38505.71
795.539	38356.11
795.871	38493.28
796.203	37971.71
796.535	37949.57
796.867	37783.7
797.198	37814.66
797.53	37870.25
797.862	37571.95
798.193	37686.98
798.525	37496.02
798.856	37592.51
799.188	37268.23
799.519	36920.67
799.85	36984.85
800.182	36988.01
800.513	36976.03
800.844	36705.76
801.175	36926.09
801.506	37065.3
801.837	36863.27
802.168	36691.07
802.499	36464.18
802.83	36477.52
803.161	36407.91
803.491	36332.21
803.822	36366.11
804.153	36206.79
804.483	36067.81
804.814	35975.61
805.145	36050.63
805.475	35952.11
805.805	35935.16
806.136	36001.37
806.466	35889.73
806.796	35743.07
807.126	35554.83
807.457	35502.17
807.787	35603.64
808.117	35575.17
808.447	35451.1
808.777	35487.48
809.107	35306.7
809.436	35256.3
809.766	35234.16
810.096	35154.39
810.426	35087.95
810.755	35023.54
811.085	34984
811.414	35037.1
811.744	34712.14
812.073	34842.3
812.403	34697
812.732	34484.35
813.061	34576.77
813.39	34548.07
813.719	34452.71
814.049	34629.88
814.378	34588.75
814.707	34460.62
815.036	34370.23
815.365	34312.6
815.693	34033.74
816.022	34088.43
816.351	33995.77
816.68	33852.05
817.008	34006.39
817.337	33701.54
817.665	33725.27
817.994	33866.51
818.322	33610.25
818.651	33638.04
818.979	33403.25
819.307	33763.24
819.636	33537.25
819.964	33424.04
820.292	33670.13
820.62	33786.29
820.948	33579.96
821.276	33740.64
821.604	33653.63
821.932	33645.73
822.259	33679.17
822.587	33681.66
822.915	33552.62
823.243	33859.96
823.57	33722.33
823.898	33770.69
824.225	33708.55
824.553	33758.94
824.88	33903.35
825.207	33976.56
825.535	33947.86
825.862	34072.61
826.189	34108.31
826.516	34101.31
826.843	34034.64
827.17	34117.35
827.497	34250.23
827.824	34206.39
828.151	34354.63
828.478	34241.19
828.805	34565.02
829.131	34192.6
829.458	34306.27
829.785	34128.65
830.111	34268.76
830.438	34376.78
830.764	34278.7
831.09	34339.94
831.417	34117.8
831.743	34345.59
832.069	34426.72
832.395	34182.43
832.722	34504.23
833.048	34256.78
833.374	34405.48
833.7	34265.37
834.026	34340.62
834.351	34475.76
834.677	34321.87
835.003	34508.75
835.329	34360.96
835.654	34419.26
835.98	34370.68
836.306	34351.24
836.631	34406.61
836.956	34408.64
837.282	34412.71
837.607	34411.58
837.932	34342.43
838.258	34383.33
838.583	34239.38
838.908	34078.48
839.233	34306.27
839.558	34236.22
839.883	34056.79
840.208	34028.77
840.533	33996.9
840.858	34183.56
841.182	34272.6
841.507	34236.44
841.832	34016.56
842.156	34009.78
842.481	33943.8
842.805	33904.25
843.13	33822.9
843.454	33823.8
843.778	33797.36
844.103	33625.61
844.427	33623.81
844.751	33719.17
845.075	33526.86
845.399	33486.41
845.723	33388.78
846.047	33412.74
846.371	33196.02
846.695	33079.64
847.019	32905.63
847.343	32811.17
847.666	32689.37
847.99	32463.38
848.313	32552.87
848.637	32382.71
848.96	32303.84
849.284	32417.28
849.607	32250.06
849.931	32195.82
850.254	31841.03
850.577	31793.12
850.9	31719.9
851.223	31640.81
851.546	31515.61
851.869	31293.47
852.192	31554.03
852.515	31233.36
852.838	31241.95
853.161	31256.18
853.483	31128.28
853.806	31040.82
854.129	31132.57
854.451	31018.45
854.774	30825.91
855.096	30732.81
855.419	30859.81
855.741	30651.45
856.063	30553.6
856.385	30530.1
856.708	30502.31
857.03	30418.01
857.352	30540.04
857.674	30236.78
857.996	30312.25
858.318	30225.02
858.64	30242.2
858.961	30235.65
859.283	30096.67
859.605	30066.61
859.926	30197.45
860.248	29986.39
860.57	29893.51
860.891	29841.76
861.212	29745.72
861.534	29760.86
861.855	29659.84
862.176	29721.31
862.498	29752.72
862.819	29761.76
863.14	29602.44
863.461	29638.6
863.782	29652.84
864.103	29564.7
864.424	29613.97
864.745	29537.36
865.065	29504.59
865.386	29417.36
865.707	29478.38
866.027	29352.05
866.348	29383.92
866.668	29363.8
866.989	29327.65
867.309	29180.53
867.63	29305.73
867.95	29112.74
868.27	29233.19
868.59	29351.15
868.91	29188.44
869.23	29142.12
869.55	28979.41
869.87	29176.69
870.19	29134.43
870.51	29156.8
870.83	29213.53
871.15	28976.02
871.469	29244.94
871.789	29253.07
872.109	29186.41
872.428	29054.43
872.748	29136.01
873.067	29048.78
873.386	29142.57
873.706	28987.32
874.025	28824.84
874.344	28687.44
874.663	28803.37
874.982	28733.76
875.301	28802.91
875.62	28840.88
875.939	28727.89
876.258	28759.53
876.577	28751.84
876.896	28863.25
877.214	28813.99
877.533	28964.27
877.852	28803.37
878.17	28779.86
878.489	28800.88
878.807	28730.15
879.125	28684.5
879.444	28709.81
879.762	28644.05
880.08	28724.72
880.398	28479.53
880.716	28611.51
881.034	28656.93
881.352	28692.41
881.67	28566.31
881.988	28596.37
882.306	28567.89
882.624	28453.77
882.941	28284.74
883.259	28392.3
883.577	28358.86
883.894	28153.44
884.212	28110.05
884.529	28127
884.846	28067.57
885.164	28055.82
885.481	27947.34
885.798	28054.69
886.115	28009.04
886.432	27929.27
886.75	27689.72
887.067	27957.51
887.383	27752.1
887.7	27741.02
888.017	27657.86
888.334	27710.29
888.651	27777.18
888.967	27691.76
889.284	27461.48
889.6	27345.1
889.917	27361.6
890.233	27517.07
890.55	27273.24
890.866	27258.55
891.182	27344.42
891.498	27252.9
891.815	27143.98
892.131	27133.13
892.447	27081.38
892.763	26893.36
893.079	26992.34
893.395	26873.25
893.71	26853.14
894.026	26851.55
894.342	26655.85
894.657	26573.82
894.973	26609.75
895.289	26702.18
895.604	26637.32
895.92	26298.8
896.235	26300.38
896.55	26331.79
896.865	26266.48
897.181	26174.06
897.496	26158.24
897.811	26107.62
898.126	26062.87
898.441	26000.5
898.756	25877.34
899.071	25683
899.386	25849.32
899.7	25697.01
900.015	25512.61
900.33	25435.77
900.644	25394.42
900.959	25258.15
901.273	25167.53
901.588	25191.48
901.902	25155.33
902.216	25235.1
902.531	25073.75
902.845	25116.01
903.159	25092.5
903.473	25113.29
903.787	24997.37
904.101	24757.37
904.415	24854.32
904.729	24717.15
905.042	24427.21
905.356	24352.18
905.67	24215.01
905.984	24311.73
906.297	24147.22
906.611	23959.43
906.924	24013.21
907.237	23972.99
907.551	23910.39
907.864	23728.02
908.177	23814.12
908.491	23816.61
908.804	23684.86
909.117	23609.38
909.43	23648.7
909.743	23481.7
910.056	23533
910.368	23376.62
910.681	23275.83
910.994	23237.86
911.307	23199.67
911.619	22965.55
911.932	22917.42
912.244	22772.57
912.557	22777.54
912.869	22720.82
913.181	22811.21
913.494	22704.09
913.806	22511.55
914.118	22379.13
914.43	22321.28
914.742	22423.2
915.054	22231.34
915.366	22187.95
915.678	22145.46
915.99	22008.74
916.302	21765.81
916.613	21766.26
916.925	21743.89
917.236	21549.09
917.548	21596.32
917.859	21557.23
918.171	21270.01
918.482	21326.05
918.794	21275.2
919.105	21227.29
919.416	21263
919.727	21182.1
920.038	21077.47
920.349	21006.51
920.66	20930.35
920.971	20972.84
921.282	20891.03
921.593	20706.4
921.903	20707.53
922.214	20595
922.525	20389.58
922.835	20363.81
923.146	20207.21
923.456	20136.25
923.767	20096.03
924.077	20241.33
924.387	20140.32
924.697	20047.66
925.008	19948.01
925.318	19846.99
925.628	19792.76
925.938	19762.7
926.248	19659.65
926.558	19625.98
926.867	19549.37
927.177	19492.88
927.487	19366.1
927.796	19336.95
928.106	19300.79
928.416	19130.4
928.725	19191.64
929.034	19103.06
929.344	19224.18
929.653	19088.37
929.962	18908.71
930.271	18778.77
930.581	18852.44
930.89	18703.29
931.199	18741.48
931.508	18634.37
931.817	18590.53
932.125	18424.2
932.434	18405.67
932.743	18205.45
933.051	18252.68
933.36	18166.13
933.669	18073.03
933.977	17917.1
934.286	17900.38
934.594	17866.93
934.902	17895.86
935.21	17716.2
935.519	17766.37
935.827	17663.32
936.135	17639.82
936.443	17435.98
936.751	17402.31
937.059	17396.66
937.367	17337.23
937.674	17298.13
937.982	17337.45
938.29	17264.69
938.597	17172.49
938.905	17005.03
939.213	17124.35
939.52	16925.94
939.827	17001.19
940.135	16807.98
940.442	16737.02
940.749	16657.7
941.056	16775.43
941.363	16618.15
941.67	16605.04
941.977	16489.11
942.284	16429.91
942.591	16289.35
942.898	16273.3
943.205	16274.66
943.511	16149.69
943.818	16022.01
944.125	15946.3
944.431	15988.34
944.738	15831.28
945.044	15812.97
945.35	15754.44
945.657	15632.19
945.963	15567.1
946.269	15503.83
946.575	15583.38
946.881	15391.06
947.187	15356.71
947.493	15303.38
947.799	15228.81
948.105	15165.08
948.41	15025.65
948.716	15089.83
949.022	14988.14
949.327	14932.55
949.633	14869.72
949.938	14921.7
950.244	14798.54
950.549	14687.35
950.854	14703.85
951.16	14717.18
951.465	14626.79
951.77	14531.88
952.075	14567.36
952.38	14457.08
952.685	14506.12
952.99	14301.15
953.294	14353.8
953.599	14154.71
953.904	14180.02
954.209	14054.38
954.513	14067.71
954.818	14009.86
955.122	14017.32
955.426	13934.61
955.731	13807.6
956.035	13820.03
956.339	13763.08
956.643	13749.07
956.948	13597.44
957.252	13583.43
957.556	13580.04
957.86	13501.85
958.163	13448.97
958.467	13356.09
958.771	13394.96
959.075	13210.56
959.378	13277.67
959.682	13266.37
959.985	13236.77
960.289	13088.53
960.592	13071.58
960.896	13044.23
961.199	12985.03
961.502	13055.98
961.805	12850.11
962.108	12720.63
962.411	12714.75
962.714	12691.7
963.017	12700.29
963.32	12650.12
963.623	12497.36
963.926	12628.43
964.228	12498.94
964.531	12430.92
964.833	12504.13
965.136	12363.12
965.438	12289.9
965.741	12217.59
966.043	12216.23
966.345	12112.73
966.648	12105.73
966.95	12030.93
967.252	11916.81
967.554	11965.62
967.856	11873.42
968.158	11789.58
968.46	11832.97
968.761	11769.01
969.063	11705.29
969.365	11631.39
969.666	11645.63
969.968	11561.11
970.269	11450.83
970.571	11423.26
970.872	11479.08
971.174	11302.13
971.475	11372.64
971.776	11286.09
972.077	11228.46
972.378	11262.81
972.679	11243.83
972.98	11107.79
973.281	11148.24
973.582	11007
973.883	10994.12
974.183	10893.1
974.484	10926.32
974.785	10882.03
975.085	10852.2
975.386	10833.9
975.686	10747.34
975.986	10712.77
976.287	10708.7
976.587	10534.69
976.887	10560.68
977.187	10599.33
977.487	10510.06
977.787	10425.32
978.087	10454.24
978.387	10433.45
978.687	10417.18
978.987	10330.41
979.286	10212.67
979.586	10207.02
979.885	10132.67
980.185	10098.55
980.484	10046.35
980.784	9932.45
981.083	9893.58
981.382	9886.12
981.682	9896.29
981.981	9840.7
982.28	9770.87
982.579	9741.72
982.878	9729.29
983.177	9665.34
983.475	9707.82
983.774	9582.4
984.073	9565.91
984.372	9500.37
984.67	9441.39
984.969	9480.03
985.267	9421.96
985.566	9344.22
985.864	9437.1
986.162	9370.88
986.461	9229.64
986.759	9260.38
987.057	9124.79
987.355	9067.61
987.653	9104.9
987.951	9069.65
988.249	9081.17
988.547	9059.93
988.844	8919.37
989.142	8967.28
989.44	8877.56
989.737	8815.19
990.035	8787.4
990.332	8791.46
990.63	8819.03
990.927	8737.68
991.224	8664.91
991.521	8631.02
991.819	8555.31
992.116	8493.17
992.413	8497.23
992.71	8427.63
993.006	8431.47
993.303	8341.76
993.6	8370.01
993.897	8391.7
994.193	8287.07
994.49	8183.12
994.787	8190.8
995.083	8116
995.379	8132.27
995.676	8046.17
995.972	7986.29
996.268	7972.73
996.565	7939.06
996.861	7933.86
997.157	7816.35
997.453	7794.43
997.749	7783.58
998.044	7717.14
998.34	7717.37
998.636	7591.04
998.932	7632.17
999.227	7531.61
999.523	7541.1
999.818	7489.8
1000.114	7377.49
1000.409	7436.02
1000.704	7355.12
1001	7334.55
1001.295	7316.02
1001.59	7236.48
1001.885	7236.93
1002.18	7169.81
1002.475	7120.55
1002.77	7118.74
1003.065	7090.72
1003.359	7027.89
1003.654	7018.4
1003.949	7002.13
1004.243	6881.68
1004.538	6850.95
1004.832	6841.46
1005.127	6818.18
1005.421	6769.37
1005.715	6696.6
1006.009	6682.37
1006.304	6642.82
1006.598	6580
1006.892	6562.6
1007.186	6475.59
1007.48	6487.8
1007.773	6506.1
1008.067	6416.16
1008.361	6340.45
1008.655	6331.19
1008.948	6266.11
1009.242	6278.76
1009.535	6235.15
1009.829	6206.22
1010.122	6174.58
1010.415	6152.89
1010.708	6068.15
1011.001	6021.14
1011.295	6006.68
1011.588	5956.96
1011.881	5894.59
1012.173	5857.98
1012.466	5874.25
1012.759	5783.63
1013.052	5827.93
1013.344	5710.41
1013.637	5698.66
1013.93	5724.88
1014.222	5660.25
1014.514	5587.71
1014.807	5602.85
1015.099	5558.55
1015.391	5543.19
1015.683	5482.85
1015.976	5500.93
1016.268	5435.39
1016.56	5428.16
1016.851	5329.86
1017.143	5319.24
1017.435	5262.29
1017.727	5227.94
1018.018	5201.05
1018.31	5170.32
1018.602	5161.73
1018.893	5096.65
1019.185	5080.6
1019.476	5001.05
1019.767	4985.24
1020.058	4980.94
1020.35	4937.1
1020.641	4844.9
1020.932	4849.65
1021.223	4785.24
1021.514	4751.8
1021.804	4756.09
1022.095	4739.37
1022.386	4653.49
1022.677	4653.95
1022.967	4600.84
1023.258	4596.55
1023.548	4572.37
1023.839	4527.17
1024.129	4495.31
1024.419	4455.08
1024.709	4432.48
1025	4434.74
1025.29	4348.64
1025.58	4302.32
1025.87	4280.17
1026.16	4239.49
1026.449	4239.49
1026.739	4161.75
1027.029	4197.01
1027.319	4110.68
1027.608	4118.14
1027.898	4083.34
1028.187	4059.38
1028.477	3978.71
1028.766	3986.39
1029.055	3959.05
1029.344	3921.76
1029.634	3886.73
1029.923	3905.94
1030.212	3813.06
1030.501	3827.53
1030.79	3780.75
1031.078	3762.67
1031.367	3710.47
1031.656	3674.08
1031.945	3682.45
1032.233	3663.91
1032.522	3647.42
1032.81	3624.14
1033.099	3530.13
1033.387	3536.46
1033.675	3508.89
1033.963	3515.9
1034.251	3439.51
1034.54	3409.23
1034.828	3404.26
1035.116	3369.01
1035.403	3366.52
1035.691	3316.35
1035.979	3287.2
1036.267	3251.95
1036.554	3232.97
1036.842	3169.92
1037.129	3202.01
1037.417	3170.14
1037.704	3104.38
1037.992	3124.27
1038.279	3073.87
1038.566	3039.3
1038.853	3039.3
1039.14	3039.3
