Data from copper_heatsink_FLMS001491_055.txt Node
Date: Tue Feb 07 10:50:11 GMT 2017
User: dcchb
Spectrometer: FLMS00149
Trigger mode: 0
Integration Time (sec): 2.000000E-2
Scans to average: 10
Electric dark correction enabled: true
Nonlinearity correction enabled: false
Boxcar width: 0
XAxis mode: Wavelengths
Number of Pixels in Spectrum: 2048
>>>>>Begin Spectral Data<<<<<
341.393	-2.27
341.776	-2.27
342.16	-2.27
342.543	-54.02
342.927	-65.55
343.31	-60.35
343.693	-88.15
344.077	-77.75
344.46	-41.37
344.843	-45.44
345.226	-29.39
345.61	-36.85
345.993	-9.28
346.376	-4.99
346.759	5.18
347.142	34.79
347.525	29.82
347.908	52.87
348.291	88.35
348.674	79.76
349.057	102.81
349.44	106.42
349.823	155.01
350.206	161.11
350.588	200.43
350.971	219.87
351.354	228
351.737	239.53
352.119	249.24
352.502	268.91
352.884	295.57
353.267	301.22
353.65	313.65
354.032	326.3
354.414	318.62
354.797	315.01
355.179	329.92
355.562	316.14
355.944	341.67
356.326	326.53
356.709	338.73
357.091	327.43
357.473	355.46
357.855	347.55
358.238	356.81
358.62	333.99
359.002	338.96
359.384	351.84
359.766	329.92
360.148	324.27
360.53	348.9
360.912	350.49
361.294	352.07
361.676	347.55
362.057	322.24
362.439	354.78
362.821	351.84
363.203	321.33
363.584	325.85
363.966	326.98
364.348	331.28
364.729	349.58
365.111	314.55
365.493	353.2
365.874	342.12
366.256	337.83
366.637	346.19
367.019	321.56
367.4	341.67
367.781	330.37
368.163	329.47
368.544	328.34
368.925	342.35
369.306	331.5
369.688	336.02
370.069	331.28
370.45	343.71
370.831	326.3
371.212	314.33
371.593	334.89
371.974	331.73
372.355	308.23
372.736	338.96
373.117	331.5
373.498	346.87
373.879	350.03
374.26	332.41
374.641	327.43
375.021	359.52
375.402	328.79
375.783	347.32
376.163	340.77
376.544	334.21
376.925	359.07
377.305	336.47
377.686	361.33
378.066	332.18
378.447	350.94
378.827	362.01
379.208	366.76
379.588	356.81
379.968	356.36
380.349	390.48
380.729	347.32
381.109	344.38
381.489	345.97
381.87	357.72
382.25	363.59
382.63	345.74
383.01	346.19
383.39	364.72
383.77	373.31
384.15	383.25
384.53	397.04
384.91	382.8
385.29	383.7
385.67	375.8
386.049	390.94
386.429	390.26
386.809	417.6
387.189	382.12
387.568	402.46
387.948	395.46
388.328	380.31
388.707	400.65
389.087	402.24
389.466	412.86
389.846	402.46
390.225	382.8
390.605	419.18
390.984	439.52
391.363	403.82
391.743	408.79
392.122	395.91
392.501	406.75
392.881	419.18
393.26	413.53
393.639	438.39
394.018	427.09
394.397	442.46
394.776	427.77
395.155	443.14
395.534	426.87
395.913	427.09
396.292	429.81
396.671	428
397.05	424.38
397.429	467.77
397.808	446.98
398.186	466.87
398.565	447.88
398.944	460.99
399.323	419.86
399.701	455.34
400.08	451.5
400.458	461.22
400.837	466.19
401.215	449.69
401.594	458.28
401.972	469.58
402.351	484.27
402.729	476.81
403.107	474.32
403.486	485.62
403.864	501.89
404.242	475.23
404.62	482.01
404.999	498.73
405.377	502.57
405.755	505.74
406.133	518.39
406.511	509.35
406.889	519.29
407.267	510.71
407.645	510.25
408.023	525.85
408.401	526.07
408.779	533.98
409.156	549.58
409.534	528.33
409.912	556.13
410.29	557.03
410.667	542.12
411.045	541.44
411.422	552.97
411.8	559.97
412.178	573.3
412.555	588.9
412.933	554.55
413.31	570.37
413.687	577.37
414.065	594.09
414.442	562.91
414.819	587.54
415.197	575.34
415.574	606.52
415.951	607.88
416.328	633.42
416.705	625.05
417.082	638.84
417.46	645.17
417.837	630.93
418.214	622.79
418.591	629.8
418.967	643.81
419.344	618.05
419.721	646.75
420.098	646.52
420.475	660.53
420.852	646.52
421.228	661.66
421.605	665.51
421.982	662.79
422.358	684.49
422.735	693.07
423.111	674.09
423.488	688.56
423.864	699.4
424.241	718.16
424.617	702.57
424.994	695.11
425.37	709.35
425.746	702.79
426.123	738.5
426.499	750.47
426.875	715.9
427.251	745.05
427.627	731.04
428.003	764.94
428.379	754.77
428.756	771.04
429.132	772.17
429.507	789.34
429.883	782.79
430.259	797.25
430.635	800.64
431.011	817.14
431.387	822.11
431.763	809.46
432.138	834.31
432.514	830.47
432.89	809.91
433.265	855.78
433.641	863.92
434.016	859.4
434.392	878.15
434.767	900.3
435.143	886.29
435.518	892.39
435.894	902.56
436.269	905.5
436.644	893.75
437.02	944.82
437.395	952.73
437.77	946.63
438.145	948.21
438.52	947.08
438.895	950.92
439.271	950.02
439.646	1006.97
440.021	965.16
440.395	1009.68
440.77	994.99
441.145	1007.42
441.52	1011.26
441.895	991.15
442.27	999.96
442.645	1039.73
443.019	1052.39
443.394	1016.23
443.769	1063.69
444.143	1036.34
444.518	1053.29
444.892	1051.26
445.267	1076.79
445.641	1080.41
446.016	1063.01
446.39	1071.37
446.764	1093.52
447.139	1077.7
447.513	1092.39
447.887	1101.2
448.262	1112.5
448.636	1114.98
449.01	1136
449.384	1156.79
449.758	1169.45
450.132	1150.92
450.506	1144.14
450.88	1170.58
451.254	1163.12
451.628	1192.27
452.002	1200.86
452.376	1197.02
452.75	1196.79
453.123	1236.79
453.497	1218.26
453.871	1241.08
454.244	1262.33
454.618	1272.72
454.992	1298.48
455.365	1294.64
455.739	1308.2
456.112	1339.16
456.486	1309.78
456.859	1340.06
457.232	1394.3
457.606	1352.27
457.979	1403.56
458.352	1434.07
458.725	1419.16
459.099	1442.43
459.472	1453.06
459.845	1465.94
460.218	1495.54
460.591	1495.54
460.964	1508.65
461.337	1536.44
461.71	1528.08
462.083	1580.96
462.456	1579.38
462.829	1606.95
463.201	1598.14
463.574	1621.41
463.947	1645.82
464.32	1678.59
464.692	1672.48
465.065	1705.93
465.438	1695.31
465.81	1778.92
466.183	1790.9
466.555	1761.75
466.928	1775.76
467.3	1782.54
467.672	1825.93
468.045	1865.93
468.417	1853.72
468.789	1886.94
469.161	1870.9
469.534	1921.52
469.906	1975.98
470.278	1987.73
470.65	1991.35
471.022	2028.63
471.394	2083.09
471.766	2092.59
472.138	2099.37
472.51	2148.63
472.882	2164
473.253	2208.29
473.625	2225.92
473.997	2302.52
474.369	2289.64
474.74	2320.83
475.112	2342.98
475.484	2382.97
475.855	2437.44
476.227	2456.64
476.598	2486.47
476.97	2538.68
477.341	2558.11
477.713	2595.62
478.084	2601.5
478.455	2693.93
478.827	2709.29
479.198	2788.84
479.569	2784.55
479.94	2863.19
480.311	2894.15
480.682	2957.2
481.053	2985.67
481.424	3047.59
481.795	3082.84
482.166	3120.13
482.537	3152.45
482.908	3231.99
483.279	3222.73
483.65	3314.93
484.021	3316.51
484.391	3416.17
484.762	3457.07
485.133	3518.54
485.503	3495.26
485.874	3588.37
486.244	3661.36
486.615	3694.58
486.985	3742.49
487.356	3819.32
487.726	3849.6
488.097	3952.65
488.467	3939.32
488.837	3979.09
489.207	4049.14
489.578	4115.81
489.948	4089.37
490.318	4163.72
490.688	4208.69
491.058	4293.21
491.428	4310.83
491.798	4377.5
492.168	4462.24
492.538	4498.85
492.908	4533.88
493.278	4587.89
493.648	4613.65
494.017	4667.66
494.387	4709.47
494.757	4752.86
495.126	4820.2
495.496	4861.1
495.866	4877.6
496.235	4944.49
496.605	5022
496.974	5008.44
497.344	5060.87
497.713	5069.01
498.082	5100.87
498.452	5238.94
498.821	5252.96
499.19	5242.33
499.559	5307.19
499.928	5345.16
500.298	5390.58
500.667	5405.95
501.036	5393.74
501.405	5471.48
501.774	5502.67
502.143	5508.54
502.512	5621.53
502.88	5641.42
503.249	5634.41
503.618	5716.67
503.987	5753.05
504.356	5752.15
504.724	5795.54
505.093	5836.89
505.462	5955.76
505.83	5966.83
506.199	5987.4
506.567	6084.8
506.936	6103.78
507.304	6128.19
507.672	6164.8
508.041	6208.18
508.409	6297.67
508.777	6329.08
509.145	6446.6
509.514	6432.81
509.882	6476.65
510.25	6564.33
510.618	6565.69
510.986	6598.23
511.354	6638.23
511.722	6731.79
512.09	6766.36
512.458	6791.45
512.826	6878.68
513.193	6912.12
513.561	6959.58
513.929	6943.53
514.297	7026.69
514.664	7162.06
515.032	7216.52
515.4	7274.6
515.767	7255.84
516.135	7355.27
516.502	7346.69
516.869	7450.86
517.237	7460.81
517.604	7506.68
517.972	7612.67
518.339	7698.99
518.706	7709.61
519.073	7767.92
519.44	7828.25
519.808	7952.09
520.175	7929.27
520.542	8120.45
520.909	8131.75
521.276	8124.74
521.643	8265.53
522.009	8332.65
522.376	8345.76
522.743	8423.72
523.11	8558.86
523.477	8620.1
523.843	8602.47
524.21	8772.64
524.577	8863.26
524.943	8851.96
525.31	8969.92
525.676	9014.44
526.043	9084.49
526.409	9216.92
526.776	9275.67
527.142	9277.71
527.508	9373.3
527.874	9467.53
528.241	9540.07
528.607	9598.6
528.973	9718.83
529.339	9748.66
529.705	9871.36
530.071	9904.58
530.437	9938.26
530.803	10009.21
531.169	10165.82
531.535	10129.89
531.901	10206.05
532.267	10234.75
532.632	10345.02
532.998	10425.93
533.364	10515.19
533.73	10551.8
534.095	10653.94
534.461	10715.86
534.826	10824.56
535.192	10817.1
535.557	10879.25
535.923	11012.8
536.288	11016.42
536.653	11134.38
537.019	11145
537.384	11194.04
537.749	11274.04
538.114	11364.21
538.479	11385.22
538.845	11489.85
539.21	11534.6
539.575	11579.79
539.94	11571.43
540.305	11748.15
540.67	11694.14
541.034	11810.97
541.399	11926.23
541.764	11941.59
542.129	12044.19
542.494	12112.21
542.858	12266.56
543.223	12239.66
543.587	12305.88
543.952	12405.76
544.316	12448.92
544.681	12527.34
545.045	12597.39
545.41	12739.09
545.774	12748.58
546.138	12817.73
546.503	12900.89
546.867	13031.73
547.231	13075.35
547.595	13198.96
547.959	13264.95
548.324	13335.45
548.688	13393.98
549.052	13463.59
549.416	13508.33
549.779	13598.05
550.143	13710.81
550.507	13792.39
550.871	13882.56
551.235	13985.83
551.599	14140.41
551.962	14185.38
552.326	14269.89
552.689	14475.54
553.053	14437.57
553.417	14436.22
553.78	14704.91
554.143	14787.17
554.507	14968.63
554.87	14953.94
555.234	15202.75
555.597	15172.69
555.96	15326.14
556.323	15488.17
556.686	15541.05
557.05	15769.74
557.413	15912.11
557.776	15930.19
558.139	16218.77
558.502	16293.12
558.865	16434.13
559.228	16570.62
559.59	16715.48
559.953	16803.61
560.316	17062.36
560.679	17137.39
561.041	17376.25
561.404	17444.05
561.767	17671.16
562.129	17639.97
562.492	18043.35
562.854	18171.71
563.217	18274.53
563.579	18365.83
563.941	18552.49
564.304	18748.65
564.666	18995.19
565.028	19136.43
565.39	19307.95
565.753	19495.52
566.115	19529.19
566.477	19888.73
566.839	19946.58
567.201	20249.62
567.563	20411.88
567.925	20613
568.287	20698.65
568.648	20807.8
569.01	21071.97
569.372	21360.1
569.734	21296.6
570.095	21631.28
570.457	21855.23
570.819	22004.15
571.18	22120.99
571.542	22435.33
571.903	22568.66
572.265	22625.38
572.626	22923.9
572.987	23017.23
573.349	23178.81
573.71	23450.67
574.071	23704.22
574.432	23783.77
574.794	23988.96
575.155	24252.46
575.516	24192.12
575.877	24517.08
576.238	24676.17
576.599	24761.82
576.96	24857.86
577.32	25020.57
577.681	25298.53
578.042	25317.51
578.403	25429.15
578.763	25722.93
579.124	25895.12
579.485	25934.9
579.845	26254.66
580.206	26246.08
580.566	26427.77
580.927	26606.97
581.287	26682.45
581.648	26786.85
582.008	27060.52
582.368	26948.2
582.728	27178.03
583.089	27233.17
583.449	27366.27
583.809	27412.37
584.169	27649.2
584.529	27641.07
584.889	28024.56
585.249	27920.61
585.609	27913.15
585.969	28256.87
586.329	28162.41
586.688	28341.84
587.048	28416.41
587.408	28475.62
587.768	28629.52
588.127	28765.11
588.487	28747.48
588.846	29016.85
589.206	28887.14
589.565	29069.28
589.925	29308.37
590.284	29266.56
590.643	29345.43
591.003	29474.47
591.362	29596.5
591.721	29694.35
592.08	29736.38
592.44	29886.21
592.799	30026.54
593.158	30137.72
593.517	30195.8
593.876	30297.49
594.235	30248.23
594.593	30418.85
594.952	30516.25
595.311	30475.57
595.67	30715.79
596.029	31043.01
596.387	30979.28
596.746	31183.8
597.104	31183.8
597.463	31189.22
597.822	31429.22
598.18	31226.06
598.538	31427.41
598.897	31701.07
599.255	31421.98
599.613	31932.25
599.972	31866.04
600.33	32098.58
600.688	31969.77
601.046	32195.3
601.404	32419.47
601.762	32390.32
602.12	32655.62
602.478	32679.58
602.836	32736.75
603.194	32618.34
603.552	32833.92
603.91	32769.97
604.268	33136.06
604.625	33040.7
604.983	33186.23
605.341	33115.27
605.698	33344.19
606.056	33555.94
606.413	33543.51
606.771	33883.16
607.128	33853.78
607.485	33723.84
607.843	33870.73
608.2	34156.38
608.557	34291.06
608.914	34296.26
609.272	34402.25
609.629	34519.98
609.986	34746.87
610.343	34645.18
610.7	34978.28
611.057	34925.85
611.414	35164.94
611.771	35112.51
612.127	35378.26
612.484	35355.21
612.841	35547.07
613.198	35498.26
613.554	35596.56
613.911	35868.87
614.267	35903.45
614.624	35934.18
614.98	36014.41
615.337	36290.11
615.693	36441.74
616.05	36251.01
616.406	36658.91
616.762	36586.82
617.118	36656.2
617.475	36625.24
617.831	36840.6
618.187	36830.88
618.543	36981.16
618.899	37290.76
619.255	37327.82
619.611	37158.33
619.967	37435.84
620.323	37765.77
620.678	37509.73
621.034	37481.71
621.39	37669.5
621.746	37710.63
622.101	38054.8
622.457	37756.28
622.812	38024.75
623.168	38140.23
623.523	38101.58
623.879	38208.92
624.234	38054.58
624.589	38080.34
624.945	38514
625.3	38517.62
625.655	38449.82
626.01	38575.02
626.365	38712.87
626.72	38633.55
627.075	38716.03
627.43	38751.96
627.785	38692.3
628.14	38813.88
628.495	39013.88
628.85	38896.82
629.205	38895.69
629.559	39128.67
629.914	39084.16
630.269	39161.44
630.623	39050.71
630.978	38963.93
631.332	39203.02
631.687	39352.4
632.041	39108.79
632.396	39337.71
632.75	39170.93
633.104	39216.81
633.459	39286.86
633.813	39226.98
634.167	39341.78
634.521	39360.53
634.875	39422.23
635.229	39298.16
635.583	39326.41
635.937	39365.96
636.291	39434.2
636.645	39523.24
636.999	39407.76
637.352	39443.47
637.706	39285.05
638.06	39618.38
638.413	39437.37
638.767	39271.27
639.121	39542.45
639.474	39467.2
639.828	39592.84
640.181	39550.13
640.534	39660.64
640.888	39471.94
641.241	39406.18
641.594	39603.92
641.947	39692.28
642.301	39382.45
642.654	39516.69
643.007	39785.38
643.36	39755.1
643.713	39448.21
644.066	39793.29
644.419	39660.64
644.771	39414.77
645.124	39141.33
645.477	39243.7
645.83	39013.2
646.182	38716.03
646.535	38712.87
646.888	38795.8
647.24	38546.32
647.593	38936.59
647.945	38865.86
648.298	38590.61
648.65	38596.26
649.002	38572.3
649.355	38810.94
649.707	38722.36
650.059	39055.46
650.411	39501.32
650.763	39449.8
651.115	39979.73
651.467	39962.1
651.819	39951.7
652.171	39789.67
652.523	39747.64
652.875	40071.02
653.227	39770.47
653.578	39999.61
653.93	40005.71
654.282	39918.71
654.633	39898.15
654.985	40087.75
655.337	40000.29
655.688	40198.25
656.039	40192.83
656.391	39886.85
656.742	40216.1
657.094	40209.78
657.445	40266.5
657.796	40161.19
658.147	40156.9
658.498	40197.12
658.849	40354.18
659.2	40314.63
659.551	40252.71
659.902	40500.84
660.253	40569.54
660.604	40502.88
660.955	40355.76
661.306	40456.55
661.656	40432.14
662.007	40491.58
662.358	40507.62
662.708	40647.73
663.059	40824
663.409	40409.32
663.76	40755.3
664.11	40586.94
664.461	40960.49
664.811	40914.39
665.161	40914.62
665.511	40735.86
665.862	40992.81
666.212	41156.64
666.562	41122.52
666.912	40905.13
667.262	40976.54
667.612	40996.65
667.962	41063.31
668.312	40993.94
668.662	41247.26
669.011	41313.7
669.361	41197.32
669.711	41271.44
670.06	41236.42
670.41	41208.39
670.76	41261.05
671.109	41340.59
671.459	41262.63
671.808	41107.83
672.157	41252.46
672.507	41183.54
672.856	41276.64
673.205	41431.66
673.554	41451.78
673.904	41362.74
674.253	41674.14
674.602	41639.12
674.951	41126.36
675.3	41023.77
675.649	41565.9
675.998	41649.29
676.346	41582.4
676.695	41867.81
677.044	41509.4
677.393	41803.86
677.741	41783.75
678.09	41686.8
678.438	41649.96
678.787	41670.53
679.135	41737.19
679.484	41431.66
679.832	41639.57
680.181	41533.81
680.529	41788.49
680.877	41620.81
681.225	41651.55
681.573	41906.45
681.922	41619.91
682.27	41510.53
682.618	41626.46
682.966	41503.08
683.314	41695.16
683.661	41622.39
684.009	41295.17
684.357	41499.46
684.705	41360.03
685.053	41474.15
685.4	41412.68
685.748	41295.85
686.095	41341.05
686.443	41168.39
686.79	41215.4
687.138	41364.32
687.485	41276.87
687.832	41168.62
688.18	41278.22
688.527	41089.3
688.874	41134.95
689.221	41013.6
689.568	40920.04
689.915	40769.99
690.262	40905.35
690.609	40797.78
690.956	40672.59
691.303	40809.31
691.65	40583.78
691.997	40619.93
692.344	40459.26
692.69	40642.99
693.037	40619.48
693.383	40484.35
693.73	40575.87
694.077	40350.79
694.423	40379.94
694.769	40310.11
695.116	40388.08
695.462	40231.02
695.808	40077.35
696.155	40155.31
696.501	39896.11
696.847	39956.68
697.193	39720.3
697.539	39820.18
697.885	39726.17
698.231	39616.35
698.577	39712.61
698.923	39513.3
699.269	39492.96
699.614	39469.46
699.96	39428.78
700.306	39249.12
700.651	39257.71
700.997	39242.57
701.342	39210.48
701.688	39122.35
702.033	39011.39
702.379	38943.59
702.724	38883.26
703.069	39173.87
703.415	38755.13
703.76	38823.82
704.105	38929.13
704.45	38780.89
704.795	38607.56
705.14	38594.68
705.485	38648.46
705.83	38336.15
706.175	38563.04
706.52	38389.94
706.865	38359.2
707.209	38364.63
707.554	38225.87
707.899	38348.13
708.243	38136.16
708.588	38224.07
708.932	38064.3
709.277	38095.48
709.621	38130.73
709.966	37778.65
710.31	38034.24
710.654	37641.26
710.998	37689.84
711.342	37846.45
711.687	37792.21
712.031	37851.65
712.375	37650.75
712.719	37735.49
713.063	37682.16
713.407	37766
713.75	37743.17
714.094	37462.96
714.438	37234.71
714.782	37399.23
715.125	37376.18
715.469	37540.47
715.812	37292.34
716.156	37039.01
716.499	37156.52
716.843	37326.01
717.186	37110.2
717.53	37260.02
717.873	37380.47
718.216	37283.07
718.559	37083.98
718.902	36867.94
719.246	36901.61
719.589	36884.44
719.932	36814.84
720.275	36794.27
720.617	36871.78
720.96	36784.56
721.303	36965.79
721.646	36871.78
721.989	36901.84
722.331	36807.15
722.674	36924.21
723.016	36825.91
723.359	36878.79
723.701	37000.14
724.044	36613.94
724.386	36429.54
724.729	36743.65
725.071	36773.26
725.413	36651.45
725.755	36733.26
726.097	36453.49
726.439	36234.06
726.782	36378.69
727.124	36598.57
727.465	36216.66
727.807	36243.33
728.149	36341.63
728.491	36239.94
728.833	36350.89
729.175	36261.63
729.516	36161.07
729.858	36250.33
730.199	36287.39
730.541	36109.77
730.882	36130.34
731.224	36300.95
731.565	36184.35
731.906	36037.46
732.248	36103.67
732.589	35913.39
732.93	35889.66
733.271	35897.8
733.612	36057.57
733.953	36039.94
734.294	35908.42
734.635	35867.07
734.976	35955.42
735.317	35842.89
735.658	35968.53
735.999	35930.57
736.339	35837.69
736.68	36040.17
737.021	36058.02
737.361	35788.65
737.702	35918.59
738.042	35845.6
738.383	35747.07
738.723	35835.43
739.063	35587.3
739.404	35761.98
739.744	35755.2
740.084	35562.67
740.424	35616.68
740.764	35417.59
741.104	35839.04
741.444	35610.12
741.784	35606.06
742.124	35626.85
742.464	35655.55
742.804	35533.97
743.143	35413.97
743.483	35426.4
743.823	35324.93
744.162	35381.88
744.502	35613.06
744.841	35334.88
745.181	35324.71
745.52	35449.45
745.86	35461.2
746.199	35402.44
746.538	35288.78
746.877	35401.99
747.216	35520.63
747.556	35403.57
747.895	35444.25
748.234	35338.27
748.573	35285.61
748.911	35190.7
749.25	35375.78
749.589	35128.78
749.928	35175.33
750.267	35308.66
750.605	35131.27
750.944	35116.8
751.283	34849.92
751.621	35131.72
751.96	34875.91
752.298	34894.89
752.636	34973.76
752.975	34793.2
753.313	34603.14
753.651	34755.68
753.989	34717.94
754.327	34728.56
754.666	34619.41
755.004	34739.86
755.342	34623.48
755.679	34562.01
756.017	34425.75
756.355	34485.41
756.693	34370.61
757.031	34493.09
757.368	34202.93
757.706	34243.83
758.044	34242.93
758.381	34232.53
758.719	34102.59
759.056	34366.54
759.394	34118.86
759.731	33992.54
760.068	33853.33
760.405	33823.28
760.743	33702.83
761.08	33589.84
761.417	33547.35
761.754	33403.63
762.091	33484.08
762.428	33435.72
762.765	33156.85
763.102	33464.87
763.438	33353.23
763.775	33153.24
764.112	33073.24
764.449	33041.83
764.785	32956.41
765.122	32685.91
765.458	32746.02
765.795	32521.39
766.131	32653.82
766.467	32622.18
766.804	32492.01
767.14	32190.55
767.476	32432.81
767.812	32341.28
768.148	32375.63
768.485	32019.93
768.821	31965.47
769.157	31860.84
769.492	31970.67
769.828	31928.64
770.164	31680.51
770.5	31745.37
770.836	31619.27
771.171	31536.78
771.507	31558.25
771.842	31306.28
772.178	31362.1
772.513	31311.7
772.849	31095.44
773.184	30896.57
773.519	31049.11
773.855	30955.1
774.19	30841.66
774.525	30687.54
774.86	30818.16
775.195	30754.21
775.53	30705.85
775.865	30508.79
776.2	30288.23
776.535	30236.93
776.87	30127.56
777.205	30030.61
777.539	29887.56
777.874	30083.49
778.209	29681.69
778.543	29803.04
778.878	29644.86
779.212	29616.61
779.547	29575.48
779.881	29598.08
780.215	29342.72
780.55	29375.03
780.884	29222.27
781.218	29139.78
781.552	29208.03
781.886	28968.72
782.22	28944.31
782.554	28938.21
782.888	28667.93
783.222	28606.47
783.556	28460.71
783.889	28455.06
784.223	28408.5
784.557	28385.68
784.89	28189.98
785.224	28126.03
785.557	28029.08
785.891	27964
786.224	28087.61
786.558	28065.24
786.891	27901.85
787.224	27683.1
787.557	27788.63
787.891	27580.05
788.224	27752.7
788.557	27676.55
788.89	27545.25
789.223	27386.38
789.556	27240.17
789.888	27263.45
790.221	27259.61
790.554	27175.09
790.887	27034.53
791.219	26881.54
791.552	26966.06
791.884	26788.89
792.217	26703.24
792.549	26681.77
792.882	26596.8
793.214	26542.11
793.546	26520.42
793.879	26251.95
794.211	26214.21
794.543	26276.36
794.875	26277.26
795.207	26416.01
795.539	26241.1
795.871	26297.15
796.203	26014.67
796.535	25930.83
796.867	25863.03
797.198	25651.06
797.53	25764.51
797.862	25602.93
798.193	25694
798.525	25418.3
798.856	25583.72
799.188	25249.72
799.519	25250.62
799.85	25132.88
800.182	25149.16
800.513	25115.48
800.844	25038.42
801.175	25198.87
801.506	25135.82
801.837	24920.91
802.168	24881.14
802.499	24836.62
802.83	24709.84
803.161	24779
803.491	24821.93
803.822	24801.82
804.153	24616.97
804.483	24484.09
804.814	24501.49
805.145	24462.39
805.475	24334.71
805.805	24251.55
806.136	24275.28
806.466	24258.78
806.796	24230.31
807.126	24148.73
807.457	24064.66
807.787	24157.99
808.117	23984.44
808.447	23912.58
808.777	24100.6
809.107	23928.4
809.436	23837.1
809.766	23807.72
810.096	23750.32
810.426	23601.63
810.755	23635.75
811.085	23701.74
811.414	23661.06
811.744	23551.23
812.073	23560.27
812.403	23457.45
812.732	23395.75
813.061	23404.57
813.39	23295.19
813.719	23212.48
814.049	23338.13
814.378	23297.45
814.707	23196.44
815.036	23209.77
815.365	23003.9
815.693	22909.44
816.022	22906.95
816.351	22850.91
816.68	22586.06
817.008	22865.37
817.337	22573.86
817.665	22610.92
817.994	22720.07
818.322	22664.47
818.651	22701.08
818.979	22557.13
819.307	22723.91
819.636	22564.59
819.964	22469.9
820.292	22584.48
820.62	22524.59
820.948	22404.59
821.276	22708.09
821.604	22492.5
821.932	22520.75
822.259	22453.18
822.587	22495.44
822.915	22576.57
823.243	22540.86
823.57	22480.98
823.898	22516.68
824.225	22548.09
824.553	22489.34
824.88	22566.17
825.207	22605.27
825.535	22502.67
825.862	22605.27
826.189	22512.16
826.516	22762.55
826.843	22667.41
827.17	22634.87
827.497	22677.13
827.824	22807.75
828.151	22841.19
828.478	22731.82
828.805	22904.69
829.131	22676
829.458	22625.38
829.785	22575.89
830.111	22618.83
830.438	22748.31
830.764	22814.3
831.09	22764.81
831.417	22690.01
831.743	22865.6
832.069	22900.4
832.395	22871.02
832.722	22942.89
833.048	22927.97
833.374	22932.72
833.7	22840.06
834.026	22845.71
834.351	22858.82
834.677	22813.85
835.003	22978.14
835.329	22885.49
835.654	22820.18
835.98	22787.86
836.306	22871.02
836.631	22722.33
836.956	22866.05
837.282	22841.19
837.607	22624.93
837.932	22636.9
838.258	22715.32
838.583	22724.36
838.908	22436.68
839.233	22534.99
839.558	22575.44
839.883	22485.72
840.208	22432.84
840.533	22547.42
840.858	22485.95
841.182	22614.53
841.507	22498.6
841.832	22389.45
842.156	22347.87
842.481	22293.64
842.805	22275.11
843.13	22253.86
843.454	22224.94
843.778	22151.49
844.103	22252.96
844.427	22139.97
844.751	22104.49
845.075	22066.3
845.399	21889.81
845.723	21843.48
846.047	21800.99
846.371	21758.51
846.695	21769.58
847.019	21644.84
847.343	21538.85
847.666	21501.34
847.99	21381.8
848.313	21330.95
848.637	21241.91
848.96	21300.89
849.284	21281.23
849.607	21026.1
849.931	20980.68
850.254	20901.13
850.577	20917.4
850.9	20684.41
851.223	20713.11
851.546	20467.24
851.869	20451.43
852.192	20534.14
852.515	20399.22
852.838	20231.54
853.161	20277.42
853.483	20205.78
853.806	20217.08
854.129	20194.48
854.451	20240.81
854.774	20005.11
855.096	20087.14
855.419	20006.24
855.741	20021.61
856.063	19829.07
856.385	19851.22
856.708	19846.47
857.03	19811.67
857.352	19821.84
857.674	19685.12
857.996	19612.8
858.318	19594.5
858.64	19562.86
858.961	19476.31
859.283	19359.48
859.605	19298.69
859.926	19485.8
860.248	19434.5
860.57	19324.22
860.891	19291.68
861.212	19201.51
861.534	19146.38
861.855	19202.19
862.176	19226.37
862.498	19128.07
862.819	19160.84
863.14	19099.14
863.461	19062.54
863.782	18980.05
864.103	18993.16
864.424	18968.98
864.745	19043.1
865.065	18950.45
865.386	18937.34
865.707	18942.09
866.027	18847.4
866.348	18850.56
866.668	18902.31
866.989	18899.38
867.309	18768.76
867.63	18777.12
867.95	18820.51
868.27	18543.91
868.59	18653.28
868.91	18664.81
869.23	18628.65
869.55	18562.89
869.87	18660.96
870.19	18594.98
870.51	18614.19
870.83	18493.96
871.15	18407.41
871.469	18479.95
871.789	18583.68
872.109	18581.42
872.428	18432.95
872.748	18510.91
873.067	18446.05
873.386	18490.8
873.706	18457.81
874.025	18239.51
874.344	18312.27
874.663	18356.57
874.982	18412.84
875.301	18358.15
875.62	18237.25
875.939	18305.72
876.258	18336.9
876.577	18289.22
876.896	18184.14
877.214	18253.74
877.533	18272.73
877.852	18298.94
878.17	18145.5
878.489	18085.39
878.807	18250.58
879.125	18076.35
879.444	18015.78
879.762	17964.71
880.08	18052.62
880.398	18013.07
880.716	17977.59
881.034	17877.03
881.352	17862.12
881.67	17893.75
881.988	17922
882.306	17866.86
882.624	17872.96
882.941	17852.17
883.259	17687.66
883.577	17712.97
883.894	17701.22
884.212	17701.67
884.529	17712.74
884.846	17684.49
885.164	17690.59
885.481	17536.02
885.798	17726.53
886.115	17594.1
886.432	17602.69
886.75	17532.86
887.067	17541.45
887.383	17466.65
887.7	17344.39
888.017	17362.02
888.334	17383.94
888.651	17343.94
888.967	17286.54
889.284	17108.91
889.6	17172.42
889.917	17061.91
890.233	17078.18
890.55	17011.06
890.866	17001.12
891.182	17014.23
891.498	16976.49
891.815	16958.64
892.131	16889.71
892.447	16898.98
892.763	16755.25
893.079	16667.8
893.395	16646.1
893.71	16681.36
894.026	16665.08
894.342	16645.42
894.657	16484.98
894.973	16539.66
895.289	16495.82
895.604	16488.14
895.92	16282.04
896.235	16280.01
896.55	16392.55
896.865	16387.8
897.181	16295.6
897.496	16074.14
897.811	16087.47
898.126	16044.54
898.441	15996.18
898.756	16003.63
899.071	15793.69
899.386	15899.91
899.7	15825.11
900.015	15764.54
900.33	15610.65
900.644	15602.51
900.959	15614.94
901.273	15609.29
901.588	15406.81
901.902	15385.57
902.216	15452.69
902.531	15368.62
902.845	15388.96
903.159	15265.35
903.473	15166.37
903.787	15200.04
904.101	15096.76
904.415	15143.77
904.729	15099.02
905.042	14949.42
905.356	15049.76
905.67	14922.31
905.984	14920.27
906.297	14852.48
906.611	14823.1
906.924	14782.2
907.237	14798.69
907.551	14694.97
907.864	14598.02
908.177	14581.3
908.491	14469.21
908.804	14377.23
909.117	14378.14
909.43	14275.09
909.743	14308.54
910.056	14291.81
910.368	14200.97
910.681	14133.85
910.994	14057.92
911.307	14057.02
911.619	13906.29
911.932	13945.83
912.244	13924.14
912.557	13833.29
912.869	13807.76
913.181	13657.71
913.494	13782
913.806	13675.78
914.118	13601.89
914.43	13574.54
914.742	13561.44
915.054	13459.52
915.366	13504.04
915.678	13355.79
915.99	13354.44
916.302	13213.42
916.613	13204.16
916.925	13219.98
917.236	13149.02
917.548	13064.28
917.859	13084.61
918.171	13021.79
918.482	12955.8
918.794	12917.61
919.105	12869.7
919.416	12867.67
919.727	12695.47
920.038	12715.36
920.349	12590.62
920.66	12580.9
920.971	12623.16
921.282	12588.58
921.593	12489.6
921.903	12425.87
922.214	12425.87
922.525	12445.76
922.835	12366.44
923.146	12150.63
923.456	12167.12
923.767	12111.53
924.077	12138.2
924.387	12002.16
924.697	12039.22
925.008	11953.8
925.318	11876.28
925.628	11941.14
925.938	11829.51
926.248	11798.09
926.558	11695.72
926.867	11743.18
927.177	11643.07
927.487	11526.69
927.796	11469.97
928.106	11556.97
928.416	11400.36
928.725	11385.22
929.034	11353.81
929.344	11328.05
929.653	11274.94
929.962	11145.91
930.271	11243.31
930.581	11251.22
930.89	11130.31
931.199	11095.29
931.508	11046.93
931.817	11046.93
932.125	11006.48
932.434	11028.4
932.743	10917.21
933.051	10849.87
933.36	10780.27
933.669	10744.56
933.977	10738.69
934.286	10708.86
934.594	10717.22
934.902	10649.88
935.21	10573.49
935.519	10512.03
935.827	10510.67
936.135	10508.18
936.443	10396.1
936.751	10295.76
937.059	10324.91
937.367	10339.83
937.674	10355.65
937.982	10268.42
938.29	10066.61
938.597	10192.49
938.905	10075.88
939.213	10022.77
939.52	9915.21
939.827	9957.92
940.135	9932.38
940.442	9907.97
940.749	9829.33
941.056	9881.31
941.363	9738.71
941.67	9762.22
941.977	9582.78
942.284	9649
942.591	9643.57
942.898	9593.63
943.205	9567.87
943.511	9508.21
943.818	9417.37
944.125	9390.25
944.431	9335.56
944.738	9366.97
945.044	9306.18
945.35	9312.28
945.657	9202.91
945.963	9214.21
946.269	9149.8
946.575	9070.93
946.881	9112.06
947.187	9093.98
947.493	9045.85
947.799	8976.47
948.105	8877.72
948.41	8818.51
948.716	8799.08
949.022	8744.84
949.327	8846.98
949.633	8792.98
949.938	8753.88
950.244	8755.69
950.549	8727.44
950.854	8690.38
951.16	8610.38
951.465	8586.2
951.77	8543.49
952.075	8519.31
952.38	8499.65
952.685	8489.48
952.99	8368.35
953.294	8345.53
953.599	8292.2
953.904	8287.9
954.209	8193.89
954.513	8225.31
954.818	8208.36
955.122	8102.37
955.426	8134.69
955.731	8114.57
956.035	8029.15
956.339	8040.68
956.643	7990.28
956.948	7964.97
957.252	7955.03
957.556	7949.83
957.86	7816.96
958.163	7848.59
958.467	7845.2
958.771	7783.06
959.075	7788.93
959.378	7626.23
959.682	7773.79
959.985	7612.44
960.289	7590.07
960.592	7548.71
960.896	7572.89
961.199	7517.98
961.502	7502.16
961.805	7526.34
962.108	7500.13
962.411	7472.56
962.714	7370.64
963.017	7342.62
963.32	7404.08
963.623	7285.67
963.926	7197.31
964.228	7172.9
964.531	7159.35
964.833	7077.99
965.136	7064.43
965.438	7075.05
965.741	7039.8
966.043	6994.83
966.345	7006.58
966.648	6958.22
966.95	6908.73
967.252	6850.43
967.554	6891.33
967.856	6903.53
968.158	6856.75
968.46	6780.82
968.761	6752.12
969.063	6757.55
969.365	6749.86
969.666	6717.78
969.968	6612.47
970.269	6629.42
970.571	6613.82
970.872	6615.63
971.174	6533.83
971.475	6526.82
971.776	6539.47
972.077	6497.67
972.378	6392.81
972.679	6426.48
972.98	6415.41
973.281	6367.95
973.582	6332.25
973.883	6352.59
974.183	6311.68
974.484	6278.92
974.785	6261.97
975.085	6277.56
975.386	6276.88
975.686	6146.94
975.986	6118.92
976.287	6100.16
976.587	6062.2
976.887	6043.44
977.187	6010.22
977.487	6012.94
977.787	6043.44
978.087	5946.27
978.387	5923.67
978.687	5912.6
978.987	5948.53
979.286	5875.54
979.586	5896.78
979.885	5823.11
980.185	5785.82
980.484	5740.4
980.784	5777.24
981.083	5733.62
981.382	5696.79
981.682	5669.22
981.981	5664.24
982.28	5624.02
982.579	5544.7
982.878	5535.21
983.177	5499.28
983.475	5532.95
983.774	5508.09
984.073	5467.86
984.372	5476
984.67	5427.41
984.969	5440.07
985.267	5405.27
985.566	5329.56
985.864	5326.63
986.162	5326.4
986.461	5265.61
986.759	5213.18
987.057	5153.75
987.355	5226.29
987.653	5199.17
987.951	5174.77
988.249	5078.27
988.547	5106.07
988.844	5071.04
989.142	5060.42
989.44	5075.78
989.737	5017.26
990.035	5002.34
990.332	4961.66
990.63	4950.59
990.927	4916.47
991.224	4958.73
991.521	4883.7
991.819	4883.7
992.116	4855.68
992.413	4875.34
992.71	4816.36
993.006	4821.78
993.303	4753.76
993.6	4707.66
993.897	4708.56
994.193	4680.54
994.49	4677.15
994.787	4691.61
995.083	4713.99
995.379	4656.81
995.676	4652.74
995.972	4611.39
996.268	4532.75
996.565	4549.24
996.861	4545.18
997.157	4496.36
997.453	4514.67
997.749	4500.43
998.044	4436.03
998.34	4429.02
998.636	4391.73
998.932	4357.61
999.227	4279.65
999.523	4306.31
999.818	4274.22
1000.114	4235.13
1000.409	4189.48
1000.704	4208.69
1001	4169.14
1001.295	4159.2
1001.59	4178.86
1001.885	4139.54
1002.18	4099.31
1002.475	4050.05
1002.77	4066.09
1003.065	4005.3
1003.359	3992.42
1003.654	3992.42
1003.949	3949.94
1004.243	3929.37
1004.538	3907.91
1004.832	3885.76
1005.127	3877.62
1005.421	3891.18
1005.715	3833.33
1006.009	3839.43
1006.304	3776.38
1006.598	3790.39
1006.892	3753.79
1007.186	3683.05
1007.48	3735.03
1007.773	3720.11
1008.067	3672.21
1008.361	3620
1008.655	3639.89
1008.948	3580
1009.242	3579.78
1009.535	3600.8
1009.829	3542.27
1010.122	3536.62
1010.415	3493
1010.708	3497.52
1011.001	3467.92
1011.295	3446.22
1011.588	3398.09
1011.881	3364.42
1012.173	3377.07
1012.466	3333.91
1012.759	3320.12
1013.052	3319.22
1013.344	3349.73
1013.637	3245.78
1013.93	3221.82
1014.222	3219.11
1014.514	3250.52
1014.807	3197.42
1015.099	3147.7
1015.391	3136.17
1015.683	3152.45
1015.976	3116.51
1016.268	3055.95
1016.56	3059.57
1016.851	3013.92
1017.143	3032.67
1017.435	3012.34
1017.727	2973.24
1018.018	2966.24
1018.31	2911.1
1018.602	2912
1018.893	2897.54
1019.185	2898.44
1019.476	2899.8
1019.767	2849.18
1020.058	2769.86
1020.35	2759.91
1020.641	2764.21
1020.932	2780.25
1021.223	2756.52
1021.514	2731.21
1021.804	2729.41
1022.095	2726.92
1022.386	2673.81
1022.677	2661.84
1022.967	2616.19
1023.258	2592.91
1023.548	2556.08
1023.839	2585.91
1024.129	2556.75
1024.419	2558.56
1024.709	2497.55
1025	2524.44
1025.29	2477.21
1025.58	2446.48
1025.87	2439.7
1026.16	2464.1
1026.449	2407.38
1026.739	2382.07
1027.029	2380.94
1027.319	2360.6
1027.608	2381.17
1027.898	2318.57
1028.187	2327.38
1028.477	2295.29
1028.766	2270.21
1029.055	2264.11
1029.344	2246.25
1029.634	2239.48
1029.923	2213.71
1030.212	2210.1
1030.501	2189.76
1030.79	2160.16
1031.078	2128.07
1031.367	2110.44
1031.656	2070.44
1031.945	2090.33
1032.233	2071.57
1032.522	2059.59
1032.81	2040.84
1033.099	1992.48
1033.387	2052.81
1033.675	2006.03
1033.963	1999.03
1034.251	1989.54
1034.54	1954.06
1034.828	1942.08
1035.116	1946.15
1035.403	1917.22
1035.691	1905.7
1035.979	1909.99
1036.267	1886.26
1036.554	1891.46
1036.842	1851.69
1037.129	1840.62
1037.417	1806.27
1037.704	1808.07
1037.992	1780.5
1038.279	1772.82
1038.566	1790.22
1038.853	1790.22
1039.14	1790.22
