Data from copper_heatsink_FLMS001491_077.txt Node
Date: Tue Feb 07 10:50:33 GMT 2017
User: dcchb
Spectrometer: FLMS00149
Trigger mode: 0
Integration Time (sec): 2.000000E-2
Scans to average: 10
Electric dark correction enabled: true
Nonlinearity correction enabled: false
Boxcar width: 0
XAxis mode: Wavelengths
Number of Pixels in Spectrum: 2048
>>>>>Begin Spectral Data<<<<<
341.393	-10.08
341.776	-10.08
342.16	-10.08
342.543	-72.46
342.927	-74.94
343.31	-78.78
343.693	-58.9
344.077	-93.47
344.46	-50.54
344.843	-62.06
345.226	-46.24
345.61	-22.74
345.993	-13.7
346.376	7.32
346.759	24.04
347.142	30.59
347.525	28.11
347.908	16.58
348.291	76.24
348.674	113.3
349.057	130.25
349.44	132.74
349.823	170.02
350.206	171.38
350.588	237.82
350.971	237.59
351.354	273.52
351.737	285.27
352.119	259.74
352.502	289.12
352.884	308.33
353.267	311.26
353.65	321.43
354.032	341.32
354.414	359.62
354.797	361.21
355.179	351.71
355.562	366.85
355.944	384.93
356.326	359.85
356.709	374.54
357.091	378.38
357.473	393.29
357.855	374.99
358.238	403.24
358.62	380.41
359.002	363.01
359.384	372.05
359.766	391.71
360.148	384.03
360.53	394.88
360.912	380.19
361.294	377.7
361.676	361.88
362.057	371.6
362.439	351.49
362.821	365.5
363.203	351.04
363.584	365.05
363.966	372.28
364.348	374.76
364.729	358.72
365.111	372.28
365.493	365.27
365.874	368.66
366.256	374.99
366.637	356.01
367.019	361.66
367.4	340.41
367.781	350.58
368.163	374.09
368.544	358.95
368.925	369.79
369.306	345.39
369.688	374.54
370.069	356.46
370.45	370.92
370.831	361.43
371.212	355.1
371.593	358.04
371.974	369.11
372.355	358.72
372.736	367.08
373.117	380.87
373.498	354.2
373.879	364.59
374.26	357.82
374.641	370.02
375.021	348.55
375.402	359.85
375.783	377.02
376.163	372.73
376.544	385.16
376.925	398.49
377.305	396.46
377.686	410.47
378.066	384.71
378.447	395.1
378.827	399.62
379.208	395.33
379.588	408.89
379.968	415.44
380.349	391.71
380.729	398.04
381.109	417.02
381.489	438.72
381.87	419.73
382.25	413.18
382.63	425.16
383.01	404.82
383.39	431.71
383.77	414.54
384.15	409.11
384.53	445.72
384.91	427.42
385.29	434.88
385.67	446.17
386.049	464.93
386.429	435.78
386.809	427.42
387.189	440.98
387.568	429.45
387.948	463.35
388.328	452.28
388.707	449.11
389.087	455.44
389.466	476.91
389.846	447.3
390.225	448.21
390.605	462.9
390.984	469.9
391.363	465.38
391.743	468.55
392.122	471.48
392.501	466.06
392.881	481.65
393.26	510.35
393.639	454.54
394.018	478.94
394.397	474.42
394.776	495.66
395.155	526.62
395.534	501.54
395.913	504.25
396.292	494.08
396.671	503.8
397.05	498.15
397.429	506.74
397.808	510.81
398.186	527.75
398.565	515.55
398.944	511.94
399.323	520.52
399.701	524.14
400.08	532.05
400.458	534.76
400.837	516.23
401.215	549
401.594	520.07
401.972	535.21
402.351	558.94
402.729	544.7
403.107	552.61
403.486	550.13
403.864	572.5
404.242	570.69
404.62	577.02
404.999	583.8
405.377	588.54
405.755	584.7
406.133	582.67
406.511	590.8
406.889	591.71
407.267	611.59
407.645	614.08
408.023	611.37
408.401	603.01
408.779	629.67
409.156	630.58
409.534	638.71
409.912	643.68
410.29	656.11
410.667	651.14
411.045	657.24
411.422	678.03
411.8	664.93
412.178	678.03
412.555	690.01
412.933	699.73
413.31	702.21
413.687	717.81
414.065	723
414.442	718.26
414.819	723
415.197	733.62
415.574	737.01
415.951	720.97
416.328	752.16
416.705	757.8
417.082	761.65
417.46	744.02
417.837	784.02
418.214	785.37
418.591	805.94
418.967	791.48
419.344	802.55
419.721	823.11
420.098	813.62
420.475	802.55
420.852	824.92
421.228	817.46
421.605	839.38
421.982	865.6
422.358	844.81
422.735	847.52
423.111	848.88
423.488	852.94
423.864	873.73
424.241	890.46
424.617	887.52
424.994	910.57
425.37	911.47
425.746	923.68
426.123	937.24
426.499	944.69
426.875	943.56
427.251	946.5
427.627	964.35
428.003	977.01
428.379	993.73
428.756	1008.65
429.132	1038.02
429.507	1013.84
429.883	1014.3
430.259	1052.49
430.635	1033.28
431.011	1048.87
431.387	1073.28
431.763	1091.81
432.138	1082.77
432.514	1108.98
432.89	1133.61
433.265	1145.37
433.641	1167.96
434.016	1143.78
434.392	1198.47
434.767	1216.78
435.143	1186.72
435.518	1220.84
435.894	1228.53
436.269	1239.15
436.644	1273.72
437.02	1279.83
437.395	1252.71
437.77	1304.91
438.145	1316.21
438.52	1289.32
438.895	1334.51
439.271	1330.22
439.646	1352.14
440.021	1383.55
440.395	1377.9
440.77	1358.92
441.145	1377.22
441.52	1415.64
441.895	1407.96
442.27	1429.65
442.645	1410.67
443.019	1429.88
443.394	1446.15
443.769	1481.18
444.143	1459.26
444.518	1473.72
444.892	1485.47
445.267	1472.14
445.641	1520.27
446.016	1540.61
446.39	1545.81
446.764	1533.38
447.139	1520.5
447.513	1559.14
447.887	1576.77
448.262	1569.76
448.636	1587.39
449.01	1602.08
449.384	1616.99
449.758	1652.47
450.132	1632.13
450.506	1670.78
450.88	1664.45
451.254	1663.32
451.628	1669.65
452.002	1699.25
452.376	1743.54
452.75	1751.68
453.123	1737.44
453.497	1782.18
453.871	1807.72
454.244	1828.96
454.618	1820.38
454.992	1834.84
455.365	1865.8
455.739	1943.99
456.112	1946.93
456.486	1896.76
456.859	1946.7
457.232	1999.81
457.606	2030.31
457.979	1996.19
458.352	2054.72
458.725	2119.58
459.099	2099.46
459.472	2131.33
459.845	2127.94
460.218	2170.65
460.591	2208.39
460.964	2237.77
461.337	2248.61
461.71	2307.37
462.083	2305.79
462.456	2349.85
462.829	2339.46
463.201	2390.3
463.574	2387.82
463.947	2457.42
464.32	2459
464.692	2499.45
465.065	2494.71
465.438	2578.32
465.81	2565.89
466.183	2611.54
466.555	2661.26
466.928	2684.76
467.3	2699.22
467.672	2712.78
468.045	2775.6
468.417	2812.21
468.789	2819.45
469.161	2872.55
469.534	2927.01
469.906	2956.62
470.278	2993
470.65	3001.36
471.022	3087.69
471.394	3139.66
471.766	3169.94
472.138	3192.09
472.51	3245.88
472.882	3321.81
473.253	3353.67
473.625	3409.94
473.997	3452.42
474.369	3521.35
474.74	3528.58
475.112	3584.85
475.484	3628.69
475.855	3709.59
476.227	3710.04
476.598	3846.09
476.97	3829.81
477.341	3937.16
477.713	3974.9
478.084	4045.18
478.455	4122.91
478.827	4136.93
479.198	4315.23
479.569	4345.28
479.94	4399.74
480.311	4491.49
480.682	4548.89
481.053	4632.96
481.424	4698.72
481.795	4769.45
482.166	4827.3
482.537	4919.96
482.908	4970.8
483.279	5053.74
483.65	5147.97
484.021	5250.12
484.391	5261.64
484.762	5300.51
485.133	5422.99
485.503	5447.17
485.874	5582.99
486.244	5593.16
486.615	5761.06
486.985	5840.38
487.356	5943.88
487.726	5996.99
488.097	6110.66
488.467	6115.86
488.837	6253.93
489.207	6347.71
489.578	6428.39
489.948	6477.43
490.318	6621.61
490.688	6598.33
491.058	6682.85
491.428	6843.07
491.798	6883.97
492.168	7037.41
492.538	7072.22
492.908	7102.72
493.278	7226.11
493.648	7264.53
494.017	7343.85
494.387	7453.9
494.757	7493.67
495.126	7604.86
495.496	7653.44
495.866	7717.17
496.235	7817.96
496.605	7885.53
496.974	7898.18
497.344	8021.57
497.713	8049.59
498.082	8058.63
498.452	8244.16
498.821	8302.92
499.19	8335.68
499.559	8335.01
499.928	8474.21
500.298	8555.79
500.667	8631.04
501.036	8627.88
501.405	8747.43
501.774	8815.22
502.143	8840.53
502.512	8923.01
502.88	8998.04
503.249	8999.62
503.618	9057.47
503.987	9179.05
504.356	9184.93
504.724	9310.57
505.093	9353.06
505.462	9478.25
505.83	9420.18
506.199	9612.71
506.567	9701.98
506.936	9714.63
507.304	9842.31
507.672	9965.7
508.041	10019.03
508.409	10021.29
508.777	10125.69
509.145	10244.11
509.514	10217.44
509.882	10400.72
510.25	10415.18
510.618	10507.83
510.986	10564.33
511.354	10709.63
511.722	10774.94
512.09	10875.28
512.458	10947.37
512.826	11083.86
513.193	11096.52
513.561	11148.04
513.929	11265.33
514.297	11372.44
514.664	11562.94
515.032	11503.06
515.4	11656.5
515.767	11789.61
516.135	11797.74
516.502	11791.19
516.869	12098.07
517.237	12069.15
517.604	12111.63
517.972	12317.05
518.339	12413.32
518.706	12423.71
519.073	12501.22
519.44	12628.91
519.808	12838.84
520.175	12822.57
520.542	12972.63
520.909	13112.96
521.276	13105.73
521.643	13296.68
522.009	13419.39
522.376	13553.63
522.743	13620.74
523.11	13792.04
523.477	13956.78
523.843	14020.06
524.21	14194.29
524.577	14262.53
524.943	14307.05
525.31	14518.57
525.676	14784.55
526.043	14846.25
526.409	14931.22
526.776	15065.9
527.142	15134.15
527.508	15280.36
527.874	15459.57
528.241	15505.89
528.607	15609.17
528.973	15847.35
529.339	15790.86
529.705	16032.88
530.071	16145.42
530.437	16360.11
530.803	16392.2
531.169	16527.11
531.535	16643.94
531.901	16768.91
532.267	16741.57
532.632	17005.29
532.998	17036.25
533.364	17117.83
533.73	17292.51
534.095	17457.48
534.461	17445.28
534.826	17664.71
535.192	17807.75
535.557	17901.99
535.923	17900.86
536.288	18074.19
536.653	18265.37
537.019	18240.28
537.384	18452.03
537.749	18551.46
538.114	18569.54
538.479	18678.01
538.845	18852.24
539.21	18931.56
539.575	19021.28
539.94	19112.8
540.305	19259.69
540.67	19361.38
541.034	19505.11
541.399	19733.8
541.764	19796.63
542.129	19850.18
542.494	19981.03
542.858	20020.35
543.223	20132.66
543.587	20437.51
543.952	20374.24
544.316	20560.45
544.681	20749.6
545.045	20772.19
545.41	21015.35
545.774	21150.94
546.138	21111.39
546.503	21249.47
546.867	21327.43
547.231	21708.21
547.595	21811.94
547.959	21876.12
548.324	21999.28
548.688	22145.04
549.052	22232.95
549.416	22441.75
549.779	22550.23
550.143	22731.69
550.507	22944.79
550.871	23047.84
551.235	23140.49
551.599	23310.43
551.962	23558.11
552.326	23690.76
552.689	24013.46
553.053	23991.32
553.417	24182.5
553.78	24644.18
554.143	24579.33
554.507	24779.77
554.87	25023.16
555.234	25311.51
555.597	25260.44
555.96	25572.97
556.323	25809.8
556.686	25907.43
557.05	26240.75
557.413	26494.53
557.776	26692.72
558.139	26908.3
558.502	27165.7
558.865	27233.94
559.228	27692.46
559.59	27817.43
559.953	28025.79
560.316	28458.09
560.679	28684.98
561.041	28926.33
561.404	29218.53
561.767	29559.53
562.129	29643.83
562.492	30237.03
562.854	30270.48
563.217	30563.12
563.579	30802.89
563.941	31130.11
564.304	31454.62
564.666	31727.61
565.028	32001.96
565.39	32268.84
565.753	32695.72
566.115	32868.15
566.477	33277.18
566.839	33606.88
567.201	33984.95
567.563	34193.31
567.925	34703.58
568.287	34760.98
568.648	34967.75
569.01	35434.63
569.372	35928.63
569.734	36109.19
570.095	36342.18
570.457	36685.67
570.819	37095.83
571.18	37122.05
571.542	37602.03
571.903	37878.64
572.265	38209.7
572.626	38471.62
572.987	38755.45
573.349	39073.41
573.71	39583.9
574.071	39667.74
574.432	40008.75
574.794	40448.96
575.155	40561.5
575.516	40757.21
575.877	41105.44
576.238	41393.12
576.599	41636.05
576.96	41761.25
577.32	42117.4
577.681	42413.43
578.042	42875.57
578.403	43003.93
578.763	43179.74
579.124	43377.48
579.485	43746.28
579.845	44016.33
580.206	44179.26
580.566	44372.03
580.927	44633.71
581.287	44903.99
581.648	44864.67
582.008	45286.13
582.368	45388.72
582.728	45620.81
583.089	45821.7
583.449	45892.44
583.809	46073
584.169	46320.45
584.529	46336.95
584.889	46909.81
585.249	46744.17
585.609	46776.03
585.969	47370.59
586.329	47210.14
586.688	47601.09
587.048	47639.06
587.408	47615.1
587.768	47845.38
588.127	48003.12
588.487	47962.21
588.846	48479.04
589.206	48407.4
589.565	48545.02
589.925	48741.85
590.284	48765.36
590.643	49104.1
591.003	49168.74
591.362	49397.66
591.721	49487.6
592.08	49555.84
592.44	49751.09
592.799	49879.45
593.158	49854.59
593.517	50107.69
593.876	50193.57
594.235	50253
594.593	50297.97
594.952	50465.88
595.311	50553.56
595.67	50700.67
596.029	51022.92
596.387	51131.17
596.746	51298.4
597.104	51260.21
597.463	51238.51
597.822	51506.98
598.18	51466.53
598.538	51664.04
598.897	51871.26
599.255	51780.19
599.613	52308.77
599.972	52106.74
600.33	52320.29
600.688	52222.67
601.046	52494.75
601.404	52660.17
601.762	52651.58
602.12	52889.54
602.478	52960.27
602.836	53128.18
603.194	53046.15
603.552	53208.86
603.91	53214.5
604.268	53438.45
604.625	53469.87
604.983	53654.49
605.341	53637.09
605.698	53783.08
606.056	54056.06
606.413	54032.56
606.771	54174.71
607.128	54280.47
607.485	54133.35
607.843	54353.23
608.2	54596.84
608.557	54787.8
608.914	54596.62
609.272	54872.09
609.629	55012.2
609.986	55121.35
610.343	55065.98
610.7	55370.83
611.057	55328.35
611.414	55437.5
611.771	55615.12
612.127	55731.27
612.484	55748.68
612.841	55932.17
613.198	55842.23
613.554	55956.81
613.911	56172.17
614.267	56178.72
614.624	56253.07
614.98	56352.95
615.337	56584.13
615.693	56581.42
616.05	56556.11
616.406	56820.51
616.762	56831.13
617.118	56903.22
617.475	56973.95
617.831	57084.91
618.187	57136.44
618.543	57227.51
618.899	57376.43
619.255	57341.18
619.611	57435.41
619.967	57568.29
620.323	57624.78
620.678	57616.2
621.034	57717.89
621.39	57770.77
621.746	57755.63
622.101	58032.46
622.457	57881.5
622.812	58005.57
623.168	58142.96
623.523	58107.94
623.879	58311.32
624.234	58188.61
624.589	58332.11
624.945	58372.11
625.3	58510.64
625.655	58457.76
626.01	58512.22
626.365	58584.08
626.72	58639.22
627.075	58695.26
627.43	58688.03
627.785	58692.78
628.14	58906.11
628.495	58936.61
628.85	58905.88
629.205	58875.6
629.559	59019.1
629.914	58979.1
630.269	59070.4
630.623	59037.4
630.978	59018.19
631.332	59223.16
631.687	59302.48
632.041	59196.49
632.396	59340.22
632.75	59214.8
633.104	59314.68
633.459	59278.3
633.813	59312.2
634.167	59363.95
634.521	59369.82
634.875	59488.92
635.229	59439.2
635.583	59350.84
635.937	59498.18
636.291	59427.45
636.645	59491.85
636.999	59532.53
637.352	59571.4
637.706	59516.49
638.06	59639.42
638.413	59649.14
638.767	59588.12
639.121	59748.34
639.474	59564.17
639.828	59675.35
640.181	59817.95
640.534	59792.18
640.888	59685.3
641.241	59616.37
641.594	59731.4
641.947	59908.34
642.301	59854.33
642.654	59859.53
643.007	59928.9
643.36	59930.94
643.713	59925.29
644.066	60007.32
644.419	59929.13
644.771	59879.41
645.124	59782.02
645.477	59781.56
645.83	59682.58
646.182	59522.36
646.535	59381.12
646.888	59457.28
647.24	59300.45
647.593	59466.77
647.945	59444.17
648.298	59441.23
648.65	59464.06
649.002	59368.69
649.355	59662.7
649.707	59579.99
650.059	59737.27
650.411	60120.09
650.763	60149.01
651.115	60450.47
651.467	60355.11
651.819	60438.72
652.171	60406.86
652.523	60412.96
652.875	60440.98
653.227	60382.68
653.578	60558.94
653.93	60544.03
654.282	60524.82
654.633	60459.51
654.985	60596.68
655.337	60638.94
655.688	60612.05
656.039	60787.19
656.391	60610.24
656.742	60609.79
657.094	60741.76
657.445	60795.77
657.796	60819.73
658.147	60808.66
658.498	60819.95
658.849	60889.56
659.2	60863.8
659.551	60907.18
659.902	60999.16
660.253	60941.53
660.604	61064.92
660.955	60959.84
661.306	61091.13
661.656	61044.13
662.007	61102.66
662.358	61143.11
662.708	61127.97
663.059	61160.06
663.409	61067.41
663.76	61315.08
664.11	61269.89
664.461	61312.14
664.811	61358.02
665.161	61408.64
665.511	61345.82
665.862	61449.54
666.212	61459.26
666.562	61536.09
666.912	61556.21
667.262	61537.68
667.612	61571.8
667.962	61611.35
668.312	61605.92
668.662	61758.23
669.011	61744.22
669.361	61752.36
669.711	61749.2
670.06	61747.39
670.41	61714.17
670.76	61758.69
671.109	61915.29
671.459	61905.12
671.808	61904.22
672.157	62026.93
672.507	61820.61
672.856	61934.5
673.205	61990.32
673.554	62094.27
673.904	61963.88
674.253	62145.57
674.602	62105.34
674.951	61813.15
675.3	61722.08
675.649	62111.67
675.998	62094.05
676.346	62159.35
676.695	62264.89
677.044	62085.01
677.393	62253.59
677.741	62379.24
678.09	62251.1
678.438	62208.84
678.787	62323.42
679.135	62359.58
679.484	62272.12
679.832	62358.45
680.181	62268.05
680.529	62387.37
680.877	62347.6
681.225	62328.84
681.573	62494.94
681.922	62340.59
682.27	62302.18
682.618	62355.06
682.966	62352.57
683.314	62376.07
683.661	62423.75
684.009	62371.33
684.357	62332.68
684.705	62256.3
685.053	62387.6
685.4	62390.08
685.748	62360.03
686.095	62389.18
686.443	62372.68
686.79	62398.22
687.138	62420.36
687.485	62391.21
687.832	62405.22
688.18	62388.73
688.527	62342.17
688.874	62342.85
689.221	62367.48
689.568	62262.85
689.915	62267.15
690.262	62323.42
690.609	62270.99
690.956	62243.42
691.303	62237.32
691.65	62048.17
691.997	62130.65
692.344	62042.3
692.69	62046.59
693.037	62078.68
693.383	61933.82
693.73	62071.67
694.077	61967.27
694.423	61975.86
694.769	61931.34
695.116	61934.5
695.462	61980.38
695.808	61877.1
696.155	61995.74
696.501	61817.89
696.847	61858.57
697.193	61809.08
697.539	61960.49
697.885	61803.66
698.231	61767.73
698.577	61776.09
698.923	61831.68
699.269	61670.55
699.614	61636.88
699.96	61633.27
700.306	61647.28
700.651	61513.72
700.997	61503.78
701.342	61523.89
701.688	61489.54
702.033	61477.11
702.379	61534.74
702.724	61459.71
703.069	61585.58
703.415	61355.99
703.76	61393.72
704.105	61441.63
704.45	61420.62
704.795	61311.69
705.14	61242.32
705.485	61260.85
705.83	61209.77
706.175	61262.43
706.52	61276.44
706.865	61108.31
707.209	61172.49
707.554	61077.12
707.899	61166.39
708.243	60993.74
708.588	61152.83
708.932	61058.59
709.277	61053.39
709.621	61065.37
709.966	60911.25
710.31	61095.65
710.654	60899.05
710.998	60987.41
711.342	60941.08
711.687	60877.58
712.031	60878.26
712.375	60889.33
712.719	60866.51
713.063	60894.3
713.407	61007.29
713.75	60851.82
714.094	60849.11
714.438	60760.52
714.782	60806.4
715.125	60759.39
715.469	60819.73
715.812	60778.15
716.156	60633.52
716.499	60672.84
716.843	60743.12
717.186	60669.68
717.53	60788.77
717.873	60787.19
718.216	60738.15
718.559	60608.21
718.902	60481.88
719.246	60591.03
719.589	60601.88
719.932	60572.5
720.275	60602.33
720.617	60544.48
720.96	60612.05
721.303	60574.76
721.646	60613.86
721.989	60523.47
722.331	60601.43
722.674	60500.64
723.016	60574.99
723.359	60520.08
723.701	60615.89
724.044	60476.91
724.386	60379.51
724.729	60518.04
725.071	60440.98
725.413	60498.83
725.755	60507.87
726.097	60395.33
726.439	60360.08
726.782	60409.8
727.124	60522.11
727.465	60403.92
727.807	60346.75
728.149	60395.56
728.491	60389.46
728.833	60452.51
729.175	60415.22
729.516	60365.28
729.858	60347.65
730.199	60474.43
730.541	60474.65
730.882	60427.2
731.224	60422.68
731.565	60272.62
731.906	60292.06
732.248	60331.15
732.589	60311.27
732.93	60253.64
733.271	60264.71
733.612	60325.5
733.953	60361.66
734.294	60408.21
734.635	60323.47
734.976	60454.77
735.317	60242.12
735.658	60359.85
735.999	60305.17
736.339	60278.05
736.68	60366.41
737.021	60252.06
737.361	60224.26
737.702	60297.03
738.042	60238.73
738.383	60245.05
738.723	60215.9
739.063	60220.2
739.404	60265.84
739.744	60289.12
740.084	60265.62
740.424	60305.62
740.764	60233.3
741.104	60372.73
741.444	60287.54
741.784	60186.07
742.124	60263.36
742.464	60206.64
742.804	60229.91
743.143	60166.64
743.483	60208.9
743.823	60115.57
744.162	60124.15
744.502	60130.03
744.841	60110.37
745.181	60278.27
745.52	60119.63
745.86	60257.26
746.199	60195.56
746.538	60184.49
746.877	60238.27
747.216	60282.57
747.556	60286.86
747.895	60264.49
748.234	60148.56
748.573	60150.59
748.911	60134.32
749.25	60164.38
749.589	60032.63
749.928	60138.84
750.267	60172.29
750.605	60123.48
750.944	59996.02
751.283	59925.51
751.621	60012.29
751.96	59843.93
752.298	59833.54
752.636	59906.98
752.975	59852.75
753.313	59843.71
753.651	59960.32
753.989	59751.73
754.327	59739.3
754.666	59675.8
755.004	59728.68
755.342	59812.98
755.679	59774.33
756.017	59603.49
756.355	59762.81
756.693	59655.69
757.031	59703.15
757.368	59628.12
757.706	59503.6
758.044	59451.85
758.381	59471.74
758.719	59450.05
759.056	59521.91
759.394	59421.8
759.731	59368.47
760.068	59368.24
760.405	59358.52
760.743	59306.55
761.08	59322.59
761.417	59094.58
761.754	59029.27
762.091	59035.37
762.428	58954.24
762.765	58928.48
763.102	59052.32
763.438	58904.98
763.775	58893.23
764.112	58868.59
764.449	58971.19
764.785	58880.12
765.122	58728.94
765.458	58606.68
765.795	58593.12
766.131	58563.52
766.467	58601.71
766.804	58475.84
767.14	58391.32
767.476	58449.85
767.812	58317.87
768.148	58424.09
768.485	58194.94
768.821	58134.83
769.157	58159.46
769.492	58209.18
769.828	58149.97
770.164	57878.11
770.5	57935.74
770.836	57894.38
771.171	57794.95
771.507	57820.49
771.842	57630.66
772.178	57649.42
772.513	57600.15
772.849	57561.96
773.184	57444.68
773.519	57501.62
773.855	57404
774.19	57312.48
774.525	57261.63
774.86	57187.06
775.195	57152.93
775.53	57082.88
775.865	57003.56
776.2	56896.89
776.535	56766.5
776.87	56842.43
777.205	56620.06
777.539	56592.5
777.874	56589.11
778.209	56342.11
778.543	56423.23
778.878	56270.02
779.212	56213.3
779.547	56186.4
779.881	56305.95
780.215	56114.09
780.55	56237.48
780.884	56083.81
781.218	56065.05
781.552	56048.33
781.886	56021.89
782.22	55843.81
782.554	55684.27
782.888	55501
783.222	55517.95
783.556	55390.27
783.889	55436.59
784.223	55208.12
784.557	55176.94
784.89	55147.79
785.224	54997.06
785.557	54849.04
785.891	54956.83
786.224	54786.21
786.558	54809.72
786.891	54619.44
787.224	54613.34
787.557	54527.01
787.891	54431.42
788.224	54511.19
788.557	54566.33
788.89	54494.92
789.223	54480.23
789.556	54322.27
789.888	54333.57
790.221	54211.54
790.554	53984.88
790.887	53976.52
791.219	53835.96
791.552	53777.65
791.884	53743.98
792.217	53673.02
792.549	53579.01
792.882	53451.33
793.214	53294.5
793.546	53333.82
793.879	53211.12
794.211	53109.2
794.543	53325.69
794.875	53101.06
795.207	53324.56
795.539	53072.81
795.871	53118.46
796.203	52824.91
796.535	52646.84
796.867	52766.38
797.198	52595.54
797.53	52678.93
797.862	52507.18
798.193	52532.71
798.525	52335.21
798.856	52529.78
799.188	52093.63
799.519	51994.65
799.85	51850.47
800.182	52047.08
800.513	51996.01
800.844	51747.88
801.175	52022.22
801.506	51914.88
801.837	51697.03
802.168	51814.77
802.499	51615.45
802.83	51409.35
803.161	51391.73
803.491	51409.35
803.822	51505.17
804.153	51254.1
804.483	51071.28
804.814	50999.65
805.145	50923.94
805.475	50871.29
805.805	50893.66
806.136	50896.15
806.466	50991.29
806.796	50959.2
807.126	50541.81
807.457	50643.05
807.787	50620.9
808.117	50499.77
808.447	50264.3
808.777	50495.93
809.107	50397.4
809.436	50230.4
809.766	50270.85
810.096	50126.68
810.426	50106.56
810.755	50029.73
811.085	49885.55
811.414	49852.33
811.744	49605.33
812.073	49692.34
812.403	49658.89
812.732	49436.98
813.061	49653.47
813.39	49397.66
813.719	49594.26
814.049	49782.5
814.378	49511.33
814.707	49403.08
815.036	49403.08
815.365	49199.92
815.693	48857.33
816.022	49137.32
816.351	49054.61
816.68	48896.2
817.008	49109.53
817.337	48692.82
817.665	48545.93
817.994	48717
818.322	48763.55
818.651	48361.3
818.979	48277.46
819.307	48552.93
819.636	48600.16
819.964	48364.01
820.292	48572.59
820.62	48505.25
820.948	48320.85
821.276	48444.91
821.604	48413.28
821.932	48483.1
822.259	48560.16
822.587	48652.14
822.915	48559.71
823.243	48675.64
823.57	48684
823.898	48798.58
824.225	48637.45
824.553	48547.06
824.88	48674.29
825.207	48773.04
825.535	48763.1
825.862	48887.84
826.189	48721.97
826.516	48889.87
826.843	48966.93
827.17	49000.38
827.497	49165.8
827.824	49065.69
828.151	49189.3
828.478	49024.33
828.805	49201.05
829.131	48904.79
829.458	48955.41
829.785	48796.09
830.111	48881.96
830.438	49194.27
830.764	49203.31
831.09	49281.95
831.417	49023.88
831.743	49239.69
832.069	49278.56
832.395	49221.16
832.722	49425.9
833.048	49282.86
833.374	49290.77
833.7	49217.77
834.026	49225.23
834.351	49449.41
834.677	49177.55
835.003	49194.72
835.329	49123.09
835.654	49135.29
835.98	49136.42
836.306	49130.09
836.631	49051.45
836.956	49186.81
837.282	49145.01
837.607	49207.83
837.932	49008.29
838.258	48900.27
838.583	48764.68
838.908	48675.42
839.233	48776.66
839.558	48792.02
839.883	48867.27
840.208	48874.28
840.533	48703.21
840.858	48785.69
841.182	48797.45
841.507	48666.6
841.832	48445.14
842.156	48450.34
842.481	48588.86
842.805	48432.26
843.13	48117.01
843.454	48215.77
843.778	48153.39
844.103	48029.1
844.427	48045.15
844.751	47925.83
845.075	47873.85
845.399	47852.39
845.723	47771.03
846.047	47827.08
846.371	47554.99
846.695	47602.45
847.019	47449.23
847.343	47308.45
847.666	47109.81
847.99	46895.57
848.313	46903.94
848.637	46526.09
848.96	46433.21
849.284	46451.07
849.607	46189.83
849.931	46152.54
850.254	45963.17
850.577	45959.55
850.9	45595.5
851.223	45500.36
851.546	45272.11
851.869	45233.7
852.192	45424.88
852.515	45027.15
852.838	44897.44
853.161	45125.23
853.483	44798.23
853.806	44742.19
854.129	44600.72
854.451	44514.62
854.774	44442.53
855.096	44181.3
855.419	44320.5
855.741	44142.65
856.063	43963.9
856.385	43850.46
856.708	43918.7
857.03	43844.13
857.352	43687.52
857.674	43538.83
857.996	43416.34
858.318	43380.41
858.64	43321.66
858.961	43208.89
859.283	43211.83
859.605	43035.56
859.926	43228.55
860.248	43096.58
860.57	42901.56
860.891	42820.65
861.212	42625.86
861.534	42671.51
861.855	42618.4
862.176	42521.68
862.498	42570.72
862.819	42622.69
863.14	42503.6
863.461	42518.06
863.782	42438.29
864.103	42433.09
864.424	42474
864.745	42309.03
865.065	42261.57
865.386	42198.3
865.707	42318.52
866.027	42248.69
866.348	42215.25
866.668	42047.57
866.989	42052.76
867.309	41829.27
867.63	42067.23
867.95	42037.4
868.27	41732.32
868.59	41901.58
868.91	41876.05
869.23	41746.78
869.55	41447.81
869.87	41832.66
870.19	41600.12
870.51	41741.81
870.83	41662.04
871.15	41344.31
871.469	41564.19
871.789	41671.53
872.109	41679.89
872.428	41393.12
872.748	41737.07
873.067	41569.61
873.386	41554.7
873.706	41371.2
874.025	41222.05
874.344	41256.63
874.663	41325.1
874.982	41343.4
875.301	41340.01
875.62	41259.11
875.939	41059.57
876.258	41091.21
876.577	40839.01
876.896	40928.95
877.214	40899.35
877.533	40853.7
877.852	40827.49
878.17	40880.59
878.489	40914.49
878.807	40838.11
879.125	40726.7
879.444	40581.62
879.762	40318.35
880.08	40439.02
880.398	40507.95
880.716	40591.11
881.034	40461.62
881.352	40750.2
881.67	40360.38
881.988	40526.02
882.306	40297.33
882.624	40225.69
882.941	40142.08
883.259	40108.41
883.577	40027.51
883.894	40048.52
884.212	39871.58
884.529	39949.77
884.846	39825.48
885.164	39863.9
885.481	39543.45
885.798	39768.08
886.115	39523.11
886.432	39418.71
886.75	39272.95
887.067	39192.73
887.383	39079.51
887.7	39177.36
888.017	38885.16
888.334	39109.79
888.651	38811.72
888.967	38857.37
889.284	38783.92
889.6	38686.3
889.917	38550.94
890.233	38586.87
890.55	38346.2
890.866	38506.87
891.182	38197.27
891.498	38105.52
891.815	37942.14
892.131	38072.98
892.447	37795.02
892.763	37755.25
893.079	37563.62
893.395	37611.07
893.71	37463.51
894.026	37222.83
894.342	37286.79
894.657	37181.48
894.973	37195.49
895.289	37150.52
895.604	37094.93
895.92	36823.07
896.235	36808.38
896.55	36769.29
896.865	36710.76
897.181	36606.35
897.496	36667.14
897.811	36562.29
898.126	36516.86
898.441	36397.32
898.756	36116.65
899.071	36088.85
899.386	36295.85
899.7	35756.88
900.015	35723.67
900.33	35656.77
900.644	35483.45
900.959	35332.26
901.273	35112.38
901.588	35155.54
901.902	35081.65
902.216	34937.47
902.531	34901.77
902.845	34737.93
903.159	34550.81
903.473	34564.6
903.787	34419.07
904.101	34271.95
904.415	34264.27
904.729	34103.59
905.042	33922.13
905.356	33834.9
905.67	33862.02
905.984	33932.53
906.297	33633.55
906.611	33415.48
906.924	33360.79
907.237	33326.44
907.551	33251.87
907.864	33118.08
908.177	33121.93
908.491	32952.89
908.804	32787.47
909.117	32539.12
909.43	32524.43
909.743	32362.62
910.056	32409.63
910.368	32360.14
910.681	32045.34
910.994	32064.1
911.307	31906.59
911.619	31797.89
911.932	31778.46
912.244	31600.84
912.557	31559.48
912.869	31157.91
913.181	31320.39
913.494	31175.54
913.806	30987.07
914.118	31028.42
914.43	30630.92
914.742	30568.55
915.054	30608.09
915.366	30448.55
915.678	30458.49
915.99	30339.17
916.302	30104.38
916.613	29974.66
916.925	29869.13
917.236	30016.02
917.548	29792.97
917.859	29843.82
918.171	29547.78
918.482	29532.42
918.794	29421.01
919.105	29453.77
919.416	29133.78
919.727	29187.79
920.038	28957.97
920.349	28741.93
920.66	28589.84
920.971	28625.09
921.282	28577.64
921.593	28254.94
921.903	28321.37
922.214	28199.12
922.525	28016.07
922.835	28006.81
923.146	27939.69
923.456	27796.42
923.767	27491.57
924.077	27648.17
924.387	27576.08
924.697	27398.01
925.008	27369.08
925.318	27297.9
925.628	27224.68
925.938	27043.67
926.248	26729.1
926.558	26730.46
926.867	26604.36
927.177	26600.29
927.487	26307.87
927.796	26090.25
928.106	26139.51
928.416	26002.34
928.725	25929.57
929.034	25772.06
929.344	25871.95
929.653	25845.05
929.962	25606.87
930.271	25424.28
930.581	25325.29
930.89	25366.42
931.199	25198.97
931.508	25112.87
931.817	25139.76
932.125	24955.36
932.434	24806.21
932.743	24637.4
933.051	24632.66
933.36	24587.46
933.669	24389.27
933.977	24252.78
934.286	24296.62
934.594	24201.48
934.902	23927.14
935.21	24017.76
935.519	23943.41
935.827	23924.65
936.135	23935.27
936.443	23610.54
936.751	23545.68
937.059	23622.97
937.367	23483.99
937.674	23354.27
937.982	23343.2
938.29	23205.58
938.597	23222.07
938.905	22887.39
939.213	22807.62
939.52	22712.71
939.827	22730.56
940.135	22539.38
940.442	22418.7
940.749	22375.09
941.056	22555.88
941.363	22164.02
941.67	22287.41
941.977	22228.88
942.284	21886.29
942.591	21905.05
942.898	21825.95
943.205	21699.4
943.511	21522.68
943.818	21494.89
944.125	21352.52
944.431	21300.77
944.738	21212.41
945.044	21096.25
945.35	21189.13
945.657	20961.34
945.963	20989.36
946.269	20787.56
946.575	20725.64
946.881	20493.56
947.187	20487.23
947.493	20455.59
947.799	20353
948.105	20189.38
948.41	20195.49
948.716	20169.5
949.022	19969.73
949.327	20041.37
949.633	19859.9
949.938	19794.82
950.244	19724.09
950.549	19572.9
950.854	19405.68
951.16	19499.46
951.465	19364.77
951.77	19321.84
952.075	19164.55
952.38	19126.81
952.685	19137.66
952.99	19037.78
953.294	18863.77
953.599	18915.07
953.904	18761.63
954.209	18732.7
954.513	18556.21
954.818	18485.7
955.122	18429.43
955.426	18356.89
955.731	18339.72
956.035	18252.03
956.339	18214.97
956.643	18242.99
956.948	17940.18
957.252	17890.91
957.556	17848.43
957.86	17754.42
958.163	17644.82
958.467	17641.65
958.771	17552.39
959.075	17466.74
959.378	17320.76
959.682	17255.22
959.985	17181.33
960.289	17078.51
960.592	17047.09
960.896	16922.35
961.199	16913.31
961.502	16897.27
961.805	16871.28
962.108	16803.48
962.411	16746.99
962.714	16615.69
963.017	16604.17
963.32	16605.07
963.623	16480.33
963.926	16459.54
964.228	16314.01
964.531	16172.54
964.833	16190.39
965.136	16034.47
965.438	15959.21
965.741	16031.98
966.043	15893.68
966.345	15878.54
966.648	15788.14
966.95	15712.89
967.252	15640.35
967.554	15625.66
967.856	15435.61
968.158	15450.07
968.46	15422.28
968.761	15280.36
969.063	15264.77
969.365	15112.46
969.666	14971.22
969.968	14982.52
970.269	14938
970.571	14907.94
970.872	14806.7
971.174	14820.71
971.475	14599.47
971.776	14587.27
972.077	14513.83
972.378	14565.13
972.679	14430.89
972.98	14359.93
973.281	14213.5
973.582	14154.97
973.883	14150.45
974.183	13983.9
974.484	14039.49
974.785	13938.48
975.085	13937.12
975.386	13933.28
975.686	13679.5
975.986	13754.75
976.287	13739.16
976.587	13575.32
976.887	13484.7
977.187	13554.3
977.487	13435.44
977.787	13346.17
978.087	13249.45
978.387	13288.77
978.687	13274.99
978.987	13150.25
979.286	13024.15
979.586	12980.53
979.885	12969.46
980.185	12869.8
980.484	12828.67
980.784	12735.8
981.083	12695.34
981.382	12581.22
981.682	12616.7
981.981	12597.49
982.28	12511.62
982.579	12534.9
982.878	12557.95
983.177	12414.22
983.475	12388.01
983.774	12312.3
984.073	12210.84
984.372	12071.18
984.67	12148.01
984.969	12134.45
985.267	12005.64
985.566	11986.66
985.864	11863.28
986.162	11818.98
986.461	11774.92
986.759	11753.45
987.057	11738.76
987.355	11575.15
987.653	11617.63
987.951	11577.18
988.249	11451.54
988.547	11366.57
988.844	11238.43
989.142	11301.71
989.44	11235.04
989.737	11197.08
990.035	11089.28
990.332	11056.97
990.63	11026.46
990.927	10982.17
991.224	10937.65
991.521	10920.25
991.819	10800.03
992.116	10737.2
992.413	10687.94
992.71	10659.47
993.006	10619.47
993.303	10554.61
993.6	10538.56
993.897	10492.24
994.193	10387.16
994.49	10356.42
994.787	10312.13
995.083	10244.34
995.379	10238.91
995.676	10147.16
995.972	10092.7
996.268	10025.58
996.565	9962.08
996.861	9900.62
997.157	9855.19
997.453	9761.86
997.749	9778.13
998.044	9680.06
998.34	9623.56
998.636	9666.72
998.932	9558.48
999.227	9456.33
999.523	9457.92
999.818	9388.09
1000.114	9310.12
1000.409	9259.5
1000.704	9234.19
1001	9159.84
1001.295	9161.43
1001.59	9176.11
1001.885	9070.35
1002.18	8992.62
1002.475	8977.93
1002.77	8907.2
1003.065	8780.87
1003.359	8786.52
1003.654	8743.58
1003.949	8674.88
1004.243	8644.6
1004.538	8569.8
1004.832	8580.88
1005.127	8502.01
1005.421	8396.93
1005.715	8383.82
1006.009	8354.44
1006.304	8300.21
1006.598	8266.08
1006.892	8203.94
1007.186	8107.89
1007.48	8126.42
1007.773	8035.35
1008.067	7979.99
1008.361	7931.4
1008.655	7950.61
1008.948	7862.93
1009.242	7774.12
1009.535	7631.97
1009.829	7622.94
1010.122	7536.38
1010.415	7519.89
1010.708	7491.19
1011.001	7487.35
1011.295	7394.47
1011.588	7348.59
1011.881	7303.85
1012.173	7258.42
1012.466	7188.14
1012.759	7175.72
1013.052	7151.08
1013.344	7056.4
1013.637	7020.47
1013.93	6967.36
1014.222	7001.71
1014.514	6888.27
1014.807	6853.24
1015.099	6780.02
1015.391	6794.26
1015.683	6762.17
1015.976	6718.78
1016.268	6659.12
1016.56	6590.87
1016.851	6516.75
1017.143	6451.89
1017.435	6394.49
1017.727	6458.67
1018.018	6402.18
1018.31	6287.15
1018.602	6302.07
1018.893	6274.5
1019.185	6187.04
1019.476	6113.37
1019.767	6084.44
1020.058	6031.11
1020.35	6008.97
1020.641	5919.25
1020.932	5894.17
1021.223	5871.57
1021.514	5846.26
1021.804	5810.33
1022.095	5736.88
1022.386	5700.73
1022.677	5649.43
1022.967	5617.34
1023.258	5573.5
1023.548	5559.26
1023.839	5493.27
1024.129	5419.15
1024.419	5378.7
1024.709	5357.68
1025	5311.13
1025.29	5281.3
1025.58	5236.11
1025.87	5191.36
1026.16	5183.68
1026.449	5125.15
1026.739	5131.93
1027.029	5047.64
1027.319	5047.41
1027.608	4990.91
1027.898	4926.06
1028.187	4876.79
1028.477	4864.36
1028.766	4795.66
1029.055	4759.51
1029.344	4729
1029.634	4698.27
1029.923	4625.05
1030.212	4655.78
1030.501	4560.87
1030.79	4566.74
1031.078	4560.64
1031.367	4502.34
1031.656	4473.19
1031.945	4401.55
1032.233	4378.95
1032.522	4364.49
1032.81	4315.45
1033.099	4258.5
1033.387	4258.73
1033.675	4246.53
1033.963	4190.03
1034.251	4139.86
1034.54	4063.25
1034.828	4089.69
1035.116	4014.44
1035.403	4009.47
1035.691	3948.46
1035.979	3954.78
1036.267	3909.13
1036.554	3916.14
1036.842	3870.04
1037.129	3827.55
1037.417	3795.24
1037.704	3738.29
1037.992	3734.9
1038.279	3686.09
1038.566	3641.8
1038.853	3641.8
1039.14	3641.8
