Data from copper_heatsink_FLMS001491_017.txt Node
Date: Tue Feb 07 10:49:18 GMT 2017
User: dcchb
Spectrometer: FLMS00149
Trigger mode: 0
Integration Time (sec): 2.000000E-2
Scans to average: 10
Electric dark correction enabled: true
Nonlinearity correction enabled: false
Boxcar width: 0
XAxis mode: Wavelengths
Number of Pixels in Spectrum: 2048
>>>>>Begin Spectral Data<<<<<
341.393	5.51
341.776	5.51
342.16	5.51
342.543	-69.52
342.927	-61.16
343.31	-73.81
343.693	-63.87
344.077	-61.16
344.46	-73.13
344.843	-67.26
345.226	-40.14
345.61	-55.51
345.993	-20.03
346.376	0.08
346.759	-9.18
347.142	31.27
347.525	51.83
347.908	75.56
348.291	79.18
348.674	103.58
349.057	122.57
349.44	125.73
349.823	141.55
350.206	164.37
350.588	237.37
350.971	259.96
351.354	273.75
351.737	269.91
352.119	273.75
352.502	296.57
352.884	310.81
353.267	315.78
353.65	299.51
354.032	302.9
354.414	300.42
354.797	322.79
355.179	347.87
355.562	344.26
355.944	337.48
356.326	337.48
356.709	366.18
357.091	362.79
357.473	341.32
357.855	371.6
358.238	367.53
358.62	370.47
359.002	360.75
359.384	359.85
359.766	381.09
360.148	377.93
360.53	361.88
360.912	356.91
361.294	364.14
361.676	375.67
362.057	343.35
362.439	349.68
362.821	358.04
363.203	337.03
363.584	349.23
363.966	330.92
364.348	352.39
364.729	351.71
365.111	350.58
365.493	345.39
365.874	347.42
366.256	334.99
366.637	316.23
367.019	342.45
367.4	338.15
367.781	324.6
368.163	323.01
368.544	333.18
368.925	338.38
369.306	352.84
369.688	332.96
370.069	353.75
370.45	341.77
370.831	322.34
371.212	344.03
371.593	333.64
371.974	344.48
372.355	334.99
372.736	352.17
373.117	358.72
373.498	352.39
373.879	358.27
374.26	347.87
374.641	334.31
375.021	346.52
375.402	361.21
375.783	339.51
376.163	345.61
376.544	353.97
376.925	354.88
377.305	346.97
377.686	381.09
378.066	363.24
378.447	332.73
378.827	364.59
379.208	365.95
379.588	369.11
379.968	374.76
380.349	371.15
380.729	374.31
381.109	377.02
381.489	375.89
381.87	371.37
382.25	378.61
382.63	377.02
383.01	394.2
383.39	363.47
383.77	369.11
384.15	389
384.53	390.58
384.91	396.46
385.29	395.55
385.67	363.01
386.049	384.71
386.429	389.91
386.809	405.27
387.189	397.59
387.568	394.2
387.948	369.11
388.328	388.55
388.707	379.96
389.087	402.56
389.466	399.17
389.846	408.44
390.225	396.23
390.605	412.96
390.984	403.46
391.363	399.4
391.743	417.02
392.122	413.41
392.501	426.06
392.881	420.86
393.26	426.97
393.639	411.15
394.018	412.73
394.397	426.29
394.776	422.45
395.155	440.07
395.534	426.97
395.913	428.77
396.292	424.48
396.671	432.62
397.05	421.09
397.429	446.17
397.808	440.98
398.186	431.71
398.565	441.66
398.944	444.59
399.323	452.5
399.701	443.91
400.08	447.08
400.458	449.79
400.837	448.43
401.215	438.72
401.594	441.66
401.972	446.63
402.351	440.75
402.729	434.65
403.107	460.19
403.486	473.97
403.864	480.75
404.242	485.04
404.62	440.53
404.999	470.81
405.377	466.97
405.755	473.74
406.133	499.73
406.511	487.98
406.889	498.6
407.267	468.77
407.645	480.52
408.023	480.98
408.401	473.07
408.779	464.71
409.156	504.93
409.534	498.38
409.912	493.18
410.29	502.67
410.667	517.36
411.045	498.83
411.422	510.81
411.8	488.89
412.178	526.62
412.555	513.07
412.933	523.91
413.31	531.6
413.687	518.94
414.065	531.37
414.442	532.5
414.819	525.49
415.197	533.86
415.574	542.22
415.951	544.03
416.328	539.73
416.705	559.84
417.082	551.03
417.46	592.16
417.837	566.4
418.214	565.95
418.591	528.43
418.967	582.22
419.344	592.84
419.721	601.65
420.098	573.18
420.475	605.04
420.852	559.62
421.228	570.69
421.605	590.35
421.982	578.15
422.358	618.6
422.735	622.89
423.111	605.94
423.488	622.67
423.864	612.27
424.241	607.53
424.617	613.4
424.994	621.09
425.37	606.4
425.746	623.35
426.123	652.05
426.499	635.55
426.875	622.44
427.251	654.53
427.627	661.99
428.003	652.72
428.379	640.52
428.756	663.12
429.132	679.39
429.507	655.66
429.883	668.32
430.259	677.13
430.635	680.74
431.011	697.47
431.387	692.27
431.763	705.15
432.138	724.36
432.514	721.65
432.89	737.92
433.265	726.17
433.641	721.2
434.016	729.11
434.392	748.31
434.767	763.23
435.143	753.96
435.518	749.22
435.894	772.72
436.269	782.89
436.644	763
437.02	774.08
437.395	773.85
437.77	814.75
438.145	823.79
438.52	797.8
438.895	798.93
439.271	788.99
439.646	835.99
440.021	825.83
440.395	818.82
440.77	818.14
441.145	812.94
441.52	845.71
441.895	828.99
442.27	853.62
442.645	838.48
443.019	861.08
443.394	860.18
443.769	846.62
444.143	878.71
444.518	873.73
444.892	848.65
445.267	875.99
445.641	899.04
446.016	897.46
446.39	894.07
446.764	914.41
447.139	894.07
447.513	909.44
447.887	925.94
448.262	917.8
448.636	914.41
449.01	921.87
449.384	912.38
449.758	921.42
450.132	933.85
450.506	931.59
450.88	943.34
451.254	932.49
451.628	986.05
452.002	992.6
452.376	993.5
452.75	996.67
453.123	989.66
453.497	1020.17
453.871	1020.17
454.244	1034.18
454.618	1029.66
454.992	1068.08
455.365	1066.95
455.739	1081.19
456.112	1092.26
456.486	1094.97
456.859	1126.38
457.232	1117.34
457.606	1121.41
457.979	1098.59
458.352	1133.39
458.725	1179.04
459.099	1172.26
459.472	1186.49
459.845	1170.45
460.218	1170.68
460.591	1226.27
460.964	1213.84
461.337	1244.12
461.71	1219.94
462.083	1238.92
462.456	1266.72
462.829	1295.87
463.201	1330.22
463.574	1288.86
463.947	1349.2
464.32	1340.39
464.692	1359.15
465.065	1368.18
465.438	1381.52
465.81	1399.6
466.183	1413.15
466.555	1447.5
466.928	1458.8
467.3	1482.08
467.672	1464.23
468.045	1526.82
468.417	1536.99
468.789	1504.23
469.161	1548.52
469.534	1591.23
469.906	1599.59
470.278	1591.23
470.65	1661.96
471.022	1663.77
471.394	1701.73
471.766	1714.84
472.138	1731.56
472.51	1764.33
472.882	1791
473.253	1817.89
473.625	1815.18
473.997	1860.6
474.369	1882.75
474.74	1929.98
475.112	1896.53
475.484	1943.31
475.855	1968.85
476.227	2020.6
476.598	2070.76
476.97	2096.07
477.341	2125.23
477.713	2199.8
478.084	2204.77
478.455	2246.58
478.827	2285.9
479.198	2325.9
479.569	2346.01
479.94	2398.21
480.311	2407.71
480.682	2462.17
481.053	2539.45
481.424	2580.36
481.795	2610.86
482.166	2622.39
482.537	2642.95
482.908	2707.36
483.279	2796.17
483.65	2786
484.021	2853.8
484.391	2883.4
484.762	2904.42
485.133	2923.17
485.503	2982.38
485.874	3088.14
486.244	3087.69
486.615	3147.8
486.985	3188.93
487.356	3237.06
487.726	3298.98
488.097	3343.5
488.467	3361.35
488.837	3437.73
489.207	3466.89
489.578	3544.85
489.948	3533.1
490.318	3612.42
490.688	3604.28
491.058	3686.99
491.428	3794.11
491.798	3785.52
492.168	3882.92
492.538	3891.96
492.908	3953.43
493.278	3975.8
493.648	4001.79
494.017	4105.51
494.387	4112.52
494.757	4175.79
495.126	4216.92
495.496	4229.35
495.866	4284.94
496.235	4302.8
496.605	4351.61
496.974	4395.9
497.344	4397.26
497.713	4479.51
498.082	4539.63
498.452	4554.54
498.821	4597.7
499.19	4628.89
499.559	4672.5
499.928	4682.9
500.298	4741.43
500.667	4800.18
501.036	4772.61
501.405	4878.37
501.774	4888.09
502.143	4930.35
502.512	5002.67
502.88	5039.95
503.249	5040.63
503.618	5128.31
503.987	5132.83
504.356	5110.46
504.724	5209.67
505.093	5266.16
505.462	5342.77
505.83	5349.1
506.199	5407.4
506.567	5473.39
506.936	5449.66
507.304	5504.35
507.672	5605.81
508.041	5614.63
508.409	5637.45
508.777	5742.08
509.145	5772.81
509.514	5806.49
509.882	5775.07
510.25	5892.36
510.618	5974.16
510.986	5984.56
511.354	6006.71
511.722	6067.27
512.09	6108.17
512.458	6165.57
512.826	6225.01
513.193	6240.82
513.561	6294.61
513.929	6396.98
514.297	6464.32
514.664	6481.27
515.032	6519.01
515.4	6651.44
515.767	6655.73
516.135	6715.84
516.502	6699.34
516.869	6777.08
517.237	6873.12
517.604	6842.84
517.972	6950.41
518.339	7013.91
518.706	7041.71
519.073	7130.52
519.44	7211.65
519.808	7231.08
520.175	7323.06
520.542	7363.73
520.909	7457.97
521.276	7527.34
521.643	7601.47
522.009	7620.9
522.376	7682.82
522.743	7722.37
523.11	7848.92
523.477	7932.08
523.843	7960.1
524.21	8055.69
524.577	8083.49
524.943	8201.23
525.31	8360.54
525.676	8309.7
526.043	8410.49
526.409	8479.18
526.776	8548.11
527.142	8594.89
527.508	8683.02
527.874	8765.05
528.241	8848.67
528.607	8874.65
528.973	9012.28
529.339	9009.11
529.705	9166.4
530.071	9266.96
530.437	9312.83
530.803	9356
531.169	9401.65
531.535	9387.18
531.901	9530.23
532.267	9628.53
532.632	9709.66
532.998	9737.91
533.364	9859.94
533.73	9887.51
534.095	9974.06
534.461	9966.6
534.826	10097.67
535.192	10187.39
535.557	10253.83
535.923	10276.42
536.288	10357.55
536.653	10447.27
537.019	10407.49
537.384	10541.28
537.749	10613.82
538.114	10701.95
538.479	10648.39
538.845	10844.32
539.21	10834.6
539.575	10859.69
539.94	10964.09
540.305	11083.18
540.67	11127.7
541.034	11242.05
541.399	11331.76
541.764	11390.29
542.129	11393.91
542.494	11499.9
542.858	11555.49
543.223	11620.57
543.587	11672.77
543.952	11769.04
544.316	11884.74
544.681	11955.93
545.045	11948.25
545.41	12140.1
545.774	12196.15
546.138	12301.46
546.503	12275.92
546.867	12299.87
547.231	12603.37
547.595	12587.1
547.959	12655.57
548.324	12797.94
548.688	12746.42
549.052	12940.31
549.416	13017.14
549.779	13065.5
550.143	13224.6
550.507	13292.84
550.871	13439.51
551.235	13466.62
551.599	13649.67
551.962	13693.96
552.326	13854.86
552.689	13984.58
553.053	14101.63
553.417	14142.99
553.78	14418.46
554.143	14476.31
554.507	14524.67
554.87	14663.43
555.234	14920.82
555.597	14909.75
555.96	15013.93
556.323	15250.98
556.686	15304.32
557.05	15496.17
557.413	15612.33
557.776	15709.95
558.139	15882.15
558.502	16095.03
558.865	16155.37
559.228	16347.9
559.59	16508.8
559.953	16647.33
560.316	16919.87
560.679	17031.05
561.041	17144.94
561.404	17367.54
561.767	17619.06
562.129	17624.48
562.492	17950.57
562.854	18038.93
563.217	18144.01
563.579	18308.3
563.941	18576.09
564.304	18774.51
564.666	18894.5
565.028	19252.91
565.39	19338.11
565.753	19611.09
566.115	19693.58
566.477	19931.76
566.839	20078.43
567.201	20333.34
567.563	20495.14
567.925	20689.03
568.287	20835.47
568.648	20958.4
569.01	21289.47
569.372	21513.42
569.734	21468.9
570.095	21729.68
570.457	22058.26
570.819	22222.78
571.18	22252.83
571.542	22656.44
571.903	22704.8
572.265	22976.2
572.626	23132.58
572.987	23226.82
573.349	23473.37
573.71	23651.21
574.071	23874.71
574.432	24025.89
574.794	24393.12
575.155	24457.97
575.516	24360.8
575.877	24714.01
576.238	24812.99
576.599	25051.18
576.96	25116.94
577.32	25133.89
577.681	25408
578.042	25597.6
578.403	25697.71
578.763	25729.58
579.124	26006.41
579.485	26185.84
579.845	26358.04
580.206	26506.73
580.566	26545.15
580.927	26708.99
581.287	26818.81
581.648	26918.92
582.008	27110.11
582.368	27247.96
582.728	27208.18
583.089	27314.85
583.449	27485.01
583.809	27532.47
584.169	27623.54
584.529	27765.46
584.889	27934.04
585.249	27924.32
585.609	27935.4
585.969	28241.83
586.329	28165.45
586.688	28280.7
587.048	28470.52
587.408	28450.41
587.768	28470.07
588.127	28512.78
588.487	28637.98
588.846	28898.53
589.206	28807.69
589.565	28823.28
589.925	29100.56
590.284	29106.44
590.643	29164.97
591.003	29263.04
591.362	29402.93
591.721	29479.31
592.08	29429.82
592.44	29640.21
592.799	29599.53
593.158	29717.04
593.517	29715.91
593.876	29908
594.235	29931.28
594.593	30104.15
594.952	30147.09
595.311	30131.04
595.67	30268.67
596.029	30400.87
596.387	30569.68
596.746	30590.01
597.104	30457.36
597.463	30559.28
597.822	30595.44
598.18	30797.92
598.538	30842.66
598.897	31121.75
599.255	30940.74
599.613	31324.68
599.972	31088.53
600.33	31334.4
600.688	31220.96
601.046	31458.92
601.404	31669.99
601.762	31646.03
602.12	31868.17
602.478	31809.87
602.836	31916.99
603.194	31820.72
603.552	31967.61
603.91	31892.35
604.268	32081.73
604.625	32038.11
604.983	32307.48
605.341	32352.23
605.698	32473.81
606.056	32589.28
606.413	32512.22
606.771	32662.5
607.128	32798.32
607.485	32835.15
607.843	32788.15
608.2	33097.07
608.557	33201.7
608.914	33197.63
609.272	33455.7
609.629	33344.97
609.986	33607.11
610.343	33531.18
610.7	33829.93
611.057	33708.12
611.414	33824.28
611.771	33916.26
612.127	34078.06
612.484	34017.72
612.841	34341.1
613.198	34124.16
613.554	34229.24
613.911	34403.02
614.267	34505.84
614.624	34467.2
614.98	34610.02
615.337	34711.71
615.693	34768.89
616.05	34925.27
616.406	35036.9
616.762	34922.1
617.118	35130.23
617.475	35115.55
617.831	35285.03
618.187	35295.43
618.543	35300.4
618.899	35579.49
619.255	35703.33
619.611	35708.07
619.967	35804.57
620.323	35773.16
620.678	35680.5
621.034	35831.01
621.39	35940.38
621.746	35950.78
622.101	36431.9
622.457	36032.81
622.812	36068.74
623.168	36291.33
623.523	36426.92
623.879	36713.47
624.234	36285.01
624.589	36536.53
624.945	36594.15
625.3	36577.65
625.655	36667.14
626.01	36640.7
626.365	36747.14
626.72	36751.89
627.075	36736.07
627.43	36725.45
627.785	36757.54
628.14	36774.94
628.495	36875.5
628.85	36951.2
629.205	36871.43
629.559	36997.98
629.914	36752.79
630.269	36929.51
630.623	36906.68
630.978	36866.01
631.332	37129.05
631.687	37088.6
632.041	37130.41
632.396	37217.86
632.75	37037.75
633.104	37118.43
633.459	36900.36
633.813	37002.95
634.167	37059
634.521	37042.5
634.875	37135.38
635.229	37079.79
635.583	37127.02
635.937	37057.19
636.291	37039.56
636.645	37101.26
636.999	37078.21
637.352	37210.86
637.706	36997.53
638.06	37102.61
638.413	37037.3
638.767	36959.79
639.121	37127.92
639.474	36987.81
639.828	37031.43
640.181	37047.92
640.534	37216.96
640.888	36957.98
641.241	36865.33
641.594	37030.52
641.947	37086.79
642.301	36852.22
642.654	37089.28
643.007	37090.18
643.36	37123.18
643.713	37257.86
644.066	37341.93
644.419	36989.85
644.771	36545.34
645.124	36227.38
645.477	36181.05
645.83	35997.33
646.182	36000.04
646.535	36068.06
646.888	36339.02
647.24	36268.28
647.593	36369.98
647.945	36366.59
648.298	36208.85
648.65	36338.79
649.002	36229.64
649.355	36344.67
649.707	36241.84
650.059	36234.61
650.411	36507.15
650.763	36757.31
651.115	37265.77
651.467	37010.64
651.819	37151.65
652.171	37121.37
652.523	37133.8
652.875	36996.63
653.227	36826.46
653.578	37067.81
653.93	37027.81
654.282	37002.95
654.633	36855.61
654.985	37129.28
655.337	36969.06
655.688	37153.01
656.039	37316.39
656.391	36953.24
656.742	37088.83
657.094	37094.48
657.445	37366.56
657.796	37135.38
658.147	37183.51
658.498	37196.62
658.849	37290.18
659.2	37198.2
659.551	37094.02
659.902	37243.63
660.253	37151.88
660.604	37251.99
660.955	37083.63
661.306	37205.43
661.656	37293.12
662.007	37237.3
662.358	37170.41
662.708	37267.58
663.059	37327.92
663.409	37034.14
663.76	37358.2
664.11	37494.24
664.461	37443.62
664.811	37652.43
665.161	37459.21
665.511	37292.21
665.862	37316.62
666.212	37666.89
666.562	37624.18
666.912	37639.55
667.262	37476.61
667.612	37582.83
667.962	37453.34
668.312	37544.18
668.662	37799.32
669.011	37673.44
669.361	37645.65
669.711	37492.43
670.06	37578.08
670.41	37560.91
670.76	37701.01
671.109	37682.94
671.459	37695.14
671.808	37716.16
672.157	37846.77
672.507	37585.54
672.856	37685.65
673.205	37712.54
673.554	37786.66
673.904	37635.93
674.253	37855.59
674.602	37758.87
674.951	37364.07
675.3	37078.21
675.649	37835.93
675.998	37815.81
676.346	37898.75
676.695	37951.18
677.044	37637.29
677.393	37742.37
677.741	37901.01
678.09	37898.07
678.438	37805.42
678.787	37900.11
679.135	37896.49
679.484	37421.25
679.832	37661.24
680.181	37552.77
680.529	37782.37
680.877	37596.38
681.225	37682.26
681.573	37952.99
681.922	37593.45
682.27	37648.59
682.618	37666.66
682.966	37587.8
683.314	37465.09
683.661	37564.97
684.009	37461.92
684.357	37374.47
684.705	37343.28
685.053	37413.79
685.4	37264.64
685.748	37141.26
686.095	37106.68
686.443	37104.65
686.79	37275.71
687.138	37263.29
687.485	37235.94
687.832	37054.25
688.18	37270.07
688.527	37046.57
688.874	37029.39
689.221	36994.14
689.568	36732.9
689.915	36737.88
690.262	36737.88
690.609	36741.04
690.956	36622.85
691.303	36599.8
691.65	36567.03
691.997	36476.64
692.344	36312.58
692.69	36277.77
693.037	36280.71
693.383	36094.05
693.73	36289.07
694.077	36100.83
694.423	36201.39
694.769	36142.19
695.116	36076.65
695.462	35995.97
695.808	35829.65
696.155	35924.56
696.501	35614.97
696.847	35641.41
697.193	35480.73
697.539	35571.13
697.885	35398.02
698.231	35323.9
698.577	35367.52
698.923	35395.54
699.269	35099.73
699.614	35108.99
699.96	35243.23
700.306	35097.02
700.651	34878.04
700.997	34975.66
701.342	34904.93
701.688	34952.39
702.033	34805.72
702.379	34737.7
702.724	34566.63
703.069	34837.36
703.415	34468.56
703.76	34586.97
704.105	34555.11
704.45	34450.93
704.795	34292.06
705.14	34194.89
705.485	34212.29
705.83	34167.77
706.175	34177.94
706.52	34137.72
706.865	33912.87
707.209	34143.37
707.554	33975.69
707.899	33994.22
708.243	33897.95
708.588	33822.47
708.932	33751.06
709.277	33669.93
709.621	33691.4
709.966	33519.2
710.31	33520.79
710.654	33213.67
710.998	33469.26
711.342	33413.9
711.687	33320.56
712.031	33427.45
712.375	33245.54
712.719	33234.01
713.063	33218.65
713.407	33383.16
713.75	33233.79
714.094	33173
714.438	32989.5
714.782	33147.91
715.125	32891.65
715.469	33097.52
715.812	32925.32
716.156	32821.82
716.499	32886.9
716.843	32940.46
717.186	32783.86
717.53	32924.42
717.873	32910.86
718.216	32875.6
718.559	32794.02
718.902	32606.91
719.246	32734.82
719.589	32497.99
719.932	32553.13
720.275	32544.54
720.617	32534.37
720.96	32424.77
721.303	32418.89
721.646	32514.94
721.989	32349.06
722.331	32493.69
722.674	32249.41
723.016	32279.01
723.359	32351.1
723.701	32454.6
724.044	32286.24
724.386	32170.76
724.729	32244.21
725.071	32203.08
725.413	32285.11
725.755	32231.55
726.097	31971.9
726.439	31959.24
726.782	32062.29
727.124	32079.24
727.465	32013.71
727.807	31931
728.149	31783.88
728.491	31777.33
728.833	31935.52
729.175	31836.54
729.516	31834.5
729.858	31735.07
730.199	31667.73
730.541	31765.58
730.882	31573.72
731.224	31865.91
731.565	31665.69
731.906	31647.16
732.248	31732.36
732.589	31630.89
732.93	31540.05
733.271	31611.91
733.612	31636.99
733.953	31724
734.294	31608.97
734.635	31583.66
734.976	31665.47
735.317	31457.11
735.658	31503.66
735.999	31603.32
736.339	31440.61
736.68	31675.86
737.021	31457.11
737.361	31343.22
737.702	31539.82
738.042	31459.37
738.383	31320.84
738.723	31441.29
739.063	31354.74
739.404	31308.87
739.744	31293.05
740.084	31292.82
740.424	31399.03
740.764	31281.75
741.104	31280.84
741.444	31188.87
741.784	31091.02
742.124	31236.33
742.464	31187.29
742.804	31124.69
743.143	31002.21
743.483	31022.32
743.823	31008.31
744.162	30947.52
744.502	31088.31
744.841	30941.42
745.181	31095.76
745.52	31010.79
745.86	31044.47
746.199	31007.18
746.538	30924.24
746.877	30864.58
747.216	31051.47
747.556	30975.54
747.895	30894.87
748.234	30818.26
748.573	30742.1
748.911	30759.95
749.25	30722.44
749.589	30620.97
749.928	30672.05
750.267	30746.62
750.605	30633.4
750.944	30725.15
751.283	30620.97
751.621	30597.7
751.96	30397.03
752.298	30328.78
752.636	30382.56
752.975	30228.22
753.313	30080.65
753.651	30284.49
753.989	30238.61
754.327	30179.63
754.666	29965.4
755.004	29983.25
755.342	30192.29
755.679	30082.91
756.017	29880.2
756.355	29952.52
756.693	30007.43
757.031	29998.39
757.368	29754.1
757.706	29771.28
758.044	29647.89
758.381	29738.74
758.719	29724.5
759.056	29686.08
759.394	29636.37
759.731	29366.77
760.068	29397.73
760.405	29289.03
760.743	29228.69
761.08	29404.96
761.417	29289.26
761.754	29196.15
762.091	29107.57
762.428	29204.74
762.765	29034.8
763.102	29146.89
763.438	28878.42
763.775	28746.22
764.112	28956.16
764.449	28798.2
764.785	28687.69
765.122	28536.06
765.458	28388.26
765.795	28496.06
766.131	28554.59
766.467	28392.78
766.804	28206.12
767.14	28330.87
767.476	28165.67
767.812	28133.36
768.148	28186.69
768.485	27900.37
768.821	27875.28
769.157	27764.78
769.492	27810.88
769.828	27781.05
770.164	27480.04
770.5	27350.78
770.836	27507.61
771.171	27372.25
771.507	27244.57
771.842	27056.77
772.178	27106.94
772.513	27101.97
772.849	26993.27
773.184	26934.97
773.519	27066.49
773.855	26872.15
774.19	26871.92
774.525	26611.81
774.86	26777.46
775.195	26698.59
775.53	26583.34
775.865	26553.06
776.2	26374.53
776.535	26209.34
776.87	26165.27
777.205	26040.3
777.539	26041.43
777.874	26086.18
778.209	25837.15
778.543	25803.02
778.878	25799.18
779.212	25721.67
779.547	25643.7
779.881	25738.39
780.215	25496.14
780.55	25540.43
780.884	25354.67
781.218	25389.25
781.552	25456.36
781.886	25240.55
782.22	25074.91
782.554	25250.72
782.888	25014.12
783.222	24757.63
783.556	24696.38
783.889	24871.52
784.223	24688.25
784.557	24686.67
784.89	24608.93
785.224	24554.02
785.557	24406.45
785.891	24402.83
786.224	24286
786.558	24330.97
786.891	24161.03
787.224	24058.44
787.557	24152.67
787.891	24110.86
788.224	24093.46
788.557	23909.74
788.89	23932.56
789.223	23946.8
789.556	23832.45
789.888	23840.36
790.221	23715.62
790.554	23633.81
790.887	23635.85
791.219	23523.76
791.552	23386.36
791.884	23298.68
792.217	23188.63
792.549	23320.6
792.882	23147.95
793.214	22978.46
793.546	23095.52
793.879	22937.79
794.211	23018.69
794.543	22971.46
794.875	22900.95
795.207	22947.73
795.539	22818.69
795.871	22859.37
796.203	22642.88
796.535	22534.86
796.867	22468.19
797.198	22457.8
797.53	22335.09
797.862	22243.79
798.193	22364.02
798.525	22145.72
798.856	22275.43
799.188	22094.42
799.519	22035.89
799.85	22043.57
800.182	22002.9
800.513	22002.67
800.844	21778.04
801.175	21869.79
801.506	21957.47
801.837	21820.75
802.168	21826.63
802.499	21661.89
802.83	21593.19
803.161	21679.97
803.491	21610.14
803.822	21518.61
804.153	21465.06
804.483	21330.82
804.814	21396.13
805.145	21303.71
805.475	21268
805.805	21220.32
806.136	21163.37
806.466	21096.71
806.796	21139.87
807.126	21029.59
807.457	20928.57
807.787	21066.42
808.117	20871.17
808.447	20907.33
808.777	20821.23
809.107	20896.03
809.436	20789.82
809.766	20722.25
810.096	20684.06
810.426	20757.73
810.755	20731.52
811.085	20741.69
811.414	20575.59
811.744	20475.03
812.073	20426.67
812.403	20520.22
812.732	20385.99
813.061	20407.23
813.39	20279.55
813.719	20253.56
814.049	20461.92
814.378	20278.87
814.707	20222.38
815.036	20162.94
815.365	20129.5
815.693	19995.04
816.022	20014.25
816.351	19946.23
816.68	19902.84
817.008	20066.9
817.337	19779.9
817.665	19794.82
817.994	19956.85
818.322	20002.5
818.651	19841.37
818.979	19828.04
819.307	19853.57
819.636	19810.41
819.964	19713.46
820.292	19880.24
820.62	19849.73
820.948	19698.55
821.276	19947.58
821.604	19729.96
821.932	19699.91
822.259	19782.39
822.587	19715.95
822.915	19842.73
823.243	19898.32
823.57	19773.35
823.898	19789.85
824.225	19841.6
824.553	19750.53
824.88	19777.19
825.207	19809.06
825.535	19812.22
825.862	19904.19
826.189	19844.53
826.516	19931.09
826.843	19993.46
827.17	19842.05
827.497	20024.42
827.824	19954.81
828.151	20026.22
828.478	19919.56
828.805	20043.4
829.131	19897.41
829.458	20072.1
829.785	19930.41
830.111	19971.99
830.438	20094.25
830.764	20070.52
831.09	20076.39
831.417	20032.78
831.743	20161.14
832.069	20191.64
832.395	20131.53
832.722	20198.2
833.048	20069.16
833.374	20143.06
833.7	20030.74
834.026	20205.43
834.351	20328.36
834.677	20329.27
835.003	20218.08
835.329	20171.53
835.654	20253.56
835.98	20132.44
836.306	20068.71
836.631	19989.39
836.956	20145.54
837.282	20090.4
837.607	19991.42
837.932	20000.91
838.258	20025.77
838.583	19935.38
838.908	19825.33
839.233	19983.29
839.558	19950.07
839.883	19891.09
840.208	19887.92
840.533	19853.8
840.858	19922.5
841.182	19875.95
841.507	19859.45
841.832	19754.82
842.156	19800.24
842.481	19818.77
842.805	19764.76
843.13	19745.33
843.454	19763.41
843.778	19644.99
844.103	19662.39
844.427	19601.38
844.751	19670.3
845.075	19499.69
845.399	19502.4
845.723	19424.66
846.047	19508.05
846.371	19305.79
846.695	19362.51
847.019	19332.68
847.343	19335.62
847.666	19160.71
847.99	19145.12
848.313	19077.32
848.637	18871.23
848.96	18911.23
849.284	18774.05
849.607	18758.46
849.931	18709.65
850.254	18570.22
850.577	18459.03
850.9	18378.81
851.223	18462.65
851.546	18429.2
851.869	18233.28
852.192	18292.49
852.515	18160.96
852.838	18044.58
853.161	18113.73
853.483	18068.31
853.806	17905.83
854.129	17904.25
854.451	17784.02
854.774	17906.28
855.096	17839.16
855.419	17830.8
855.741	17845.72
856.063	17743.12
856.385	17759.62
856.708	17700.64
857.03	17605.5
857.352	17666.06
857.674	17586.29
857.996	17528.66
858.318	17414.77
858.64	17373.19
858.961	17376.8
859.283	17313.75
859.605	17254.55
859.926	17397.82
860.248	17259.52
860.57	17208.67
860.891	17194.66
861.212	17212.06
861.534	17142.23
861.855	17010.26
862.176	17108.79
862.498	17075.57
862.819	17052.29
863.14	17008.68
863.461	16974.78
863.782	16965.51
864.103	17020.43
864.424	16840.32
864.745	17030.15
865.065	16894.56
865.386	16846.65
865.707	16931.39
866.027	16955.12
866.348	16940.88
866.668	16834.22
866.989	16801.68
867.309	16692.53
867.63	16831.51
867.95	16749.7
868.27	16729.14
868.59	16812.3
868.91	16837.61
869.23	16766.42
869.55	16732.98
869.87	16712.87
870.19	16581.57
870.51	16663.6
870.83	16733.66
871.15	16618.86
871.469	16672.41
871.789	16747.22
872.109	16687.33
872.428	16570.95
872.748	16731.62
873.067	16562.81
873.386	16619.99
873.706	16509.03
874.025	16440.56
874.344	16435.13
874.663	16495.92
874.982	16454.79
875.301	16442.59
875.62	16469.48
875.939	16427
876.258	16383.61
876.577	16332.54
876.896	16363.5
877.214	16363.04
877.533	16361.46
877.852	16395.13
878.17	16341.58
878.489	16213.67
878.807	16252.76
879.125	16300
879.444	16329.37
879.762	16349.26
880.08	16345.19
880.398	16224.52
880.716	16224.52
881.034	16244.4
881.352	16274.46
881.67	16151.52
881.988	16146.33
882.306	16154.91
882.624	16183.84
882.941	16098.42
883.259	16047.8
883.577	16045.76
883.894	15977.74
884.212	15958.76
884.529	15892.1
884.846	15870.85
885.164	15850.74
885.481	15864.53
885.798	15979.78
886.115	15860.46
886.432	15859.55
886.75	15760.8
887.067	15810.29
887.383	15716.28
887.7	15722.16
888.017	15671.54
888.334	15697.98
888.651	15790.18
888.967	15676.96
889.284	15527.59
889.6	15599
889.917	15392.67
890.233	15564.42
890.55	15388.83
890.866	15391.77
891.182	15379.57
891.498	15335.27
891.815	15349.96
892.131	15345.67
892.447	15372.79
892.763	15265.22
893.079	15189.06
893.395	15175.28
893.71	15153.81
894.026	15136.86
894.342	15080.37
894.657	15062.51
894.973	15029.29
895.289	15049.86
895.604	15070.65
895.92	14881.5
896.235	14803.76
896.55	14885.57
896.865	14814.16
897.181	14714.05
897.496	14764.44
897.811	14672.24
898.126	14635.63
898.441	14619.14
898.756	14604.22
899.071	14557.44
899.386	14495.07
899.7	14341.63
900.015	14347.96
900.33	14250.11
900.644	14286.94
900.959	14332.59
901.273	14222.99
901.588	14204.46
901.902	14168.75
902.216	14173.05
902.531	14107.28
902.845	14076.1
903.159	13990.9
903.473	13986.38
903.787	13888.53
904.101	13889.21
904.415	13869.1
904.729	13840.62
905.042	13750.91
905.356	13667.3
905.67	13693.06
905.984	13559.05
906.297	13641.53
906.611	13536
906.924	13516.34
907.237	13408.55
907.551	13431.14
907.864	13362.9
908.177	13401.31
908.491	13246.52
908.804	13192.73
909.117	13122.68
909.43	13022.12
909.743	13075
910.056	13021.66
910.368	12913.87
910.681	12855.34
910.994	12896.02
911.307	12857.37
911.619	12710.71
911.932	12850.82
912.244	12733.99
912.557	12686.53
912.869	12623.26
913.181	12590.49
913.494	12495.35
913.806	12442.02
914.118	12473.66
914.43	12448.57
914.742	12446.09
915.054	12252.87
915.366	12354.34
915.678	12207.45
915.99	12200.67
916.302	12123.38
916.613	12083.61
916.925	12110.27
917.236	12106.66
917.548	11975.36
917.859	12088.81
918.171	11837.06
918.482	11875.48
918.794	11895.37
919.105	11835.71
919.416	11685.43
919.727	11598.65
920.038	11708.48
920.349	11553.68
920.66	11527.92
920.971	11522.72
921.282	11347.81
921.593	11387.81
921.903	11392.55
922.214	11352.33
922.525	11339.45
922.835	11173.35
923.146	11222.84
923.456	11156.4
923.767	11138.77
924.077	11052.9
924.387	11062.17
924.697	10923.41
925.008	10937.42
925.318	10919.57
925.628	10973.81
925.938	10932.23
926.248	10703.76
926.558	10792.34
926.867	10744.44
927.177	10727.26
927.487	10597.55
927.796	10587.38
928.106	10496.76
928.416	10575.17
928.725	10526.81
929.034	10463.09
929.344	10393.48
929.653	10460.83
929.962	10301.51
930.271	10288.18
930.581	10251.34
930.89	10144.45
931.199	10130.67
931.508	10132.47
931.817	10107.16
932.125	10064.68
932.434	10059.71
932.743	10003.21
933.051	9960.27
933.36	9919.6
933.669	9925.02
933.977	9798.7
934.286	9857.9
934.594	9774.97
934.902	9740.39
935.21	9719.38
935.519	9634.63
935.827	9641.64
936.135	9646.38
936.443	9523.45
936.751	9555.31
937.059	9447.07
937.367	9447.75
937.674	9380.4
937.982	9308.99
938.29	9258.15
938.597	9323
938.905	9200.29
939.213	9170.92
939.52	9197.58
939.827	9268.99
940.135	9052.95
940.442	9063.35
940.749	9110.58
941.056	9122.78
941.363	9049.34
941.67	8993.29
941.977	8956.46
942.284	8930.25
942.591	8925.27
942.898	8800.53
943.205	8857.25
943.511	8717.6
943.818	8776.35
944.125	8704.71
944.431	8672.85
944.738	8640.54
945.044	8640.08
945.35	8532.74
945.657	8462.91
945.963	8506.08
946.269	8466.08
946.575	8428.79
946.881	8374.55
947.187	8339.3
947.493	8338.17
947.799	8212.07
948.105	8225.41
948.41	8128.91
948.716	8135.01
949.022	8118.97
949.327	8146.99
949.633	8030.61
949.938	8073.32
950.244	8040.33
950.549	7957.16
950.854	7912.42
951.16	7921.23
951.465	7874.45
951.77	7838.97
952.075	7812.31
952.38	7863.38
952.685	7789.03
952.99	7781.35
953.294	7776.38
953.599	7655.93
953.904	7659.77
954.209	7601.47
954.513	7609.6
954.818	7462.49
955.122	7513.56
955.426	7510.62
955.731	7507.01
956.035	7426.33
956.339	7389.27
956.643	7324.64
956.948	7302.94
957.252	7282.38
957.556	7280.35
957.86	7242.61
958.163	7219.33
958.467	7170.74
958.771	7230.63
959.075	7214.13
959.378	7128.26
959.682	7163.51
959.985	7046.91
960.289	7061.37
960.592	6989.28
960.896	6984.76
961.199	6925.78
961.502	6907.25
961.805	6845.33
962.108	6791.32
962.411	6852.11
962.714	6756.52
963.017	6737.31
963.32	6778.44
963.623	6752.9
963.926	6722.85
964.228	6744.77
964.531	6677.2
964.833	6651.44
965.136	6570.99
965.438	6543.87
965.741	6563.3
966.043	6554.04
966.345	6472.46
966.648	6436.98
966.95	6415.28
967.252	6370.76
967.554	6347.26
967.856	6320.37
968.158	6275.85
968.46	6265.91
968.761	6237.89
969.063	6221.39
969.365	6132.13
969.666	6160.15
969.968	6096.2
970.269	6151.79
970.571	6112.01
970.872	6082.86
971.174	6007.38
971.475	6021.17
971.776	6016.88
972.077	5979.59
972.378	5984.56
972.679	5938.23
972.98	5940.72
973.281	5923.32
973.582	5869.31
973.883	5829.99
974.183	5851
974.484	5820.04
974.785	5710.67
975.085	5725.13
975.386	5710.44
975.686	5669.31
975.986	5684
976.287	5682.65
976.587	5630.22
976.887	5601.07
977.187	5607.39
977.487	5606.49
977.787	5528.75
978.087	5531.24
978.387	5454.4
978.687	5480.84
978.987	5434.07
979.286	5379.38
979.586	5410.11
979.885	5354.29
980.185	5345.25
980.484	5325.59
980.784	5342.32
981.083	5276.33
981.382	5265.03
981.682	5197.91
981.981	5234.98
982.28	5184.81
982.579	5152.49
982.878	5128.31
983.177	5102.55
983.475	5125.15
983.774	5059.16
984.073	5026.62
984.372	5030.91
984.67	5052.38
984.969	5049.22
985.267	5010.12
985.566	4963.12
985.864	4913.85
986.162	4896.91
986.461	4862.1
986.759	4822.33
987.057	4800.41
987.355	4789.79
987.653	4839.51
987.951	4764.71
988.249	4729.23
988.547	4770.81
988.844	4703.92
989.142	4773.97
989.44	4727.19
989.737	4735.78
990.035	4684.48
990.332	4621.88
990.63	4554.54
990.927	4591.83
991.224	4572.62
991.521	4547.31
991.819	4524.26
992.116	4465.28
992.413	4504.6
992.71	4436.35
993.006	4469.8
993.303	4456.24
993.6	4395.68
993.897	4441.55
994.193	4383.25
994.49	4396.35
994.787	4321.33
995.083	4300.99
995.379	4327.43
995.676	4272.06
995.972	4293.53
996.268	4239.75
996.565	4200.65
996.861	4210.6
997.157	4167.66
997.453	4150.48
997.749	4142.8
998.044	4115.23
998.34	4110.49
998.636	4068
998.932	4006.99
999.227	4013.31
999.523	4000.88
999.818	3970.6
1000.114	4006.76
1000.409	3907.55
1000.704	3882.69
1001	3898.51
1001.295	3848.12
1001.59	3846.76
1001.885	3793.21
1002.18	3811.96
1002.475	3768.8
1002.77	3749.59
1003.065	3736.94
1003.359	3757.5
1003.654	3713.66
1003.949	3682.7
1004.243	3730.16
1004.538	3641.57
1004.832	3627.33
1005.127	3620.55
1005.421	3571.74
1005.715	3579.65
1006.009	3559.09
1006.304	3511.63
1006.598	3512.99
1006.892	3507.11
1007.186	3454.23
1007.48	3485.42
1007.773	3402.26
1008.067	3393.22
1008.361	3436.83
1008.655	3334.69
1008.948	3364.29
1009.242	3322.26
1009.535	3315.25
1009.829	3308.47
1010.122	3272.09
1010.415	3256.04
1010.708	3230.96
1011.001	3181.7
1011.295	3172.2
1011.588	3177.18
1011.881	3143.73
1012.173	3154.13
1012.466	3106.44
1012.759	3094.69
1013.052	3073.22
1013.344	3043.17
1013.637	3063.51
1013.93	3015.6
1014.222	3002.94
1014.514	2993.9
1014.807	2992.77
1015.099	2967.01
1015.391	2940.57
1015.683	2916.39
1015.976	2870.07
1016.268	2873
1016.56	2863.29
1016.851	2866.9
1017.143	2834.59
1017.435	2844.3
1017.727	2760.01
1018.018	2763.4
1018.31	2760.24
1018.602	2758.88
1018.893	2736.96
1019.185	2703.52
1019.476	2651.31
1019.767	2671.65
1020.058	2638.66
1020.35	2614.48
1020.641	2584.42
1020.932	2582.16
1021.223	2555.27
1021.514	2555.72
1021.804	2501.71
1022.095	2504.88
1022.386	2455.84
1022.677	2466.69
1022.967	2465.33
1023.258	2402.73
1023.548	2414.94
1023.839	2329.06
1024.129	2369.97
1024.419	2368.16
1024.709	2362.51
1025	2308.05
1025.29	2326.58
1025.58	2260.14
1025.87	2273.92
1026.16	2240.25
1026.449	2238.9
1026.739	2220.37
1027.029	2209.29
1027.319	2223.76
1027.608	2177.2
1027.898	2170.65
1028.187	2140.14
1028.477	2126.81
1028.766	2113.93
1029.055	2072.57
1029.344	2112.35
1029.634	2078.45
1029.923	2052.23
1030.212	2006.59
1030.501	2003.42
1030.79	2028.73
1031.078	2000.48
1031.367	1963.87
1031.656	1950.32
1031.945	1949.19
1032.233	1914.38
1032.522	1896.98
1032.81	1904.22
1033.099	1885.91
1033.387	1853.82
1033.675	1856.08
1033.963	1849.3
1034.251	1856.08
1034.54	1796.2
1034.828	1808.17
1035.116	1794.16
1035.403	1771.11
1035.691	1768.63
1035.979	1763.43
1036.267	1766.37
1036.554	1736.08
1036.842	1720.72
1037.129	1724.33
1037.417	1697.89
1037.704	1664.45
1037.992	1652.24
1038.279	1658.12
1038.566	1655.86
1038.853	1655.86
1039.14	1655.86
