Data from copper_heatsink_FLMS001491_004.txt Node
Date: Tue Feb 07 10:49:03 GMT 2017
User: dcchb
Spectrometer: FLMS00149
Trigger mode: 0
Integration Time (sec): 2.000000E-2
Scans to average: 10
Electric dark correction enabled: true
Nonlinearity correction enabled: false
Boxcar width: 0
XAxis mode: Wavelengths
Number of Pixels in Spectrum: 2048
>>>>>Begin Spectral Data<<<<<
341.393	3.7
341.776	3.7
342.16	3.7
342.543	-57.54
342.927	-65.68
343.31	-66.58
343.693	-67.26
344.077	-75.39
344.46	-57.09
344.843	-65.22
345.226	-21.61
345.61	-29.29
345.993	-19.58
346.376	-8.73
346.759	0.31
347.142	12.74
347.525	44.15
347.908	54.77
348.291	84.15
348.674	94.09
349.057	120.53
349.44	114.88
349.823	140.87
350.206	167.99
350.588	230.14
350.971	259.29
351.354	253.41
351.737	278.5
352.119	290.02
352.502	317.14
352.884	330.02
353.267	308.55
353.65	344.93
354.032	347.42
354.414	349
354.797	362.79
355.179	342.9
355.562	363.69
355.944	365.27
356.326	362.34
356.709	406.85
357.091	379.96
357.473	398.49
357.855	396.91
358.238	384.48
358.62	382.9
359.002	381.09
359.384	392.39
359.766	381.54
360.148	377.02
360.53	402.33
360.912	406.85
361.294	368.89
361.676	369.79
362.057	389.91
362.439	394.42
362.821	379.06
363.203	384.03
363.584	401.43
363.966	377.25
364.348	354.2
364.729	351.26
365.111	380.41
365.493	380.41
365.874	390.13
366.256	363.92
366.637	387.42
367.019	380.87
367.4	366.18
367.781	371.83
368.163	377.48
368.544	358.04
368.925	379.28
369.306	379.74
369.688	363.01
370.069	379.74
370.45	384.93
370.831	360.08
371.212	378.15
371.593	394.2
371.974	360.98
372.355	390.13
372.736	375.67
373.117	358.04
373.498	390.58
373.879	391.03
374.26	371.6
374.641	365.5
375.021	378.61
375.402	384.03
375.783	383.35
376.163	410.24
376.544	403.92
376.925	415.89
377.305	415.67
377.686	392.39
378.066	419.51
378.447	412.28
378.827	414.31
379.208	407.98
379.588	421.54
379.968	423.35
380.349	415.44
380.729	415.22
381.109	430.36
381.489	414.76
381.87	424.03
382.25	430.81
382.63	444.37
383.01	407.98
383.39	435.1
383.77	424.25
384.15	434.2
384.53	449.79
384.91	446.63
385.29	452.05
385.67	420.41
386.049	436.01
386.429	455.21
386.809	449.11
387.189	455.44
387.568	453.18
387.948	488.89
388.328	451.15
388.707	472.61
389.087	461.54
389.466	483.46
389.846	487.53
390.225	483.01
390.605	473.74
390.984	469.45
391.363	493.86
391.743	485.27
392.122	485.72
392.501	493.18
392.881	504.7
393.26	497.02
393.639	504.7
394.018	499.96
394.397	498.38
394.776	526.62
395.155	516
395.534	509.9
395.913	512.84
396.292	509.9
396.671	533.18
397.05	539.28
397.429	533.63
397.808	537.7
398.186	535.66
398.565	544.48
398.944	559.39
399.323	538.38
399.701	544.25
400.08	568.43
400.458	577.24
400.837	565.72
401.215	571.82
401.594	558.26
401.972	553.52
402.351	575.21
402.729	568.21
403.107	581.09
403.486	585.15
403.864	581.09
404.242	617.24
404.62	591.48
404.999	583.8
405.377	613.63
405.755	621.31
406.133	611.59
406.511	593.06
406.889	628.32
407.267	636.45
407.645	623.35
408.023	651.59
408.401	643.68
408.779	649.56
409.156	649.79
409.534	678.71
409.912	662.21
410.29	680.29
410.667	675.55
411.045	679.84
411.422	709.67
411.8	689.78
412.178	700.86
412.555	707.41
412.933	709.22
413.31	716.9
413.687	711.93
414.065	723.68
414.442	720.29
414.819	746.51
415.197	745.15
415.574	749.9
415.951	740.4
416.328	756
416.705	760.74
417.082	757.13
417.46	756.22
417.837	766.84
418.214	756.68
418.591	791.25
418.967	791.02
419.344	804.13
419.721	828.99
420.098	807.97
420.475	820.63
420.852	814.98
421.228	808.65
421.605	830.12
421.982	823.11
422.358	823.57
422.735	867.63
423.111	859.5
423.488	864.02
423.864	859.5
424.241	888.42
424.617	897.69
424.994	871.02
425.37	893.62
425.746	888.87
426.123	912.38
426.499	903.11
426.875	920.06
427.251	914.19
427.627	955.54
428.003	956.67
428.379	972.04
428.756	969.78
429.132	974.07
429.507	989.21
429.883	1003.9
430.259	1019.27
430.635	1031.02
431.011	1003.45
431.387	1028.53
431.763	1053.84
432.138	1068.08
432.514	1087.51
432.89	1073.28
433.265	1097.68
433.641	1083.67
434.016	1100.85
434.392	1128.42
434.767	1123.22
435.143	1117.8
435.518	1153.95
435.894	1148.08
436.269	1164.35
436.644	1172.03
437.02	1184.46
437.395	1163.67
437.77	1181.52
438.145	1188.08
438.52	1221.3
438.895	1236.89
439.271	1237.11
439.646	1254.06
440.021	1238.24
440.395	1278.24
440.77	1262.2
441.145	1292.25
441.52	1288.41
441.895	1280.28
442.27	1273.72
442.645	1306.72
443.019	1293.84
443.394	1307.85
443.769	1329.09
444.143	1339.26
444.518	1358.69
444.892	1345.13
445.267	1348.52
445.641	1392.36
446.016	1354.63
446.39	1372.7
446.764	1359.82
447.139	1392.36
447.513	1393.27
447.887	1396.43
448.262	1400.27
448.636	1425.13
449.01	1404.79
449.384	1417.67
449.758	1459.71
450.132	1475.75
450.506	1482.53
450.88	1502.64
451.254	1468.97
451.628	1520.27
452.002	1522.98
452.376	1531.57
452.75	1549.2
453.123	1552.81
453.497	1577.67
453.871	1555.07
454.244	1624.9
454.618	1625.13
454.992	1655.18
455.365	1640.04
455.739	1675.29
456.112	1703.54
456.486	1706.48
456.859	1719.14
457.232	1738.12
457.606	1768.4
457.979	1749.42
458.352	1773.15
458.725	1817.66
459.099	1848.62
459.472	1887.04
459.845	1822.64
460.218	1879.36
460.591	1922.07
460.964	1915.51
461.337	1943.54
461.71	1969.3
462.083	1986.93
462.456	2009.3
462.829	1998.68
463.201	2039.13
463.574	2038.68
463.947	2064.66
464.32	2104.44
464.692	2141.95
465.065	2139.69
465.438	2162.51
465.81	2254.04
466.183	2203.87
466.555	2267.37
466.928	2249.97
467.3	2293.58
467.672	2262.62
468.045	2338.55
468.417	2386.46
468.789	2398.44
469.161	2426.91
469.534	2446.12
469.906	2503.75
470.278	2499.91
470.65	2534.03
471.022	2555.5
471.394	2650.64
471.766	2666.68
472.138	2690.18
472.51	2741.93
472.882	2769.05
473.253	2778.77
473.625	2836.39
473.997	2864.64
474.369	2861.48
474.74	2910.29
475.112	2943.74
475.484	3022.6
475.855	3046.56
476.227	3113.22
476.598	3164.52
476.97	3202.49
477.341	3264.41
477.713	3308.92
478.084	3312.99
478.455	3427.11
478.827	3444.74
479.198	3502.14
479.569	3515.25
479.94	3613.78
480.311	3668.69
480.682	3690.84
481.053	3784.17
481.424	3837.72
481.795	3870.72
482.166	3953.65
482.537	4010.83
482.908	4049.02
483.279	4091.73
483.65	4165.17
484.021	4213.53
484.391	4277.49
484.762	4343.02
485.133	4344.83
485.503	4399.74
485.874	4503.24
486.244	4505.05
486.615	4606.52
486.985	4682.22
487.356	4745.5
487.726	4785.5
488.097	4893.52
488.467	4896.45
488.837	4947.53
489.207	5040.86
489.578	5148.42
489.948	5171.47
490.318	5226.61
490.688	5235.2
491.058	5270.68
491.428	5426.16
491.798	5437
492.168	5534.85
492.538	5575.98
492.908	5632.25
493.278	5700.05
493.648	5684.23
494.017	5774.17
494.387	5844.68
494.757	5875.41
495.126	5908.18
495.496	5965.13
495.866	6024.79
496.235	6037.21
496.605	6092.13
496.974	6158.79
497.344	6158.11
497.713	6275.85
498.082	6288.51
498.452	6329.41
498.821	6400.37
499.19	6394.27
499.559	6516.3
499.928	6506.81
500.298	6568.73
500.667	6579.12
501.036	6627.71
501.405	6668.16
501.774	6690.3
502.143	6732.56
502.512	6797.19
502.88	6888.94
503.249	6828.61
503.618	6954.7
503.987	7022.05
504.356	7055.49
504.724	7097.75
505.093	7099.79
505.462	7153.57
505.83	7194.25
506.199	7261.81
506.567	7410.51
506.936	7388.59
507.304	7479.21
507.672	7504.29
508.041	7491.19
508.409	7539.77
508.777	7683.95
509.145	7757.85
509.514	7767.11
509.882	7781.12
510.25	7864.74
510.618	7903.38
510.986	7935.47
511.354	7985.64
511.722	8063.38
512.09	8165.97
512.458	8169.81
512.826	8320.54
513.193	8342.92
513.561	8346.98
513.929	8474.21
514.297	8503.59
514.664	8571.84
515.032	8575.68
515.4	8676.92
515.767	8685.73
516.135	8761.44
516.502	8795.79
516.869	8907.65
517.237	8966.63
517.604	8980.19
517.972	9132.95
518.339	9188.32
518.706	9231.71
519.073	9231.71
519.44	9378.14
519.808	9499.04
520.175	9439.84
520.542	9554.86
520.909	9674.41
521.276	9678.25
521.643	9812.26
522.009	9859.26
522.376	9991.91
522.743	10001.86
523.11	10141.06
523.477	10301.06
523.843	10318.01
524.21	10427.38
524.577	10583.31
524.943	10562.97
525.31	10657.43
525.676	10761.84
526.043	10800.48
526.409	10906.69
526.776	11030.08
527.142	11077.99
527.508	11120.7
527.874	11314.82
528.241	11268.72
528.607	11430.29
528.973	11541.93
529.339	11499.22
529.705	11685.43
530.071	11698.76
530.437	11824.41
530.803	11907.34
531.169	11979.2
531.535	12008.36
531.901	12118.86
532.267	12168.13
532.632	12290.16
532.998	12382.13
533.364	12471.17
533.73	12534.44
534.095	12653.09
534.461	12708.23
534.826	12799.97
535.192	12922.68
535.557	13084.71
535.923	12988.22
536.288	13076.8
536.653	13144.15
537.019	13122.68
537.384	13282
537.749	13386.17
538.114	13434.31
538.479	13500.97
538.845	13546.85
539.21	13634.3
539.575	13782.77
539.94	13799.95
540.305	13949.1
540.67	13975.08
541.034	14126.49
541.399	14187.51
541.764	14262.99
542.129	14303.21
542.494	14326.71
542.858	14506.14
543.223	14484
543.587	14658.68
543.952	14681.51
544.316	14768.96
544.681	14850.09
545.045	14981.61
545.41	15112
545.774	15260.02
546.138	15276.29
546.503	15415.5
546.867	15341.38
547.231	15557.87
547.595	15691.65
547.959	15709.5
548.324	15821.36
548.688	15949.72
549.052	16012.09
549.416	16085.76
549.779	16194.91
550.143	16388.81
550.507	16516.26
550.871	16587.67
551.235	16734.56
551.599	16861.79
551.962	16935.23
552.326	17138.39
552.689	17275.34
553.053	17271.5
553.417	17337.48
553.78	17700.41
554.143	17745.61
554.507	17878.26
554.87	18084.58
555.234	18288.42
555.597	18221.53
555.96	18459.94
556.323	18588.97
556.686	18729.54
557.05	19004.1
557.413	19148.96
557.776	19299.69
558.139	19502.17
558.502	19680.25
558.865	19787.14
559.228	20088.14
559.59	20223.96
559.953	20316.84
560.316	20629.82
560.679	20811.74
561.041	21003.37
561.404	21291.5
561.767	21506.64
562.129	21618.95
562.492	21847.42
562.854	22106.62
563.217	22286.5
563.579	22426.84
563.941	22647.85
564.304	22837.45
564.666	23164.22
565.028	23470.2
565.39	23583.19
565.753	23816.18
566.115	24104.31
566.477	24471.08
566.839	24652.32
567.201	25056.38
567.563	25125.3
567.925	25451.17
568.287	25567.55
568.648	25873.08
569.01	26145.84
569.372	26408.43
569.734	26625.15
570.095	26967.96
570.457	27253.15
570.819	27376.77
571.18	27622.86
571.542	28000.25
571.903	28286.57
572.265	28513.69
572.626	28768.82
572.987	29034.58
573.349	29187.57
573.71	29637.5
574.071	29908.45
574.432	30122.91
574.794	30458.94
575.155	30586.63
575.516	30675.21
575.877	31000.17
576.238	31154.97
576.599	31559.71
576.96	31783.66
577.32	31974.16
577.681	32263.64
578.042	32608.94
578.403	32772.56
578.763	32989.5
579.124	33013.91
579.485	33374.57
579.845	33814.34
580.206	33994.22
580.566	33957.84
580.927	34297.94
581.287	34640.53
581.648	34693.86
582.008	34975.66
582.368	35094.53
582.728	35227.41
583.089	35467.4
583.449	35680.95
583.809	35955.52
584.169	36021.51
584.529	36209.3
584.889	36468.96
585.249	36474.38
585.609	36667.82
585.969	37148.94
586.329	37080.01
586.688	37369.05
587.048	37392.55
587.408	37651.07
587.768	37750.05
588.127	37994.57
588.487	38084.28
588.846	38452.41
589.206	38400.88
589.565	38518.62
589.925	38869.8
590.284	38814.21
590.643	39113.86
591.003	39365.83
591.362	39805.82
591.721	39842.2
592.08	39858.47
592.44	40171.68
592.799	40172.59
593.158	40422.52
593.517	40518.12
593.876	40661.39
594.235	40660.26
594.593	40833.14
594.952	41200.36
595.311	41287.36
595.67	41406.45
596.029	41726.45
596.387	41970.28
596.746	42024.29
597.104	42139.09
597.463	42294.57
597.822	42589.47
598.18	42636.03
598.538	42751.05
598.897	43123.7
599.255	42904.72
599.613	43592.84
599.972	43404.14
600.33	43655.66
600.688	43565.94
601.046	43879.16
601.404	44195.76
601.762	44163.67
602.12	44619.48
602.478	44717.1
602.836	44952.8
603.194	44653.6
603.552	44924.78
603.91	44957.09
604.268	45361.6
604.625	45297.42
604.983	45535.61
605.341	45653.35
605.698	45998.65
606.056	46144.18
606.413	46147.12
606.771	46530.84
607.128	46687.9
607.485	46551.4
607.843	46831.17
608.2	47055.8
608.557	47281.78
608.914	47196.58
609.272	47600.64
609.629	47648.78
609.986	47945.49
610.343	48033.85
610.7	48216.67
611.057	48302.32
611.414	48390
611.771	48533.72
612.127	48726.71
612.484	48881.74
612.841	49056.42
613.198	48920.61
613.554	49067.04
613.911	49418.67
614.267	49581.83
614.624	49579.57
614.98	49820.24
615.337	50019.33
615.693	50107.02
616.05	50138.88
616.406	50428.59
616.762	50291.87
617.118	50422.04
617.475	50471.53
617.831	50726.89
618.187	50841.91
618.543	50924.62
618.899	51122.13
619.255	51260.66
619.611	51255.01
619.967	51403.93
620.323	51650.7
620.678	51444.38
621.034	51633.98
621.39	51719.4
621.746	51740.87
622.101	52223.8
622.457	52065.16
622.812	52153.97
623.168	52392.83
623.523	52373.85
623.879	52511.25
624.234	52311.25
624.589	52622.43
624.945	52698.59
625.3	52732.26
625.655	52775.42
626.01	52944.68
626.365	52983.32
626.72	52998.69
627.075	53095.86
627.43	53193.71
627.785	53118.91
628.14	53312.58
628.495	53350.09
628.85	53385.35
629.205	53274.62
629.559	53513.25
629.914	53363.2
630.269	53563.87
630.623	53506.47
630.978	53565.23
631.332	53683.64
631.687	53770.2
632.041	53720.93
632.396	53835.96
632.75	53737.65
633.104	53935.62
633.459	53821.72
633.813	53770.65
634.167	53922.96
634.521	53932.68
634.875	54029.17
635.229	54069.4
635.583	54027.59
635.937	54089.28
636.291	54167.7
636.645	54178.77
636.999	54082.73
637.352	54319.56
637.706	54113.92
638.06	54386.45
638.413	54315.94
638.767	54321.82
639.121	54465.09
639.474	54313.46
639.828	54385.77
640.181	54512.55
640.534	54466
640.888	54461.48
641.241	54331.09
641.594	54487.69
641.947	54614.24
642.301	54520.01
642.654	54579.44
643.007	54639.1
643.36	54682.04
643.713	54664.86
644.066	54880.22
644.419	54665.99
644.771	54424.64
645.124	54108.49
645.477	54080.7
645.83	53978.78
646.182	54090.41
646.535	54013.58
646.888	54333.57
647.24	54177.87
647.593	54496.05
647.945	54402.72
648.298	54297.19
648.65	54375.83
649.002	54420.12
649.355	54480.46
649.707	54431.65
650.059	54424.87
650.411	54744.41
650.763	54860.56
651.115	55202.48
651.467	55116.38
651.819	55223.27
652.171	55192.08
652.523	55206.09
652.875	55178.97
653.227	55152.08
653.578	55370.61
653.93	55301.68
654.282	55249.93
654.633	55222.59
654.985	55413.09
655.337	55423.03
655.688	55551.17
656.039	55532.64
656.391	55392.53
656.742	55426.65
657.094	55502.13
657.445	55653.54
657.796	55575.35
658.147	55615.35
658.498	55646.98
658.849	55777.83
659.2	55700.32
659.551	55720.88
659.902	55877.03
660.253	55788.22
660.604	55803.36
660.955	55712.29
661.306	55905.96
661.656	55969.46
662.007	55919.74
662.358	55915.22
662.708	55949.12
663.059	55986.86
663.409	55814.66
663.76	56135.33
664.11	56077.03
664.461	56218.95
664.811	56169.68
665.161	56256.01
665.511	56180.3
665.862	56307.53
666.212	56366.29
666.562	56374.65
666.912	56358.38
667.262	56392.95
667.612	56440.41
667.962	56437.7
668.312	56419.17
668.662	56561.99
669.011	56518.15
669.361	56547.98
669.711	56574.87
670.06	56520.86
670.41	56488.54
670.76	56565.6
671.109	56637.47
671.459	56655.77
671.808	56605.83
672.157	56726.95
672.507	56608.31
672.856	56639.5
673.205	56706.16
673.554	56825.26
673.904	56722.21
674.253	56821.19
674.602	56795.2
674.951	56444.25
675.3	56405.61
675.649	56851.7
675.998	56870
676.346	56938.7
676.695	57070.22
677.044	56929.66
677.393	57032.94
677.741	57037.23
678.09	56937.57
678.438	56924.01
678.787	57028.19
679.135	57042.65
679.484	56848.76
679.832	56966.27
680.181	56842.43
680.529	56875.2
680.877	56864.58
681.225	56889.44
681.573	57171.46
681.922	56969.66
682.27	56900.96
682.618	56979.38
682.966	56931.24
683.314	57015.08
683.661	56961.75
684.009	56929.44
684.357	56822.32
684.705	56901.64
685.053	56964.69
685.4	56932.37
685.748	56868.42
686.095	56920.17
686.443	56940.96
686.79	56868.42
687.138	56844.01
687.485	56872.71
687.832	56838.82
688.18	56881.53
688.527	56815.31
688.874	56827.97
689.221	56737.8
689.568	56709.78
689.915	56627.07
690.262	56583.46
690.609	56568.54
690.956	56570.57
691.303	56705.49
691.65	56538.26
691.997	56565.6
692.344	56463.23
692.69	56356.57
693.037	56512.72
693.383	56247.87
693.73	56428.21
694.077	56303.24
694.423	56346.63
694.769	56272.73
695.116	56211.49
695.462	56171.04
695.808	56033.41
696.155	56136.01
696.501	56004.94
696.847	56033.41
697.193	55888.56
697.539	55909.35
697.885	55697.38
698.231	55688.34
698.577	55818.73
698.923	55812.4
699.269	55727.43
699.614	55609.02
699.96	55573.31
700.306	55621.22
700.651	55555.23
700.997	55569.02
701.342	55520.21
701.688	55528.34
702.033	55457.84
702.379	55413.32
702.724	55361.34
703.069	55586.19
703.415	55224.62
703.76	55236.15
704.105	55176.26
704.45	55207.67
704.795	55020.78
705.14	55054.23
705.485	55029.37
705.83	54992.09
706.175	55064.17
706.52	55086.77
706.865	54875.7
707.209	54950.05
707.554	54839.77
707.899	54925.65
708.243	54857.85
708.588	54812.88
708.932	54735.59
709.277	54718.42
709.621	54860.11
709.966	54633
710.31	54808.81
710.654	54476.84
710.998	54457.18
711.342	54551.42
711.687	54508.93
712.031	54460.8
712.375	54294.48
712.719	54371.99
713.063	54350.52
713.407	54442.27
713.75	54310.07
714.094	54204.76
714.438	54332.44
714.782	54312.55
715.125	54144.88
715.469	54171.09
715.812	54047.93
716.156	54055.84
716.499	54173.8
716.843	54154.82
717.186	53998.89
717.53	54185.78
717.873	54183.07
718.216	53920.93
718.559	53860.82
718.902	53790.08
719.246	54028.04
719.589	53958.44
719.932	53801.83
720.275	53743.3
720.617	53794.38
720.96	53790.31
721.303	53783.98
721.646	53764.32
721.989	53517.32
722.331	53834.83
722.674	53661.27
723.016	53636.19
723.359	53681.16
723.701	53645.68
724.044	53479.36
724.386	53404.56
724.729	53629.41
725.071	53560.03
725.413	53495.4
725.755	53557.32
726.097	53396.19
726.439	53226.48
726.782	53360.94
727.124	53451.33
727.465	53328.85
727.807	53385.8
728.149	53213.15
728.491	53293.82
728.833	53337.44
729.175	53134.73
729.516	53233.94
729.858	53085.47
730.199	53268.74
730.541	53094.73
730.882	53208.18
731.224	53301.96
731.565	53091.12
731.906	53186.93
732.248	53269.19
732.589	53023.55
732.93	53047.28
733.271	53069.65
733.612	53127.05
733.953	53092.47
734.294	53014.51
734.635	53011.57
734.976	53175.86
735.317	52869.66
735.658	52904.91
735.999	53039.82
736.339	52953.27
736.68	53056.54
737.021	52963.44
737.361	52843.22
737.702	53020.39
738.042	52920.73
738.383	52925.47
738.723	52886.6
739.063	52829.43
739.404	52852.48
739.744	52770.9
740.084	52658.36
740.424	52816.78
740.764	52664.24
741.104	52808.19
741.444	52625.14
741.784	52595.76
742.124	52628.08
742.464	52561.64
742.804	52510.57
743.143	52464.24
743.483	52555.09
743.823	52426.73
744.162	52391.25
744.502	52531.13
744.841	52365.04
745.181	52556.44
745.52	52429.67
745.86	52478.7
746.199	52391.93
746.538	52305.6
746.877	52432.38
747.216	52395.54
747.556	52426.5
747.895	52371.14
748.234	52298.82
748.573	52214.53
748.911	52248.2
749.25	52238.94
749.589	52031.94
749.928	52172.05
750.267	52189.67
750.605	52159.39
750.944	52052.73
751.283	51955.55
751.621	52114.65
751.96	51824.71
752.298	51804.6
752.636	51828.55
752.975	51696.13
753.313	51545.62
753.651	51684.15
753.989	51617.03
754.327	51603.02
754.666	51484.83
755.004	51486.41
755.342	51490.03
755.679	51538.62
756.017	51384.04
756.355	51445.96
756.693	51301.56
757.031	51449.13
757.368	51134.79
757.706	51120.1
758.044	51037.84
758.381	51143.6
758.719	50916.26
759.056	50884.17
759.394	50814.79
759.731	50735.47
760.068	50702.03
760.405	50455.03
760.743	50589.04
761.08	50524.63
761.417	50491.41
761.754	50429.49
762.091	50334.58
762.428	50208.93
762.765	50081.03
763.102	50334.13
763.438	50012.1
763.775	49836.74
764.112	49957.87
764.449	49939.11
764.785	49599.46
765.122	49580.02
765.458	49413.93
765.795	49520.82
766.131	49486.69
766.467	49398.56
766.804	49251.9
767.14	48998.12
767.476	49060.04
767.812	49057.78
768.148	49107.04
768.485	48824.79
768.821	48737.11
769.157	48666.83
769.492	48637.68
769.828	48434.52
770.164	48125.37
770.5	48109.1
770.836	48275.65
771.171	47989.56
771.507	47967.41
771.842	47698.49
772.178	47649
772.513	47545.95
772.849	47425.28
773.184	47300.99
773.519	47322
773.855	47126.53
774.19	47093.08
774.525	47026.19
774.86	46872.98
775.195	46792.3
775.53	46675.47
775.865	46620.1
776.2	46233.22
776.535	46171.53
776.87	46248.36
777.205	45959.78
777.539	45637.75
777.874	45896.51
778.209	45721.14
778.543	45541.26
778.878	45344.66
779.212	45536.06
779.547	45183.76
779.881	45434.6
780.215	45091.55
780.55	45107.6
780.884	44833.93
781.218	44839.13
781.552	44878.9
781.886	44527.95
782.22	44365.02
782.554	44482.3
782.888	44197.34
783.222	44082.77
783.556	43859.27
783.889	43700.18
784.223	43446.4
784.557	43355.33
784.89	43484.14
785.224	43277.82
785.557	43083.25
785.891	43013.87
786.224	42939.97
786.558	43012.97
786.891	42643.48
787.224	42505.63
787.557	42540.66
787.891	42505.86
788.224	42465.41
788.557	42512.64
788.89	42253.44
789.223	42221.35
789.556	41900
789.888	41944.97
790.221	41819.78
790.554	41493.46
790.887	41459.11
791.219	41573.23
791.552	41279.45
791.884	41129.4
792.217	40998.78
792.549	40966.24
792.882	40714.49
793.214	40815.06
793.546	40789.29
793.879	40608.96
794.211	40350.44
794.543	40513.37
794.875	40318.12
795.207	40448.96
795.539	39954.74
795.871	40159.93
796.203	39719.04
796.535	39562.89
796.867	39426.62
797.198	39644.01
797.53	39597.01
797.862	39279.73
798.193	39482.89
798.525	39197.47
798.856	39247.19
799.188	38750.03
799.519	38788.22
799.85	38590.71
800.182	38705.96
800.513	38750.48
800.844	38300.32
801.175	38559.3
801.506	38381.9
801.837	38101
802.168	38074.34
802.499	37952.08
802.83	37905.08
803.161	37864.85
803.491	37963.38
803.822	38036.15
804.153	37808.13
804.483	37491.53
804.814	37457.86
805.145	37437.29
805.475	37349.39
805.805	37194.14
806.136	37278.65
806.466	37074.59
806.796	37106.23
807.126	36948.94
807.457	36875.27
807.787	36917.76
808.117	36827.82
808.447	36496.98
808.777	36717.09
809.107	36576.75
809.436	36441.16
809.766	36355.29
810.096	36119.14
810.426	36130.43
810.755	36228.28
811.085	36027.16
811.414	36039.59
811.744	35749.2
812.073	35665.81
812.403	35682.54
812.732	35540.62
813.061	35403.67
813.39	35234.41
813.719	35338.82
814.049	35614.29
814.378	35568.19
814.707	35348.31
815.036	35060.41
815.365	35145.83
815.693	34757.59
816.022	34879.62
816.351	34803.01
816.68	34590.59
817.008	34847.3
817.337	34426.07
817.665	34478.5
817.994	34589.01
818.322	34487.99
818.651	34410.93
818.979	34243.7
819.307	34372.74
819.636	34208.9
819.964	34077.15
820.292	34205.74
820.62	34330.26
820.948	34183.37
821.276	34340.88
821.604	34271.05
821.932	34355.34
822.259	34406.64
822.587	34243.48
822.915	34229.69
823.243	34443.02
823.57	34240.77
823.898	34442.79
824.225	34278.73
824.553	34222.46
824.88	34250.48
825.207	34159.86
825.535	34044.39
825.862	34168.9
826.189	34031.28
826.516	34231.5
826.843	34372.06
827.17	34215
827.497	34407.09
827.824	34286.41
828.151	34419.52
828.478	34428.11
828.805	34529.8
829.131	34366.41
829.458	34389.46
829.785	34249.58
830.111	34282.57
830.438	34483.47
830.764	34427.2
831.09	34504.26
831.417	34191.5
831.743	34249.35
832.069	34549.01
832.395	34234.21
832.722	34334.1
833.048	34260.2
833.374	34358.28
833.7	34231.05
834.026	34198.73
834.351	34402.12
834.677	34266.08
835.003	34437.82
835.329	34409.8
835.654	34310.82
835.98	34146.31
836.306	34306.3
836.631	33976.82
836.956	34220.65
837.282	34283.7
837.607	34247.32
837.932	34130.26
838.258	34075.35
838.583	33997.38
838.908	33801.46
839.233	33967.1
839.558	33939.31
839.883	33745.86
840.208	33683.72
840.533	33610.27
840.858	33681.01
841.182	33585.19
841.507	33579.31
841.832	33529.82
842.156	33455.48
842.481	33430.62
842.805	33363.73
843.13	33498.41
843.454	33390.39
843.778	33258.42
844.103	33342.71
844.427	33188.82
844.751	33291.19
845.075	33051.87
845.399	32823.18
845.723	32657.76
846.047	32848.26
846.371	32583.86
846.695	32665.67
847.019	32291.67
847.343	32255.96
847.666	32112.69
847.99	32037.43
848.313	32070.2
848.637	31848.96
848.96	31873.37
849.284	31694.62
849.607	31505.7
849.931	31425.47
850.254	31144.12
850.577	31043.34
850.9	30950.23
851.223	30874.08
851.546	30779.39
851.869	30725.38
852.192	30674.31
852.515	30258.72
852.838	30306.86
853.161	30388.21
853.483	30246.75
853.806	30258.05
854.129	30139.63
854.451	29989.58
854.774	29886.98
855.096	29828.23
855.419	29840.2
855.741	29668.68
856.063	29397.73
856.385	29385.98
856.708	29403.83
857.03	29263.95
857.352	29292.42
857.674	29266.21
857.996	29211.75
858.318	29068.92
858.64	29106.66
858.961	28929.72
859.283	28862.15
859.605	28661.48
859.926	28775.37
860.248	28649.73
860.57	28555.94
860.891	28623.06
861.212	28455.83
861.534	28377.19
861.855	28369.06
862.176	28467.58
862.498	28258.55
862.819	28157.54
863.14	28064.66
863.461	28109.18
863.782	28063.08
864.103	28115.5
864.424	28086.58
864.745	28077.31
865.065	27953.02
865.386	27934.94
865.707	27872.8
866.027	27963.19
866.348	27985.11
866.668	27907.6
866.989	27826.92
867.309	27605.69
867.63	27576.99
867.95	27535.63
868.27	27444.33
868.59	27627.61
868.91	27609.3
869.23	27518.01
869.55	27503.77
869.87	27375.18
870.19	27393.04
870.51	27408.86
870.83	27264
871.15	27290.89
871.469	27181.29
871.789	27318.01
872.109	27318.91
872.428	27173.83
872.748	27148.52
873.067	27116.89
873.386	27153.72
873.706	27153.72
874.025	26844.8
874.344	26825.82
874.663	26960.05
874.982	26843.45
875.301	26753.28
875.62	26654.3
875.939	26621.76
876.258	26779.49
876.577	26664.69
876.896	26492.5
877.214	26534.75
877.533	26569.33
877.852	26558.48
878.17	26362.78
878.489	26430.8
878.807	26469.67
879.125	26526.84
879.444	26537.01
879.762	26398.49
880.08	26467.19
880.398	26376.11
880.716	26282.11
881.034	26356.45
881.352	26212.95
881.67	26156.01
881.988	26216.34
882.306	26115.78
882.624	26113.97
882.941	26084.6
883.259	26007.99
883.577	25901.78
883.894	25825.39
884.212	25777.71
884.529	25801.44
884.846	25808.67
885.164	25739.75
885.481	25501.11
885.798	25529.58
886.115	25313.77
886.432	25420.43
886.75	25344.28
887.067	25395.58
887.383	25191.29
887.7	25142.25
888.017	25138.86
888.334	25194.45
888.651	25005.53
888.967	25099.54
889.284	25023.61
889.6	24981.57
889.917	24655.93
890.233	24799.66
890.55	24641.02
890.866	24672.66
891.182	24597.18
891.498	24545.43
891.815	24415.26
892.131	24420.69
892.447	24322.84
892.763	24289.39
893.079	24164.65
893.395	24015.5
893.71	24163.52
894.026	24062.73
894.342	23914.03
894.657	23933.47
894.973	23855.28
895.289	23804.2
895.604	23766.47
895.92	23420.03
896.235	23428.17
896.55	23511.33
896.865	23434.27
897.181	23330.32
897.496	23322.18
897.811	23183.2
898.126	23068.4
898.441	23048.74
898.756	22922.65
899.071	22788.41
899.386	22768.53
899.7	22491.92
900.015	22446.73
900.33	22441.08
900.644	22476.1
900.959	22476.1
901.273	22354.07
901.588	22220.52
901.902	22211.03
902.216	22117.47
902.531	22105.94
902.845	22012.16
903.159	21933.52
903.473	21792.28
903.787	21702.34
904.101	21658.05
904.415	21736.24
904.729	21623.7
905.042	21486.75
905.356	21500.08
905.67	21310.03
905.984	21386.42
906.297	21415.11
906.611	21086.08
906.924	21121.34
907.237	21043.37
907.551	21039.98
907.864	20845.19
908.177	20679.54
908.491	20670.5
908.804	20658.3
909.117	20561.58
909.43	20394.35
909.743	20208.82
910.056	20192.55
910.368	20165.43
910.681	20106.9
910.994	20035.04
911.307	19981.03
911.619	19810.64
911.932	19808.38
912.244	19753.46
912.557	19653.35
912.869	19473.47
913.181	19351.89
913.494	19446.58
913.806	19160.48
914.118	19129.75
914.43	19172.46
914.742	19156.64
915.054	19025.12
915.366	18917.33
915.678	18783.09
915.99	18790.1
916.302	18582.2
916.613	18529.09
916.925	18649.76
917.236	18628.07
917.548	18359.6
917.859	18434.18
918.171	18271.69
918.482	18258.81
918.794	18096.56
919.105	18124.58
919.416	17980.18
919.727	17910.12
920.038	17963.68
920.349	17814.98
920.66	17693.86
920.971	17698.83
921.282	17637.36
921.593	17366.63
921.903	17304.71
922.214	17389.68
922.525	17297.03
922.835	17266.07
923.146	17159.63
923.456	17077.15
923.767	16904.73
924.077	16834.22
924.387	16693.43
924.697	16694.79
925.008	16694.11
925.318	16558.29
925.628	16558.29
925.938	16458.64
926.248	16452.76
926.558	16365.53
926.867	16408.69
927.177	16303.16
927.487	16180.68
927.796	16039.44
928.106	16044.41
928.416	15864.07
928.725	15976.61
929.034	15678.32
929.344	15868.59
929.653	15747.69
929.962	15661.14
930.271	15682.61
930.581	15613.46
930.89	15378.66
931.199	15319
931.508	15189.52
931.817	15211.89
932.125	15146.81
932.434	15050.99
932.743	14912.24
933.051	14866.36
933.36	14885.34
933.669	14771.9
933.977	14723.77
934.286	14769.41
934.594	14644.22
934.902	14620.94
935.21	14551.79
935.519	14488.29
935.827	14396.09
936.135	14352.7
936.443	14222.76
936.751	14147.96
937.059	14128.3
937.367	14054.86
937.674	14039.04
937.982	13988.64
938.29	13844.69
938.597	13876.33
938.905	13698.26
939.213	13715.66
939.52	13574.87
939.827	13632.95
940.135	13559.28
940.442	13497.81
940.749	13444.48
941.056	13499.62
941.363	13292.62
941.67	13340.98
941.977	13211.71
942.284	13228.21
942.591	13228.44
942.898	13088.33
943.205	13012.85
943.511	12891.05
943.818	12832.97
944.125	12759.75
944.431	12727.89
944.738	12717.94
945.044	12741.9
945.35	12624.39
945.657	12491.28
945.963	12490.38
946.269	12411.51
946.575	12408.12
946.881	12252.87
947.187	12250.38
947.493	12176.04
947.799	12158.86
948.105	12052.65
948.41	11955.93
948.716	12145.3
949.022	11968.81
949.327	11884.52
949.633	11800.45
949.938	11760.91
950.244	11693.56
950.549	11654.02
950.854	11584.86
951.16	11522.49
951.465	11402.04
951.77	11412.44
952.075	11382.84
952.38	11293.57
952.685	11368.6
952.99	11278.43
953.294	11163.18
953.599	11095.16
953.904	11054.48
954.209	10947.82
954.513	10967.03
954.818	10890.87
955.122	10859.01
955.426	10918.22
955.731	10796.86
956.035	10721.61
956.339	10648.39
956.643	10667.83
956.948	10578.11
957.252	10490.66
957.556	10541.5
957.86	10512.12
958.163	10520.26
958.467	10421.73
958.771	10365.91
959.075	10371.34
959.378	10319.81
959.682	10273.26
959.985	10135.64
960.289	10166.6
960.592	10141.96
960.896	10059.71
961.199	9988.3
961.502	9976.32
961.805	9862.65
962.108	9883.67
962.411	9792.82
962.714	9701.07
963.017	9614.75
963.32	9778.13
963.623	9691.81
963.926	9662.66
964.228	9575.65
964.531	9620.62
964.833	9549.89
965.136	9449.78
965.438	9437.8
965.741	9353.74
966.043	9327.98
966.345	9297.47
966.648	9294.53
966.95	9173.63
967.252	9169.79
967.554	9119.39
967.856	9069.9
968.158	8937.48
968.46	8946.29
968.761	8924.37
969.063	8897.48
969.365	8869.68
969.666	8816.58
969.968	8636.47
970.269	8644.6
970.571	8662
970.872	8675.56
971.174	8611.61
971.475	8568.67
971.776	8521.22
972.077	8528.9
972.378	8508.79
972.679	8419.07
972.98	8377.04
973.281	8323.48
973.582	8338.17
973.883	8266.76
974.183	8182.69
974.484	8236.03
974.785	8161.23
975.085	8163.94
975.386	8131.85
975.686	8041.23
975.986	7981.12
976.287	7949.48
976.587	7907
976.887	7964.62
977.187	7870.61
977.487	7825.19
977.787	7792.42
978.087	7770.5
978.387	7733.89
978.687	7683.95
978.987	7654.8
979.286	7546.1
979.586	7568.25
979.885	7531.19
980.185	7533.45
980.484	7459.78
980.784	7415.71
981.083	7373.9
981.382	7365.99
981.682	7344.75
981.981	7339.78
982.28	7262.04
982.579	7227.69
982.878	7219.56
983.177	7134.36
983.475	7086.23
983.774	6999.9
984.073	6962.61
984.372	6941.37
984.67	6963.74
984.969	6952.22
985.267	6897.98
985.566	6825.67
985.864	6847.59
986.162	6815.27
986.461	6730.98
986.759	6735.27
987.057	6680.14
987.355	6603.98
987.653	6575.73
987.951	6561.04
988.249	6545.9
988.547	6531.21
988.844	6479.01
989.142	6516.52
989.44	6422.51
989.737	6452.57
990.035	6385
990.332	6364.21
990.63	6332.12
990.927	6373.02
991.224	6279.69
991.521	6217.32
991.819	6261.16
992.116	6216.19
992.413	6140.26
992.71	6121.96
993.006	6086.93
993.303	5992.92
993.6	6008.06
993.897	5978.23
994.193	5987.72
994.49	5942.3
994.787	5921.51
995.083	5898.46
995.379	5926.48
995.676	5859.82
995.972	5829.31
996.268	5757
996.565	5674.51
996.861	5670.44
997.157	5636.32
997.453	5618.24
997.749	5619.37
998.044	5558.81
998.34	5540.05
998.636	5511.13
998.932	5475.87
999.227	5461.64
999.523	5445.82
999.818	5333.28
1000.114	5287.63
1000.409	5297.35
1000.704	5243.56
1001	5255.31
1001.295	5130.57
1001.59	5131.48
1001.885	5187.74
1002.18	5090.35
1002.475	5107.3
1002.77	5083.34
1003.065	5020.52
1003.359	5047.86
1003.654	5028.2
1003.949	4926.28
1004.243	4944.59
1004.538	4884.25
1004.832	4823.46
1005.127	4843.57
1005.421	4764.48
1005.715	4708.44
1006.009	4702.56
1006.304	4700.75
1006.598	4637.25
1006.892	4663.69
1007.186	4643.8
1007.48	4638.38
1007.773	4558.61
1008.067	4533.75
1008.361	4459.85
1008.655	4519.29
1008.948	4452.17
1009.242	4411.27
1009.535	4391.16
1009.829	4392.96
1010.122	4349.8
1010.415	4291.27
1010.708	4297.15
1011.001	4248.79
1011.295	4253.76
1011.588	4192.29
1011.881	4131.05
1012.173	4141.67
1012.466	4153.65
1012.759	4070.49
1013.052	4080.2
1013.344	4036.14
1013.637	4056.48
1013.93	3983.03
1014.222	3980.77
1014.514	3935.12
1014.807	3937.16
1015.099	3879.3
1015.391	3863.71
1015.683	3840.21
1015.976	3814.45
1016.268	3787.1
1016.56	3774.9
1016.851	3700.33
1017.143	3690.38
1017.435	3668.46
1017.727	3666.88
1018.018	3580.56
1018.31	3589.37
1018.602	3546.21
1018.893	3529.26
1019.185	3520.9
1019.476	3495.13
1019.767	3481.58
1020.058	3444.97
1020.35	3401.13
1020.641	3358.41
1020.932	3320.9
1021.223	3317.29
1021.514	3296.5
1021.804	3279.09
1022.095	3300.11
1022.386	3231.41
1022.677	3209.72
1022.967	3174.01
1023.258	3146.44
1023.548	3146.67
1023.839	3063.28
1024.129	3120.91
1024.419	3044.52
1024.709	3039.55
1025	3010.63
1025.29	2982.83
1025.58	2932.66
1025.87	2962.72
1026.16	2914.13
1026.449	2857.86
1026.739	2845.21
1027.029	2833.23
1027.319	2808.37
1027.608	2820.12
1027.898	2764.76
1028.187	2747.36
1028.477	2734.02
1028.766	2696.51
1029.055	2658.77
1029.344	2636.4
1029.634	2662.61
1029.923	2642.05
1030.212	2586.23
1030.501	2573.35
1030.79	2563.63
1031.078	2525.44
1031.367	2538.78
1031.656	2517.31
1031.945	2510.53
1032.233	2490.41
1032.522	2460.13
1032.81	2440.47
1033.099	2438.89
1033.387	2417.65
1033.675	2395.73
1033.963	2380.36
1034.251	2378.1
1034.54	2308.27
1034.828	2305.33
1035.116	2265.34
1035.403	2263.08
1035.691	2262.62
1035.979	2237.31
1036.267	2234.15
1036.554	2192.57
1036.842	2167.03
1037.129	2157.54
1037.417	2178.78
1037.704	2113.25
1037.992	2098.33
1038.279	2082.29
1038.566	2033.48
1038.853	2033.48
1039.14	2033.48
