Data from copper_heatsink_FLMS001491_069.txt Node
Date: Tue Feb 07 10:50:22 GMT 2017
User: dcchb
Spectrometer: FLMS00149
Trigger mode: 0
Integration Time (sec): 2.000000E-2
Scans to average: 10
Electric dark correction enabled: true
Nonlinearity correction enabled: false
Boxcar width: 0
XAxis mode: Wavelengths
Number of Pixels in Spectrum: 2048
>>>>>Begin Spectral Data<<<<<
341.393	-25.21
341.776	-25.21
342.16	-25.21
342.543	-46.68
342.927	-71.09
343.31	-69.96
343.693	-84.64
344.077	-66.11
344.46	-60.46
344.843	-42.84
345.226	-45.1
345.61	-27.92
345.993	-12.78
346.376	-20.01
346.759	1.68
347.142	42.58
347.525	47.33
347.908	66.54
348.291	86.2
348.674	97.72
349.057	87.78
349.44	121.45
349.823	135.01
350.206	175.24
350.588	209.13
350.971	194.9
351.354	219.3
351.737	232.18
352.119	240.32
352.502	252.52
352.884	256.14
353.267	286.19
353.65	313.76
354.032	300.43
354.414	297.04
354.797	303.82
355.179	330.03
355.562	337.27
355.944	308.57
356.326	324.16
356.709	328.68
357.091	330.03
357.473	325.29
357.855	337.94
358.238	317.83
358.62	329.58
359.002	323.03
359.384	319.19
359.766	340.88
360.148	325.74
360.53	350.82
360.912	316.02
361.294	323.03
361.676	323.25
362.057	345.4
362.439	315.34
362.821	342.46
363.203	318.06
363.584	322.35
363.966	324.84
364.348	297.04
364.729	318.96
365.111	330.26
365.493	320.09
365.874	316.02
366.256	307.89
366.637	315.8
367.019	314.67
367.4	307.66
367.781	330.71
368.163	292.29
368.544	332.52
368.925	325.74
369.306	301.33
369.688	306.31
370.069	310.83
370.45	302.69
370.831	310.37
371.212	292.52
371.593	304.72
371.974	311.96
372.355	327.55
372.736	309.7
373.117	318.28
373.498	330.26
373.879	302.69
374.26	303.82
374.641	326.87
375.021	318.28
375.402	329.81
375.783	305.18
376.163	328.45
376.544	322.8
376.925	326.19
377.305	323.48
377.686	318.06
378.066	319.41
378.447	333.42
378.827	312.18
379.208	309.92
379.588	322.35
379.968	344.95
380.349	325.51
380.729	306.53
381.109	344.27
381.489	327.55
381.87	321.22
382.25	320.99
382.63	341.56
383.01	329.58
383.39	329.58
383.77	337.72
384.15	336.14
384.53	332.75
384.91	339.98
385.29	328.23
385.67	343.82
386.049	356.25
386.429	337.94
386.809	370.94
387.189	337.49
387.568	346.08
387.948	344.95
388.328	333.2
388.707	336.81
389.087	356.47
389.466	352.63
389.846	346.76
390.225	353.99
390.605	340.88
390.984	356.93
391.363	364.38
391.743	369.13
392.122	352.63
392.501	365.29
392.881	342.46
393.26	352.86
393.639	374.33
394.018	366.64
394.397	370.94
394.776	382.01
395.155	379.07
395.534	377.04
395.913	375.46
396.292	380.2
396.671	382.91
397.05	357.6
397.429	369.81
397.808	393.08
398.186	373.2
398.565	389.69
398.944	380.43
399.323	378.39
399.701	385.85
400.08	385.17
400.458	387.43
400.837	380.88
401.215	405.29
401.594	394.21
401.972	380.43
402.351	386.98
402.729	392.18
403.107	398.05
403.486	378.85
403.864	408.68
404.242	403.7
404.62	394.66
404.999	412.07
405.377	406.42
405.755	412.52
406.133	400.99
406.511	405.51
406.889	420.2
407.267	414.78
407.645	397.38
408.023	408.68
408.401	438.96
408.779	408.9
409.156	438.28
409.534	429.47
409.912	443.25
410.29	419.75
410.667	420.88
411.045	426.75
411.422	429.24
411.8	437.38
412.178	446.19
412.555	442.12
412.933	448.22
413.31	434.89
413.687	433.31
414.065	445.74
414.442	467.88
414.819	453.65
415.197	449.13
415.574	457.04
415.951	461.33
416.328	455.68
416.705	455.23
417.082	467.43
417.46	475.11
417.837	481.22
418.214	474.89
418.591	471.27
418.967	477.15
419.344	485.96
419.721	475.34
420.098	472.4
420.475	464.49
420.852	512.18
421.228	483.93
421.605	487.09
421.982	480.09
422.358	471.05
422.735	510.14
423.111	507.88
423.488	477.83
423.864	504.27
424.241	499.75
424.617	502.23
424.994	511.95
425.37	521.67
425.746	520.99
426.123	532.97
426.499	515.34
426.875	499.07
427.251	513.76
427.627	522.12
428.003	545.85
428.379	525.28
428.756	521.22
429.132	536.13
429.507	567.32
429.883	540.88
430.259	522.8
430.635	564.6
431.011	552.63
431.387	572.29
431.763	572.51
432.138	554.43
432.514	589.69
432.89	568.9
433.265	562.12
433.641	603.47
434.016	570.48
434.392	585.85
434.767	579.29
435.143	603.02
435.518	607.09
435.894	597.82
436.269	611.61
436.644	608.9
437.02	617.26
437.395	626.98
437.77	619.97
438.145	631.49
438.52	626.07
438.895	610.48
439.271	617.71
439.646	656.35
440.021	658.16
440.395	640.31
440.77	640.99
441.145	642.12
441.52	649.35
441.895	643.7
442.27	669.91
442.645	658.61
443.019	664.94
443.394	673.75
443.769	659.74
444.143	671.95
444.518	671.04
444.892	663.81
445.267	681.89
445.641	707.2
446.016	678.95
446.39	700.65
446.764	692.74
447.139	691.38
447.513	715.56
447.887	719.85
448.262	710.59
448.636	707.65
449.01	718.5
449.384	724.15
449.758	701.32
450.132	732.51
450.506	718.72
450.88	738.61
451.254	742
451.628	740.87
452.002	760.3
452.376	765.73
452.75	780.42
453.123	766.86
453.497	768.21
453.871	765.5
454.244	799.17
454.618	791.49
454.992	796.24
455.365	792.85
455.739	814.31
456.112	805.73
456.486	805.05
456.859	818.16
457.232	828.78
457.606	829.23
457.979	833.75
458.352	844.14
458.725	887.53
459.099	866.06
459.472	850.92
459.845	877.14
460.218	894.31
460.591	896.35
460.964	901.32
461.337	894.09
461.71	937.02
462.083	942.22
462.456	906.29
462.829	942
463.201	935.89
463.574	940.87
463.947	923.46
464.32	958.04
464.692	958.94
465.065	1000.3
465.438	987.42
465.81	1015.67
466.183	999.39
466.555	1011.82
466.928	1037.13
467.3	1028.32
467.672	1061.09
468.045	1094.53
468.417	1073.52
468.789	1068.55
469.161	1095.21
469.534	1077.13
469.906	1118.04
470.278	1136.79
470.65	1123.91
471.022	1144.25
471.394	1176.34
471.766	1135.44
472.138	1165.94
472.51	1212.04
472.882	1226.96
473.253	1236.45
473.625	1243.23
473.997	1262.44
474.369	1241.42
474.74	1295.21
475.112	1277.35
475.484	1335.88
475.855	1325.49
476.227	1335.88
476.598	1371.14
476.97	1380.85
477.341	1402.1
477.713	1415.43
478.084	1444.13
478.455	1469.66
478.827	1477.57
479.198	1508.08
479.569	1540.85
479.94	1527.29
480.311	1570.45
480.682	1589.89
481.053	1620.85
481.424	1658.59
481.795	1654.07
482.166	1664.69
482.537	1713.73
482.908	1725.03
483.279	1753.95
483.65	1762.09
484.021	1812.71
484.391	1822.42
484.762	1810.45
485.133	1855.42
485.503	1855.42
485.874	1887.73
486.244	1936.55
486.615	1973.83
486.985	2000.05
487.356	2048.86
487.726	2017.22
488.097	2070.78
488.467	2092.93
488.837	2127.95
489.207	2155.3
489.578	2179.25
489.948	2193.26
490.318	2197.78
490.688	2239.81
491.058	2280.94
491.428	2284.78
491.798	2302.19
492.168	2302.19
492.538	2327.27
492.908	2366.36
493.278	2433.03
493.648	2428.74
494.017	2436.42
494.387	2480.49
494.757	2471.67
495.126	2541.05
495.496	2529.75
495.866	2590.09
496.235	2581.27
496.605	2616.98
496.974	2619.01
497.344	2650.2
497.713	2651.1
498.082	2671.67
498.452	2699.91
498.821	2699.46
499.19	2741.5
499.559	2744.89
499.928	2756.86
500.298	2758.67
500.667	2831.89
501.036	2830.98
501.405	2850.19
501.774	2863.3
502.143	2911.43
502.512	2902.85
502.88	2911.89
503.249	2933.36
503.618	2981.49
503.987	2991.88
504.356	2998.66
504.724	3028.04
505.093	3040.24
505.462	3025.1
505.83	3112.79
506.199	3091.09
506.567	3129.73
506.936	3105.33
507.304	3166.12
507.672	3181.94
508.041	3244.08
508.409	3223.29
508.777	3233.01
509.145	3299.22
509.514	3335.6
509.882	3337.41
510.25	3322.27
510.618	3380.8
510.986	3370.86
511.354	3421.93
511.722	3441.59
512.09	3511.64
512.458	3487.01
512.826	3455.15
513.193	3491.31
513.561	3539.44
513.929	3598.65
514.297	3617.18
514.664	3647.91
515.032	3682.71
515.4	3696.95
515.767	3673.67
516.135	3745.76
516.502	3712.09
516.869	3818.08
517.237	3820.79
517.604	3815.14
517.972	3820.34
518.339	3890.84
518.706	3882.71
519.073	3914.8
519.44	3910.96
519.808	3968.81
520.175	3958.86
520.542	4054
520.909	4116.37
521.276	4091.97
521.643	4185.98
522.009	4159.99
522.376	4175.81
522.743	4221.68
523.11	4261
523.477	4292.87
523.843	4333.77
524.21	4365.18
524.577	4412.19
524.943	4433.88
525.31	4478.85
525.676	4474.78
526.043	4551.17
526.409	4543.03
526.776	4625.51
527.142	4618.96
527.508	4694.21
527.874	4681.56
528.241	4702.35
528.607	4747.54
528.973	4785.51
529.339	4831.61
529.705	4891.04
530.071	4935.56
530.437	4950.48
530.803	4973.75
531.169	4979.85
531.535	5032.96
531.901	5034.32
532.267	5034.54
532.632	5111.15
532.998	5133.52
533.364	5186.86
533.73	5214.88
534.095	5190.47
534.461	5235.44
534.826	5283.58
535.192	5316.34
535.557	5334.65
535.923	5339.85
536.288	5384.36
536.653	5465.04
537.019	5482.67
537.384	5493.97
537.749	5511.82
538.114	5548.2
538.479	5577.13
538.845	5576.22
539.21	5594.75
539.575	5599.95
539.94	5684.24
540.305	5733.96
540.67	5714.52
541.034	5759.04
541.399	5794.07
541.764	5827.74
542.129	5831.58
542.494	5911.36
542.858	5910.68
543.223	5903.67
543.587	6008.53
543.952	6001.3
544.316	5983.22
544.681	6062.76
545.045	6086.94
545.41	6109.77
545.774	6126.94
546.138	6201.29
546.503	6143.44
546.867	6225.92
547.231	6286.26
547.595	6350.21
547.959	6410.1
548.324	6395.64
548.688	6442.87
549.052	6508.4
549.416	6529.42
549.779	6489.87
550.143	6631.79
550.507	6654.84
550.871	6675.63
551.235	6721.28
551.599	6805.57
551.962	6827.49
552.326	6820.94
552.689	6920.37
553.053	6872.69
553.417	6890.99
553.78	7059.12
554.143	7116.97
554.507	7126.69
554.87	7199.68
555.234	7265.22
555.597	7278.55
555.96	7308.83
556.323	7408.94
556.686	7429.73
557.05	7587.24
557.413	7580.69
557.776	7651.65
558.139	7739.78
558.502	7748.6
558.865	7852.77
559.228	7946.78
559.59	7964.64
559.953	8064.75
560.316	8153.56
560.679	8210.73
561.041	8244.63
561.404	8344.06
561.767	8396.49
562.129	8457.73
562.492	8605.97
562.854	8557.84
563.217	8670.83
563.579	8783.82
563.941	8885.74
564.304	8995.79
564.666	9080.09
565.028	9192.85
565.39	9233.08
565.753	9292.28
566.115	9332.73
566.477	9481.88
566.839	9527.31
567.201	9643.01
567.563	9736.11
567.925	9844.13
568.287	9908.54
568.648	10006.16
569.01	10030.8
569.372	10119.61
569.734	10188.08
570.095	10299.49
570.457	10415.64
570.819	10455.19
571.18	10509.65
571.542	10708.07
571.903	10807.95
572.265	10879.13
572.626	10941.28
572.987	10920.49
573.349	11059.02
573.71	11119.81
574.071	11245
574.432	11396.86
574.794	11455.39
575.155	11556.86
575.516	11487.71
575.877	11647.48
576.238	11736.29
576.599	11834.82
576.96	11875.72
577.32	12002.27
577.681	12094.24
578.042	12105.09
578.403	12178.08
578.763	12253.56
579.124	12371.07
579.485	12419.89
579.845	12500.56
580.206	12569.71
580.566	12620.11
580.927	12605.64
581.287	12660.33
581.648	12766.99
582.008	12832.53
582.368	12908.23
582.728	13018.51
583.089	12953.2
583.449	13056.25
583.809	13130.38
584.169	13172.41
584.529	13238.85
584.889	13322.01
585.249	13338.05
585.609	13289.47
585.969	13565.39
586.329	13467.99
586.688	13539.18
587.048	13582.11
587.408	13547.99
587.768	13696.01
588.127	13656.24
588.487	13750.02
588.846	13832.05
589.206	13831.6
589.565	13849.45
589.925	14010.35
590.284	13991.14
590.643	13970.35
591.003	14108.88
591.362	14185.94
591.721	14164.7
592.08	14229.56
592.44	14170.35
592.799	14268.88
593.158	14357.24
593.517	14353.39
593.876	14481.53
594.235	14434.97
594.593	14486.5
594.952	14509.77
595.311	14501.64
595.67	14592.03
596.029	14744.34
596.387	14792.25
596.746	14785.92
597.104	14699.6
597.463	14737.56
597.822	14830.44
598.18	14882.65
598.538	14875.19
598.897	15063.43
599.255	15018.24
599.613	15205.8
599.972	15155.18
600.33	15263.43
600.688	15213.71
601.046	15332.58
601.404	15334.61
601.762	15345.68
602.12	15469.3
602.478	15495.74
602.836	15468.62
603.194	15519.24
603.552	15574.83
603.91	15493.7
604.268	15639.69
604.625	15693.47
604.983	15759.46
605.341	15771.21
605.698	15814.37
606.056	15864.31
606.413	15966.68
606.771	16028.15
607.128	16012.56
607.485	16050.75
607.843	16031.99
608.2	16247.36
608.557	16297.52
608.914	16127.13
609.272	16249.62
609.629	16290.97
609.986	16380.69
610.343	16423.17
610.7	16608.25
611.057	16400.57
611.414	16550.85
611.771	16541.13
612.127	16746.78
612.484	16666.33
612.841	16796.27
613.198	16790.39
613.554	16786.55
613.911	16944.96
614.267	16920.78
614.624	16920.56
614.98	17014.11
615.337	16984.29
615.693	17104.28
616.05	17054.57
616.406	17245.97
616.762	17083.94
617.118	17172.3
617.475	17193.77
617.831	17401
618.187	17291.17
618.543	17329.13
618.899	17545.63
619.255	17496.59
619.611	17546.3
619.967	17546.53
620.323	17679.63
620.678	17592.86
621.034	17598.28
621.39	17595.79
621.746	17628.34
622.101	17791.72
622.457	17711.72
622.812	17817.71
623.168	17894.32
623.523	17861.32
623.879	17873.98
624.234	17899.06
624.589	17907.2
624.945	17940.42
625.3	18006.86
625.655	18035.78
626.01	17958.27
626.365	18058.83
626.72	17999.85
627.075	17979.74
627.43	18119.4
627.785	18072.62
628.14	18158.49
628.495	18088.89
628.85	18085.5
629.205	18045.73
629.559	18228.32
629.914	18127.31
630.269	18206.17
630.623	18087.98
630.978	18204.59
631.332	18320.75
631.687	18371.59
632.041	18251.37
632.396	18249.11
632.75	18231.71
633.104	18345.83
633.459	18264.93
633.813	18207.53
634.167	18331.59
634.521	18244.14
634.875	18396
635.229	18304.93
635.583	18241.2
635.937	18257.7
636.291	18292.95
636.645	18287.98
636.999	18293.86
637.352	18367.53
637.706	18311.03
638.06	18357.36
638.413	18357.13
638.767	18264.25
639.121	18396
639.474	18265.38
639.828	18379.28
640.181	18366.62
640.534	18456.56
640.888	18358.71
641.241	18287.3
641.594	18386.06
641.947	18497.69
642.301	18372.72
642.654	18442.78
643.007	18470.8
643.36	18442.1
643.713	18384.93
644.066	18406.85
644.419	18317.36
644.771	18176.57
645.124	18051.38
645.477	17874.21
645.83	17924.6
646.182	17881.89
646.535	17901.55
646.888	17939.51
647.24	17913.98
647.593	18012.28
647.945	17962.79
648.298	18002.56
648.65	17931.38
649.002	17930.93
649.355	17955.11
649.707	17859.97
650.059	17884.6
650.411	18095.44
650.763	18169.11
651.115	18489.56
651.467	18372.72
651.819	18410.01
652.171	18322.55
652.523	18381.31
652.875	18292.5
653.227	18235.1
653.578	18446.62
653.93	18302.67
654.282	18208.89
654.633	18297.7
654.985	18327.07
655.337	18350.58
655.688	18348.54
656.039	18460.86
656.391	18410.24
656.742	18320.52
657.094	18393.06
657.445	18487.97
657.796	18428.09
658.147	18411.82
658.498	18374.98
658.849	18446.62
659.2	18445.26
659.551	18342.44
659.902	18463.34
660.253	18442.33
660.604	18480.29
660.955	18372.95
661.306	18572.27
661.656	18365.72
662.007	18467.18
662.358	18438.48
662.708	18562.55
663.059	18535.2
663.409	18446.62
663.76	18441.42
664.11	18510.57
664.461	18579.72
664.811	18651.59
665.161	18529.56
665.511	18608.65
665.862	18553.28
666.212	18668.31
666.562	18741.53
666.912	18596.45
667.262	18638.48
667.612	18623.11
667.962	18687.97
668.312	18619.95
668.662	18717.12
669.011	18645.94
669.361	18715.09
669.711	18716.89
670.06	18775.88
670.41	18706.05
670.76	18693.39
671.109	18739.27
671.459	18711.25
671.808	18699.72
672.157	18657.24
672.507	18592.83
672.856	18675.54
673.205	18836.44
673.554	18753.96
673.904	18788.98
674.253	18839.6
674.602	18804.58
674.951	18519.16
675.3	18511.93
675.649	18786.95
675.998	18876.21
676.346	18849.55
676.695	18870.79
677.044	18702.43
677.393	18855.65
677.741	18860.17
678.09	18791.7
678.438	18706.73
678.787	18775.88
679.135	18871.92
679.484	18749.66
679.832	18865.14
680.181	18792.6
680.529	18847.51
680.877	18611.13
681.225	18741.3
681.573	18786.27
681.922	18751.02
682.27	18698.14
682.618	18713.96
682.966	18845.93
683.314	18745.14
683.661	18630.34
684.009	18601.42
684.357	18607.97
684.705	18572.72
685.053	18711.02
685.4	18616.11
685.748	18498.14
686.095	18543.79
686.443	18497.24
686.79	18440.29
687.138	18614.07
687.485	18542.44
687.832	18494.53
688.18	18566.84
688.527	18487.97
688.874	18468.31
689.221	18381.54
689.568	18471.03
689.915	18390.12
690.262	18364.59
690.609	18307.64
690.956	18229
691.303	18318.49
691.65	18143.58
691.997	18269
692.344	18128.89
692.69	18094.54
693.037	18193.74
693.383	17950.59
693.73	18220.86
694.077	17939.74
694.423	18047.76
694.769	17972.96
695.116	17894.54
695.462	17951.04
695.808	17866.75
696.155	17930.93
696.501	17796.02
696.847	17862.45
697.193	17717.6
697.539	17873.75
697.885	17696.81
698.231	17636.7
698.577	17665.17
698.923	17614.78
699.269	17552.86
699.614	17465.4
699.96	17453.2
700.306	17613.65
700.651	17445.52
700.997	17372.75
701.342	17398.96
701.688	17417.27
702.033	17347.67
702.379	17423.37
702.724	17313.32
703.069	17349.02
703.415	17122.59
703.76	17198.74
704.105	17109.03
704.45	17102.02
704.795	17107.22
705.14	17005.53
705.485	16976.83
705.83	17009.14
706.175	17082.59
706.52	17022.02
706.865	16942.93
707.209	16916.04
707.554	16876.49
707.899	16783.84
708.243	16862.25
708.588	16836.94
708.932	16672.88
709.277	16638.31
709.621	16712.43
709.966	16681.02
710.31	16647.57
710.654	16674.24
710.998	16642.37
711.342	16689.38
711.687	16688.25
712.031	16586.78
712.375	16617.97
712.719	16573.9
713.063	16497.52
713.407	16472.21
713.75	16442.15
714.094	16490.29
714.438	16502.26
714.782	16478.31
715.125	16367.35
715.469	16394.02
715.812	16267.47
716.156	16314.7
716.499	16274.47
716.843	16294.81
717.186	16177.3
717.53	16211.88
717.873	16235.6
718.216	16264.08
718.559	16119
718.902	16030.41
719.246	16203.74
719.589	16089.39
719.932	16074.48
720.275	16008.94
720.617	16082.84
720.96	16035.38
721.303	16038.55
721.646	16168.94
721.989	15972.56
722.331	16130.07
722.674	15985.89
723.016	16024.08
723.359	16019.11
723.701	15990.19
724.044	15890.3
724.386	15823.41
724.729	15759.91
725.071	15870.87
725.413	15932.11
725.755	15881.94
726.097	15853.69
726.439	15745
726.782	15681.95
727.124	15859.12
727.465	15737.54
727.807	15841.26
728.149	15823.86
728.491	15820.25
728.833	15893.01
729.175	15781.38
729.516	15716.07
729.858	15720.36
730.199	15755.84
730.541	15688.5
730.882	15763.75
731.224	15728.05
731.565	15688.5
731.906	15670.87
732.248	15719.01
732.589	15664.55
732.93	15603.3
733.271	15668.61
733.612	15608.05
733.953	15670.42
734.294	15677.43
734.635	15549.75
734.976	15637.2
735.317	15521.95
735.658	15546.58
735.999	15546.58
736.339	15497.09
736.68	15472.91
737.021	15507.49
737.361	15388.85
737.702	15556.3
738.042	15520.37
738.383	15415.51
738.723	15610.08
739.063	15474.72
739.404	15402.18
739.744	15396.53
740.084	15380.71
740.424	15401.73
740.764	15490.31
741.104	15454.83
741.444	15408.06
741.784	15381.84
742.124	15425.46
742.464	15328.06
742.804	15460.26
743.143	15326.93
743.483	15415.29
743.823	15288.96
744.162	15283.99
744.502	15397.21
744.841	15266.14
745.181	15312.69
745.52	15242.18
745.86	15269.98
746.199	15181.39
746.538	15142.07
746.877	15173.03
747.216	15179.36
747.556	15079.25
747.895	15217.1
748.234	15129.64
748.573	14984.34
748.911	15058.91
749.25	15127.61
749.589	15057.1
749.928	15082.41
750.267	15100.72
750.605	15001.06
750.944	14898.46
751.283	14903.44
751.621	14865.02
751.96	14865.92
752.298	14829.54
752.636	14833.16
752.975	14851.46
753.313	14716.55
753.651	14810.56
753.989	14781.63
754.327	14836.77
754.666	14743.67
755.004	14705.47
755.342	14783.89
755.679	14763.33
756.017	14805.81
756.355	14794.06
756.693	14731.91
757.031	14628.64
757.368	14683.33
757.706	14638.81
758.044	14576.66
758.381	14493.05
758.719	14515.42
759.056	14541.41
759.394	14494.86
759.731	14388.42
760.068	14475.65
760.405	14414.86
760.743	14401.3
761.08	14321.3
761.417	14305.71
761.754	14342.09
762.091	14270.68
762.428	14190.01
762.765	14220.52
763.102	14331.93
763.438	14243.11
763.775	14165.6
764.112	14216.67
764.449	14211.02
764.785	14042.44
765.122	14022.1
765.458	13943.01
765.795	13971.48
766.131	13988.66
766.467	13804.71
766.804	13855.78
767.14	13657.37
767.476	13742.56
767.812	13708.89
768.148	13711.38
768.485	13624.15
768.821	13578.5
769.157	13629.8
769.492	13502.79
769.828	13602.68
770.164	13395.23
770.5	13362.91
770.836	13484.04
771.171	13431.61
771.507	13384.38
771.842	13271.84
772.178	13266.64
772.513	13247.66
772.849	13199.98
773.184	13198.17
773.519	13190.49
773.855	13190.49
774.19	13104.16
774.525	13064.84
774.86	13136.48
775.195	13067.1
775.53	12944.39
775.865	12921.57
776.2	12830.04
776.535	12750.5
776.87	12725.19
777.205	12691.74
777.539	12606.55
777.874	12759.99
778.209	12563.84
778.543	12557.06
778.878	12571.52
779.212	12606.32
779.547	12459.66
779.881	12467.57
780.215	12398.19
780.55	12511.86
780.884	12444.97
781.218	12334.46
781.552	12412.2
781.886	12354.8
782.22	12210.85
782.554	12207.91
782.888	12091.98
783.222	12108.26
783.556	12080.23
783.889	11991.42
784.223	11973.12
784.557	11920.46
784.89	11888.15
785.224	11872.1
785.557	11816.96
785.891	11902.61
786.224	11856.74
786.558	11881.59
786.891	11755.72
787.224	11760.02
787.557	11670.3
787.891	11658.55
788.224	11638.89
788.557	11680.02
788.89	11605.67
789.223	11609.29
789.556	11572.68
789.888	11575.61
790.221	11570.87
790.554	11360.48
790.887	11356.18
791.219	11349.86
791.552	11356.41
791.884	11258.11
792.217	11266.24
792.549	11265.79
792.882	11173.82
793.214	11115.51
793.546	11095.17
793.879	11110.09
794.211	11109.64
794.543	11165.23
794.875	11015.85
795.207	11099.69
795.539	11083.42
795.871	10989.19
796.203	10880.04
796.535	10928.17
796.867	10780.38
797.198	10853.15
797.53	10887.27
797.862	10768.63
798.193	10776.31
798.525	10734.96
798.856	10709.2
799.188	10635.98
799.519	10614.74
799.85	10550.33
800.182	10566.6
800.513	10607.28
800.844	10529.54
801.175	10655.41
801.506	10590.78
801.837	10479.6
802.168	10571.12
802.499	10431.69
802.83	10424.91
803.161	10343.1
803.491	10449.77
803.822	10366.83
804.153	10386.04
804.483	10291.35
804.814	10251.58
805.145	10246.84
805.475	10230.56
805.805	10174.52
806.136	10134.52
806.466	10127.74
806.796	10166.84
807.126	10076.22
807.457	10083.45
807.787	10074.86
808.117	10079.16
808.447	10083.45
808.777	9974.53
809.107	9950.12
809.436	9927.52
809.766	9959.39
810.096	9970.68
810.426	9936.11
810.755	9869.9
811.085	9926.62
811.414	9853.63
811.744	9823.12
812.073	9780.41
812.403	9821.54
812.732	9794.64
813.061	9766.17
813.39	9748.54
813.719	9745.83
814.049	9814.3
814.378	9712.16
814.707	9698.15
815.036	9697.02
815.365	9648.66
815.693	9538.15
816.022	9494.31
816.351	9517.14
816.68	9439.62
817.008	9509.45
817.337	9375.22
817.665	9424.26
817.994	9449.57
818.322	9470.13
818.651	9448.44
818.979	9447.53
819.307	9374.77
819.636	9389.91
819.964	9371.38
820.292	9423.13
820.62	9342.23
820.948	9374.09
821.276	9438.04
821.604	9325.96
821.932	9386.07
822.259	9412.28
822.587	9373.41
822.915	9458.16
823.243	9467.87
823.57	9384.48
823.898	9389.46
824.225	9363.47
824.553	9419.29
824.88	9335.67
825.207	9333.19
825.535	9304.04
825.862	9366.63
826.189	9355.33
826.516	9389.91
826.843	9440.75
827.17	9449.34
827.497	9392.62
827.824	9463.8
828.151	9377.71
828.478	9417.03
828.805	9470.36
829.131	9471.94
829.458	9348.33
829.785	9436.01
830.111	9392.85
830.438	9506.52
830.764	9468.78
831.09	9502.45
831.417	9481.66
831.743	9460.87
832.069	9473.97
832.395	9400.3
832.722	9475.78
833.048	9459.29
833.374	9414.77
833.7	9415.22
834.026	9424.71
834.351	9465.84
834.677	9399.4
835.003	9462.22
835.329	9526.18
835.654	9487.08
835.98	9416.8
836.306	9452.96
836.631	9417.03
836.956	9410.7
837.282	9403.47
837.607	9361.43
837.932	9346.29
838.258	9387.87
838.583	9394.88
838.908	9358.95
839.233	9306.75
839.558	9283.24
839.883	9313.53
840.208	9299.29
840.533	9280.08
840.858	9329.35
841.182	9331.38
841.507	9305.39
841.832	9283.24
842.156	9273.3
842.481	9268.1
842.805	9307.2
843.13	9269.46
843.454	9182.46
843.778	9257.93
844.103	9184.49
844.427	9159.63
844.751	9190.59
845.075	9113.98
845.399	9090.03
845.723	9064.49
846.047	9060.43
846.371	9004.61
846.695	8989.92
847.019	8970.26
847.343	8946.76
847.666	8911.73
847.99	8819.98
848.313	8874.22
848.637	8758.51
848.96	8849.36
849.284	8741.56
849.607	8699.08
849.931	8705.18
850.254	8674.22
850.577	8630.83
850.9	8575.92
851.223	8561.91
851.546	8462.25
851.869	8575.47
852.192	8552.42
852.515	8423.15
852.838	8448.01
853.161	8495.69
853.483	8415.47
853.806	8382.93
854.129	8392.65
854.451	8326.43
854.774	8254.12
855.096	8311.29
855.419	8366.43
855.741	8297.51
856.063	8284.85
856.385	8210.96
856.708	8180.67
857.03	8202.14
857.352	8172.77
857.674	8105.87
857.996	8105.87
858.318	8056.38
858.64	8090.51
858.961	8056.16
859.283	8112.65
859.605	7984.52
859.926	8006.89
860.248	7992.66
860.57	7973
860.891	7986.56
861.212	7920.57
861.534	7963.05
861.855	7892.55
862.176	7935.03
862.498	7918.53
862.819	7932.32
863.14	7870.63
863.461	7812.1
863.782	7873.79
864.103	7830.63
864.424	7814.13
864.745	7824.53
865.065	7782.72
865.386	7751.76
865.707	7811.64
866.027	7764.64
866.348	7818.2
866.668	7760.8
866.989	7706.34
867.309	7677.19
867.63	7693.46
867.95	7709.5
868.27	7674.02
868.59	7753.34
868.91	7655.72
869.23	7689.16
869.55	7671.31
869.87	7724.87
870.19	7650.97
870.51	7623.85
870.83	7658.65
871.15	7543.86
871.469	7619.33
871.789	7634.02
872.109	7657.52
872.428	7637.64
872.748	7688.94
873.067	7620.46
873.386	7645.77
873.706	7534.36
874.025	7582.05
874.344	7501.6
874.663	7523.29
874.982	7513.8
875.301	7535.04
875.62	7526.68
875.939	7481.26
876.258	7493.24
876.577	7505.89
876.896	7516.96
877.214	7483.74
877.533	7421.15
877.852	7465.67
878.17	7453.24
878.489	7478.55
878.807	7421.82
879.125	7431.77
879.444	7397.42
879.762	7430.86
880.08	7419.79
880.398	7361.04
880.716	7436.51
881.034	7418.43
881.352	7371.43
881.67	7260.47
881.988	7330.75
882.306	7317.19
882.624	7319.68
882.941	7306.8
883.259	7236.97
883.577	7254.37
883.894	7245.33
884.212	7239
884.529	7246.46
884.846	7246.46
885.164	7172.34
885.481	7208.72
885.798	7246.24
886.115	7166.46
886.432	7158.78
886.75	7178.89
887.067	7196.29
887.383	7082.4
887.7	7098.67
888.017	7076.3
888.334	7097.99
888.651	7121.27
888.967	7001.27
889.284	7066.81
889.6	6957.88
889.917	6961.95
890.233	7019.58
890.55	6919.24
890.866	6980.03
891.182	6858.22
891.498	6905.23
891.815	6909.3
892.131	6842.4
892.447	6832.46
892.763	6863.2
893.079	6854.83
893.395	6824.78
893.71	6867.04
894.026	6786.14
894.342	6793.37
894.657	6698.68
894.973	6769.64
895.289	6738
895.604	6690.77
895.92	6635.18
896.235	6638.79
896.55	6652.58
896.865	6598.12
897.181	6620.04
897.496	6587.5
897.811	6520.38
898.126	6546.59
898.441	6563.77
898.756	6540.49
899.071	6563.77
899.386	6509.53
899.7	6511.34
900.015	6493.49
900.33	6403.77
900.644	6466.37
900.959	6457.56
901.273	6361.06
901.588	6306.83
901.902	6296.43
902.216	6303.66
902.531	6286.04
902.845	6267.5
903.159	6208.75
903.473	6229.54
903.787	6181.86
904.101	6189.77
904.415	6164.68
904.729	6164.23
905.042	6154.06
905.356	6071.8
905.67	6082.2
905.984	6080.62
906.297	6054.85
906.611	6016.21
906.924	6018.92
907.237	5994.74
907.551	5931.69
907.864	5998.59
908.177	5889.21
908.491	5888.08
908.804	5805.14
909.117	5806.73
909.43	5832.94
909.743	5768.76
910.056	5810.34
910.368	5771.47
910.681	5744.13
910.994	5744.35
911.307	5753.17
911.619	5648.54
911.932	5749.78
912.244	5649.67
912.557	5652.38
912.869	5625.26
913.181	5660.06
913.494	5614.64
913.806	5598.6
914.118	5579.39
914.43	5545.94
914.742	5541.42
915.054	5496.45
915.366	5451.71
915.678	5457.36
915.99	5413.74
916.302	5407.64
916.613	5400.18
916.925	5334.42
917.236	5361.99
917.548	5298.49
917.859	5330.35
918.171	5299.85
918.482	5246.97
918.794	5230.02
919.105	5246.74
919.416	5198.15
919.727	5174.65
920.038	5176.23
920.349	5138.04
920.66	5084.48
920.971	5142.11
921.282	5104.82
921.593	5072.96
921.903	5011.94
922.214	5061.66
922.525	5018.5
922.835	5013.53
923.146	4939.63
923.456	4947.31
923.767	4897.6
924.077	4982.34
924.387	4915.45
924.697	4884.72
925.008	4860.08
925.318	4846.3
925.628	4834.1
925.938	4790.93
926.248	4749.58
926.558	4739.86
926.867	4718.84
927.177	4797.94
927.487	4694.66
927.796	4638.62
928.106	4669.81
928.416	4658.06
928.725	4620.32
929.034	4603.37
929.344	4635.91
929.653	4651.28
929.962	4573.76
930.271	4551.84
930.581	4553.2
930.89	4522.47
931.199	4489.47
931.508	4523.37
931.817	4475.46
932.125	4472.52
932.434	4478.4
932.743	4414.22
933.051	4391.62
933.36	4376.93
933.669	4368.8
933.977	4356.82
934.286	4342.81
934.594	4351.17
934.902	4315.01
935.21	4291.74
935.519	4265.3
935.827	4249.7
936.135	4245.64
936.443	4179.88
936.751	4200.67
937.059	4171.97
937.367	4111.86
937.674	4122.02
937.982	4104.17
938.29	4130.84
938.597	4137.62
938.905	4052.87
939.213	4035.25
939.52	4032.99
939.827	4079.77
940.135	4045.19
940.442	4026.21
940.749	4020.11
941.056	3987.34
941.363	4015.13
941.67	3976.49
941.977	3913.89
942.284	3976.72
942.591	3940.79
942.898	3891.3
943.205	3865.99
943.511	3875.25
943.818	3843.84
944.125	3847.23
944.431	3774.24
944.738	3795.93
945.044	3769.27
945.35	3760.9
945.657	3735.14
945.963	3753.22
946.269	3681.36
946.575	3767.68
946.881	3705.99
947.187	3677.52
947.493	3636.39
947.799	3616.95
948.105	3622.15
948.41	3618.08
948.716	3627.57
949.022	3633.68
949.327	3580.8
949.633	3549.16
949.938	3561.81
950.244	3537.41
950.549	3558.65
950.854	3483.4
951.16	3505.09
951.465	3474.13
951.77	3459.89
952.075	3503.74
952.38	3473.45
952.685	3443.17
952.99	3376.06
953.294	3395.49
953.599	3421.48
953.904	3380.8
954.209	3339.22
954.513	3331.76
954.818	3311.2
955.122	3301.26
955.426	3309.39
955.731	3301.26
956.035	3260.58
956.339	3267.81
956.643	3268.94
956.948	3243.18
957.252	3235.49
957.556	3193.69
957.86	3229.39
958.163	3185.78
958.467	3185.78
958.771	3127.47
959.075	3146.23
959.378	3108.04
959.682	3125.44
959.985	3127.25
960.289	3116.18
960.592	3110.98
960.896	3097.87
961.199	3089.74
961.502	3093.12
961.805	3029.85
962.108	3068.49
962.411	3023.97
962.714	2986.01
963.017	2971.09
963.32	3024.65
963.623	2987.14
963.926	2995.73
964.228	2950.98
964.531	2912.56
964.833	2931.77
965.136	2893.13
965.438	2895.84
965.741	2923.86
966.043	2924.99
966.345	2875.96
966.648	2828.27
966.95	2846.8
967.252	2811.55
967.554	2785.79
967.856	2813.13
968.158	2780.14
968.46	2777.88
968.761	2773.13
969.063	2757.31
969.365	2800.25
969.666	2758.9
969.968	2763.42
970.269	2703.76
970.571	2742.17
970.872	2698.56
971.174	2682.29
971.475	2659.01
971.776	2685.45
972.077	2675.96
972.378	2643.19
972.679	2656.3
972.98	2647.49
973.281	2641.39
973.582	2624.44
973.883	2605.68
974.183	2591.44
974.484	2567.71
974.785	2591.22
975.085	2571.33
975.386	2566.81
975.686	2524.33
975.986	2529.75
976.287	2530.2
976.587	2495.85
976.887	2467.83
977.187	2496.98
977.487	2470.99
977.787	2448.85
978.087	2452.24
978.387	2414.27
978.687	2452.69
978.987	2413.37
979.286	2394.16
979.586	2416.98
979.885	2368.17
980.185	2347.61
980.484	2379.7
980.784	2339.47
981.083	2343.54
981.382	2365.91
981.682	2322.75
981.981	2337.89
982.28	2356.87
982.579	2295.41
982.878	2290.89
983.177	2295.86
983.475	2284.56
983.774	2248.18
984.073	2256.99
984.372	2225.8
984.67	2223.09
984.969	2240.49
985.267	2202.53
985.566	2191.45
985.864	2198.01
986.162	2188.29
986.461	2199.59
986.759	2215.86
987.057	2176.76
987.355	2151
987.653	2145.81
987.951	2117.11
988.249	2138.12
988.547	2134.73
988.844	2113.26
989.142	2102.19
989.44	2122.3
989.737	2075.3
990.035	2115.98
990.332	2068.29
990.63	2039.59
990.927	2070.33
991.224	2043.43
991.521	2060.16
991.819	2018.12
992.116	2035.53
992.413	1977.67
992.71	1968.86
993.006	1981.74
993.303	1983.78
993.6	1955.75
993.897	1995.98
994.193	1943.78
994.49	1972.25
994.787	1946.71
995.083	1948.07
995.379	1918.69
995.676	1921.4
995.972	1916.43
996.268	1896.77
996.565	1896.09
996.861	1867.62
997.157	1878.24
997.453	1881.41
997.749	1829.88
998.044	1835.08
998.34	1865.36
998.636	1830.11
998.932	1804.8
999.227	1823.55
999.523	1794.18
999.818	1780.84
1000.114	1792.37
1000.409	1768.19
1000.704	1771.8
1001	1737.45
1001.295	1733.61
1001.59	1741.07
1001.885	1726.16
1002.18	1708.75
1002.475	1715.99
1002.77	1673.28
1003.065	1694.74
1003.359	1694.74
1003.654	1685.25
1003.949	1651.13
1004.243	1674.18
1004.538	1628.98
1004.832	1646.61
1005.127	1621.3
1005.421	1620.62
1005.715	1647.97
1006.009	1616.78
1006.304	1621.53
1006.598	1590.79
1006.892	1596.89
1007.186	1583.56
1007.48	1567.06
1007.773	1582.43
1008.067	1564.58
1008.361	1537.91
1008.655	1547.4
1008.948	1524.58
1009.242	1503.11
1009.535	1517.57
1009.829	1520.28
1010.122	1490.23
1010.415	1469.44
1010.708	1494.3
1011.001	1488.87
1011.295	1496.78
1011.588	1450.23
1011.881	1475.31
1012.173	1461.98
1012.466	1404.13
1012.759	1436.22
1013.052	1431.02
1013.344	1414.52
1013.637	1427.63
1013.93	1412.49
1014.222	1399.16
1014.514	1398.25
1014.807	1379.5
1015.099	1356.9
1015.391	1358.26
1015.683	1353.96
1015.976	1363.9
1016.268	1332.95
1016.56	1348.31
1016.851	1313.96
1017.143	1299.05
1017.435	1295.66
1017.727	1266.05
1018.018	1299.95
1018.31	1268.99
1018.602	1247.75
1018.893	1244.59
1019.185	1241.65
1019.476	1222.67
1019.767	1237.81
1020.058	1212.5
1020.35	1222.44
1020.641	1205.72
1020.932	1168.2
1021.223	1190.35
1021.514	1172.05
1021.804	1158.94
1022.095	1193.29
1022.386	1176.57
1022.677	1182.67
1022.967	1123.23
1023.258	1144.02
1023.548	1109.45
1023.839	1136.34
1024.129	1113.52
1024.419	1119.84
1024.709	1109.9
1025	1111.03
1025.29	1105.15
1025.58	1095.66
1025.87	1062.67
1026.16	1069.68
1026.449	1067.64
1026.739	1054.53
1027.029	1062.44
1027.319	1044.37
1027.608	1053.4
1027.898	1031.48
1028.187	1046.4
1028.477	1032.39
1028.766	1024.93
1029.055	1019.73
1029.344	1021.31
1029.634	998.26
1029.923	1013.63
1030.212	1008.21
1030.501	994.87
1030.79	996.46
1031.078	953.75
1031.367	953.75
1031.656	979.51
1031.945	969.11
1032.233	926.85
1032.522	924.82
1032.81	937.25
1033.099	937.25
1033.387	932.28
1033.675	933.86
1033.963	932.5
1034.251	906.29
1034.54	888.66
1034.828	870.58
1035.116	848.44
1035.403	874.88
1035.691	857.03
1035.979	879.4
1036.267	883.69
1036.554	864.93
1036.842	871.49
1037.129	861.32
1037.417	839.4
1037.704	858.61
1037.992	837.14
1038.279	811.6
1038.566	817.7
1038.853	817.7
1039.14	817.7
