Data from copper_heatsink_FLMS001491_085.txt Node
Date: Tue Feb 07 10:50:42 GMT 2017
User: dcchb
Spectrometer: FLMS00149
Trigger mode: 0
Integration Time (sec): 2.000000E-2
Scans to average: 10
Electric dark correction enabled: true
Nonlinearity correction enabled: false
Boxcar width: 0
XAxis mode: Wavelengths
Number of Pixels in Spectrum: 2048
>>>>>Begin Spectral Data<<<<<
341.393	-3.18
341.776	-3.18
342.16	-3.18
342.543	-43.4
342.927	-67.58
343.31	-56.74
343.693	-93.35
344.077	-60.58
344.46	-61.26
344.843	-40.92
345.226	-45.66
345.61	-34.82
345.993	-8.6
346.376	-31.43
346.759	-5.44
347.142	42.47
347.525	64.39
347.908	55.35
348.291	75.69
348.674	103.03
349.057	97.84
349.44	112.98
349.823	152.3
350.206	180.09
350.588	218.74
350.971	227.1
351.354	249.7
351.737	258.28
352.119	270.71
352.502	277.49
352.884	284.95
353.267	288.57
353.65	303.48
354.032	331.28
354.414	333.08
354.797	312.29
355.179	325.63
355.562	322.01
355.944	343.71
356.326	360.65
356.709	375.57
357.091	362.01
357.473	383.93
357.855	361.11
358.238	358.62
358.62	365.4
359.002	371.28
359.384	392.74
359.766	361.33
360.148	347.1
360.53	371.05
360.912	341.67
361.294	340.09
361.676	340.32
362.057	355.23
362.439	359.75
362.821	346.64
363.203	353.87
363.584	362.46
363.966	363.37
364.348	356.59
364.729	342.12
365.111	332.18
365.493	349.36
365.874	324.5
366.256	339.19
366.637	337.15
367.019	335.57
367.4	373.76
367.781	349.81
368.163	321.11
368.544	353.87
368.925	358.17
369.306	342.58
369.688	347.1
370.069	342.35
370.45	347.77
370.831	343.03
371.212	358.62
371.593	345.06
371.974	348.68
372.355	338.73
372.736	341.45
373.117	333.31
373.498	348.23
373.879	355
374.26	360.88
374.641	353.42
375.021	339.64
375.402	354.78
375.783	345.74
376.163	371.73
376.544	373.08
376.925	379.86
377.305	375.12
377.686	353.87
378.066	354.1
378.447	374.44
378.827	372.86
379.208	369.92
379.588	390.71
379.968	369.02
380.349	363.37
380.729	389.35
381.109	397.94
381.489	386.64
381.87	377.15
382.25	371.73
382.63	375.8
383.01	378.28
383.39	384.38
383.77	400.88
384.15	413.76
384.53	386.64
384.91	390.03
385.29	393.65
385.67	417.15
386.049	423.48
386.429	415.12
386.809	395.91
387.189	426.42
387.568	421.9
387.948	403.37
388.328	420.31
388.707	427.09
389.087	421.9
389.466	429.13
389.846	404.5
390.225	439.97
390.605	420.09
390.984	415.12
391.363	422.57
391.743	444.49
392.122	434.32
392.501	441.56
392.881	439.97
393.26	422.35
393.639	446.98
394.018	449.69
394.397	466.64
394.776	465.06
395.155	436.36
395.534	458.73
395.913	454.44
396.292	478.62
396.671	454.66
397.05	465.06
397.429	455.34
397.808	469.58
398.186	467.54
398.565	467.09
398.944	473.42
399.323	448.79
399.701	476.36
400.08	445.85
400.458	482.23
400.837	497.83
401.215	499.63
401.594	467.77
401.972	507.32
402.351	498.5
402.729	490.14
403.107	491.5
403.486	488.56
403.864	519.29
404.242	496.7
404.62	514.77
404.999	500.54
405.377	537.37
405.755	536.92
406.133	541.67
406.511	539.63
406.889	548.45
407.267	521.1
407.645	536.47
408.023	532.4
408.401	563.36
408.779	555.68
409.156	549.12
409.534	563.81
409.912	536.24
410.29	562.46
410.667	604.72
411.045	595.68
411.422	591.83
411.8	589.57
412.178	585.73
412.555	607.88
412.933	592.29
413.31	621.89
413.687	640.2
414.065	627.09
414.442	618.5
414.819	648.33
415.197	640.87
415.574	657.6
415.951	661.89
416.328	671.15
416.705	636.35
417.082	644.04
417.46	669.57
417.837	654.66
418.214	665.96
418.591	684.26
418.967	667.09
419.344	686.07
419.721	666.41
420.098	682.45
420.475	700.76
420.852	708.22
421.228	714.77
421.605	689.46
421.982	734.88
422.358	698.05
422.735	765.16
423.111	711.15
423.488	708.67
423.864	737.59
424.241	720.64
424.617	728.33
424.994	751.38
425.37	756.58
425.746	762.45
426.123	753.41
426.499	775.11
426.875	779.63
427.251	799.51
427.627	789.12
428.003	809
428.379	804.71
428.756	827.99
429.132	816.69
429.507	824.37
429.883	818.72
430.259	823.24
430.635	863.92
431.011	874.54
431.387	862.34
431.763	882.67
432.138	872.96
432.514	885.16
432.89	894.43
433.265	924.26
433.641	944.14
434.016	921.54
434.392	920.64
434.767	931.71
435.143	968.32
435.518	960.64
435.894	952.96
436.269	990.92
436.644	976.68
437.02	983.24
437.395	988.21
437.77	1016.46
438.145	1026.4
438.52	1034.53
438.895	1042.22
439.271	1047.19
439.646	1047.19
440.021	1047.64
440.395	1053.52
440.77	1049.9
441.145	1070.01
441.52	1089.67
441.895	1092.84
442.27	1103.46
442.645	1077.25
443.019	1091.93
443.394	1136.68
443.769	1127.64
444.143	1107.08
444.518	1104.82
444.892	1129.9
445.267	1155.89
445.641	1161.76
446.016	1190.69
446.39	1157.92
446.764	1169.67
447.139	1178.94
447.513	1198.37
447.887	1187.98
448.262	1187.07
448.636	1200.63
449.01	1217.81
449.384	1223
449.758	1232.27
450.132	1261.65
450.506	1252.61
450.88	1287.18
451.254	1260.29
451.628	1270.46
452.002	1291.7
452.376	1311.14
452.75	1313.4
453.123	1296
453.497	1347.97
453.871	1347.07
454.244	1355.43
454.618	1373.51
454.992	1395.2
455.365	1358.82
455.739	1410.12
456.112	1438.14
456.486	1441.53
456.859	1460.06
457.232	1479.04
457.606	1469.78
457.979	1496.67
458.352	1537.8
458.725	1523.11
459.099	1542.54
459.472	1583.45
459.845	1552.94
460.218	1621.86
460.591	1622.09
460.964	1630
461.337	1633.39
461.71	1669.09
462.083	1700.73
462.456	1685.37
462.829	1709.77
463.201	1702.54
463.574	1721.97
463.947	1777.79
464.32	1814.4
464.692	1808.53
465.065	1839.49
465.438	1839.49
465.81	1873.38
466.183	1866.38
466.555	1949.54
466.928	1925.13
467.3	1952.93
467.672	2011.01
468.045	2013.27
468.417	2010.33
468.789	2033.83
469.161	2060.95
469.534	2078.12
469.906	2119.48
470.278	2150.44
470.65	2169.65
471.022	2203.09
471.394	2255.97
471.766	2272.24
472.138	2264.79
472.51	2321.73
472.882	2363.77
473.253	2355.18
473.625	2396.76
473.997	2450.54
474.369	2450.09
474.74	2509.75
475.112	2528.73
475.484	2586.13
475.855	2596.75
476.227	2646.47
476.598	2707.03
476.97	2748.84
477.341	2739.35
477.713	2844.88
478.084	2845.11
478.455	2928.04
478.827	2902.06
479.198	3046.46
479.569	3056.63
479.94	3111.99
480.311	3118.1
480.682	3194.48
481.053	3258.21
481.424	3306.34
481.795	3317.64
482.166	3382.27
482.537	3456.39
482.908	3487.13
483.279	3543.17
483.65	3548.59
484.021	3674.47
484.391	3725.54
484.762	3712.88
485.133	3807.8
485.503	3810.06
485.874	3903.84
486.244	3955.81
486.615	3993.55
486.985	4059.09
487.356	4120.56
487.726	4140.44
488.097	4248.01
488.467	4287.33
488.837	4360.78
489.207	4431.51
489.578	4505.63
489.948	4519.64
490.318	4532.3
490.688	4555.57
491.058	4641.45
491.428	4716.92
491.798	4744.49
492.168	4848.22
492.538	4865.39
492.908	4934.09
493.278	5014.77
493.648	5022.9
494.017	5106.29
494.387	5166.4
494.757	5157.14
495.126	5243.69
495.496	5270.81
495.866	5322.11
496.235	5401.2
496.605	5411.14
496.974	5468.32
497.344	5474.42
497.713	5491.59
498.082	5633.28
498.452	5610.46
498.821	5663.11
499.19	5697.92
499.559	5717.8
499.928	5785.37
500.298	5837.12
500.667	5875.54
501.036	5844.35
501.405	5962.77
501.774	6017.91
502.143	6065.59
502.512	6129.99
502.88	6120.28
503.249	6172.7
503.618	6238.69
503.987	6283.44
504.356	6319.82
504.724	6356.88
505.093	6384.45
505.462	6427.61
505.83	6458.8
506.199	6482.3
506.567	6663.09
506.936	6614.95
507.304	6673.93
507.672	6830.09
508.041	6833.7
508.409	6862.86
508.777	6885
509.145	6974.27
509.514	6952.35
509.882	7059.01
510.25	7041.16
510.618	7096.52
510.986	7207.93
511.354	7242.51
511.722	7391.88
512.09	7374.03
512.458	7443.41
512.826	7444.31
513.193	7471.43
513.561	7602.05
513.929	7642.72
514.297	7754.36
514.664	7794.36
515.032	7860.57
515.4	7934.01
515.767	7950.51
516.135	7986.89
516.502	8017.18
516.869	8139.88
517.237	8197.06
517.604	8189.83
517.972	8331.29
518.339	8414.45
518.706	8429.37
519.073	8488.35
519.44	8483.38
519.808	8630.27
520.175	8591.4
520.542	8805.63
520.909	8882.69
521.276	8836.36
521.643	8993.42
522.009	9067.54
522.376	9168.78
522.743	9236.35
523.11	9316.13
523.477	9400.87
523.843	9478.61
524.21	9638.15
524.577	9659.17
524.943	9724.25
525.31	9825.04
525.676	9895.54
526.043	9959.05
526.409	10052.38
526.776	10127.86
527.142	10164.24
527.508	10282.2
527.874	10420.95
528.241	10457.34
528.607	10501.63
528.973	10611.68
529.339	10605.58
529.705	10817.33
530.071	10836.99
530.437	10886.48
530.803	11028.4
531.169	11102.29
531.535	11168.51
531.901	11218.9
532.267	11240.37
532.632	11450.08
532.998	11405.34
533.364	11551.77
533.73	11609.4
534.095	11719
534.461	11719.68
534.826	11904.98
535.192	11834.48
535.557	12006.45
535.923	11968.94
536.288	12112.21
536.653	12134.81
537.019	12217.29
537.384	12275.6
537.749	12354.01
538.114	12470.62
538.479	12511.75
538.845	12607.34
539.21	12598.75
539.575	12722.59
539.94	12805.98
540.305	12819.08
540.67	12922.81
541.034	13003.03
541.399	13164.16
541.764	13123.71
542.129	13350.82
542.494	13290.48
542.858	13372.97
543.223	13457.71
543.587	13516.01
543.952	13582.91
544.316	13687.76
544.681	13687.99
545.045	13863.58
545.41	13958.94
545.774	14068.99
546.138	14028.09
546.503	14212.04
546.867	14277.12
547.231	14399.61
547.595	14466.95
547.959	14578.13
548.324	14639.6
548.688	14724.8
549.052	14798.01
549.416	14910.78
549.779	15032.81
550.143	15115.97
550.507	15346.02
550.871	15306.7
551.235	15357.32
551.599	15553.7
551.962	15670.99
552.326	15791.89
552.689	15896.07
553.053	15998.44
553.417	16156.62
553.78	16216.28
554.143	16290.4
554.507	16499.21
554.87	16673.9
555.234	16760.45
555.597	16827.34
555.96	17055.58
556.323	17159.99
556.686	17211.74
557.05	17395.23
557.413	17629.13
557.776	17673.19
558.139	17991.38
558.502	18002.9
558.865	18155.67
559.228	18449.44
559.59	18555.88
559.953	18645.15
560.316	18917.45
560.679	18965.36
561.041	19220.72
561.404	19414.39
561.767	19667.72
562.129	19713.59
562.492	19902.06
562.854	20127.37
563.217	20092.34
563.579	20354.93
563.941	20632.21
564.304	20885.99
564.666	21022.26
565.028	21122.59
565.39	21368.24
565.753	21465.41
566.115	21837.83
566.477	22047.09
566.839	22235.79
567.201	22379.51
567.563	22555.78
567.925	22888.2
568.287	23024.92
568.648	23157.57
569.01	23410.44
569.372	23635.07
569.734	23760.94
570.095	23958.68
570.457	24267.14
570.819	24450.64
571.18	24529.28
571.542	24782.39
571.903	25034.58
572.265	25323.39
572.626	25509.82
572.987	25668.24
573.349	25779.42
573.71	26087.44
574.071	26273.65
574.432	26507.99
574.794	26810.58
575.155	26896.91
575.516	26911.82
575.877	27193.4
576.238	27307.06
576.599	27633.16
576.96	27788.63
577.32	27877.9
577.681	28062.3
578.042	28219.58
578.403	28392.91
578.763	28592
579.124	28840.81
579.485	29053.01
579.845	29078.77
580.206	29150.18
580.566	29388.14
580.927	29373.9
581.287	29736.38
581.648	29722.37
582.008	29971.63
582.368	30139.98
582.728	30238.96
583.089	30371.84
583.449	30509.01
583.809	30492.52
584.169	30767.54
584.529	30911.94
584.889	31161.43
585.249	31067.42
585.609	31209.56
585.969	31375.43
586.329	31354.19
586.688	31601.64
587.048	31599.16
587.408	31686.84
587.768	31676.67
588.127	31841.41
588.487	31977.45
588.846	32288.63
589.206	32092.93
589.565	32234.17
589.925	32551.45
590.284	32581.95
590.643	32721.61
591.003	32820.82
591.362	32968.16
591.721	33061.04
592.08	33048.61
592.44	33309.39
592.799	33360.24
593.158	33376.28
593.517	33443.17
593.876	33548.03
594.235	33749.61
594.593	33742.38
594.952	33862.82
595.311	33942.82
595.67	34104.17
596.029	34362.7
596.387	34494.67
596.746	34535.8
597.104	34474.11
597.463	34568.79
597.822	34807.66
598.18	34806.53
598.538	34837.04
598.897	35013.53
599.255	34809.92
599.613	35426.17
599.972	35357.47
600.33	35409
600.688	35526.51
601.046	35752.04
601.404	35965.37
601.762	35880.62
602.12	36187.73
602.478	36151.13
602.836	36269.31
603.194	36170.33
603.552	36362.87
603.91	36364.45
604.268	36724.22
604.625	36689.87
604.983	36800.37
605.341	36754.5
605.698	36987.04
606.056	37145.22
606.413	37163.3
606.771	37368.04
607.128	37457.53
607.485	37400.58
607.843	37571.2
608.2	37788.82
608.557	37956.73
608.914	37974.35
609.272	38205.31
609.629	38347.45
609.986	38530.27
610.343	38353.1
610.7	38786.99
611.057	38778.18
611.414	38734.33
611.771	38803.03
612.127	39074.21
612.484	39206.19
612.841	39350.82
613.198	39304.04
613.554	39406.86
613.911	39673.29
614.267	39763.01
614.624	39666.97
614.98	39811.59
615.337	40191.25
615.693	40095.2
616.05	40113.51
616.406	40483.89
616.762	40436.66
617.118	40544
617.475	40510.11
617.831	40738.58
618.187	40872.81
618.543	40978.34
618.899	41108.96
619.255	41099.47
619.611	41180.37
619.967	41347.83
620.323	41496.07
620.678	41600.47
621.034	41514.37
621.39	41581.49
621.746	41441.61
622.101	42039.56
622.457	41776.51
622.812	41977.87
623.168	42106.45
623.523	42129.95
623.879	42263.96
624.234	42155.71
624.589	42259.67
624.945	42274.13
625.3	42569.04
625.655	42533.33
626.01	42563.84
626.365	42574.91
626.72	42573.33
627.075	42550.28
627.43	42651.29
627.785	42701.24
628.14	42756.38
628.495	42791.63
628.85	43012.19
629.205	42790.5
629.559	43227.78
629.914	43017.84
630.269	43037.05
630.623	43065.07
630.978	43007.89
631.332	43215.35
631.687	43419.64
632.041	43189.58
632.396	43421.44
632.75	43206.08
633.104	43225.97
633.459	43222.8
633.813	43429.58
634.167	43343.25
634.521	43215.12
634.875	43477.94
635.229	43512.74
635.583	43285.4
635.937	43425.51
636.291	43313.2
636.645	43450.82
636.999	43490.37
637.352	43463.48
637.706	43432.06
638.06	43531.95
638.413	43511.38
638.767	43553.42
639.121	43593.87
639.474	43473.65
639.828	43375.34
640.181	43464.83
640.534	43583.47
640.888	43629.57
641.241	43464.15
641.594	43630.93
641.947	43588.44
642.301	43572.4
642.654	43574.66
643.007	43573.76
643.36	43595.68
643.713	43713.86
644.066	43785.05
644.419	43649.23
644.771	43498.05
645.124	43141.45
645.477	43208.79
645.83	42920.67
646.182	42694.23
646.535	42839.09
646.888	42969.93
647.24	42534.46
647.593	43014.67
647.945	42795.24
648.298	42700.11
648.65	42729.26
649.002	42576.95
649.355	42855.13
649.707	42801.35
650.059	43134.67
650.411	43495.79
650.763	43563.59
651.115	43974.42
651.467	43899.17
651.819	44001.09
652.171	43945.5
652.523	43867.31
652.875	43893.75
653.227	43799.96
653.578	44187.3
653.93	43962.22
654.282	43883.35
654.633	43843.58
654.985	44061.65
655.337	44000.64
655.688	44149.79
656.039	44330.57
656.391	43971.71
656.742	44085.83
657.094	44156.34
657.445	44417.35
657.796	44327.18
658.147	44096.45
658.498	44234.75
658.849	44330.35
659.2	44249.22
659.551	44300.06
659.902	44520.17
660.253	44460.74
660.604	44458.48
660.955	44374.64
661.306	44627.29
661.656	44543
662.007	44574.18
662.358	44689.43
662.708	44649.89
663.059	44636.55
663.409	44439.04
663.76	44806.27
664.11	44676.55
664.461	44762.65
664.811	44809.2
665.161	44897.11
665.511	44822.99
665.862	44815.08
666.212	44960.39
666.562	45214.84
666.912	45030.44
667.262	44873.38
667.612	45156.09
667.962	45037.22
668.312	44973.27
668.662	45230.66
669.011	45234.95
669.361	45209.87
669.711	45171.68
670.06	45258.91
670.41	45242.64
670.76	45271.79
671.109	45424.1
671.459	45398.79
671.808	45271.56
672.157	45518.11
672.507	45166.71
672.856	45256.87
673.205	45295.07
673.554	45530.77
673.904	45382.97
674.253	45650.99
674.602	45488.51
674.951	44966.04
675.3	44816.21
675.649	45540.26
675.998	45447.6
676.346	45659.12
676.695	45798.1
677.044	45563.99
677.393	45757.88
677.741	45752.23
678.09	45658.9
678.438	45684.21
678.787	45835.62
679.135	45833.36
679.484	45496.19
679.832	45713.81
680.181	45598.79
680.529	45660.71
680.877	45653.02
681.225	45635.4
681.573	45822.28
681.922	45664.32
682.27	45532.35
682.618	45602.85
682.966	45607.6
683.314	45620.03
683.661	45709.07
684.009	45460.71
684.357	45474.04
684.705	45438.34
685.053	45562.63
685.4	45529.64
685.748	45370.32
686.095	45288.51
686.443	45325.8
686.79	45484.67
687.138	45398.34
687.485	45276.54
687.832	45172.36
688.18	45267.27
688.527	45194.73
688.874	45076.99
689.221	45087.16
689.568	44950.44
689.915	44899.82
690.262	44990.44
690.609	44965.13
690.956	44954.51
691.303	44870.9
691.65	44794.97
691.997	44753.39
692.344	44413.96
692.69	44685.36
693.037	44691.47
693.383	44411.93
693.73	44571.47
694.077	44273.85
694.423	44338.93
694.769	44159.05
695.116	44322.21
695.462	44240.4
695.808	44098.49
696.155	44206.96
696.501	44092.61
696.847	43978.04
697.193	43771.94
697.539	43860.3
697.885	43736.01
698.231	43748.44
698.577	43714.32
698.923	43531.04
699.269	43431.16
699.614	43286.31
699.96	43151.17
700.306	43440.2
700.651	43229.81
700.997	43069.14
701.342	43116.37
701.688	43109.59
702.033	43004.5
702.379	43031.17
702.724	42863.72
703.069	43104.62
703.415	42538.3
703.76	42742.14
704.105	42720.44
704.45	42779.88
704.795	42511.86
705.14	42533.78
705.485	42505.99
705.83	42332.21
706.175	42512.09
706.52	42501.92
706.865	42332.21
707.209	42278.87
707.554	42089.27
707.899	42370.17
708.243	42150.97
708.588	42198.65
708.932	41960.92
709.277	41900.13
709.621	41816.51
709.966	41832.11
710.31	41970.63
710.654	41602.96
710.998	41710.98
711.342	41710.3
711.687	41711.66
712.031	41592.11
712.375	41685.22
712.719	41839.56
713.063	41623.52
713.407	41688.83
713.75	41502.4
714.094	41531.32
714.438	41299.46
714.782	41413.81
715.125	41244.33
715.469	41327.03
715.812	41278.67
716.156	40993.94
716.499	41060.15
716.843	41224.89
717.186	40958
717.53	41190.09
717.873	41281.84
718.216	41092.24
718.559	41001.17
718.902	40844.79
719.246	41105.8
719.589	40941.51
719.932	40667.39
720.275	40927.95
720.617	40832.81
720.96	40692.02
721.303	40726.37
721.646	40968.63
721.989	40646.6
722.331	41082.52
722.674	40763.89
723.016	40758.91
723.359	40759.37
723.701	40948.74
724.044	40603.21
724.386	40507.17
724.729	40601.86
725.071	40481.18
725.413	40603.89
725.755	40411.8
726.097	40257.68
726.439	40288.42
726.782	40306.5
727.124	40558.69
727.465	40273.28
727.807	40410.22
728.149	40206.39
728.491	40097.91
728.833	40191.7
729.175	40116.45
729.516	40051.81
729.858	39971.59
730.199	40106.28
730.541	40084.81
730.882	40061.98
731.224	40214.75
731.565	39998.48
731.906	40074.19
732.248	40180.62
732.589	40061.98
732.93	39956.22
733.271	40004.36
733.612	40080.74
733.953	40092.27
734.294	40025.37
734.635	39878.94
734.976	39852.5
735.317	39932.04
735.658	39698.38
735.999	39690.47
736.339	39841.65
736.68	39903.8
737.021	39751.93
737.361	39530.02
737.702	39735.89
738.042	39567.99
738.383	39599.62
738.723	39857.69
739.063	39690.02
739.404	39850.01
739.744	39700.18
740.084	39477.82
740.424	39744.25
740.764	39610.02
741.104	39912.16
741.444	39518.27
741.784	39560.98
742.124	39482.34
742.464	39542.9
742.804	39485.5
743.143	39509
743.483	39619.28
743.823	39342.45
744.162	39406.86
744.502	39396.69
744.841	39318.73
745.181	39456.58
745.52	39238.95
745.86	39432.85
746.199	39334.54
746.538	39407.99
746.877	39645.72
747.216	39298.84
747.556	39217.94
747.895	39269.69
748.234	39011.84
748.573	39156.24
748.911	39252.97
749.25	39255.9
749.589	39124.61
749.928	39151.95
750.267	39141.33
750.605	39053.2
750.944	38975.01
751.283	39020.43
751.621	39121.44
751.96	38813.88
752.298	38746.99
752.636	38700.21
752.975	38643.72
753.313	38562.59
753.651	38632.42
753.989	38448.47
754.327	38377.96
754.666	38352.65
755.004	38409.82
755.342	38515.36
755.679	38443.04
756.017	38082.15
756.355	38383.38
756.693	38120.34
757.031	38219.32
757.368	38093.45
757.706	38023.39
758.044	37911.98
758.381	37999.44
758.719	37781.59
759.056	37918.31
759.394	37867.92
759.731	37622.27
760.068	37725.32
760.405	37595.83
760.743	37454.59
761.08	37638.09
761.417	37419.34
761.754	37317.87
762.091	37224.54
762.428	37189.06
762.765	37075.85
763.102	37274.71
763.438	37228.16
763.775	36991.33
764.112	37030.65
764.449	37057.99
764.785	36805.35
765.122	36637.21
765.458	36678.12
765.795	36564.67
766.131	36423.21
766.467	36354.51
766.804	36205.81
767.14	36128.3
767.476	36276.77
767.812	36061.18
768.148	36193.61
768.485	35833.85
768.821	35759.95
769.157	35736
769.492	35535.1
769.828	35520.86
770.164	35237.48
770.5	35052.4
770.836	35218.95
771.171	35018.05
771.507	35055.56
771.842	34887.66
772.178	34871.39
772.513	34983.47
772.849	34715.91
773.184	34597.95
773.519	34572.18
773.855	34498.29
774.19	34392.08
774.525	34279.31
774.86	34322.93
775.195	34215.81
775.53	34157.73
775.865	33993.89
776.2	33768.14
776.535	33724.75
776.87	33739.44
777.205	33540.12
777.539	33417.64
777.874	33583.96
778.209	33177.19
778.543	33212.67
778.878	33084.99
779.212	33049.74
779.547	32995.73
779.881	33037.76
780.215	32864.88
780.55	32871.21
780.884	32596.42
781.218	32801.38
781.552	32673.48
781.886	32613.59
782.22	32410.66
782.554	32261.96
782.888	32016.55
783.222	31877.79
783.556	31917.34
783.889	31878.7
784.223	31677.12
784.557	31697.23
784.89	31758.7
785.224	31504.02
785.557	31498.59
785.891	31443.68
786.224	31349.9
786.558	31314.64
786.891	31106.29
787.224	31000.75
787.557	31038.49
787.891	31040.07
788.224	30903.58
788.557	30835.33
788.89	30682.57
789.223	30709.01
789.556	30504.04
789.888	30406.42
790.221	30262.02
790.554	30094.34
790.887	30228.34
791.219	30017.95
791.552	30120.55
791.884	29968.69
792.217	29829.71
792.549	29810.95
792.882	29715.36
793.214	29655.93
793.546	29629.72
793.879	29578.19
794.211	29470.4
794.543	29589.26
794.875	29456.16
795.207	29686.89
795.539	29283.96
795.871	29377.74
796.203	29123.97
796.535	28972.78
796.867	29015.49
797.198	28908.83
797.53	28898.89
797.862	28670.87
798.193	28745.67
798.525	28483.08
798.856	28786.8
799.188	28363.53
799.519	28391.1
799.85	28159.47
800.182	28292.58
800.513	28331.44
800.844	28023.43
801.175	28203.09
801.506	28277.66
801.837	27992.47
802.168	27868.86
802.499	27835.41
802.83	27728.07
803.161	27807.16
803.491	27723.55
803.822	27602.88
804.153	27759.26
804.483	27480.62
804.814	27385.48
805.145	27339.83
805.475	27449.89
805.805	27233.39
806.136	27373.73
806.466	27260.74
806.796	27234.07
807.126	26941.88
807.457	26859.17
807.787	27016.9
808.117	26793.18
808.447	26856.45
808.777	26910.24
809.107	26792.95
809.436	26819.17
809.766	26715.67
810.096	26807.19
810.426	26575.11
810.755	26623.01
811.085	26551.38
811.414	26600.64
811.744	26436.8
812.073	26347.54
812.403	26592.06
812.732	26273.87
813.061	26318.39
813.39	26111.16
813.719	26115.46
814.049	26331.04
814.378	26088.79
814.707	25956.37
815.036	25954.11
815.365	25790.27
815.693	25610.39
816.022	25705.75
816.351	25651.74
816.68	25626.88
817.008	25711.85
817.337	25456.49
817.665	25459.88
817.994	25569.71
818.322	25605.41
818.651	25289.72
818.979	25294.01
819.307	25450.39
819.636	25416.49
819.964	25279.77
820.292	25363.84
820.62	25391.63
820.948	25233.67
821.276	25235.25
821.604	25286.55
821.932	25360
822.259	25364.97
822.587	25330.39
822.915	25253.56
823.243	25336.27
823.57	25491.29
823.898	25498.52
824.225	25429.37
824.553	25312.09
824.88	25342.6
825.207	25356.61
825.535	25300.11
825.862	25323.16
826.189	25301.24
826.516	25458.53
826.843	25540.11
827.17	25583.04
827.497	25578.07
827.824	25573.78
828.151	25565.64
828.478	25459.2
828.805	25642.7
829.131	25613.32
829.458	25444.51
829.785	25403.39
830.111	25590.27
830.438	25724.51
830.764	25681.8
831.09	25734.22
831.417	25644.28
831.743	25848.35
832.069	25905.97
832.395	25694.9
832.722	25776.03
833.048	25551.18
833.374	25646.77
833.7	25605.64
834.026	25756.82
834.351	25728.57
834.677	25541.01
835.003	25684.73
835.329	25818.06
835.654	25806.54
835.98	25542.82
836.306	25687.45
836.631	25455.14
836.956	25519.77
837.282	25555.7
837.607	25350.73
837.932	25418.75
838.258	25409.49
838.583	25414.91
838.908	25382.37
839.233	25414.23
839.558	25433.67
839.883	25407
840.208	25382.6
840.533	25354.8
840.858	25421.46
841.182	25441.8
841.507	25390.73
841.832	25303.5
842.156	25297.85
842.481	25193.67
842.805	25209.27
843.13	25074.35
843.454	25055.37
843.778	24990.52
844.103	24832.1
844.427	24824.19
844.751	24875.04
845.075	24798.88
845.399	24777.19
845.723	24630.98
846.047	24601.82
846.371	24510.98
846.695	24514.6
847.019	24366.8
847.343	24119.8
847.666	24092.46
847.99	24094.49
848.313	24075.51
848.637	23885.91
848.96	23898.34
849.284	23779.7
849.607	23665.13
849.931	23690.21
850.254	23546.03
850.577	23468.52
850.9	23454.96
851.223	23423.78
851.546	23311.01
851.869	23078.7
852.192	23287.96
852.515	23008.87
852.838	22913.96
853.161	23016.1
853.483	22917.58
853.806	22715.77
854.129	22688.43
854.451	22661.99
854.774	22630.13
855.096	22611.37
855.419	22580.86
855.741	22471.49
856.063	22399.17
856.385	22280.08
856.708	22270.59
857.03	22159.4
857.352	22258.61
857.674	22136.58
857.996	21997.15
858.318	21944.72
858.64	22006.19
858.961	21877.83
859.283	21946.53
859.605	21715.57
859.926	21848.45
860.248	21738.17
860.57	21681
860.891	21807.77
861.212	21723.48
861.534	21689.81
861.855	21625.63
862.176	21736.82
862.498	21705.18
862.819	21671.05
863.14	21647.78
863.461	21584.5
863.782	21519.87
864.103	21532.98
864.424	21541.11
864.745	21384.73
865.065	21284.17
865.386	21274.45
865.707	21285.3
866.027	21222.25
866.348	21199.2
866.668	21312.19
866.989	21219.54
867.309	21114.23
867.63	21065.65
867.95	21168.02
868.27	21035.82
868.59	21036.27
868.91	21043.27
869.23	21009.15
869.55	21006.67
869.87	21137.51
870.19	20960.11
870.51	21060.45
870.83	21072.43
871.15	20911.3
871.469	20813.22
871.789	20906.78
872.109	20841.92
872.428	20788.37
872.748	20840.79
873.067	20896.84
873.386	20902.49
873.706	20760.12
874.025	20794.24
874.344	20669.95
874.663	20789.5
874.982	20692.1
875.301	20601.03
875.62	20584.08
875.939	20641.03
876.258	20557.86
876.577	20502.05
876.896	20541.37
877.214	20533.23
877.533	20594.92
877.852	20597.64
878.17	20629.73
878.489	20548.37
878.807	20404.87
879.125	20421.14
879.444	20432.22
879.762	20495.49
880.08	20475.83
880.398	20247.59
880.716	20377.76
881.034	20220.25
881.352	20285.55
881.67	20244.65
881.988	20220.7
882.306	20155.39
882.624	19982.29
882.941	20005.56
883.259	19926.24
883.577	20009.86
883.894	19942.06
884.212	19898.22
884.529	20034.26
884.846	19910.87
885.164	19909.07
885.481	19848.73
885.798	19854.38
886.115	19669.53
886.432	19616.87
886.75	19582.3
887.067	19653.93
887.383	19496.87
887.7	19612.13
888.017	19492.81
888.334	19540.49
888.651	19482.41
888.967	19449.64
889.284	19197.45
889.6	19216.66
889.917	19144.57
890.233	19154.06
890.55	19094.85
890.866	19157
891.182	19099.37
891.498	19070.9
891.815	19023.44
892.131	18843.56
892.447	18869.09
892.763	18824.12
893.079	18727.86
893.395	18591.81
893.71	18646.95
894.026	18559.95
894.342	18619.61
894.657	18477.01
894.973	18411.71
895.289	18407.19
895.604	18416
895.92	18317.7
896.235	18414.19
896.55	18252.39
896.865	18354.08
897.181	18298.49
897.496	18281.54
897.811	18103.46
898.126	18120.87
898.441	18107.76
898.756	18064.14
899.071	17935.56
899.386	17844.49
899.7	17836.58
900.015	17644.49
900.33	17584.61
900.644	17451.5
900.959	17507.32
901.273	17472.07
901.588	17475.01
901.902	17399.53
902.216	17411.73
902.531	17367.44
902.845	17273.43
903.159	17234.33
903.473	17169.93
903.787	17077.5
904.101	17002.25
904.415	17079.76
904.729	16914.34
905.042	16826.89
905.356	16860.11
905.67	16747.79
905.984	16760
906.297	16755.25
906.611	16581.24
906.924	16547.57
907.237	16479.33
907.551	16455.37
907.864	16392.78
908.177	16435.03
908.491	16275.94
908.804	16268.94
909.117	16157.3
909.43	16080.24
909.743	16030.52
910.056	16070.52
910.368	15984.42
910.681	15862.62
910.994	15868.04
911.307	15818.33
911.619	15641.83
911.932	15742.62
912.244	15556.86
912.557	15628.95
912.869	15445.23
913.181	15408.62
913.494	15521.84
913.806	15326.36
914.118	15260.15
914.43	15204.56
914.742	15246.59
915.054	15119.81
915.366	15108.97
915.678	15084.56
915.99	14924.79
916.302	14854.06
916.613	14762.99
916.925	14875.75
917.236	14833.72
917.548	14652.26
917.859	14745.13
918.171	14608.42
918.482	14552.82
918.794	14394.18
919.105	14462.43
919.416	14314.19
919.727	14270.57
920.038	14304.47
920.349	14121.42
920.66	14167.07
920.971	14093.17
921.282	13984.93
921.593	13929.56
921.903	13895.67
922.214	13831.94
922.525	13735.67
922.835	13706.29
923.146	13638.72
923.456	13664.71
923.767	13581.55
924.077	13494.55
924.387	13504.94
924.697	13459.29
925.008	13454.1
925.318	13339.52
925.628	13382.23
925.938	13321.9
926.248	13213.42
926.558	13092.97
926.867	13081.22
927.177	13041.9
927.487	12940.89
927.796	12934.34
928.106	12807.56
928.416	12788.35
928.725	12739.31
929.034	12710.16
929.344	12738.41
929.653	12751.97
929.962	12628.35
930.271	12490.28
930.581	12535.48
930.89	12520.56
931.199	12441.24
931.508	12381.13
931.817	12385.65
932.125	12281.47
932.434	12373.45
932.743	12222.04
933.051	12157.18
933.36	12034.7
933.669	11914.25
933.977	11917.41
934.286	11919.67
934.594	11938.88
934.902	11801.71
935.21	11736.63
935.519	11681.49
935.827	11727.14
936.135	11661.6
936.443	11509.51
936.751	11564.2
937.059	11547.48
937.367	11528.5
937.674	11447.37
937.982	11394.94
938.29	11342.51
938.597	11258.9
938.905	11216.41
939.213	11145.23
939.52	11033.59
939.827	11217.54
940.135	11073.14
940.442	11037.21
940.749	11019.36
941.056	10977.78
941.363	10841.28
941.67	10816.2
941.977	10794.05
942.284	10682.19
942.591	10750.21
942.898	10711.79
943.205	10622.98
943.511	10560.16
943.818	10546.15
944.125	10486.72
944.431	10498.69
944.738	10392.48
945.044	10421.86
945.35	10357.91
945.657	10258.93
945.963	10280.39
946.269	10284.91
946.575	10182.32
946.881	10120.4
947.187	10079.95
947.493	10043.11
947.799	10016.67
948.105	10014.64
948.41	9912.49
948.716	9920.18
949.022	9778.49
949.327	9816
949.633	9763.12
949.938	9750.92
950.244	9740.29
950.549	9717.7
950.854	9663.91
951.16	9602.67
951.465	9503.69
951.77	9450.58
952.075	9495.78
952.38	9394.09
952.685	9433.18
952.99	9218.73
953.294	9181.67
953.599	9182.8
953.904	9151.38
954.209	9111.38
954.513	9160.87
954.818	9096.24
955.122	9057.15
955.426	8945.74
955.731	8969.24
956.035	8930.82
956.339	8890.6
956.643	8897.15
956.948	8788.91
957.252	8809.7
957.556	8808.79
957.86	8806.53
958.163	8761.79
958.467	8681.11
958.771	8660.1
959.075	8625.3
959.378	8529.03
959.682	8535.13
959.985	8429.37
960.289	8461.01
960.592	8381.01
960.896	8407.45
961.199	8409.71
961.502	8348.01
961.805	8275.25
962.108	8269.82
962.411	8142.82
962.714	8128.59
963.017	8150.96
963.32	8105.08
963.623	8077.74
963.926	8079.1
964.228	8069.38
964.531	8008.14
964.833	8009.94
965.136	7884.98
965.438	7900.57
965.741	7834.13
966.043	7804.98
966.345	7729.95
966.648	7782.83
966.95	7744.42
967.252	7645.21
967.554	7627.36
967.856	7633.23
968.158	7564.76
968.46	7524.31
968.761	7536.51
969.063	7505.1
969.365	7376.06
969.666	7448.6
969.968	7325.44
970.269	7263.07
970.571	7270.98
970.872	7319.34
971.174	7250.64
971.475	7191.89
971.776	7227.59
972.077	7154.83
972.378	7106.92
972.679	7108.27
972.98	7118.89
973.281	6983.76
973.582	7012
973.883	6981.95
974.183	6931.1
974.484	6905.79
974.785	6911.22
975.085	6846.59
975.386	6820.82
975.686	6773.82
975.986	6730.43
976.287	6726.59
976.587	6664.22
976.887	6653.14
977.187	6688.4
977.487	6681.39
977.787	6527.72
978.087	6545.58
978.387	6569.08
978.687	6502.19
978.987	6479.14
979.286	6408.18
979.586	6431
979.885	6427.84
980.185	6362.08
980.484	6338.12
980.784	6319.37
981.083	6281.63
981.382	6254.28
981.682	6252.25
981.981	6202.08
982.28	6174.51
982.579	6158.24
982.878	6162.99
983.177	6136.32
983.475	6073.27
983.774	6033.27
984.073	5943.11
984.372	5947.85
984.67	5947.17
984.969	5945.59
985.267	5918.47
985.566	5871.7
985.864	5852.71
986.162	5802.77
986.461	5800.06
986.759	5746.5
987.057	5706.95
987.355	5707.18
987.653	5668.31
987.951	5631.48
988.249	5663.57
988.547	5611.36
988.844	5583.12
989.142	5583.34
989.44	5551.93
989.737	5508.99
990.035	5502.44
990.332	5452.72
990.63	5407.3
990.927	5383.8
991.224	5398.71
991.521	5376.57
991.819	5298.15
992.116	5387.19
992.413	5306.96
992.71	5276.91
993.006	5232.84
993.303	5233.07
993.6	5222.67
993.897	5203.92
994.193	5146.74
994.49	5139.06
994.787	5081.43
995.083	5076.69
995.379	4981.78
995.676	4930.93
995.972	4969.35
996.268	4939.74
996.565	4927.99
996.861	4924.15
997.157	4918.95
997.453	4855.45
997.749	4834.21
998.044	4764.38
998.34	4816.13
998.636	4781.78
998.932	4804.61
999.227	4702.91
999.523	4705.4
999.818	4674.67
1000.114	4653.2
1000.409	4602.12
1000.704	4616.14
1001	4586.76
1001.295	4528.91
1001.59	4518.06
1001.885	4514.44
1002.18	4400.1
1002.475	4390.83
1002.77	4391.06
1003.065	4336.6
1003.359	4382.02
1003.654	4315.58
1003.949	4299.08
1004.243	4304.28
1004.538	4237.39
1004.832	4220.21
1005.127	4237.39
1005.421	4195.81
1005.715	4138.63
1006.009	4162.81
1006.304	4102.93
1006.598	4073.78
1006.892	4081.69
1007.186	4050.95
1007.48	4040.78
1007.773	4015.02
1008.067	3951.75
1008.361	3933.67
1008.655	3883.5
1008.948	3966.44
1009.242	3887.57
1009.535	3847.57
1009.829	3776.16
1010.122	3822.48
1010.415	3853.67
1010.708	3790.85
1011.001	3744.75
1011.295	3721.92
1011.588	3697.74
1011.881	3685.09
1012.173	3665.88
1012.466	3659.32
1012.759	3637.4
1013.052	3584.07
1013.344	3567.35
1013.637	3570.29
1013.93	3535.03
1014.222	3488.26
1014.514	3521.25
1014.807	3454.58
1015.099	3395.38
1015.391	3407.81
1015.683	3374.13
1015.976	3408.26
1016.268	3333.01
1016.56	3342.04
1016.851	3297.98
1017.143	3268.15
1017.435	3276.96
1017.727	3245.1
1018.018	3189.28
1018.31	3157.19
1018.602	3161.71
1018.893	3133.69
1019.185	3109.96
1019.476	3130.07
1019.767	3085.1
1020.058	3043.52
1020.35	2993.35
1020.641	3012.56
1020.932	2981.6
1021.223	2952.9
1021.514	2991.09
1021.804	2909.51
1022.095	2884.2
1022.386	2923.3
1022.677	2868.16
1022.967	2887.82
1023.258	2796.97
1023.548	2789.97
1023.839	2783.42
1024.129	2780.25
1024.419	2745.68
1024.709	2712.46
1025	2716.3
1025.29	2693.02
1025.58	2656.19
1025.87	2637.43
1026.16	2612.35
1026.449	2612.57
1026.739	2592.01
1027.029	2570.77
1027.319	2549.3
1027.608	2540.94
1027.898	2505.68
1028.187	2507.94
1028.477	2447.61
1028.766	2504.55
1029.055	2390.88
1029.344	2453.93
1029.634	2418.45
1029.923	2360.83
1030.212	2344.11
1030.501	2307.95
1030.79	2318.79
1031.078	2290.32
1031.367	2274.28
1031.656	2254.84
1031.945	2248.06
1032.233	2241.28
1032.522	2222.3
1032.81	2193.83
1033.099	2190.66
1033.387	2203.09
1033.675	2177.78
1033.963	2145.69
1034.251	2123.55
1034.54	2113.83
1034.828	2129.65
1035.116	2044.68
1035.403	2063.43
1035.691	2045.36
1035.979	2036.54
1036.267	1985.92
1036.554	2014.62
1036.842	1994.06
1037.129	1963.55
1037.417	1956.77
1037.704	1938.47
1037.992	1916.77
1038.279	1906.83
1038.566	1888.07
1038.853	1888.07
1039.14	1888.07
