Data from copper_heatsink_FLMS001491_051.txt Node
Date: Tue Feb 07 10:50:11 GMT 2017
User: dcchb
Spectrometer: FLMS00149
Trigger mode: 0
Integration Time (sec): 2.000000E-2
Scans to average: 10
Electric dark correction enabled: true
Nonlinearity correction enabled: false
Boxcar width: 0
XAxis mode: Wavelengths
Number of Pixels in Spectrum: 2048
>>>>>Begin Spectral Data<<<<<
341.393	4.87
341.776	4.87
342.16	4.87
342.543	-57.05
342.927	-90.94
343.31	-82.13
343.693	-91.17
344.077	-74
344.46	-58.85
344.843	-37.84
345.226	-35.8
345.61	-29.02
345.993	-25.41
346.376	-14.79
346.759	7.81
347.142	60.01
347.525	34.02
347.908	55.49
348.291	76.06
348.674	98.66
349.057	116.96
349.44	148.37
349.823	152.21
350.206	161.25
350.588	215.26
350.971	220.46
351.354	230.18
351.737	244.87
352.119	258.2
352.502	266.79
352.884	292.1
353.267	293.23
353.65	292.55
354.032	307.24
354.414	325.54
354.797	328.25
355.179	319.21
355.562	331.19
355.944	313.57
356.326	349.04
356.709	341.36
357.091	353.79
357.473	338.42
357.855	345.65
358.238	349.95
358.62	361.02
359.002	365.54
359.384	365.09
359.766	360.34
360.148	351.76
360.53	340.01
360.912	351.53
361.294	331.42
361.676	353.56
362.057	351.08
362.439	334.13
362.821	342.72
363.203	344.3
363.584	340.46
363.966	361.7
364.348	360.34
364.729	350.17
365.111	334.13
365.493	354.69
365.874	335.94
366.256	336.84
366.637	339.1
367.019	320.34
367.4	327.58
367.781	330.06
368.163	346.78
368.544	327.8
368.925	331.42
369.306	342.72
369.688	345.65
370.069	335.71
370.45	319.44
370.831	342.49
371.212	301.36
371.593	337.97
371.974	338.42
372.355	333
372.736	336.39
373.117	336.84
373.498	340.23
373.879	354.92
374.26	361.25
374.641	320.8
375.021	345.43
375.402	357.63
375.783	361.25
376.163	358.76
376.544	368.93
376.925	351.76
377.305	338.42
377.686	357.41
378.066	361.25
378.447	347.69
378.827	371.19
379.208	379.55
379.588	390.85
379.968	372.77
380.349	360.57
380.729	371.87
381.109	368.93
381.489	356.28
381.87	356.5
382.25	371.42
382.63	363.28
383.01	366.9
383.39	352.89
383.77	395.37
384.15	374.81
384.53	384.75
384.91	374.58
385.29	354.24
385.67	392.66
386.049	402.38
386.429	392.21
386.809	398.76
387.189	377.07
387.568	392.43
387.948	395.14
388.328	416.84
388.707	412.09
389.087	402.6
389.466	417.29
389.846	391.98
390.225	401.7
390.605	421.36
390.984	410.51
391.363	421.13
391.743	409.83
392.122	432.88
392.501	424.07
392.881	416.84
393.26	457.29
393.639	431.3
394.018	432.66
394.397	428.59
394.776	418.42
395.155	446.67
395.534	436.95
395.913	462.49
396.292	456.39
396.671	459.55
397.05	456.16
397.429	446.22
397.808	453.67
398.186	459.32
398.565	448.25
398.944	455.03
399.323	450.96
399.701	461.81
400.08	462.49
400.458	471.53
400.837	474.24
401.215	472.43
401.594	479.89
401.972	467.69
402.351	467.23
402.729	495.93
403.107	486.89
403.486	507.46
403.864	484.63
404.242	497.74
404.62	511.75
404.999	478.08
405.377	505.65
405.755	534.8
406.133	508.81
406.511	515.14
406.889	527.12
407.267	510.17
407.645	521.7
408.023	531.41
408.401	528.93
408.779	522.15
409.156	518.98
409.534	522.37
409.912	537.51
410.29	555.59
410.667	554.24
411.045	568.25
411.422	551.07
411.8	549.04
412.178	561.69
412.555	549.04
412.933	581.35
413.31	590.85
413.687	578.64
414.065	611.86
414.442	587.46
414.819	612.77
415.197	602.37
415.574	612.31
415.951	623.39
416.328	634.23
416.705	637.4
417.082	622.71
417.46	628.36
417.837	647.79
418.214	641.24
418.591	617.74
418.967	671.75
419.344	637.62
419.721	635.82
420.098	665.87
420.475	678.98
420.852	649.15
421.228	671.75
421.605	657.28
421.982	680.79
422.358	675.36
422.735	673.56
423.111	697.96
423.488	695.48
423.864	719.43
424.241	698.41
424.617	702.93
424.994	741.35
425.37	710.62
425.746	718.98
426.123	723.5
426.499	703.16
426.875	754.01
427.251	734.35
427.627	787.68
428.003	742.48
428.379	764.17
428.756	744.51
429.132	765.76
429.507	809.37
429.883	785.42
430.259	805.3
430.635	808.92
431.011	818.86
431.387	837.39
431.763	827.22
432.138	821.35
432.514	832.87
432.89	850.73
433.265	843.95
433.641	878.07
434.016	891.86
434.392	866.09
434.767	886.43
435.143	903.15
435.518	888.01
435.894	903.83
436.269	912.65
436.644	935.47
437.02	922.59
437.395	941.57
437.77	922.36
438.145	946.99
438.52	951.97
438.895	955.81
439.271	978.86
439.646	1010.5
440.021	1002.59
440.395	1007.56
440.77	997.39
441.145	1009.14
441.52	1004.17
441.895	1017.73
442.27	1015.47
442.645	1031.74
443.019	1050.49
443.394	1052.53
443.769	1031.51
444.143	1037.39
444.518	1051.17
444.892	1046.65
445.267	1081.68
445.641	1072.42
446.016	1070.16
446.39	1104.96
446.764	1096.37
447.139	1121.68
447.513	1101.57
447.887	1106.54
448.262	1135.92
448.636	1127.33
449.01	1131.62
449.384	1166.2
449.758	1116.03
450.132	1139.76
450.506	1148.8
450.88	1178.18
451.254	1183.37
451.628	1199.87
452.002	1196.03
452.376	1189.02
452.75	1217.04
453.123	1239.87
453.497	1247.33
453.871	1261.79
454.244	1289.36
454.618	1315.35
454.992	1286.65
455.365	1289.81
455.739	1296.36
456.112	1335.23
456.486	1364.61
456.859	1367.55
457.232	1349.7
457.606	1377.49
457.979	1390.15
458.352	1418.62
458.725	1433.31
459.099	1439.64
459.472	1462.69
459.845	1488.22
460.218	1495.23
460.591	1492.52
460.964	1541.1
461.337	1521.22
461.71	1559.63
462.083	1575
462.456	1602.8
462.829	1561.67
463.201	1621.55
463.574	1619.29
463.947	1648.67
464.32	1675.56
464.692	1695.45
465.065	1715.79
465.438	1745.39
465.81	1781.32
466.183	1771.61
466.555	1765.05
466.928	1810.7
467.3	1820.64
467.672	1822.9
468.045	1871.26
468.417	1896.8
468.789	1870.13
469.161	1922.11
469.534	1918.27
469.906	2002.33
470.278	1992.62
470.65	2010.02
471.022	2037.14
471.394	2102.9
471.766	2115.78
472.138	2090.02
472.51	2132.95
472.882	2185.38
473.253	2222.89
473.625	2219.28
473.997	2280.07
474.369	2278.49
474.74	2304.25
475.112	2323.91
475.484	2359.84
475.855	2460.85
476.227	2452.27
476.598	2503.56
476.97	2557.35
477.341	2550.12
477.713	2649.1
478.084	2636.44
478.455	2675.54
478.827	2661.07
479.198	2791.69
479.569	2789.88
479.94	2867.62
480.311	2903.33
480.682	2955.98
481.053	2972.48
481.424	3042.08
481.795	3108.97
482.166	3157.11
482.537	3156.43
482.908	3190.78
483.279	3285.69
483.65	3294.73
484.021	3388.96
484.391	3433.94
484.762	3456.53
485.133	3473.48
485.503	3547.6
485.874	3636.87
486.244	3630.54
486.615	3726.13
486.985	3720.71
487.356	3820.14
487.726	3829.4
488.097	3898.1
488.467	3910.31
488.837	3980.59
489.207	4040.47
489.578	4116.4
489.948	4161.83
490.318	4208.83
490.688	4247.02
491.058	4243.41
491.428	4343.97
491.798	4370.41
492.168	4515.26
492.538	4543.96
492.908	4537.63
493.278	4618.08
493.648	4618.31
494.017	4651.98
494.387	4754.8
494.757	4773.56
495.126	4834.35
495.496	4868.25
495.866	4909.83
496.235	4918.42
496.605	5000.67
496.974	5035.02
497.344	5078.19
497.713	5103.04
498.082	5147.34
498.452	5210.39
498.821	5216.94
499.19	5216.26
499.559	5332.19
499.928	5334.9
500.298	5360.44
500.667	5460.77
501.036	5456.93
501.405	5490.6
501.774	5542.58
502.143	5597.49
502.512	5606.76
502.88	5661
503.249	5663.71
503.618	5731.28
503.987	5798.39
504.356	5806.3
504.724	5817.6
505.093	5863.7
505.462	5902.34
505.83	5924.04
506.199	6060.53
506.567	6109.35
506.936	6049.46
507.304	6132.4
507.672	6231.83
508.041	6235.67
508.409	6276.35
508.777	6376.46
509.145	6384.82
509.514	6435.44
509.882	6437.25
510.25	6502.33
510.618	6543.91
510.986	6562.89
511.354	6687.41
511.722	6756.56
512.09	6803.34
512.458	6809.89
512.826	6844.01
513.193	6950.45
513.561	6901.19
513.929	7013.73
514.297	7077
514.664	7173.05
515.032	7183.22
515.4	7244.91
515.767	7297.34
516.135	7319.03
516.502	7389.31
516.869	7446.48
517.237	7513.38
517.604	7507.95
517.972	7640.15
518.339	7702.75
518.706	7702.3
519.073	7786.82
519.44	7816.42
519.808	7975.06
520.175	7949.52
520.542	8079.24
520.909	8119.69
521.276	8160.82
521.643	8292.11
522.009	8284.2
522.376	8372.56
522.743	8458.21
523.11	8566.46
523.477	8569.85
523.843	8671.76
524.21	8765.55
524.577	8871.31
524.943	8925.77
525.31	8972.32
525.676	9037.63
526.043	9115.37
526.409	9211.41
526.776	9282.37
527.142	9360.33
527.508	9377.51
527.874	9529.82
528.241	9565.3
528.607	9589.03
528.973	9696.82
529.339	9727.78
529.705	9869.02
530.071	9931.39
530.437	9986.76
530.803	10095.23
531.169	10163.02
531.535	10131.39
531.901	10249.35
532.267	10230.37
532.632	10379.29
532.998	10391.94
533.364	10531.38
533.73	10511.72
534.095	10735.66
534.461	10756.23
534.826	10776.79
535.192	10842.1
535.557	10945.38
535.923	11023.11
536.288	11102.21
536.653	11068.99
537.019	11090.01
537.384	11236.44
537.749	11245.93
538.114	11335.65
538.479	11397.12
538.845	11410.45
539.21	11513.95
539.575	11626.26
539.94	11647.05
540.305	11812.47
540.67	11694.73
541.034	11768.41
541.399	11932.24
541.764	11967.04
542.129	12078
542.494	12110.54
542.858	12145.34
543.223	12242.07
543.587	12381.72
543.952	12439.8
544.316	12406.58
544.681	12531.78
545.045	12582.62
545.41	12681.15
545.774	12796.63
546.138	12770.86
546.503	12873.01
546.867	12936.96
547.231	13144.64
547.595	13190.06
547.959	13320.45
548.324	13289.27
548.688	13391.41
549.052	13476.83
549.416	13445.88
549.779	13620.56
550.143	13659.2
550.507	13829.82
550.871	13966.31
551.235	14048.35
551.599	14178.96
551.962	14142.58
552.326	14282.46
552.689	14517.94
553.053	14417.15
553.417	14576.02
553.78	14794.09
554.143	14785.28
554.507	14834.54
554.87	15037.92
555.234	15239.73
555.597	15185.72
555.96	15407.18
556.323	15486.95
556.686	15545.03
557.05	15814.17
557.413	15810.33
557.776	16006.26
558.139	16124.45
558.502	16258.68
558.865	16373.71
559.228	16592.91
559.59	16712.46
559.953	16703.64
560.316	16996.97
560.679	17115.84
561.041	17361.48
561.404	17458.65
561.767	17690.28
562.129	17681.02
562.492	18056.83
562.854	18167.33
563.217	18240.1
563.579	18422.92
563.941	18663.37
564.304	18775.45
564.666	18986.07
565.028	19134.09
565.39	19234.42
565.753	19512.83
566.115	19707.63
566.477	19812.26
566.839	20064.91
567.201	20279.82
567.563	20372.25
567.925	20630.77
568.287	20658.79
568.648	20852.91
569.01	21054.04
569.372	21351.88
569.734	21371.09
570.095	21586.23
570.457	21860.8
570.819	22025.76
571.18	22141.24
571.542	22411.06
571.903	22503.94
572.265	22774.67
572.626	22929.02
572.987	22988.9
573.349	23186.86
573.71	23425.5
574.071	23541.43
574.432	23867.52
574.794	24002.21
575.155	24180.51
575.516	24227.96
575.877	24458.92
576.238	24712.25
576.599	24808.06
576.96	24967.15
577.32	25063.87
577.681	25316.07
578.042	25401.49
578.403	25512
578.763	25728.26
579.124	25831.54
579.485	26001.25
579.845	26211.64
580.206	26235.37
580.566	26421.81
580.927	26521.24
581.287	26786.54
581.648	26708.13
582.008	27049.36
582.368	27106.98
582.728	27155.8
583.089	27243.03
583.449	27278.51
583.809	27419.52
584.169	27659.51
584.529	27689.79
584.889	27883.69
585.249	27986.96
585.609	28054.76
585.969	28312.38
586.329	28134.98
586.688	28299.27
587.048	28487.51
587.408	28425.14
587.768	28771.8
588.127	28764.57
588.487	28804.79
588.846	28938.8
589.206	28986.48
589.565	29151.45
589.925	29232.35
590.284	29340.6
590.643	29255.86
591.003	29522.51
591.362	29743.98
591.721	29767.48
592.08	29738.55
592.44	29943.52
592.799	29920.02
593.158	30006.57
593.517	30202.27
593.876	30317.97
594.235	30342.83
594.593	30407.24
594.952	30476.61
595.311	30600.23
595.67	30751.41
596.029	30981.69
596.387	31024.62
596.746	31286.99
597.104	31117.28
597.463	31209.93
597.822	31408.57
598.18	31442.01
598.538	31326.08
598.897	31629.35
599.255	31514.33
599.613	31881.1
599.972	31849.46
600.33	32033.18
600.688	32014.65
601.046	32243.12
601.404	32401.99
601.762	32495.09
602.12	32579.84
602.478	32685.82
602.836	32762.43
603.194	32743.67
603.552	32763.11
603.91	32825.48
604.268	33088.3
604.625	32968.07
604.983	33214.85
605.341	33103.21
605.698	33509.08
606.056	33626.36
606.413	33561.5
606.771	33789.97
607.128	33943.87
607.485	33768.96
607.843	34017.54
608.2	34129.63
608.557	34408.26
608.914	34261.6
609.272	34628.14
609.629	34633.11
609.986	34845.09
610.343	34650.29
610.7	34995.37
611.057	34968.7
611.414	35036.72
611.771	35192.42
612.127	35379.54
612.484	35458.63
612.841	35627.21
613.198	35352.64
613.554	35622.92
613.911	35889.35
614.267	35833.08
614.624	35974.32
614.98	36184.03
615.337	36439.62
615.693	36325.05
616.05	36405.72
616.406	36504.48
616.762	36443.24
617.118	36697.69
617.475	36794.19
617.831	36874.86
618.187	37004.58
618.543	37063.11
618.899	37210
619.255	37253.61
619.611	37142.43
619.967	37274.4
620.323	37630.78
620.678	37608.4
621.034	37498.35
621.39	37619.02
621.746	37641.85
622.101	38054.04
622.457	38004.1
622.812	38014.27
623.168	38131.78
623.523	38104.21
623.879	38244.09
624.234	38093.59
624.589	38264.43
624.945	38416.97
625.3	38557.98
625.655	38522.28
626.01	38723.85
626.365	38654.7
626.72	38666.68
627.075	38755.04
627.43	38761.14
627.785	38720.01
628.14	38814.47
628.495	39008.59
628.85	38930.18
629.205	38937.18
629.559	39276.16
629.914	38983.51
630.269	39043.85
630.623	38962.49
630.978	39004.07
631.332	39289.94
631.687	39296.72
632.041	39310.73
632.396	39345.53
632.75	39116.84
633.104	39314.35
633.459	39214.46
633.813	39146.44
634.167	39201.58
634.521	39437.28
634.875	39432.99
635.229	39348.25
635.583	39351.18
635.937	39382.59
636.291	39322.93
636.645	39577.62
636.999	39321.13
637.352	39618.75
637.706	39309.15
638.06	39547.34
638.413	39410.84
638.767	39407.45
639.121	39534.45
639.474	39404.74
639.828	39486.09
640.181	39579.43
640.534	39590.27
640.888	39539.2
641.241	39548.69
641.594	39612.64
641.947	39835.46
642.301	39616.03
642.654	39583.49
643.007	39715.24
643.36	39781.68
643.713	39609.03
644.066	39828.46
644.419	39637.73
644.771	39470.5
645.124	39196.38
645.477	39248.59
645.83	39043.17
646.182	38870.74
646.535	38713.69
646.888	38815.38
647.24	38687.02
647.593	38953.91
647.945	38899.44
648.298	38754.36
648.65	38644.53
649.002	38760.92
649.355	38802.27
649.707	38790.52
650.059	38878.88
650.411	39513.21
650.763	39590.72
651.115	39957.49
651.467	39890.6
651.819	40093.99
652.171	39936.25
652.523	39917.72
652.875	39937.61
653.227	40020.09
653.578	40255.34
653.93	40146.87
654.282	40004.5
654.633	39927.89
654.985	40095.34
655.337	40156.81
655.688	40149.35
656.039	40303.93
656.391	39865.29
656.742	40012.63
657.094	40172.4
657.445	40345.05
657.796	40250.14
658.147	40167.43
658.498	40259.86
658.849	40308.67
659.2	40290.37
659.551	40343.02
659.902	40567.42
660.253	40272.29
660.604	40501.44
660.955	40258.05
661.306	40549.34
661.656	40395.22
662.007	40430.25
662.358	40578.95
662.708	40685.84
663.059	40731.03
663.409	40524.49
663.76	40685.61
664.11	40654.2
664.461	40907.98
664.811	40898.71
665.161	40804.03
665.511	40708.21
665.862	40847.19
666.212	41005.6
666.562	41116.33
666.912	41004.92
667.262	40911.37
667.612	40910.24
667.962	41063.23
668.312	41156.11
668.662	41287.63
669.011	41334.41
669.361	41313.62
669.711	41232.26
670.06	41226.16
670.41	41076.34
670.76	41135.32
671.109	41246.05
671.459	41286.27
671.808	41104.81
672.157	41431.35
672.507	41153.85
672.856	41364.46
673.205	41396.33
673.554	41437
673.904	41358.81
674.253	41689.65
674.602	41638.58
674.951	40990.24
675.3	40896.45
675.649	41433.39
675.998	41575.08
676.346	41675.64
676.695	41768.75
677.044	41561.52
677.393	41751.8
677.741	41889.2
678.09	41663.44
678.438	41601.75
678.787	41710.44
679.135	41707.51
679.484	41450.79
679.832	41658.47
680.181	41413.95
680.529	41768.97
680.877	41673.16
681.225	41603.1
681.573	41889.65
681.922	41648.07
682.27	41515.65
682.618	41660.95
682.966	41585.7
683.314	41705.92
683.661	41586.6
684.009	41458.25
684.357	41461.86
684.705	41363.79
685.053	41421.86
685.4	41430.9
685.748	41262.77
686.095	41294.63
686.443	41224.35
686.79	41198.14
687.138	41434.29
687.485	41252.6
687.832	41282.66
688.18	41357.01
688.527	41136.67
688.874	41135.32
689.221	41007.64
689.568	40957.69
689.915	40923.8
690.262	40842.22
690.609	40751.82
690.956	40762.67
691.303	40690.58
691.65	40602.22
691.997	40546.18
692.344	40445.84
692.69	40621.43
693.037	40531.94
693.383	40479.06
693.73	40625.95
694.077	40527.65
694.423	40402
694.769	40335.11
695.116	40300.54
695.462	40211.73
695.808	40087.89
696.155	40135.12
696.501	39861.45
696.847	39934.67
697.193	39655.36
697.539	39803.6
697.885	39665.3
698.231	39589.59
698.577	39663.72
698.923	39620.33
699.269	39624.62
699.614	39377.4
699.96	39244.29
700.306	39410.16
700.651	39223.5
700.997	39080.23
701.342	39099.44
701.688	39165.2
702.033	39098.76
702.379	39128.59
702.724	38894.47
703.069	39133.79
703.415	38692.22
703.76	38772.21
704.105	38788.94
704.45	38930.4
704.795	38682.5
705.14	38509.17
705.485	38600.02
705.83	38445.22
706.175	38408.16
706.52	38399.57
706.865	38264.43
707.209	38257.2
707.554	38271.89
707.899	38470.98
708.243	38202.06
708.588	38218.56
708.932	38094.04
709.277	38080.71
709.621	38099.24
709.966	37965.23
710.31	37898.11
710.654	37680.49
710.998	37770.43
711.342	37822.41
711.687	37884.1
712.031	37635.07
712.375	37820.6
712.719	37615.18
713.063	37689.76
713.407	37800.04
713.75	37685.46
714.094	37560.27
714.438	37265.36
714.782	37435.75
715.125	37291.8
715.469	37433.49
715.812	37269.43
716.156	37105.37
716.499	37141.98
716.843	37304.46
717.186	37063.33
717.53	37287.96
717.873	37313.72
718.216	37204.12
718.559	37229.66
718.902	36967.29
719.246	37100.62
719.589	36846.62
719.932	36912.38
720.275	36904.69
720.617	36816.11
720.96	36912.15
721.303	36844.81
721.646	36935.65
721.989	36828.76
722.331	37031.47
722.674	36857.24
723.016	36772.27
723.359	37011.36
723.701	36894.98
724.044	36625.38
724.386	36485.04
724.729	36734.75
725.071	36655.66
725.413	36727.75
725.755	36762.1
726.097	36515.55
726.439	36310.58
726.782	36353.3
727.124	36601.2
727.465	36327.76
727.807	36378.38
728.149	36357.59
728.491	36382
728.833	36396.46
729.175	36260.87
729.516	36229.68
729.858	36217.71
730.199	36216.12
730.541	36130.93
730.882	36161.44
731.224	36224.26
731.565	36053.19
731.906	36124.83
732.248	36290.25
732.589	35888.22
732.93	35974.55
733.271	35988.33
733.612	35957.83
733.953	36129.12
734.294	36010.48
734.635	35878.96
734.976	35946.98
735.317	35781.33
735.658	35959.18
735.999	35814.1
736.339	35904.49
736.68	35921.22
737.021	35901.78
737.361	35733.88
737.702	36073.53
738.042	35816.13
738.383	35850.03
738.723	35738.17
739.063	35650.94
739.404	35608.91
739.744	35556.93
740.084	35573.66
740.424	35714.89
740.764	35651.85
741.104	35841.67
741.444	35569.59
741.784	35466.54
742.124	35687.78
742.464	35613.43
742.804	35598.97
743.143	35416.15
743.483	35484.17
743.823	35354.23
744.162	35361.23
744.502	35415.02
744.841	35304.96
745.181	35453.43
745.52	35339.76
745.86	35478.29
746.199	35286.2
746.538	35327.11
746.877	35370.04
747.216	35278.07
747.556	35499.53
747.895	35472.19
748.234	35279.88
748.573	35236.49
748.911	35116.49
749.25	35238.75
749.589	35279.2
749.928	35250.95
750.267	35289.82
750.605	35100
750.944	35070.17
751.283	34868.81
751.621	35022.94
751.96	34857.29
752.298	34814.8
752.636	35005.99
752.975	34889.61
753.313	34761.25
753.651	34977.51
753.989	34649.84
754.327	34597.64
754.666	34620.91
755.004	34660.91
755.342	34752.89
755.679	34624.98
756.017	34380.47
756.355	34530.07
756.693	34380.92
757.031	34420.01
757.368	34267.7
757.706	34315.38
758.044	34128.04
758.381	34224.54
758.719	34206.23
759.056	34193.58
759.394	34103.86
759.731	33978.89
760.068	33873.13
760.405	33818.45
760.743	33739.35
761.08	33755.85
761.417	33573.03
761.754	33523.09
762.091	33373.49
762.428	33383.66
762.765	33270.66
763.102	33385.69
763.438	33252.59
763.775	33228.86
764.112	33005.13
764.449	33159.48
764.785	32942.54
765.122	32648.53
765.458	32691.92
765.795	32556.11
766.131	32590.91
766.467	32577.58
766.804	32466.39
767.14	32366.06
767.476	32378.71
767.812	32276.79
768.148	32336.23
768.485	32037.25
768.821	32004.03
769.157	31906.18
769.492	31966.52
769.828	31922.23
770.164	31677.03
770.5	31639.75
770.836	31552.52
771.171	31475.91
771.507	31387.55
771.842	31338.29
772.178	31420.77
772.513	31156.6
772.849	31153.21
773.184	31000.22
773.519	31035.7
773.855	30887.68
774.19	30907.34
774.525	30865.3
774.86	30724.97
775.195	30761.35
775.53	30667.12
775.865	30475.26
776.2	30501.47
776.535	30240.69
776.87	30119.11
777.205	30033.01
777.539	29896.52
777.874	30058.32
778.209	29838.21
778.543	29817.42
778.878	29544.44
779.212	29553.47
779.547	29507.83
779.881	29560.25
780.215	29291.56
780.55	29379.69
780.884	29147.38
781.218	29102.64
781.552	29051.11
781.886	29088.4
782.22	28982.64
782.554	28826.26
782.888	28727.06
783.222	28583.33
783.556	28450.68
783.889	28643.89
784.223	28489.55
784.557	28314.86
784.89	28357.8
785.224	28190.57
785.557	28104.47
785.891	28071.93
786.224	28095.89
786.558	28023.12
786.891	27840.53
787.224	27679.17
787.557	27641.89
787.891	27694.77
788.224	27655.9
788.557	27543.58
788.89	27606.86
789.223	27510.82
789.556	27316.02
789.888	27371.16
790.221	27180.88
790.554	27118.06
790.887	26962.36
791.219	27003.94
791.552	26925.97
791.884	26692.76
792.217	26778.86
792.549	26669.71
792.882	26695.02
793.214	26525.08
793.546	26595.59
793.879	26343.16
794.211	26302.94
794.543	26387.91
794.875	26153.56
795.207	26375.03
795.539	26294.13
795.871	26276.5
796.203	26024.75
796.535	25802.16
796.867	25780.69
797.198	25821.82
797.53	25827.47
797.862	25686.46
798.193	25709.73
798.525	25587.25
798.856	25584.77
799.188	25360.82
799.519	25243.53
799.85	25160.37
800.182	25227.26
800.513	25181.39
800.844	24974.61
801.175	25209.86
801.506	24996.98
801.837	24983.43
802.168	25000.6
802.499	24917.89
802.83	24662.98
803.161	24801.06
803.491	24805.58
803.822	24822.98
804.153	24527.17
804.483	24508.18
804.814	24481.97
805.145	24333.05
805.475	24309.77
805.805	24311.8
806.136	24261.86
806.466	24372.59
806.796	24325.82
807.126	24154.29
807.457	24151.36
807.787	24160.85
808.117	23996.56
808.447	23980.97
808.777	24060.74
809.107	23952.49
809.436	23774.19
809.766	23819.39
810.096	23752.04
810.426	23662.78
810.755	23589.11
811.085	23563.12
811.414	23599.73
811.744	23459.62
812.073	23546.17
812.403	23448.55
812.732	23415.78
813.061	23369.91
813.39	23199.97
813.719	23270.7
814.049	23337.59
814.378	23196.58
814.707	23102.8
815.036	23212.4
815.365	23051.95
815.693	22933.08
816.022	22982.57
816.351	22787.32
816.68	22679.76
817.008	22851.28
817.337	22605.63
817.665	22635.46
817.994	22628.23
818.322	22628.91
818.651	22621.45
818.979	22660.32
819.307	22677.04
819.636	22523.38
819.964	22433.21
820.292	22604.05
820.62	22556.6
820.948	22453.1
821.276	22654.9
821.604	22607.44
821.932	22438.86
822.259	22428.69
822.587	22501.46
822.915	22451.97
823.243	22559.53
823.57	22461.91
823.898	22602.47
824.225	22544.62
824.553	22562.47
824.88	22632.53
825.207	22548.23
825.535	22586.2
825.862	22629.36
826.189	22555.24
826.516	22677.04
826.843	22726.08
827.17	22852.41
827.497	22746.65
827.824	22815.8
828.151	22919.07
828.478	22807.21
828.805	22764.27
829.131	22728.12
829.458	22621.91
829.785	22569.03
830.111	22487.45
830.438	22702.36
830.764	22753.88
831.09	22859.41
831.417	22718.4
831.743	22921.56
832.069	22873.65
832.395	22773.99
832.722	22961.33
833.048	22818.74
833.374	22824.84
833.7	22825.52
834.026	22863.93
834.351	22931.95
834.677	22788.91
835.003	22861.9
835.329	22910.71
835.654	22841.33
835.98	22723.37
836.306	22776.93
836.631	22773.54
836.956	22797.04
837.282	22718.63
837.607	22759.98
837.932	22561.57
838.258	22573.77
838.583	22623.71
838.908	22403.83
839.233	22471.85
839.558	22467.11
839.883	22463.04
840.208	22466.43
840.533	22464.17
840.858	22486.32
841.182	22585.52
841.507	22566.09
841.832	22405.64
842.156	22402.7
842.481	22282.25
842.805	22303.04
843.13	22277.06
843.454	22272.76
843.778	22182.37
844.103	22180.11
844.427	22093.78
844.751	22192.76
845.075	21984.86
845.399	21939.89
845.723	21827.8
846.047	21825.32
846.371	21826.9
846.695	21875.71
847.019	21649.5
847.343	21511.65
847.666	21450.41
847.99	21356.85
848.313	21416.51
848.637	21277.76
848.96	21261.04
849.284	21261.04
849.607	21042.51
849.931	21100.82
850.254	20860.37
850.577	20810.65
850.9	20735.63
851.223	20675.74
851.546	20585.57
851.869	20318.01
852.192	20588.74
852.515	20346.71
852.838	20370.21
853.161	20360.04
853.483	20205.47
853.806	20211.35
854.129	20141.29
854.451	20126.15
854.774	20168.86
855.096	19961.18
855.419	20035.76
855.741	20169.31
856.063	19871.02
856.385	19900.39
856.708	19927.29
857.03	19723.9
857.352	19783.11
857.674	19717.35
857.996	19603.91
858.318	19596.45
858.64	19604.36
858.961	19490.46
859.283	19436.45
859.605	19424.25
859.926	19481.2
860.248	19373.85
860.57	19239.4
860.891	19328.43
861.212	19200.75
861.534	19188.78
861.855	19064.26
862.176	19161.66
862.498	19187.65
862.819	19118.04
863.14	18964.6
863.461	19161.66
863.782	19024.71
864.103	18986.29
864.424	18870.14
864.745	19087.53
865.065	18823.59
865.386	18863.59
865.707	18955.33
866.027	18874.43
866.348	18895.22
866.668	18872.85
866.989	18811.84
867.309	18740.88
867.63	18741.56
867.95	18732.06
868.27	18652.52
868.59	18645.74
868.91	18617.49
869.23	18604.38
869.55	18613.42
869.87	18659.75
870.19	18597.38
870.51	18626.98
870.83	18495.91
871.15	18402.13
871.469	18536.81
871.789	18533.2
872.109	18532.75
872.428	18320.1
872.748	18359.42
873.067	18375.24
873.386	18434.22
873.706	18476.93
874.025	18366.65
874.344	18357.61
874.663	18433.09
874.982	18408.68
875.301	18382.02
875.62	18299.98
875.939	18272.64
876.258	18349.02
876.577	18231.06
876.896	18176.37
877.214	18243.26
877.533	18252.53
877.852	18253.21
878.17	18235.81
878.489	18214.79
878.807	18081.01
879.125	18051.86
879.444	18134.79
879.762	18000.56
880.08	18139.31
880.398	17943.16
880.716	17989.48
881.034	17926.21
881.352	17867.68
881.67	17875.14
881.988	17942.93
882.306	17889.15
882.624	17893.44
882.941	17808.25
883.259	17741.81
883.577	17803.5
883.894	17782.48
884.212	17688.48
884.529	17642.6
884.846	17710.17
885.164	17662.94
885.481	17595.14
885.798	17581.36
886.115	17638.76
886.432	17550.63
886.75	17476.5
887.067	17453.68
887.383	17393.79
887.7	17479.44
888.017	17333.91
888.334	17386.56
888.651	17391.53
888.967	17300.69
889.284	17210.97
889.6	17137.3
889.917	16947.7
890.233	17036.29
890.55	16988.83
890.866	17116.29
891.182	16994.26
891.498	16988.83
891.815	16928.27
892.131	16898.67
892.447	16758.78
892.763	16786.8
893.079	16703.87
893.395	16659.58
893.71	16671.55
894.026	16608.5
894.342	16632.23
894.657	16484.67
894.973	16463.2
895.289	16498
895.604	16520.37
895.92	16327.38
896.235	16319.25
896.55	16373.48
896.865	16324.44
897.181	16275.86
897.496	16239.7
897.811	16008.07
898.126	16050.1
898.441	15995.86
898.756	15964.68
899.071	15875.42
899.386	15889.65
899.7	15827.73
900.015	15698.02
900.33	15556.78
900.644	15527.63
900.959	15604.91
901.273	15520.17
901.588	15460.06
901.902	15441.98
902.216	15426.39
902.531	15326.05
902.845	15386.84
903.159	15242.66
903.473	15174.64
903.787	15181.65
904.101	15097.81
904.415	15104.59
904.729	15068.88
905.042	15037.47
905.356	15020.75
905.67	14973.97
905.984	14956.57
906.297	14823.47
906.611	14844.26
906.924	14817.82
907.237	14778.95
907.551	14690.14
907.864	14610.59
908.177	14516.58
908.491	14479.75
908.804	14466.64
909.117	14326.98
909.43	14314.33
909.743	14300.99
910.056	14254.67
910.368	14208.34
910.681	14164.05
910.994	14074.79
911.307	14041.57
911.619	13886.77
911.932	13887.67
912.244	13861.46
912.557	13847.67
912.869	13823.72
913.181	13815.81
913.494	13781.23
913.806	13639.32
914.118	13665.76
914.43	13555.25
914.742	13503.95
915.054	13530.17
915.366	13490.39
915.678	13487.23
915.99	13367.91
916.302	13355.93
916.613	13344.86
916.925	13197.29
917.236	13185.77
917.548	13163.4
917.859	13058.99
918.171	13061.7
918.482	12942.16
918.794	12909.84
919.105	12916.85
919.416	12812.9
919.727	12775.38
920.038	12709.17
920.349	12684.31
920.66	12694.71
920.971	12735.39
921.282	12582.62
921.593	12531.32
921.903	12464.66
922.214	12438.22
922.525	12411.78
922.835	12293.36
923.146	12214.95
923.456	12177.66
923.767	12152.12
924.077	12092.01
924.387	12033.26
924.697	12009.53
925.008	11975.86
925.318	11888.18
925.628	11907.84
925.938	11870.1
926.248	11749.65
926.558	11739.93
926.867	11826.26
927.177	11701.97
927.487	11610.22
927.796	11515.08
928.106	11564.34
928.416	11480.05
928.725	11439.15
929.034	11367.51
929.344	11295.65
929.653	11288.64
929.962	11241.19
930.271	11250.23
930.581	11177.23
930.89	11151.7
931.199	11070.12
931.508	11093.17
931.817	11098.37
932.125	11043.68
932.434	11069.44
932.743	10858.37
933.051	10832.84
933.36	10851.37
933.669	10733.18
933.977	10728.43
934.286	10735.89
934.594	10747.42
934.902	10690.02
935.21	10531.15
935.519	10504.94
935.827	10514.2
936.135	10434.43
936.443	10303.81
936.751	10410.25
937.059	10360.08
937.367	10271.95
937.674	10304.71
937.982	10237.6
938.29	10140.2
938.597	10121.67
938.905	10006.64
939.213	10041.9
939.52	9918.28
939.827	9968.68
940.135	9911.73
940.442	9860.88
940.749	9890.26
941.056	9847.55
941.363	9756.71
941.67	9767.33
941.977	9619.99
942.284	9608.91
942.591	9591.97
942.898	9577.95
943.205	9607.33
943.511	9539.09
943.818	9431.29
944.125	9370.73
944.431	9406.43
944.738	9387.68
945.044	9288.02
945.35	9281.01
945.657	9197.85
945.963	9156.95
946.269	9203.27
946.575	9078.08
946.881	9071.3
947.187	9104.29
947.493	9007.8
947.799	8958.76
948.105	8911.53
948.41	8880.57
948.716	8844.64
949.022	8806.45
949.327	8853.91
949.633	8774.81
949.938	8764.64
950.244	8755.38
950.549	8733.46
950.854	8654.36
951.16	8593.35
951.465	8544.54
951.77	8580.01
952.075	8516.97
952.38	8483.29
952.685	8520.36
952.99	8373.01
953.294	8332.79
953.599	8310.87
953.904	8295.28
954.209	8166.24
954.513	8208.95
954.818	8196.52
955.122	8090.76
955.426	8146.81
955.731	8103.42
956.035	8042.18
956.339	8020.26
956.643	8019.8
956.948	7920.14
957.252	7944.78
957.556	7928.28
957.86	7874.72
958.163	7829.75
958.467	7818.68
958.771	7839.24
959.075	7763.54
959.378	7732.58
959.682	7739.13
959.985	7686.93
960.289	7599.48
960.592	7605.12
960.896	7633.37
961.199	7528.97
961.502	7503.21
961.805	7501.17
962.108	7408.29
962.411	7371.46
962.714	7356.32
963.017	7379.59
963.32	7344.79
963.623	7232.25
963.926	7232.25
964.228	7192.71
964.531	7140.73
964.833	7145.7
965.136	7115.42
965.438	7106.83
965.741	7032.26
966.043	6973.05
966.345	7050.34
966.648	6963.56
966.95	6936.44
967.252	6893.96
967.554	6925.14
967.856	6881.08
968.158	6846.95
968.46	6794.07
968.761	6785.26
969.063	6694.64
969.365	6752.04
969.666	6685.15
969.968	6641.99
970.269	6658.03
970.571	6573.74
970.872	6573.97
971.174	6542.33
971.475	6590.24
971.776	6534.42
972.077	6505.04
972.378	6472.5
972.679	6448.55
972.98	6394.31
973.281	6400.64
973.582	6326.97
973.883	6321.09
974.183	6279.06
974.484	6230.47
974.785	6237.93
975.085	6232.96
975.386	6210.36
975.686	6173.3
975.986	6105.96
976.287	6091.72
976.587	6043.81
976.887	6060.76
977.187	6089.46
977.487	6042
977.787	5991.61
978.087	5960.2
978.387	5950.25
978.687	5907.77
978.987	5907.32
979.286	5852.4
979.586	5850.59
979.885	5770.14
980.185	5793.65
980.484	5772.86
980.784	5765.63
981.083	5709.81
981.382	5695.57
981.682	5688.34
981.981	5672.29
982.28	5664.38
982.579	5568.57
982.878	5580.09
983.177	5508.23
983.475	5505.75
983.774	5447.89
984.073	5464.62
984.372	5421.23
984.67	5393.66
984.969	5438.85
985.267	5354.56
985.566	5367.44
985.864	5337.84
986.162	5301.23
986.461	5336.94
986.759	5246.32
987.057	5221.01
987.355	5234.57
987.653	5139.88
987.951	5137.85
988.249	5168.13
988.547	5129.26
988.844	5111.18
989.142	5111.63
989.44	5006.32
989.737	5018.3
990.035	4992.31
990.332	4943.27
990.63	4955.48
990.927	4902.82
991.224	4936.27
991.521	4863.95
991.819	4889.04
992.116	4873.9
992.413	4876.84
992.71	4791.19
993.006	4804.07
993.303	4734.92
993.6	4781.47
993.897	4734.92
994.193	4703.28
994.49	4650.63
994.787	4699.89
995.083	4668.03
995.379	4690.4
995.676	4667.35
995.972	4559.33
996.268	4570.4
996.565	4580.12
996.861	4508.48
997.157	4500.12
997.453	4473
997.749	4435.26
998.044	4445.21
998.34	4390.07
998.636	4342.84
998.932	4362.05
999.227	4303.29
999.523	4306
999.818	4255.16
1000.114	4278.43
1000.409	4199.11
1000.704	4204.08
1001	4188.94
1001.295	4117.08
1001.59	4157.08
1001.885	4136.74
1002.18	4023.75
1002.475	4076.86
1002.77	4071.88
1003.065	3998.89
1003.359	3982.85
1003.654	3995.95
1003.949	3969.97
1004.243	3932.91
1004.538	3912.79
1004.832	3893.81
1005.127	3917.76
1005.421	3865.11
1005.715	3916.18
1006.009	3808.84
1006.304	3773.59
1006.598	3750.31
1006.892	3766.36
1007.186	3738.11
1007.48	3712.35
1007.773	3702.63
1008.067	3674.38
1008.361	3621.73
1008.655	3597.32
1008.948	3602.74
1009.242	3596.87
1009.535	3595.74
1009.829	3530.2
1010.122	3523.42
1010.415	3500.37
1010.708	3476.19
1011.001	3466.02
1011.295	3451.34
1011.588	3434.61
1011.881	3376.76
1012.173	3364.56
1012.466	3373.82
1012.759	3330.66
1013.052	3342.64
1013.344	3326.82
1013.637	3300.38
1013.93	3238.23
1014.222	3184
1014.514	3236.43
1014.807	3222.64
1015.099	3192.59
1015.391	3137.67
1015.683	3129.31
1015.976	3084.79
1016.268	3083.44
1016.56	3077.11
1016.851	3065.58
1017.143	3010.67
1017.435	2982.87
1017.727	2964.12
1018.018	2957.11
1018.31	2941.07
1018.602	2921.86
1018.893	2874.18
1019.185	2850.45
1019.476	2850.67
1019.767	2855.42
1020.058	2816.1
1020.35	2818.36
1020.641	2785.36
1020.932	2751.24
1021.223	2765.7
1021.514	2747.4
1021.804	2721.41
1022.095	2697.01
1022.386	2684.35
1022.677	2640.74
1022.967	2622.88
1023.258	2604.8
1023.548	2601.41
1023.839	2600.74
1024.129	2561.87
1024.419	2546.5
1024.709	2523.9
1025	2510.8
1025.29	2499.04
1025.58	2449.78
1025.87	2479.16
1026.16	2386.05
1026.449	2448.2
1026.739	2377.92
1027.029	2352.83
1027.319	2386.51
1027.608	2334.98
1027.898	2324.81
1028.187	2337.92
1028.477	2318.94
1028.766	2270.35
1029.055	2242.33
1029.344	2261.54
1029.634	2240.29
1029.923	2216.79
1030.212	2198.26
1030.501	2184.7
1030.79	2172.73
1031.078	2120.98
1031.367	2151.71
1031.656	2129.56
1031.945	2122.33
1032.233	2128.21
1032.522	2081.2
1032.81	2061.99
1033.099	2038.72
1033.387	2023.58
1033.675	2030.81
1033.963	2003.92
1034.251	2026.51
1034.54	1968.89
1034.828	1966.63
1035.116	1917.82
1035.403	1925.05
1035.691	1920.3
1035.979	1890.25
1036.267	1863.58
1036.554	1871.94
1036.842	1878.27
1037.129	1832.85
1037.417	1781.1
1037.704	1814.09
1037.992	1811.15
1038.279	1780.65
1038.566	1737.71
1038.853	1737.71
1039.14	1737.71
