Data from copper_heatsink_FLMS001491_039.txt Node
Date: Tue Feb 07 10:49:51 GMT 2017
User: dcchb
Spectrometer: FLMS00149
Trigger mode: 0
Integration Time (sec): 2.000000E-2
Scans to average: 10
Electric dark correction enabled: true
Nonlinearity correction enabled: false
Boxcar width: 0
XAxis mode: Wavelengths
Number of Pixels in Spectrum: 2048
>>>>>Begin Spectral Data<<<<<
341.393	-25.69
341.776	-25.69
342.16	-25.69
342.543	-44.22
342.927	-55.97
343.31	-67.27
343.693	-58.46
344.077	-55.3
344.46	-65.46
344.843	-44.67
345.226	-40.61
345.61	-25.69
345.993	-22.75
346.376	3.69
346.759	7.75
347.142	23.12
347.525	41.65
347.908	44.36
348.291	70.35
348.674	94.53
349.057	94.76
349.44	113.74
349.823	137.69
350.206	158.71
350.588	207.52
350.971	223.79
351.354	238.71
351.737	233.51
352.119	255.21
352.502	282.32
352.884	281.19
353.267	281.42
353.65	316.22
354.032	328.2
354.414	311.7
354.797	318.25
355.179	353.06
355.562	311.25
355.944	348.99
356.326	345.37
356.709	353.28
357.091	357.58
357.473	337.01
357.855	351.25
358.238	351.47
358.62	355.09
359.002	343.79
359.384	343.34
359.766	344.02
360.148	353.73
360.53	365.94
360.912	364.13
361.294	337.91
361.676	359.38
362.057	348.99
362.439	357.58
362.821	341.3
363.203	348.76
363.584	312.38
363.966	349.44
364.348	339.5
364.729	352.6
365.111	365.71
365.493	315.54
365.874	342.43
366.256	348.31
366.637	338.82
367.019	324.58
367.4	344.24
367.781	335.43
368.163	327.52
368.544	349.89
368.925	341.76
369.306	347.86
369.688	335.43
370.069	334.3
370.45	310.34
370.831	334.3
371.212	313.28
371.593	335.2
371.974	323.68
372.355	336.78
372.736	350.12
373.117	338.59
373.498	339.5
373.879	343.11
374.26	355.99
374.641	339.72
375.021	346.05
375.402	337.91
375.783	347.63
376.163	345.15
376.544	360.97
376.925	342.43
377.305	349.89
377.686	359.38
378.066	351.7
378.447	357.35
378.827	362.55
379.208	362.32
379.588	356.45
379.968	360.29
380.349	358.71
380.729	359.38
381.109	382.89
381.489	358.93
381.87	356.67
382.25	383.11
382.63	366.39
383.01	370.91
383.39	370.91
383.77	381.08
384.15	364.13
384.53	384.69
384.91	391.47
385.29	378.59
385.67	383.56
386.049	394.41
386.429	403.45
386.809	391.25
387.189	389.21
387.568	387.63
387.948	414.97
388.328	400.06
388.707	404.13
389.087	378.59
389.466	420.85
389.846	422.43
390.225	376.11
390.605	400.74
390.984	426.05
391.363	393.51
391.743	426.27
392.122	407.97
392.501	410
392.881	439.16
393.26	433.51
393.639	440.29
394.018	431.92
394.397	421.08
394.776	415.43
395.155	437.12
395.534	442.77
395.913	424.01
396.292	450.45
396.671	429.89
397.05	433.73
397.429	460.85
397.808	452.04
398.186	451.36
398.565	450.45
398.944	435.99
399.323	449.32
399.701	444.13
400.08	436.9
400.458	465.14
400.837	450.45
401.215	459.95
401.594	462.66
401.972	451.13
402.351	465.6
402.729	464.92
403.107	482.32
403.486	467.63
403.864	459.27
404.242	491.36
404.62	479.38
404.999	490.23
405.377	485.26
405.755	485.93
406.133	498.14
406.511	504.46
406.889	504.01
407.267	516.89
407.645	502.88
408.023	496.33
408.401	519.38
408.779	485.93
409.156	538.81
409.534	537.46
409.912	515.99
410.29	547.63
410.667	534.07
411.045	550.56
411.422	539.27
411.8	532.26
412.178	562.54
412.555	555.99
412.933	537.01
413.31	553.95
413.687	549.89
414.065	572.03
414.442	543.11
414.819	565.71
415.197	591.69
415.574	602.31
415.951	587.4
416.328	583.56
416.705	582.43
417.082	580.62
417.46	593.05
417.837	590.34
418.214	585.59
418.591	602.77
418.967	649.32
419.344	630.34
419.721	618.13
420.098	631.47
420.475	622.2
420.852	636.89
421.228	647.06
421.605	639.15
421.982	630.79
422.358	629.43
422.735	649.55
423.111	646.38
423.488	662.88
423.864	673.05
424.241	670.79
424.617	668.08
424.994	679.83
425.37	690.22
425.746	671.24
426.123	683.67
426.499	707.4
426.875	686.83
427.251	699.04
427.627	724.12
428.003	734.51
428.379	734.29
428.756	740.39
429.132	734.74
429.507	726.15
429.883	739.26
430.259	768.64
430.635	772.03
431.011	767.51
431.387	764.12
431.763	788.75
432.138	817.22
432.514	802.31
432.89	825.13
433.265	831.69
433.641	814.06
434.016	819.94
434.392	840.05
434.767	816.32
435.143	858.58
435.518	881.86
435.894	852.93
436.269	871.69
436.644	865.13
437.02	864.23
437.395	869.88
437.77	886.83
438.145	882.99
438.52	897.67
438.895	909.2
439.271	889.31
439.646	916.2
440.021	919.37
440.395	924.79
440.77	928.18
441.145	945.81
441.52	969.08
441.895	949.65
442.27	929.99
442.645	986.03
443.019	974.51
443.394	967.95
443.769	979.25
444.143	972.7
444.518	995.75
444.892	984
445.267	1017.44
445.641	988.97
446.016	1028.74
446.39	1030.78
446.764	1019.48
447.139	1009.54
447.513	1039.59
447.887	1068.07
448.262	1038.91
448.636	1046.14
449.01	1044.34
449.384	1047.5
449.758	1090.21
450.132	1096.31
450.506	1066.71
450.88	1106.71
451.254	1114.62
451.628	1114.17
452.002	1148.97
452.376	1125.01
452.75	1121.62
453.123	1160.49
453.497	1181.51
453.871	1179.25
454.244	1180.15
454.618	1187.16
454.992	1234.16
455.365	1226.93
455.739	1243.2
456.112	1260.38
456.486	1242.52
456.859	1271.22
457.232	1269.87
457.606	1267.83
457.979	1334.05
458.352	1329.75
458.725	1339.02
459.099	1344.44
459.472	1353.93
459.845	1358.68
460.218	1372.92
460.591	1383.09
460.964	1411.78
461.337	1439.81
461.71	1443.2
462.083	1461.05
462.456	1454.27
462.829	1496.75
463.201	1529.75
463.574	1503.53
463.947	1541.72
464.32	1535.85
464.692	1527.49
465.065	1573.81
465.438	1601.84
465.81	1622.63
466.183	1674.15
466.555	1685.22
466.928	1677.99
467.3	1678.67
467.672	1710.99
468.045	1751.66
468.417	1730.19
468.789	1800.48
469.161	1790.98
469.534	1828.27
469.906	1867.14
470.278	1863.07
470.65	1893.35
471.022	1940.58
471.394	1959.79
471.766	1974.26
472.138	1978.1
472.51	2016.97
472.882	2053.8
473.253	2100.81
473.625	2056.06
473.997	2196.85
474.369	2159.56
474.74	2180.58
475.112	2218.09
475.484	2268.03
475.855	2285.21
476.227	2326.79
476.598	2400.46
476.97	2369.27
477.341	2436.16
477.713	2481.81
478.084	2488.37
478.455	2552.55
478.827	2593.45
479.198	2657.4
479.569	2642.26
479.94	2740.34
480.311	2760.22
480.682	2801.13
481.053	2883.16
481.424	2920.45
481.795	2961.12
482.166	2985.98
482.537	3050.84
482.908	3105.3
483.279	3109.14
483.65	3214
484.021	3279.76
484.391	3310.94
484.762	3311.17
485.133	3322.02
485.503	3407.44
485.874	3520.43
486.244	3507.1
486.615	3569.02
486.985	3670.03
487.356	3740.09
487.726	3744.38
488.097	3821.44
488.467	3877.71
488.837	3933.75
489.207	3939.85
489.578	4026.41
489.948	4074.54
490.318	4123.58
490.688	4155.22
491.058	4248.55
491.428	4270.01
491.798	4342.1
492.168	4422.55
492.538	4440.41
492.908	4464.59
493.278	4584.58
493.648	4605.83
494.017	4664.35
494.387	4691.25
494.757	4759.04
495.126	4784.13
495.496	4801.07
495.866	4835.2
496.235	4874.52
496.605	4957
496.974	4980.73
497.344	5086.49
497.713	5161.97
498.082	5078.13
498.452	5223.66
498.821	5269.99
499.19	5277.67
499.559	5351.34
499.928	5392.7
500.298	5450.32
500.667	5477.44
501.036	5492.36
501.405	5606.93
501.774	5535.74
502.143	5712.91
502.512	5699.81
502.88	5764.44
503.249	5846.24
503.618	5853.93
503.987	5899.35
504.356	5944.77
504.724	6000.82
505.093	6032.91
505.462	6063.64
505.83	6128.5
506.199	6123.53
506.567	6274.93
506.936	6259.79
507.304	6317.42
507.672	6410.52
508.041	6471.99
508.409	6507.47
508.777	6591.99
509.145	6608.48
509.514	6717.41
509.882	6725.77
510.25	6760.57
510.618	6830.85
510.986	6816.16
511.354	6927.8
511.722	7038.53
512.09	7074.91
512.458	7071.07
512.826	7203.5
513.193	7222.25
513.561	7260.44
513.929	7380.89
514.297	7412.98
514.664	7537.73
515.032	7556.71
515.4	7584.96
515.767	7683.03
516.135	7744.73
516.502	7760.54
516.869	7874.89
517.237	7924.83
517.604	7925.96
517.972	8043.25
518.339	8116.69
518.706	8206.86
519.073	8280.98
519.44	8343.35
519.808	8417.25
520.175	8466.97
520.542	8625.38
520.909	8705.38
521.276	8689.56
521.643	8781.31
522.009	8884.58
522.376	8905.6
522.743	9018.36
523.11	9107.63
523.477	9223.56
523.843	9255.65
524.21	9498.13
524.577	9521.4
524.943	9524.11
525.31	9685.01
525.676	9737.22
526.043	9829.19
526.409	9885.69
526.776	10019.92
527.142	10133.59
527.508	10141.5
527.874	10235.51
528.241	10412.23
528.607	10378.1
528.973	10543.3
529.339	10527.93
529.705	10709.39
530.071	10818.09
530.437	10868.03
530.803	10869.62
531.169	11042.27
531.535	11048.14
531.901	11119.33
532.267	11172.66
532.632	11344.86
532.998	11414.46
533.364	11541.24
533.73	11544.4
534.095	11676.15
534.461	11689.71
534.826	11863.94
535.192	11822.36
535.557	12044.05
535.923	12063.03
536.288	12116.14
536.653	12167.66
537.019	12221.67
537.384	12289.01
537.749	12449.01
538.114	12503.24
538.479	12537.37
538.845	12586.63
539.21	12652.39
539.575	12812.62
539.94	12870.92
540.305	12959.96
540.67	13010.58
541.034	13021.65
541.399	13174.64
541.764	13250.57
542.129	13357.46
542.494	13434.52
542.858	13492.15
543.223	13567.4
543.587	13680.61
543.952	13708.86
544.316	13888.97
544.681	13826.83
545.045	13972.13
545.41	14036.54
545.774	14145.91
546.138	14252.35
546.503	14375.96
546.867	14387.71
547.231	14632.45
547.595	14564.21
547.959	14679.01
548.324	14855.5
548.688	14850.75
549.052	15034.48
549.416	15071.31
549.779	15158.54
550.143	15239.9
550.507	15488.93
550.871	15557.4
551.235	15575.03
551.599	15742.71
551.962	15823.61
552.326	16006.66
552.689	16204.62
553.053	16215.46
553.417	16276.48
553.78	16565.06
554.143	16528.45
554.507	16748.1
554.87	16942.9
555.234	17184.7
555.597	17123.01
555.96	17339.5
556.323	17359.39
556.686	17570.68
557.05	17777
557.413	17860.17
557.776	18032.14
558.139	18168.86
558.502	18380.15
558.865	18460.83
559.228	18743.76
559.59	18923.64
559.953	19085.22
560.316	19287.25
560.679	19461.71
561.041	19752.32
561.404	19943.05
561.767	20002.03
562.129	20140.33
562.492	20499.64
562.854	20571.28
563.217	20749.36
563.579	20912.29
563.941	21157.25
564.304	21421.2
564.666	21742.55
565.028	21877.46
565.39	21989.55
565.753	22302.31
566.115	22493.94
566.477	22806.93
566.839	22976.87
567.201	23142.51
567.563	23483.07
567.925	23725.32
568.287	23822.04
568.648	24057.07
569.01	24339.32
569.372	24643.94
569.734	24643.26
570.095	25039.64
570.457	25237.15
570.819	25426.52
571.18	25589.68
571.542	25845.27
571.903	26101.76
572.265	26438.47
572.626	26589.65
572.987	26658.13
573.349	26985.8
573.71	27166.59
574.071	27307.38
574.432	27623.07
574.794	28008.6
575.155	28139.9
575.516	28301.7
575.877	28614.46
576.238	28805.41
576.599	28998.63
576.96	29246.08
577.32	29336.02
577.681	29572.63
578.042	29759.97
578.403	29958.38
578.763	30275.88
579.124	30487.4
579.485	30606.5
579.845	30874.74
580.206	31027.96
580.566	31140.95
580.927	31309.98
581.287	31671.1
581.648	31631.1
582.008	31970.08
582.368	31922.4
582.728	32170.52
583.089	32191.31
583.449	32469.05
583.809	32501.59
584.169	32739.32
584.529	32786.55
584.889	33308.8
585.249	33244.85
585.609	33393.09
585.969	33587.89
586.329	33582.46
586.688	33914.21
587.048	33873.76
587.408	34096.35
587.768	34058.38
588.127	34294.31
588.487	34446.85
588.846	34587.64
589.206	34611.14
589.565	34696.33
589.925	35111.24
590.284	35068.08
590.643	35265.81
591.003	35406.37
591.362	35615.18
591.721	35529.76
592.08	35875.51
592.44	35959.13
592.799	36080.93
593.158	36138.56
593.517	36259.46
593.876	36318.89
594.235	36486.34
594.593	36651.76
594.952	36884.3
595.311	36729.95
595.67	37007.46
596.029	37246.32
596.387	37378.3
596.746	37515.02
597.104	37562.92
597.463	37549.82
597.822	38012.86
598.18	37858.96
598.538	37783.94
598.897	38247.65
599.255	38147.99
599.613	38721.76
599.972	38483.13
600.33	38733.97
600.688	38621.65
601.046	38929.67
601.404	39176.67
601.762	39134.18
602.12	39351.58
602.478	39354.97
602.836	39699.37
603.194	39647.84
603.552	39769.42
603.91	39731.46
604.268	40201.73
604.625	39952.01
604.983	40409.18
605.341	40274.94
605.698	40501.83
606.056	40778.21
606.413	40787.25
606.771	41055.94
607.128	41144.53
607.485	41132.1
607.843	41310.62
608.2	41478.08
608.557	41638.07
608.914	41691.63
609.272	41921.45
609.629	42089.36
609.986	42250.94
610.343	42187.21
610.7	42599.4
611.057	42546.07
611.414	42547.65
611.771	42687.76
612.127	43077.13
612.484	43190.8
612.841	43351.93
613.198	43348.08
613.554	43495.65
613.911	43634.4
614.267	43813.38
614.624	43825.36
614.98	43923.66
615.337	44288.62
615.693	44278.91
616.05	44322.97
616.406	44576.3
616.762	44659.69
617.118	44583.31
617.475	44728.16
617.831	44876.86
618.187	44995.05
618.543	45167.47
618.899	45405.88
619.255	45383.06
619.611	45381.25
619.967	45556.84
620.323	45792.76
620.678	45770.84
621.034	45744.63
621.39	45825.53
621.746	45813.56
622.101	46275.69
622.457	46190.72
622.812	46255.13
623.168	46371.05
623.523	46456.02
623.879	46618.28
624.234	46465.52
624.589	46596.13
624.945	46695.79
625.3	46790.25
625.655	46718.62
626.01	46817.82
626.365	47110.24
626.72	46979.85
627.075	47024.14
627.43	47072.73
627.785	47080.41
628.14	47335.55
628.495	47490.35
628.85	47432.27
629.205	47278.15
629.559	47548.42
629.914	47348.43
630.269	47591.59
630.623	47568.54
630.978	47492.61
631.332	47690.12
631.687	47809.21
632.041	47750.23
632.396	47850.11
632.75	47730.12
633.104	47858.93
633.459	47730.79
633.813	47716.78
634.167	47819.38
634.521	47805.37
634.875	47893.73
635.229	47960.39
635.583	47737.8
635.937	47885.82
636.291	47969.43
636.645	47905.48
636.999	47952.71
637.352	48000.39
637.706	47660.06
638.06	48043.33
638.413	48061.86
638.767	48119.03
639.121	48153.83
639.474	47925.36
639.828	47887.17
640.181	48139.37
640.534	48142.99
640.888	48126.94
641.241	48035.87
641.594	48103.44
641.947	48169.43
642.301	48178.69
642.654	48207.84
643.007	48213.04
643.36	48125.13
643.713	48184.79
644.066	48392.02
644.419	48281.74
644.771	47981.18
645.124	47635.2
645.477	47424.81
645.83	47401.54
646.182	47304.59
646.535	47313.4
646.888	47454.42
647.24	47294.19
647.593	47557.24
647.945	47618.25
648.298	47472.95
648.65	47446.28
649.002	47341.2
649.355	47507.3
649.707	47347.98
650.059	47415.32
650.411	47894.4
650.763	48045.14
651.115	48510.66
651.467	48507.72
651.819	48503.2
652.171	48508.85
652.523	48439.25
652.875	48514.28
653.227	48359.93
653.578	48557.66
653.93	48536.42
654.282	48337.56
654.633	48433.15
654.985	48602.18
655.337	48521.96
655.688	48514.28
656.039	48621.84
656.391	48319.03
656.742	48422.75
657.094	48589.08
657.445	48742.07
657.796	48624.33
658.147	48660.26
658.498	48787.71
658.849	48815.28
659.2	48782.52
659.551	48642.18
659.902	48893.7
660.253	48737.55
660.604	48850.54
660.955	48727.15
661.306	48844.89
661.656	48867.94
662.007	48931.44
662.358	48883.53
662.708	49015.96
663.059	48991.78
663.409	48865.9
663.76	49100.47
664.11	49065.45
664.461	48977.99
664.811	48991.1
665.161	49120.59
665.511	48993.13
665.862	49162.85
666.212	49181.6
666.562	49093.7
666.912	49194.94
667.262	49113.36
667.612	49203.07
667.962	49283.52
668.312	49289.17
668.662	49517.64
669.011	49407.81
669.361	49421.37
669.711	49430.18
670.06	49316.97
670.41	49274.03
670.76	49344.54
671.109	49577.52
671.459	49373.24
671.808	49406.23
672.157	49671.98
672.507	49301.83
672.856	49400.35
673.205	49504.98
673.554	49615.94
673.904	49367.81
674.253	49645.54
674.602	49559.9
674.951	49047.37
675.3	48952
675.649	49549.95
675.998	49614.13
676.346	49580.69
676.695	49798.99
677.044	49520.8
677.393	49629.73
677.741	49643.96
678.09	49551.31
678.438	49510.41
678.787	49746.79
679.135	49690.29
679.484	49499.11
679.832	49573.46
680.181	49438.32
680.529	49724.41
680.877	49478.32
681.225	49446.45
681.573	49616.85
681.922	49361.48
682.27	49407.13
682.618	49528.71
682.966	49414.59
683.314	49488.03
683.661	49232.22
684.009	49099.8
684.357	49183.41
684.705	49083.75
685.053	49176.86
685.4	49165.78
685.748	48946.35
686.095	49086.69
686.443	48987.94
686.79	48952.23
687.138	49062.28
687.485	49150.19
687.832	48981.61
688.18	48999.23
688.527	48777.77
688.874	48802.86
689.221	48730.99
689.568	48646.25
689.915	48571.9
690.262	48694.38
690.609	48705.46
690.956	48466.14
691.303	48490.55
691.65	48242.64
691.997	48242.42
692.344	48064.12
692.69	48084.91
693.037	48154.28
693.383	47965.82
693.73	47993.16
694.077	47810.56
694.423	47904.8
694.769	47904.8
695.116	47722.66
695.462	47792.26
695.808	47698.93
696.155	47717.23
696.501	47555.2
696.847	47517.69
697.193	47293.74
697.539	47391.37
697.885	47130.58
698.231	46996.35
698.577	47043.81
698.923	47147.76
699.269	46881.1
699.614	46766.3
699.96	46750.71
700.306	46798.39
700.651	46594.55
700.997	46511.16
701.342	46587.77
701.688	46483.14
702.033	46394.78
702.379	46359.76
702.724	46230.49
703.069	46335.12
703.415	45768.58
703.76	45797.28
704.105	46058.75
704.45	45799.54
704.795	45630.06
705.14	45706.21
705.485	45518.2
705.83	45407.69
706.175	45519.78
706.52	45440.68
706.865	45394.58
707.209	45440.68
707.554	45304.42
707.899	45208.37
708.243	45037.53
708.588	45152.33
708.932	44847.25
709.277	44756.63
709.621	44836.18
709.966	44542.4
710.31	44802.96
710.654	44521.39
710.998	44536.75
711.342	44608.84
711.687	44488.62
712.031	44382.41
712.375	44232.13
712.719	44533.14
713.063	44182.19
713.407	44642.96
713.75	44241.85
714.094	44264.44
714.438	44169.3
714.782	44144.9
715.125	43944.9
715.469	43996.2
715.812	43955.07
716.156	43691.35
716.499	43728.19
716.843	43719.37
717.186	43551.24
717.53	43848.18
717.873	43871.69
718.216	43612.26
718.559	43523.67
718.902	43262.89
719.246	43436.44
719.589	43333.85
719.932	43149.44
720.275	43181.53
720.617	43127.52
720.96	43084.59
721.303	43100.18
721.646	43117.13
721.989	43028.54
722.331	43201.87
722.674	42932.73
723.016	43023.12
723.359	43008.21
723.701	42985.16
724.044	42726.63
724.386	42662.23
724.729	42814.76
725.071	42803.24
725.413	42657.93
725.755	42570.7
726.097	42537.26
726.439	42414.32
726.782	42528.22
727.124	42582.91
727.465	42462.23
727.807	42403.93
728.149	42373.42
728.491	42185.4
728.833	42430.59
729.175	42185.18
729.516	42104.73
729.858	42153.09
730.199	42007.55
730.541	42059.98
730.882	41935.01
731.224	41918.52
731.565	41710.16
731.906	42008.23
732.248	42069.92
732.589	41872.64
732.93	41670.61
733.271	41850.27
733.612	41730.72
733.953	41773.89
734.294	41596.27
734.635	41553.78
734.976	41653.66
735.317	41652.76
735.658	41628.58
735.999	41543.61
736.339	41404.63
736.68	41531.86
737.021	41346.55
737.361	41233.79
737.702	41306.56
738.042	41136.16
738.383	41193.79
738.723	41340.45
739.063	41297.06
739.404	41283.05
739.744	41153.79
740.084	41109.72
740.424	41184.07
740.764	40994.7
741.104	41259.55
741.444	40907.24
741.784	40813.91
742.124	41080.35
742.464	40862.72
742.804	40969.39
743.143	40882.39
743.483	40789.73
743.823	40499.8
744.162	40633.13
744.502	40795.38
744.841	40541.38
745.181	40766.68
745.52	40643.3
745.86	40503.64
746.199	40559.46
746.538	40446.01
746.877	40493.24
747.216	40404.43
747.556	40415.96
747.895	40486.69
748.234	40296.41
748.573	40109.07
748.911	40142.52
749.25	40208.28
749.589	39912.02
749.928	40109.07
750.267	40134.16
750.605	39971
750.944	39808.97
751.283	39806.03
751.621	39857.33
751.96	39803.09
752.298	39736.43
752.636	39759.7
752.975	39575.3
753.313	39426.6
753.651	39555.87
753.989	39298.7
754.327	39195.42
754.666	39035.88
755.004	39171.24
755.342	39230.45
755.679	39073.39
756.017	38971.25
756.355	39116.56
756.693	39020.51
757.031	38973.96
757.368	38831.59
757.706	38797.69
758.044	38519.51
758.381	38634.08
758.719	38350.25
759.056	38498.27
759.394	38314.09
759.731	38246.75
760.068	38043.82
760.405	37867.55
760.743	38024.16
761.08	37921.79
761.417	37815.12
761.754	37658.97
762.091	37605.18
762.428	37535.35
762.765	37257.62
763.102	37501.46
763.438	37339.88
763.775	37102.37
764.112	37157.96
764.449	37159.77
764.785	37105.31
765.122	36923.39
765.458	36743.74
765.795	36818.09
766.131	36598.43
766.467	36484.54
766.804	36437.08
767.14	36243.19
767.476	36358.21
767.812	36347.59
768.148	36335.16
768.485	36186.24
768.821	35773.14
769.157	35845.91
769.492	35919.35
769.828	35774.05
770.164	35566.14
770.5	35275.75
770.836	35307.84
771.171	35217
771.507	35236.21
771.842	34894.75
772.178	34751.93
772.513	34689.78
772.849	34621.76
773.184	34478.94
773.519	34560.97
773.855	34430.13
774.19	34279.85
774.525	34148.33
774.86	34144.03
775.195	34076.91
775.53	33939.74
775.865	33756.25
776.2	33607.77
776.535	33420.43
776.87	33476.48
777.205	33342.47
777.539	33272.87
777.874	33427.89
778.209	33009.6
778.543	32962.59
778.878	32799.43
779.212	32702.94
779.547	32553.34
779.881	32628.37
780.215	32285.78
780.55	32663.62
780.884	32322.84
781.218	32349.5
781.552	32284.19
781.886	32105.44
782.22	31921.94
782.554	31766.47
782.888	31517.66
783.222	31509.3
783.556	31462.75
783.889	31205.58
784.223	31094.39
784.557	31160.38
784.89	31178.23
785.224	31026.37
785.557	30912.93
785.891	30849.2
786.224	30825.25
786.558	30790.9
786.891	30595.65
787.224	30382.32
787.557	30299.84
787.891	30248.31
788.224	30317.01
788.557	30199.5
788.89	30010.35
789.223	30005.61
789.556	29737.59
789.888	29685.84
790.221	29659.18
790.554	29458.28
790.887	29531.5
791.219	29493.31
791.552	29380.54
791.884	29300.09
792.217	29207.66
792.549	29058.06
792.882	28916.15
793.214	28909.59
793.546	28886.09
793.879	28670.5
794.211	28554.8
794.543	28842.25
794.875	28494.91
795.207	28593.9
795.539	28403.17
795.871	28355.48
796.203	28072.33
796.535	28240.23
796.867	28161.59
797.198	27980.35
797.53	28011.76
797.862	27865.55
798.193	27710.75
798.525	27709.17
798.856	27550.53
799.188	27383.31
799.519	27503.98
799.85	27248.85
800.182	27309.86
800.513	27355.51
800.844	27086.59
801.175	27104.67
801.506	27024.44
801.837	26867.16
802.168	26839.36
802.499	26844.34
802.83	26678.92
803.161	26764.79
803.491	26577
803.822	26801.85
804.153	26524.57
804.483	26377.91
804.814	26424.01
805.145	26358.7
805.475	26407.74
805.805	26291.13
806.136	26158.93
806.466	26062.89
806.796	26153.51
807.126	25783.12
807.457	25791.26
807.787	25845.04
808.117	25814.53
808.447	25679.85
808.777	25950.8
809.107	25637.59
809.436	25603.47
809.766	25600.53
810.096	25501.55
810.426	25317.37
810.755	25294.55
811.085	25275.34
811.414	25302.68
811.744	25260.2
812.073	25278.5
812.403	25122.12
812.732	24957.61
813.061	25024.5
813.39	24828.34
813.719	24702.25
814.049	24886.42
814.378	24720.1
814.707	24718.97
815.036	24706.99
815.365	24532.98
815.693	24241.02
816.022	24351.07
816.351	24250.96
816.68	24180.23
817.008	24209.15
817.337	24137.74
817.665	24153.11
817.994	24278.3
818.322	24175.03
818.651	23974.81
818.979	23936.16
819.307	24022.94
819.636	23902.49
819.964	23738.88
820.292	23941.59
820.62	23809.16
820.948	23923.51
821.276	23858.65
821.604	23818.88
821.932	23886.45
822.259	23749.5
822.587	23680.35
822.915	23690.97
823.243	23829.27
823.57	23801.93
823.898	23949.5
824.225	23796.06
824.553	23731.2
824.88	23803.29
825.207	23841.7
825.535	23678.77
825.862	23698.2
826.189	23752.21
826.516	23983.39
826.843	23942.04
827.17	23902.04
827.497	23930.29
827.824	24038.08
828.151	24081.47
828.478	24019.1
828.805	24051.19
829.131	23947.01
829.458	24029.5
829.785	23942.72
830.111	23875.83
830.438	24118.08
830.764	24038.31
831.09	23993.56
831.417	23846.45
831.743	23999.21
832.069	24045.31
832.395	23841.7
832.722	23951.98
833.048	23926.45
833.374	23998.54
833.7	23877.86
834.026	23904.3
834.351	23882.61
834.677	23888.03
835.003	23875.38
835.329	23848.48
835.654	23736.17
835.98	23600.81
836.306	23662.5
836.631	23502.28
836.956	23652.78
837.282	23641.26
837.607	23529.85
837.932	23681.03
838.258	23551.77
838.583	23576.85
838.908	23454.6
839.233	23450.53
839.558	23347.48
839.883	23428.38
840.208	23369.4
840.533	23237.43
840.858	23446.69
841.182	23370.76
841.507	23356.52
841.832	23112.46
842.156	23253.24
842.481	23204.66
842.805	23174.15
843.13	23077.66
843.454	22950.2
843.778	22910.43
844.103	22909.3
844.427	22799.92
844.751	22730.77
845.075	22639.25
845.399	22632.7
845.723	22508.86
846.047	22618.23
846.371	22420.72
846.695	22507.73
847.019	22186.15
847.343	22257.34
847.666	22029.1
847.99	22125.36
848.313	22149.54
848.637	21783.23
848.96	21967.18
849.284	21907.29
849.607	21596.79
849.931	21576.23
850.254	21497.58
850.577	21339.17
850.9	21285.61
851.223	21260.3
851.546	21255.78
851.869	21181.21
852.192	21186.63
852.515	21039.07
852.838	20794.55
853.161	20858.96
853.483	20782.35
853.806	20621.68
854.129	20640.43
854.451	20559.76
854.774	20526.54
855.096	20524.95
855.419	20498.74
855.741	20539.19
856.063	20377.84
856.385	20380.55
856.708	20245.64
857.03	20216.49
857.352	20127.68
857.674	20064.18
857.996	20034.8
858.318	19828.7
858.64	19853.33
858.961	19780.79
859.283	19730.17
859.605	19628.71
859.926	19678.42
860.248	19713.45
860.57	19584.19
860.891	19705.99
861.212	19585.32
861.534	19456.06
861.855	19435.27
862.176	19514.81
862.498	19504.64
862.819	19442.27
863.14	19467.36
863.461	19382.84
863.782	19307.81
864.103	19305.78
864.424	19244.54
864.745	19277.53
865.065	19160.24
865.386	19152.79
865.707	19094.03
866.027	19230.75
866.348	19145.78
866.668	19270.07
866.989	19046.58
867.309	18991.66
867.63	19033.92
867.95	18945.11
868.27	18860.82
868.59	18838.67
868.91	18781.95
869.23	18776.07
869.55	18649.3
869.87	18757.32
870.19	18674.83
870.51	18676.87
870.83	18843.64
871.15	18630.77
871.469	18647.72
871.789	18690.65
872.109	18637.32
872.428	18567.72
872.748	18657.21
873.067	18564.1
873.386	18478.91
873.706	18682.74
874.025	18455.86
874.344	18474.16
874.663	18563.42
874.982	18418.34
875.301	18429.64
875.62	18344.45
875.939	18257.67
876.258	18272.81
876.577	18270.32
876.896	18236.2
877.214	18128.86
877.533	18228.74
877.852	18329.98
878.17	18157.56
878.489	18163.43
878.807	18192.81
879.125	18081.63
879.444	18126.6
879.762	18139.25
880.08	18102.19
880.398	18026.49
880.716	17995.3
881.034	17890
881.352	17894.52
881.67	17685.93
881.988	17804.35
882.306	17721.86
882.624	17673.5
882.941	17706.5
883.259	17686.84
883.577	17596.44
883.894	17574.07
884.212	17507.18
884.529	17497.46
884.846	17384.7
885.164	17490.46
885.481	17472.83
885.798	17462.89
886.115	17353.29
886.432	17336.34
886.75	17211.14
887.067	17255.44
887.383	17071.49
887.7	17149.22
888.017	17095.44
888.334	17216.34
888.651	17126.17
888.967	17047.98
889.284	16993.07
889.6	16884.37
889.917	16785.39
890.233	16974.77
890.55	16850.93
890.866	16837.59
891.182	16831.49
891.498	16764.83
891.815	16700.2
892.131	16569.13
892.447	16550.37
892.763	16614.32
893.079	16538.62
893.395	16468.34
893.71	16322.81
894.026	16311.28
894.342	16286.65
894.657	16191.74
894.973	16184.5
895.289	16271.96
895.604	16129.36
895.92	16100.44
896.235	16009.14
896.55	15949.03
896.865	15961.68
897.181	15865.64
897.496	15893.44
897.811	15904.06
898.126	15804.85
898.441	15718.3
898.756	15680.11
899.071	15519.44
899.386	15566.89
899.7	15516.5
900.015	15459.78
900.33	15330.97
900.644	15334.36
900.959	15280.12
901.273	15223.63
901.588	15092.1
901.902	15076.51
902.216	15018.21
902.531	14983.63
902.845	15121.48
903.159	15052.56
903.473	14927.14
903.787	14876.97
904.101	14704.54
904.415	14835.84
904.729	14681.04
905.042	14687.37
905.356	14648.05
905.67	14490.76
905.984	14510.65
906.297	14465.23
906.611	14367.6
906.924	14421.39
907.237	14291.67
907.551	14295.74
907.864	14213.26
908.177	14174.84
908.491	14086.03
908.804	14060.94
909.117	14008.97
909.43	13947.73
909.743	13875.19
910.056	13830.67
910.368	13781.86
910.681	13745.7
910.994	13740.27
911.307	13700.5
911.619	13585.02
911.932	13597
912.244	13514.97
912.557	13544.12
912.869	13379.15
913.181	13375.31
913.494	13354.52
913.806	13228.42
914.118	13287.86
914.43	13099.39
914.742	13086.05
915.054	13067.07
915.366	12962.89
915.678	12944.81
915.99	12970.58
916.302	12808.77
916.613	12693.97
916.925	12714.99
917.236	12715.67
917.548	12585.28
917.859	12621.66
918.171	12499.18
918.482	12460.53
918.794	12472.06
919.105	12318.62
919.416	12275.68
919.727	12125.85
920.038	12144.38
920.349	12160.88
920.66	12086.76
920.971	12126.08
921.282	12119.3
921.593	12038.17
921.903	11921.34
922.214	11860.1
922.525	11813.32
922.835	11806.09
923.146	11720.89
923.456	11725.41
923.767	11654.23
924.077	11646.32
924.387	11614
924.697	11557.51
925.008	11613.32
925.318	11471.86
925.628	11344.41
925.938	11348.25
926.248	11226.44
926.558	11202.49
926.867	11228.02
927.177	11165.43
927.487	11039.1
927.796	10974.47
928.106	10999.56
928.416	10971.31
928.725	10914.13
929.034	10799.11
929.344	10888.15
929.653	10867.58
929.962	10757.75
930.271	10697.87
930.581	10669.17
930.89	10528.16
931.199	10550.08
931.508	10532.22
931.817	10445.9
932.125	10517.08
932.434	10433.02
932.743	10308.73
933.051	10287.71
933.36	10260.59
933.669	10297.65
933.977	10177.43
934.286	10203.42
934.594	10162.97
934.902	10017.43
935.21	10115.96
935.519	9932.24
935.827	9957.1
936.135	9887.72
936.443	9815.41
936.751	9733.37
937.059	9751.23
937.367	9740.83
937.674	9759.81
937.982	9638.24
938.29	9603.89
938.597	9565.02
938.905	9498.58
939.213	9449.99
939.52	9422.42
939.827	9397.56
940.135	9361.86
940.442	9291.35
940.749	9267.62
941.056	9250.22
941.363	9131.13
941.67	9149.66
941.977	9116.44
942.284	9042.77
942.591	9056.33
942.898	8993.73
943.205	9039.61
943.511	8939.95
943.818	8892.94
944.125	8844.13
944.431	8830.8
944.738	8737.92
945.044	8690.01
945.35	8730.24
945.657	8659.28
945.963	8659.5
946.269	8574.99
946.575	8548.32
946.881	8534.54
947.187	8491.15
947.493	8458.38
947.799	8458.15
948.105	8292.96
948.41	8278.72
948.716	8312.62
949.022	8216.13
949.327	8232.4
949.633	8104.94
949.938	8167.99
950.244	8165.05
950.549	8034.21
950.854	7990.59
951.16	8092.29
951.465	7982.23
951.77	7997.15
952.075	7904.72
952.38	7858.85
952.685	7882.58
952.99	7781.79
953.294	7759.64
953.599	7786.31
953.904	7719.42
954.209	7634.22
954.513	7655.46
954.818	7592.87
955.122	7642.58
955.426	7553.32
955.731	7544.28
956.035	7458.63
956.339	7441
956.643	7417.95
956.948	7307.9
957.252	7407.11
957.556	7401.68
957.86	7402.36
958.163	7343.15
958.467	7262.03
958.771	7244.63
959.075	7223.84
959.378	7165.76
959.682	7143.39
959.985	7101.13
960.289	7061.58
960.592	7048.92
960.896	6989.04
961.199	6989.49
961.502	6948.59
961.805	6933.45
962.108	6843.28
962.411	6862.94
962.714	6781.36
963.017	6810.06
963.32	6775.26
963.623	6771.19
963.926	6739.33
964.228	6624.98
964.531	6670.63
964.833	6683.06
965.136	6662.49
965.438	6579.33
965.741	6490.3
966.043	6457.75
966.345	6458.21
966.648	6470.18
966.95	6411.43
967.252	6348.83
967.554	6312.67
967.856	6354.03
968.158	6261.6
968.46	6327.59
968.761	6269.06
969.063	6248.72
969.365	6199
969.666	6196.74
969.968	6086.24
970.269	6104.54
970.571	6118.55
970.872	6068.84
971.174	6010.99
971.475	5996.07
971.776	5994.49
972.077	5946.13
972.378	5916.07
972.679	5949.29
972.98	5952.46
973.281	5869.97
973.582	5872.23
973.883	5845.79
974.183	5808.05
974.484	5783.87
974.785	5764.44
975.085	5718.79
975.386	5665.01
975.686	5675.18
975.986	5648.06
976.287	5630.66
976.587	5592.92
976.887	5541.62
977.187	5556.99
977.487	5466.82
977.787	5497.78
978.087	5418.23
978.387	5404
978.687	5375.07
978.987	5358.12
979.286	5316.99
979.586	5340.5
979.885	5277.22
980.185	5310.44
980.484	5216.66
980.784	5235.64
981.083	5209.65
981.382	5227.96
981.682	5242.64
981.981	5196.77
982.28	5092.59
982.579	5051.92
982.878	5071.12
983.177	5028.19
983.475	5032.03
983.774	4985.7
984.073	4994.74
984.372	4948.19
984.67	4960.84
984.969	4932.82
985.267	4940.28
985.566	4966.27
985.864	4862.54
986.162	4827.74
986.461	4820.73
986.759	4793.39
987.057	4727.18
987.355	4721.3
987.653	4664.81
987.951	4692.38
988.249	4694.41
988.547	4657.8
988.844	4646.5
989.142	4618.25
989.44	4605.15
989.737	4579.16
990.035	4531.02
990.332	4542.78
990.63	4510.69
990.927	4486.96
991.224	4498.94
991.521	4464.59
991.819	4435.43
992.116	4405.38
992.413	4315.21
992.71	4336.23
993.006	4291.94
993.303	4295.1
993.6	4273.18
993.897	4265.27
994.193	4282.22
994.49	4229.11
994.787	4204.48
995.083	4211.71
995.379	4158.83
995.676	4154.76
995.972	4146.18
996.268	4122.45
996.565	4077.7
996.861	4084.03
997.157	4029.57
997.453	3983.02
997.749	4027.08
998.044	3939.4
998.34	3980.53
998.636	3932.17
998.932	3941.44
999.227	3931.94
999.523	3848.11
999.818	3880.42
1000.114	3875.9
1000.409	3795.68
1000.704	3782.8
1001	3772.85
1001.295	3755.68
1001.59	3754.1
1001.885	3734.44
1002.18	3673.19
1002.475	3679.52
1002.77	3638.62
1003.065	3601.11
1003.359	3592.97
1003.654	3553.65
1003.949	3545.97
1004.243	3533.54
1004.538	3498.96
1004.832	3490.37
1005.127	3510.94
1005.421	3454.22
1005.715	3486.76
1006.009	3452.64
1006.304	3412.41
1006.598	3374.9
1006.892	3336.48
1007.186	3331.51
1007.48	3333.77
1007.773	3295.13
1008.067	3300.1
1008.361	3256.48
1008.655	3221.45
1008.948	3246.54
1009.242	3204.51
1009.535	3178.07
1009.829	3177.16
1010.122	3185.07
1010.415	3122.7
1010.708	3111.63
1011.001	3061.23
1011.295	3068.46
1011.588	3039.09
1011.881	3001.57
1012.173	3014.68
1012.466	3002.93
1012.759	2925.87
1013.052	2997.73
1013.344	2927.9
1013.637	2912.99
1013.93	2891.75
1014.222	2860.33
1014.514	2851.3
1014.807	2829.83
1015.099	2844.74
1015.391	2846.32
1015.683	2813.1
1015.976	2770.17
1016.268	2765.42
1016.56	2718.19
1016.851	2726.55
1017.143	2684.29
1017.435	2705.08
1017.727	2641.36
1018.018	2648.36
1018.31	2618.76
1018.602	2611.98
1018.893	2615.14
1019.185	2560.23
1019.476	2538.08
1019.767	2531.53
1020.058	2515.03
1020.35	2486.56
1020.641	2473
1020.932	2444.07
1021.223	2425.32
1021.514	2429.61
1021.804	2385.09
1022.095	2402.27
1022.386	2384.19
1022.677	2335.38
1022.967	2335.38
1023.258	2311.65
1023.548	2308.03
1023.839	2311.87
1024.129	2285.89
1024.419	2247.02
1024.709	2221.03
1025	2216.96
1025.29	2206.79
1025.58	2185.1
1025.87	2153.01
1026.16	2183.06
1026.449	2169.96
1026.739	2124.31
1027.029	2118.66
1027.319	2106.23
1027.608	2077.53
1027.898	2073.69
1028.187	2054.48
1028.477	2036.63
1028.766	2039.11
1029.055	2015.38
1029.344	1995.95
1029.634	1966.35
1029.923	1994.82
1030.212	1951.21
1030.501	1963.86
1030.79	1919.57
1031.078	1913.24
1031.367	1861.94
1031.656	1872.11
1031.945	1870.08
1032.233	1844.32
1032.522	1817.65
1032.81	1812.23
1033.099	1811.77
1033.387	1819.91
1033.675	1783.07
1033.963	1780.59
1034.251	1779.68
1034.54	1773.36
1034.828	1729.52
1035.116	1737.2
1035.403	1699.23
1035.691	1684.55
1035.979	1678.22
1036.267	1683.87
1036.554	1665.56
1036.842	1626.02
1037.129	1599.8
1037.417	1622.17
1037.704	1611.1
1037.992	1575.17
1038.279	1567.26
1038.566	1583.76
1038.853	1583.76
1039.14	1583.76
