Data from copper_heatsink_FLMS001491_053.txt Node
Date: Tue Feb 07 10:50:11 GMT 2017
User: dcchb
Spectrometer: FLMS00149
Trigger mode: 0
Integration Time (sec): 2.000000E-2
Scans to average: 10
Electric dark correction enabled: true
Nonlinearity correction enabled: false
Boxcar width: 0
XAxis mode: Wavelengths
Number of Pixels in Spectrum: 2048
>>>>>Begin Spectral Data<<<<<
341.393	-13.43
341.776	-13.43
342.16	-13.43
342.543	-50.27
342.927	-57.05
343.31	-68.8
343.693	-58.4
344.077	-64.5
344.46	-71.74
344.843	-41.23
345.226	-27.67
345.61	-7.1
345.993	-22.02
346.376	-10.72
346.759	-6.88
347.142	22.73
347.525	39
347.908	47.81
348.291	70.63
348.674	99.11
349.057	99.79
349.44	128.03
349.823	141.82
350.206	169.61
350.588	190.63
350.971	220.23
351.354	215.26
351.737	250.74
352.119	268.82
352.502	282.61
352.884	289.84
353.267	276.05
353.65	313.79
354.032	316.73
354.414	340.01
354.797	330.97
355.179	331.87
355.562	318.99
355.944	346.56
356.326	337.52
356.709	352.43
357.091	361.02
357.473	357.41
357.855	377.29
358.238	382.04
358.62	334.13
359.002	356.28
359.384	341.36
359.766	351.98
360.148	354.69
360.53	349.04
360.912	350.17
361.294	334.13
361.676	365.99
362.057	369.16
362.439	345.88
362.821	359.89
363.203	336.62
363.584	330.97
363.966	334.13
364.348	328.71
364.729	347.69
365.111	328.03
365.493	342.04
365.874	328.93
366.256	321.7
366.637	358.99
367.019	337.75
367.4	352.66
367.781	341.59
368.163	344.07
368.544	336.84
368.925	337.52
369.306	359.67
369.688	327.35
370.069	349.5
370.45	351.08
370.831	329.84
371.212	341.81
371.593	351.53
371.974	350.17
372.355	347.01
372.736	346.78
373.117	340.23
373.498	358.54
373.879	351.76
374.26	340.91
374.641	345.65
375.021	330.97
375.402	324.64
375.783	327.8
376.163	361.25
376.544	353.79
376.925	366.45
377.305	361.47
377.686	351.3
378.066	362.38
378.447	353.11
378.827	351.53
379.208	374.81
379.588	355.6
379.968	371.42
380.349	355.6
380.729	357.63
381.109	356.73
381.489	380.46
381.87	366.22
382.25	368.25
382.63	380.23
383.01	368.48
383.39	374.58
383.77	381.36
384.15	377.97
384.53	388.59
384.91	401.92
385.29	386.11
385.67	399.66
386.049	401.92
386.429	408.03
386.809	396.05
387.189	386.11
387.568	396.05
387.948	413.22
388.328	404.41
388.707	404.18
389.087	401.92
389.466	404.64
389.846	427.46
390.225	417.07
390.605	435.82
390.984	438.08
391.363	437.86
391.743	435.14
392.122	429.49
392.501	422.49
392.881	454.58
393.26	445.31
393.639	441.02
394.018	434.92
394.397	437.86
394.776	454.35
395.155	441.47
395.534	445.99
395.913	452.09
396.292	440.57
396.671	467.91
397.05	443.73
397.429	451.41
397.808	438.53
398.186	467.01
398.565	473.79
398.944	467.23
399.323	450.74
399.701	472.66
400.08	493.67
400.458	478.98
400.837	481.24
401.215	463.62
401.594	463.17
401.972	497.52
402.351	478.31
402.729	488.25
403.107	471.08
403.486	509.49
403.864	510.62
404.242	522.37
404.62	492.54
404.999	497.74
405.377	523.5
405.755	505.2
406.133	512.43
406.511	503.16
406.889	522.15
407.267	523.05
407.645	543.62
408.023	529.38
408.401	545.65
408.779	549.72
409.156	540.45
409.534	532.54
409.912	544.07
410.29	538.64
410.667	558.3
411.045	538.42
411.422	559.66
411.8	578.87
412.178	580.9
412.555	570.96
412.933	583.16
413.31	587.68
413.687	574.12
414.065	582.94
414.442	583.16
414.819	586.55
415.197	601.24
415.574	635.14
415.951	607.12
416.328	600.56
416.705	629.04
417.082	655.48
417.46	633.78
417.837	658.87
418.214	645.53
418.591	650.73
418.967	648.92
419.344	662.71
419.721	682.14
420.098	663.16
420.475	671.97
420.852	648.02
421.228	669.04
421.605	667
421.982	689.6
422.358	688.02
422.735	676.95
423.111	697.96
423.488	721.01
423.864	697.28
424.241	718.75
424.617	709.71
424.994	692.09
425.37	704.52
425.746	733.67
426.123	743.38
426.499	746.1
426.875	757.17
427.251	775.47
427.627	753.33
428.003	752.65
428.379	768.92
428.756	781.58
429.132	774.8
429.507	795.81
429.883	788.13
430.259	800.78
430.635	818.86
431.011	784.51
431.387	863.38
431.763	839.2
432.138	841.01
432.514	861.8
432.89	850.05
433.265	859.31
433.641	856.6
434.016	864.51
434.392	901.35
434.767	900.67
435.143	904.28
435.518	887.56
435.894	916.04
436.269	935.92
436.644	906.77
437.02	950.61
437.395	926.43
437.77	963.72
438.145	961.91
438.52	977.28
438.895	986.09
439.271	972.08
439.646	1023.83
440.021	998.74
440.395	1015.92
440.77	1005.75
441.145	1009.14
441.52	1016.6
441.895	1004.39
442.27	1030.38
442.645	1034
443.019	1070.38
443.394	1050.27
443.769	1053.21
444.143	1081.45
444.518	1096.82
444.892	1060.44
445.267	1071.74
445.641	1079.65
446.016	1063.38
446.39	1079.65
446.764	1119.65
447.139	1113.77
447.513	1156.71
447.887	1123.04
448.262	1148.35
448.636	1114.9
449.01	1117.16
449.384	1127.56
449.758	1175.69
450.132	1176.37
450.506	1173.66
450.88	1171.17
451.254	1180.44
451.628	1197.16
452.002	1219.98
452.376	1225.86
452.75	1198.06
453.123	1245.97
453.497	1277.38
453.871	1249.59
454.244	1284.61
454.618	1292.75
454.992	1287.32
455.365	1292.3
455.739	1309.47
456.112	1315.35
456.486	1346.08
456.859	1362.8
457.232	1376.59
457.606	1382.46
457.979	1395.8
458.352	1402.35
458.725	1422.24
459.099	1442.58
459.472	1471.5
459.845	1480.54
460.218	1452.07
460.591	1511.95
460.964	1500.43
461.337	1543.14
461.71	1558.28
462.083	1612.06
462.456	1587.88
462.829	1630.14
463.201	1603.7
463.574	1621.1
463.947	1656.35
464.32	1666.75
464.692	1685.73
465.065	1713.75
465.438	1719.86
465.81	1732.06
466.183	1760.76
466.555	1811.38
466.928	1833.07
467.3	1800.76
467.672	1852.51
468.045	1876.01
468.417	1878.72
468.789	1881.21
469.161	1899.51
469.534	1947.65
469.906	1969.34
470.278	2007.08
470.65	2004.82
471.022	2062.22
471.394	2040.75
471.766	2122.11
472.138	2125.95
472.51	2158.26
472.882	2157.58
473.253	2224.93
473.625	2245.94
473.997	2262.21
474.369	2280.07
474.74	2315.55
475.112	2365.26
475.484	2406.84
475.855	2400.74
476.227	2447.29
476.598	2503.56
476.97	2549.21
477.341	2579.72
477.713	2610.68
478.084	2637.57
478.455	2715.76
478.827	2723.22
479.198	2777.46
479.569	2844.8
479.94	2885.47
480.311	2905.14
480.682	2937.23
481.053	3016.09
481.424	3067.39
481.795	3092.7
482.166	3116.88
482.537	3176.31
482.908	3243.21
483.279	3265.8
483.65	3299.48
484.021	3366.82
484.391	3389.42
484.762	3460.6
485.133	3480.26
485.503	3512.58
485.874	3601.16
486.244	3658.79
486.615	3713.25
486.985	3731.78
487.356	3806.13
487.726	3855.84
488.097	3910.76
488.467	3982.4
488.837	3993.69
489.207	4034.6
489.578	4132.67
489.948	4160.24
490.318	4233.01
490.688	4205.89
491.058	4284.99
491.428	4288.83
491.798	4390.97
492.168	4461.03
492.538	4493.12
492.908	4531.53
493.278	4653.79
493.648	4624.64
494.017	4661.02
494.387	4707.57
494.757	4772.66
495.126	4810.17
495.496	4837.29
495.866	4910.73
496.235	4958.41
496.605	4969.26
496.974	5024.4
497.344	5072.76
497.713	5121.8
498.082	5139.43
498.452	5237.28
498.821	5199.76
499.19	5264.4
499.559	5316.15
499.928	5333.32
500.298	5363.6
500.667	5404.96
501.036	5471.4
501.405	5518.63
501.774	5570.83
502.143	5558.85
502.512	5587.1
502.88	5639.3
503.249	5697.38
503.618	5705.51
503.987	5783.93
504.356	5780.99
504.724	5828
505.093	5906.86
505.462	5913.87
505.83	5974.66
506.199	5984.15
506.567	6109.57
506.936	6102.57
507.304	6187.54
507.672	6239.06
508.041	6268.89
508.409	6297.81
508.777	6313.18
509.145	6334.42
509.514	6420.07
509.882	6429.56
510.25	6533.29
510.618	6578.94
510.986	6580.29
511.354	6671.59
511.722	6757.69
512.09	6769.44
512.458	6810.12
512.826	6859.38
513.193	6874.3
513.561	6901.87
513.929	6980.28
514.297	7073.61
514.664	7107.06
515.032	7191.58
515.4	7271.57
515.767	7273.16
516.135	7392.7
516.502	7316.77
516.869	7427.5
517.237	7536.43
517.604	7534.84
517.972	7572.36
518.339	7667.04
518.706	7697.55
519.073	7796.53
519.44	7874.04
519.808	7936.64
520.175	7968.73
520.542	8088.95
520.909	8141.61
521.276	8199.01
521.643	8285.78
522.009	8282.4
522.376	8368.49
522.743	8415.05
523.11	8540.47
523.477	8581.37
523.843	8682.38
524.21	8758.09
524.577	8900.01
524.943	8879.89
525.31	8938.88
525.676	9030.85
526.043	9142.94
526.409	9222.71
526.776	9342.03
527.142	9351.52
527.508	9363.72
527.874	9516.04
528.241	9614.11
528.607	9624.28
528.973	9798.74
529.339	9730.94
529.705	9798.74
530.071	9890.49
530.437	10011.84
530.803	10104.49
531.169	10137.49
531.535	10079.18
531.901	10257.94
532.267	10274.21
532.632	10357.59
532.998	10441.21
533.364	10512.62
533.73	10594.65
534.095	10740.86
534.461	10696.57
534.826	10756.91
535.192	10803.91
535.557	10954.19
535.923	10960.97
536.288	11014.3
536.653	11120.74
537.019	11152.83
537.384	11214.75
537.749	11320.28
538.114	11300.85
538.479	11378.81
538.845	11476.44
539.21	11490.9
539.575	11675.53
539.94	11607.05
540.305	11776.54
540.67	11795.75
541.034	11846.6
541.399	11955.52
541.764	11995.29
542.129	12047.95
542.494	12106.25
542.858	12233.25
543.223	12265.57
543.587	12367.03
543.952	12350.08
544.316	12508.72
544.681	12525
545.045	12561.15
545.41	12741.04
545.774	12839.56
546.138	12781.71
546.503	12922.5
546.867	12977.41
547.231	13118.88
547.595	13085.43
547.959	13275.03
548.324	13345.54
548.688	13341.02
549.052	13552.99
549.416	13523.61
549.779	13498.08
550.143	13672.54
550.507	13813.55
550.871	13928.8
551.235	13948.69
551.599	14054.22
551.962	14139.87
552.326	14290.6
552.689	14425.51
553.053	14374.21
553.417	14552.74
553.78	14747.54
554.143	14820.3
554.507	14961.99
554.87	14989.79
555.234	15230.24
555.597	15175.32
555.96	15334.87
556.323	15455.54
556.686	15578.47
557.05	15726.95
557.413	15834.06
557.776	16072.47
558.139	16183.2
558.502	16304.33
558.865	16398.11
559.228	16639.92
559.59	16730.99
559.953	16841.04
560.316	17055.95
560.679	17111.54
561.041	17300.92
561.404	17550.17
561.767	17809.83
562.129	17746.33
562.492	17980.67
562.854	18081.69
563.217	18158.52
563.579	18430.15
563.941	18577.27
564.304	18753.98
564.666	18977.03
565.028	19186.52
565.39	19280.07
565.753	19540.18
566.115	19721.19
566.477	19858.59
566.839	20019.94
567.201	20217
567.563	20346.94
567.925	20578.8
568.287	20691.11
568.648	20906.92
569.01	21107.82
569.372	21381.71
569.734	21425.78
570.095	21708.93
570.457	21890.62
570.819	22019.44
571.18	22248.81
571.542	22424.85
571.903	22617.84
572.265	22770.6
572.626	22894.21
572.987	23099.41
573.349	23362
573.71	23414.43
574.071	23512.96
574.432	23768.77
574.794	24090.34
575.155	24187.74
575.516	24240.39
575.877	24515.19
576.238	24641.97
576.599	24824.56
576.96	24819.36
577.32	25150.88
577.681	25202.85
578.042	25395.84
578.403	25461.38
578.763	25627.02
579.124	25804.65
579.485	26081.48
579.845	26351.75
580.206	26314.46
580.566	26401.24
580.927	26608.24
581.287	26789.48
581.648	26742.7
582.008	27055.46
582.368	27061.34
582.728	27138.85
583.089	27205.97
583.449	27316.02
583.809	27559.4
584.169	27610.02
584.529	27725.05
584.889	28006.4
585.249	27969.34
585.609	27868.55
585.969	28219.95
586.329	28243.68
586.688	28450
587.048	28396.22
587.408	28569.55
587.768	28639.83
588.127	28746.72
588.487	28811.57
588.846	29056.09
589.206	28960.5
589.565	29030.32
589.925	29350.77
590.284	29305.12
590.643	29345.34
591.003	29421.5
591.362	29765.67
591.721	29703.3
592.08	29795.28
592.44	29943.97
592.799	30115.72
593.158	30070.07
593.517	30219.9
593.876	30243.4
594.235	30341.7
594.593	30419.21
594.952	30510.29
595.311	30511.19
595.67	30753.89
596.029	30964.74
596.387	31033.44
596.746	31103.72
597.104	31077.95
597.463	31186.88
597.822	31371.73
598.18	31329.47
598.538	31444.5
598.897	31700.08
599.255	31571.5
599.613	32045.16
599.972	31897.82
600.33	32022.79
600.688	32069.34
601.046	32241.31
601.404	32542.55
601.762	32453.51
602.12	32654.41
602.478	32773.28
602.836	32729.66
603.194	32680.17
603.552	32852.14
603.91	32882.43
604.268	33064.12
604.625	32981.63
604.983	33378.23
605.341	33201.51
605.698	33360.83
606.056	33521.51
606.413	33659.58
606.771	33792.23
607.128	33882.17
607.485	33770.76
607.843	33884.89
608.2	34192.67
608.557	34343.63
608.914	34249.85
609.272	34568.94
609.629	34656.62
609.986	34747.46
610.343	34748.59
610.7	35051.63
611.057	34971.18
611.414	35117.4
611.771	35189.94
612.127	35480.78
612.484	35417.05
612.841	35703.82
613.198	35541.57
613.554	35621.11
613.911	35852.52
614.267	35988.33
614.624	35879.86
614.98	36064.04
615.337	36309.45
615.693	36420.64
616.05	36337.02
616.406	36678.03
616.762	36562.33
617.118	36708.31
617.475	36773.4
617.831	36906.5
618.187	36833.06
618.543	37020.4
618.899	37358.01
619.255	37286.15
619.611	37226.94
619.967	37422.42
620.323	37661.74
620.678	37555.07
621.034	37550.33
621.39	37693.15
621.746	37693.37
622.101	38068.73
622.457	37830.09
622.812	38068.96
623.168	38292.91
623.523	38024.44
623.879	38409.29
624.234	38206.13
624.589	38207.03
624.945	38534.71
625.3	38600.92
625.655	38496.74
626.01	38681.82
626.365	38651.31
626.72	38739.22
627.075	38780.58
627.43	38783.97
627.785	38830.74
628.14	38868.48
628.495	38994.58
628.85	39131.08
629.205	38960.46
629.559	39305.53
629.914	39025.32
630.269	39201.13
630.623	38990.97
630.978	38985.09
631.332	39258.98
631.687	39353.44
632.041	39282.48
632.396	39282.03
632.75	39131.3
633.104	39345.08
633.459	39242.26
633.813	39304.86
634.167	39157.52
634.521	39330.62
634.875	39465.3
635.229	39414.68
635.583	39325.65
635.937	39362.71
636.291	39412.2
636.645	39512.31
636.999	39438.64
637.352	39644.51
637.706	39270.28
638.06	39544.4
638.413	39474.57
638.767	39461.91
639.121	39607
639.474	39447.45
639.828	39530.61
640.181	39658.52
640.534	39764.05
640.888	39512.31
641.241	39510.27
641.594	39486.32
641.947	39621.46
642.301	39562.48
642.654	39752.53
643.007	39757.5
643.36	39777.84
643.713	39697.39
644.066	39834.11
644.419	39650.38
644.771	39432.99
645.124	39163.62
645.477	39273.67
645.83	38965.66
646.182	38946.22
646.535	38764.53
646.888	38855.15
647.24	38565.21
647.593	38870.74
647.945	38760.92
648.298	38769.28
648.65	38771.09
649.002	38625.78
649.355	38775.15
649.707	38655.38
650.059	39021.93
650.411	39662.59
650.763	39586.2
651.115	40028.45
651.467	39953.2
651.819	39975.57
652.171	39813.54
652.523	39799.53
652.875	39921.34
653.227	39863.03
653.578	40171.05
653.93	40123.59
654.282	39877.95
654.633	39816.03
654.985	40119.98
655.337	40106.42
655.688	40170.82
656.039	40219.63
656.391	39905.97
656.742	40160.2
657.094	40193.65
657.445	40282.23
657.796	40218.73
658.147	40209.69
658.498	40314.1
658.849	40289.01
659.2	40437.71
659.551	40271.61
659.902	40434.77
660.253	40399.29
660.604	40599.51
660.955	40379.63
661.306	40550.25
661.656	40456.92
662.007	40344.15
662.358	40589.34
662.708	40604.48
663.059	40866.4
663.409	40506.41
663.76	40803.12
664.11	40788.66
664.461	40750.69
664.811	40972.16
665.161	40881.31
665.511	40694.65
665.862	40809
666.212	41180.97
666.562	41187.74
666.912	40803.57
667.262	40795.21
667.612	41034.98
667.962	41192.49
668.312	41035.88
668.662	41496.21
669.011	41313.17
669.361	41310.23
669.711	41184.13
670.06	41213.51
670.41	41059.39
670.76	41275.88
671.109	41260.96
671.459	41181.42
671.808	41150.91
672.157	41340.06
672.507	41177.58
672.856	41432.03
673.205	41296.44
673.554	41601.97
673.904	41557.68
674.253	41844.68
674.602	41666.15
674.951	41032.27
675.3	40919.05
675.649	41611.24
675.998	41678.13
676.346	41750.89
676.695	41923.32
677.044	41519.71
677.393	41665.92
677.741	41805.58
678.09	41704.12
678.438	41572.14
678.787	41779.14
679.135	41784.11
679.484	41471.58
679.832	41675.64
680.181	41486.95
680.529	41776.88
680.877	41755.87
681.225	41786.82
681.573	41920.15
681.922	41568.07
682.27	41661.18
682.618	41636.55
682.966	41712.7
683.314	41665.02
683.661	41613.27
684.009	41439.04
684.357	41355.88
684.705	41328.31
685.053	41577.11
685.4	41516.32
685.748	41414.41
686.095	41371.69
686.443	41152.04
686.79	41231.36
687.138	41269.1
687.485	41297.8
687.832	41387.97
688.18	41298.93
688.527	41147.97
688.874	41195.88
689.221	40928.99
689.568	40989.78
689.915	40923.12
690.262	40849.67
690.609	40865.27
690.956	40793.63
691.303	40780.52
691.65	40597.03
691.997	40632.51
692.344	40475
692.69	40512.96
693.037	40647.42
693.383	40552.28
693.73	40554.09
694.077	40420.08
694.423	40507.31
694.769	40288.11
695.116	40395
695.462	40225.96
695.808	39988
696.155	40230.03
696.501	39840.66
696.847	39933.54
697.193	39672.08
697.539	39744.62
697.885	39769.48
698.231	39594.57
698.577	39748.23
698.923	39677.5
699.269	39601.8
699.614	39267.34
699.96	39223.73
700.306	39468.69
700.651	39407.23
700.997	39210.62
701.342	39119.32
701.688	39235.93
702.033	39082.04
702.379	39124.07
702.724	39026.9
703.069	39224.86
703.415	38802.04
703.76	38771.76
704.105	38880.91
704.45	38836.62
704.795	38691.54
705.14	38637.76
705.485	38621.26
705.83	38508.95
706.175	38576.97
706.52	38433.92
706.865	38251.1
707.209	38362.73
707.554	38223.98
707.899	38529.28
708.243	38279.8
708.588	38359.57
708.932	38098.79
709.277	37974.04
709.621	38132.91
709.966	37845.46
710.31	37997.32
710.654	37747.61
710.998	37792.13
711.342	37918.23
711.687	37920.71
712.031	37878
712.375	37668.74
712.719	37793.71
713.063	37697.67
713.407	37707.84
713.75	37565.69
714.094	37472.59
714.438	37294.97
714.782	37429.43
715.125	37330.67
715.469	37553.94
715.812	37320.73
716.156	37260.84
716.499	37248.87
716.843	37298.13
717.186	37158.02
717.53	37428.75
717.873	37311.69
718.216	37149.88
718.559	37131.13
718.902	36818.37
719.246	37066.5
719.589	36825.15
719.932	36929.1
720.275	36934.07
720.617	36877.12
720.96	36889.1
721.303	37007.52
721.646	37013.62
721.989	36914.86
722.331	36806.84
722.674	36845.94
723.016	36964.35
723.359	36828.54
723.701	36991.7
724.044	36524.14
724.386	36480.3
724.729	36656.79
725.071	36758.71
725.413	36769.1
725.755	36704.47
726.097	36478.26
726.439	36276.69
726.782	36498.6
727.124	36624.02
727.465	36269.23
727.807	36295.9
728.149	36184.71
728.491	36363.92
728.833	36426.74
729.175	36313.97
729.516	36122.34
729.858	36214.54
730.199	36367.31
730.541	36145.17
730.882	36278.72
731.224	36201.21
731.565	36152.62
731.906	36251.38
732.248	36180.19
732.589	36017.03
732.93	35970.48
733.271	36012.74
733.612	36037.6
733.953	36142.45
734.294	35939.97
734.635	35859.98
734.976	35895.23
735.317	35795.34
735.658	35858.39
735.999	35947.2
736.339	35876.25
736.68	35953.31
737.021	35917.37
737.361	35742.46
737.702	35953.76
738.042	35906.98
738.383	35853.42
738.723	35795.8
739.063	35635.8
739.404	35844.61
739.744	35728.45
740.084	35522.13
740.424	35838.73
740.764	35697.27
741.104	35686.42
741.444	35576.14
741.784	35551.51
742.124	35715.12
742.464	35625.63
742.804	35546.09
743.143	35504.28
743.483	35548.34
743.823	35365.3
744.162	35429.93
744.502	35585.86
744.841	35480.1
745.181	35452.08
745.52	35375.24
745.86	35302.25
746.199	35408.46
746.538	35326.43
746.877	35420.21
747.216	35476.93
747.556	35386.32
747.895	35461.12
748.234	35197.62
748.573	35229.48
748.911	35353.1
749.25	35243.49
749.589	35254.79
749.928	35360.1
750.267	35379.76
750.605	35224.51
750.944	35060.67
751.283	35029.94
751.621	35048.7
751.96	34966.67
752.298	34938.64
752.636	34983.39
752.975	34818.87
753.313	34729.16
753.651	34988.13
753.989	34807.57
754.327	34720.34
754.666	34664.07
755.004	34785.2
755.342	34683.06
755.679	34672.89
756.017	34426.57
756.355	34554.02
756.693	34393.8
757.031	34517.41
757.368	34300.69
757.706	34305.21
758.044	34329.85
758.381	34245.55
758.719	34155.39
759.056	34327.59
759.394	34257.08
759.731	34062.73
760.068	33965.79
760.405	33887.37
760.743	33635.85
761.08	33664.33
761.417	33571.9
761.754	33533.71
762.091	33521.28
762.428	33380.49
762.765	33272.92
763.102	33417.55
763.438	33285.58
763.775	33141.85
764.112	33177.56
764.449	33134.85
764.785	32985.47
765.122	32910.67
765.458	32715.43
765.795	32596.56
766.131	32620.29
766.467	32662.09
766.804	32466.17
767.14	32375.1
767.476	32359.95
767.812	32407.18
768.148	32408.31
768.485	32003.13
768.821	31902.79
769.157	31945.28
769.492	31934.65
769.828	31916.58
770.164	31670.93
770.5	31684.72
770.836	31638.39
771.171	31421
771.507	31569.69
771.842	31362.01
772.178	31525.4
772.513	31334.9
772.849	31113.21
773.184	31055.58
773.519	31102.59
773.855	30839.32
774.19	30927.22
774.525	30732.43
774.86	30737.85
775.195	30767.68
775.53	30698.98
775.865	30482.04
776.2	30482.72
776.535	30251.08
776.87	30275.49
777.205	30082.5
777.539	29904.65
777.874	30027.59
778.209	29803.64
778.543	29824.2
778.878	29624.21
779.212	29580.37
779.547	29668.73
779.881	29551.89
780.215	29412.24
780.55	29443.42
780.884	29240.71
781.218	29090.66
781.552	29194.16
781.886	28983.09
782.22	28924.56
782.554	28919.82
782.888	28643.22
783.222	28642.31
783.556	28610
783.889	28662.2
784.223	28367.52
784.557	28321.19
784.89	28327.97
785.224	28116.9
785.557	28095.43
785.891	28127.07
786.224	28052.27
786.558	28172.72
786.891	27840.98
787.224	27710.36
787.557	27657.93
787.891	27541.55
788.224	27578.61
788.557	27643.24
788.89	27450.25
789.223	27455
789.556	27282.57
789.888	27290.48
790.221	27257.49
790.554	26989.7
790.887	27134.78
791.219	27070.83
791.552	26858.86
791.884	26804.62
792.217	26709.93
792.549	26631.74
792.882	26548.58
793.214	26460.9
793.546	26596.72
793.879	26308.81
794.211	26210.74
794.543	26408.02
794.875	26303.84
795.207	26463.16
795.539	26219.55
795.871	26345.65
796.203	26026.79
796.535	25952.44
796.867	25839.67
797.198	25761.26
797.53	25881.71
797.862	25634.03
798.193	25763.07
798.525	25450.08
798.856	25567.82
799.188	25316.98
799.519	25277.65
799.85	25097.32
800.182	25233.36
800.513	25280.14
800.844	25073.82
801.175	25343.64
801.506	25168.28
801.837	25047.15
802.168	24961.05
802.499	24947.72
802.83	24764.45
803.161	24795.86
803.491	24761.51
803.822	24891
804.153	24692.36
804.483	24534.62
804.814	24309.54
805.145	24318.36
805.475	24373.5
805.805	24273.61
806.136	24320.39
806.466	24377.57
806.796	24374.63
807.126	24185.48
807.457	24122.2
807.787	24186.61
808.117	24069.78
808.447	23917.01
808.777	24107.52
809.107	23931.48
809.436	23790.69
809.766	23923.79
810.096	23826.39
810.426	23568.77
810.755	23657.58
811.085	23643.12
811.414	23650.35
811.744	23534.2
812.073	23595.89
812.403	23541.2
812.732	23376.69
813.061	23331.04
813.39	23210.36
813.719	23263.02
814.049	23406.52
814.378	23211.72
814.707	23211.95
815.036	23271.15
815.365	23086.75
815.693	22920.43
816.022	22954.33
816.351	22833.2
816.68	22673.88
817.008	22886.76
817.337	22677.04
817.665	22609.48
817.994	22729.7
818.322	22791.84
818.651	22536.48
818.979	22589.59
819.307	22808.11
819.636	22607.44
819.964	22395.92
820.292	22596.37
820.62	22516.82
820.948	22445.64
821.276	22617.16
821.604	22560.66
821.932	22459.88
822.259	22557.27
822.587	22441.57
822.915	22501.91
823.243	22638.4
823.57	22543.49
823.898	22466.43
824.225	22494
824.553	22506.2
824.88	22538.74
825.207	22613.77
825.535	22647.89
825.862	22621.45
826.189	22615.8
826.516	22761.79
826.843	22633.88
827.17	22732.64
827.497	22790.94
827.824	22786.42
828.151	22879.3
828.478	22742.81
828.805	22807.44
829.131	22738.96
829.458	22605.63
829.785	22511.63
830.111	22606.76
830.438	22759.75
830.764	22774.22
831.09	22863.25
831.417	22757.49
831.743	22956.81
832.069	22859.87
832.395	22863.48
832.722	22958.62
833.048	22849.02
833.374	22969.01
833.7	22771.73
834.026	22824.84
834.351	22912.07
834.677	22903.93
835.003	22842.01
835.329	22923.82
835.654	22883.14
835.98	22778.74
836.306	22881.33
836.631	22705.07
836.956	22755.69
837.282	22822.58
837.607	22572.41
837.932	22581
838.258	22590.72
838.583	22600.44
838.908	22492.42
839.233	22644.05
839.558	22484.06
839.883	22494.22
840.208	22444.96
840.533	22498.97
840.858	22497.16
841.182	22465.98
841.507	22537.16
841.832	22451.51
842.156	22373.1
842.481	22249.71
842.805	22204.52
843.13	22326.09
843.454	22286.32
843.778	22193.22
844.103	22185.98
844.427	22056.72
844.751	22173.56
845.075	22042.94
845.399	21988.48
845.723	21887.24
846.047	21815.82
846.371	21809.05
846.695	21830.97
847.019	21651.31
847.343	21575.15
847.666	21474.14
847.99	21438.21
848.313	21357.76
848.637	21264.2
848.96	21342.62
849.284	21219.46
849.607	21063.75
849.931	21067.6
850.254	20973.81
850.577	20913.25
850.9	20781.73
851.223	20769.98
851.546	20586.93
851.869	20442.08
852.192	20572.69
852.515	20401.62
852.838	20292.02
853.161	20347.16
853.483	20242.98
853.806	20151.01
854.129	20078.02
854.451	20143.33
854.774	20092.71
855.096	20132.93
855.419	19993.05
855.741	19987.85
856.063	19897.46
856.385	19884.58
856.708	19850
857.03	19825.59
857.352	19791.25
857.674	19719.61
857.996	19564.36
858.318	19485.94
858.64	19617.46
858.961	19541.31
859.283	19504.7
859.605	19379.73
859.926	19397.36
860.248	19431.71
860.57	19269.45
860.891	19361.65
861.212	19210.02
861.534	19202.79
861.855	19166.4
862.176	19252.5
862.498	19189.68
862.819	19246.4
863.14	19071.04
863.461	19052.06
863.782	19005.5
864.103	18935.45
864.424	18975.9
864.745	19001.66
865.065	18911.04
865.386	19002.57
865.707	18944.49
866.027	18801.21
866.348	18871.5
866.668	18906.52
866.989	18846.19
867.309	18685.29
867.63	18859.52
867.95	18837.37
868.27	18641.44
868.59	18573.2
868.91	18608.23
869.23	18605.97
869.55	18584.72
869.87	18714.89
870.19	18517.61
870.51	18620.2
870.83	18514.67
871.15	18492.52
871.469	18555.57
871.789	18592.63
872.109	18548.11
872.428	18350.61
872.748	18388.8
873.067	18395.35
873.386	18540.88
873.706	18459.98
874.025	18397.84
874.344	18320.78
874.663	18464.5
874.982	18436.7
875.301	18410.26
875.62	18289.36
875.939	18342.47
876.258	18304.73
876.577	18333.2
876.896	18282.81
877.214	18247.78
877.533	18270.83
877.852	18262.47
878.17	18189.03
878.489	18148.12
878.807	18130.27
879.125	18060.9
879.444	18136.6
879.762	18002.59
880.08	18120.55
880.398	17897.74
880.716	17983.38
881.034	18000.11
881.352	17818.19
881.67	17797.4
881.988	17877.85
882.306	17920.79
882.624	17853.22
882.941	17667.46
883.259	17771.86
883.577	17755.82
883.894	17648.7
884.212	17731.86
884.529	17746.33
884.846	17727.8
885.164	17716.95
885.481	17613.22
885.798	17701.81
886.115	17528.25
886.432	17545.43
886.75	17455.94
887.067	17605.31
887.383	17422.95
887.7	17444.19
888.017	17406.68
888.334	17438.09
888.651	17285.55
888.967	17251.65
889.284	17254.14
889.6	17135.04
889.917	17017.98
890.233	17204.65
890.55	17070.86
890.866	17094.37
891.182	16981.83
891.498	16943.18
891.815	16954.94
892.131	16934.6
892.447	16807.37
892.763	16880.59
893.079	16731.44
893.395	16681.95
893.71	16770.99
894.026	16539.81
894.342	16586.58
894.657	16496.19
894.973	16473.37
895.289	16513.14
895.604	16403.99
895.92	16385.91
896.235	16256.2
896.55	16279.25
896.865	16239.47
897.181	16155.18
897.496	16222.75
897.811	16189.76
898.126	16028.41
898.441	15985.24
898.756	15963.1
899.071	15929.2
899.386	15948.18
899.7	15834.74
900.015	15788.19
900.33	15616.89
900.644	15615.99
900.959	15543.9
901.273	15590.45
901.588	15390.68
901.902	15463.45
902.216	15460.96
902.531	15359.5
902.845	15361.98
903.159	15356.11
903.473	15197.69
903.787	15073.4
904.101	15135.1
904.415	15193.17
904.729	15027.3
905.042	15010.35
905.356	14971.94
905.67	15036.57
905.984	14960.19
906.297	14917.02
906.611	14770.59
906.924	14814.43
907.237	14849.23
907.551	14727.65
907.864	14568.78
908.177	14480.65
908.491	14555.68
908.804	14438.84
909.117	14354.55
909.43	14366.53
909.743	14352.74
910.056	14343.48
910.368	14179.87
910.681	14217.61
910.994	14194.78
911.307	14064.62
911.619	13897.39
911.932	13938.52
912.244	13806.77
912.557	13847.9
912.869	13840.44
913.181	13761.57
913.494	13796.83
913.806	13671.18
914.118	13733.78
914.43	13548.47
914.742	13576.27
915.054	13477.74
915.366	13485.42
915.678	13437.97
915.99	13388.93
916.302	13282.04
916.613	13304.64
916.925	13186.67
917.236	13082.04
917.548	13103.29
917.859	13100.57
918.171	13030.97
918.482	13000.01
918.794	12942.39
919.105	12931.31
919.416	12709.85
919.727	12771.09
920.038	12696.52
920.349	12602.51
920.66	12648.83
920.971	12570.64
921.282	12529.52
921.593	12503.98
921.903	12422.4
922.214	12387.6
922.525	12460.14
922.835	12354.6
923.146	12219.69
923.456	12208.39
923.767	12137.21
924.077	12047.27
924.387	12096.08
924.697	12040.04
925.008	11957.1
925.318	11958.23
925.628	11877.1
925.938	11833.94
926.248	11722.53
926.558	11746.48
926.867	11656.32
927.177	11649.09
927.487	11571.35
927.796	11445.7
928.106	11508.53
928.416	11539.26
928.725	11432.82
929.034	11390.34
929.344	11368.64
929.653	11344.24
929.962	11259.04
930.271	11248.42
930.581	11246.61
930.89	11138.37
931.199	11057.46
931.508	11072.15
931.817	11143.79
932.125	11079.38
932.434	10994.64
932.743	10919.61
933.051	10820.63
933.36	10822.67
933.669	10765.27
933.977	10703.57
934.286	10760.52
934.594	10730.01
934.902	10635.1
935.21	10548.78
935.519	10588.32
935.827	10544.48
936.135	10406.63
936.443	10401.89
936.751	10326.64
937.059	10399.63
937.367	10242.8
937.674	10304.26
937.982	10225.85
938.29	10216.13
938.597	10109.92
938.905	10065.85
939.213	10020.2
939.52	9915.12
939.827	10047.32
940.135	9924.84
940.442	9883.71
940.749	9788.57
941.056	9878.74
941.363	9746.54
941.67	9731.85
941.977	9721.91
942.284	9661.34
942.591	9653.21
942.898	9567.33
943.205	9576.37
943.511	9487.11
943.818	9459.77
944.125	9364.17
944.431	9380.22
944.738	9293.44
945.044	9252.54
945.35	9269.26
945.657	9218.64
945.963	9208.47
946.269	9208.7
946.575	9198.76
946.881	9038.76
947.187	9061.58
947.493	9063.39
947.799	8943.85
948.105	8944.07
948.41	8794.92
948.716	8872.89
949.022	8708.15
949.327	8799.22
949.633	8742.27
949.938	8796.51
950.244	8796.73
950.549	8713.34
950.854	8646.68
951.16	8604.65
951.465	8564.2
951.77	8545.67
952.075	8525.55
952.38	8509.28
952.685	8411.21
952.99	8406.46
953.294	8337.31
953.599	8321.26
953.904	8268.84
954.209	8236.29
954.513	8227.93
954.818	8147.03
955.122	8158.33
955.426	8123.98
955.731	8086.02
956.035	8097.09
956.339	8072.01
956.643	8014.83
956.948	7898.22
957.252	7912.46
957.556	7961.5
957.86	7895.74
958.163	7882.18
958.467	7887.83
958.771	7840.15
959.075	7765.35
959.378	7730.09
959.682	7685.35
959.985	7594.96
960.289	7648.51
960.592	7632.47
960.896	7579.59
961.199	7542.53
961.502	7498.24
961.805	7564.67
962.108	7463.21
962.411	7429.31
962.714	7390.67
963.017	7383.21
963.32	7368.52
963.623	7272.93
963.926	7145.48
964.228	7154.06
964.531	7175.08
964.833	7149.54
965.136	7084.46
965.438	7033.39
965.741	7018.25
966.043	6957.46
966.345	6961.75
966.648	6907.74
966.95	6905.26
967.252	6909.55
967.554	6897.35
967.856	6898.93
968.158	6821.87
968.46	6818.7
968.761	6785.49
969.063	6772.83
969.365	6698.93
969.666	6736.9
969.968	6664.81
970.269	6610.57
970.571	6604.93
970.872	6628.2
971.174	6542.78
971.475	6509.11
971.776	6503.68
972.077	6551.37
972.378	6503.46
972.679	6450.8
972.98	6418.94
973.281	6342.56
973.582	6317.25
973.883	6323.58
974.183	6308.89
974.484	6277.7
974.785	6288.1
975.085	6259.62
975.386	6237.93
975.686	6189.34
975.986	6114.99
976.287	6066.41
976.587	6095.11
976.887	6093.07
977.187	6045.39
977.487	6050.82
977.787	5988.9
978.087	5974.89
978.387	5944.83
978.687	5955.45
978.987	5986.41
979.286	5936.92
979.586	5836.13
979.885	5847.88
980.185	5781.22
980.484	5747.09
980.784	5755.46
981.083	5783.48
981.382	5689.47
981.682	5720.43
981.981	5675.68
982.28	5616.7
982.579	5601.56
982.878	5619.87
983.177	5544.39
983.475	5621.22
983.774	5522.24
984.073	5488.57
984.372	5463.03
984.67	5371.96
984.969	5417.39
985.267	5409.02
985.566	5355.01
985.864	5327.9
986.162	5305.52
986.461	5290.84
986.759	5260.55
987.057	5209.26
987.355	5195.92
987.653	5138.3
987.951	5163.83
988.249	5137.17
988.547	5128.13
988.844	5098.07
989.142	5118.41
989.44	5008.81
989.737	4983.27
990.035	5010.16
990.332	4960.22
990.63	4936.04
990.927	4903.73
991.224	4906.66
991.521	4871.41
991.819	4893.11
992.116	4878.64
992.413	4844.52
992.71	4836.84
993.006	4783.5
993.303	4795.26
993.6	4748.25
993.897	4749.61
994.193	4787.8
994.49	4683.85
994.787	4671.87
995.083	4668.93
995.379	4692.89
995.676	4653.11
995.972	4620.8
996.268	4543.06
996.565	4541.48
996.861	4518.43
997.157	4448.82
997.453	4452.44
997.749	4444.3
998.044	4383.51
998.34	4432.1
998.636	4357.3
998.932	4352.1
999.227	4295.61
999.523	4321.37
999.818	4257.42
1000.114	4211.77
1000.409	4224.42
1000.704	4215.61
1001	4211.54
1001.295	4169.28
1001.59	4149.4
1001.885	4134.03
1002.18	4075.05
1002.475	4042.05
1002.77	4104.88
1003.065	4040.47
1003.359	4014.48
1003.654	4013.58
1003.949	3997.08
1004.243	3897.65
1004.538	3931.32
1004.832	3897.65
1005.127	3864.43
1005.421	3839.12
1005.715	3843.42
1006.009	3836.86
1006.304	3802.06
1006.598	3788.95
1006.892	3730.2
1007.186	3698.11
1007.48	3736.07
1007.773	3709.63
1008.067	3668.73
1008.361	3637.55
1008.655	3661.05
1008.948	3633.48
1009.242	3581.5
1009.535	3570.2
1009.829	3531.11
1010.122	3547.83
1010.415	3507.61
1010.708	3512.35
1011.001	3496.31
1011.295	3448.85
1011.588	3431.9
1011.881	3414.95
1012.173	3375.18
1012.466	3352.58
1012.759	3349.42
1013.052	3311.68
1013.344	3299.25
1013.637	3282.07
1013.93	3231
1014.222	3237.1
1014.514	3221.06
1014.807	3204.79
1015.099	3172.93
1015.391	3153.72
1015.683	3165.92
1015.976	3094.06
1016.268	3096.09
1016.56	3111.01
1016.851	3080.72
1017.143	3050.44
1017.435	2995.98
1017.727	2979.71
1018.018	2962.99
1018.31	2959.82
1018.602	2920.95
1018.893	2888.64
1019.185	2889.77
1019.476	2861.97
1019.767	2843.22
1020.058	2815.19
1020.35	2791.01
1020.641	2761.64
1020.932	2808.41
1021.223	2737.91
1021.514	2713.95
1021.804	2704.01
1022.095	2700.85
1022.386	2669.44
1022.677	2635.09
1022.967	2616.56
1023.258	2629.21
1023.548	2589.21
1023.839	2554.64
1024.129	2588.99
1024.419	2542.43
1024.709	2508.31
1025	2488.42
1025.29	2477.8
1025.58	2481.19
1025.87	2440.74
1026.16	2440.29
1026.449	2432.38
1026.739	2393.96
1027.029	2389.22
1027.319	2388.09
1027.608	2335.88
1027.898	2356.22
1028.187	2318.48
1028.477	2291.82
1028.766	2286.62
1029.055	2259.05
1029.344	2268.54
1029.634	2233.06
1029.923	2239.62
1030.212	2177.92
1030.501	2205.49
1030.79	2165.95
1031.078	2143.8
1031.367	2132.05
1031.656	2128.21
1031.945	2110.58
1032.233	2104.03
1032.522	2076.23
1032.81	2092.95
1033.099	2047.08
1033.387	2026.51
1033.675	2014.31
1033.963	2020.86
1034.251	2005.72
1034.54	1978.61
1034.828	1945.84
1035.116	1917.14
1035.403	1939.06
1035.691	1922.79
1035.979	1924.6
1036.267	1913.98
1036.554	1867.65
1036.842	1878.27
1037.129	1860.19
1037.417	1838.72
1037.704	1821.1
1037.992	1817.48
1038.279	1808.89
1038.566	1782
1038.853	1782
1039.14	1782
