Data from copper_heatsink_FLMS001491_082.txt Node
Date: Tue Feb 07 10:50:42 GMT 2017
User: dcchb
Spectrometer: FLMS00149
Trigger mode: 0
Integration Time (sec): 2.000000E-2
Scans to average: 10
Electric dark correction enabled: true
Nonlinearity correction enabled: false
Boxcar width: 0
XAxis mode: Wavelengths
Number of Pixels in Spectrum: 2048
>>>>>Begin Spectral Data<<<<<
341.393	-0.2
341.776	-0.2
342.16	-0.2
342.543	-44.49
342.927	-68.22
343.31	-77.26
343.693	-74.55
344.077	-86.75
344.46	-58.95
344.843	-63.92
345.226	-46.75
345.61	-18.28
345.993	2.51
346.376	19.69
346.759	17.2
347.142	14.94
347.525	49.07
347.908	53.59
348.291	56.75
348.674	91.1
349.057	121.61
349.44	119.57
349.823	137.65
350.206	150.08
350.588	211.1
350.971	230.08
351.354	260.81
351.737	265.33
352.119	283.64
352.502	259.91
352.884	293.58
353.267	321.15
353.65	299
354.032	297.42
354.414	336.74
354.797	326.8
355.179	347.36
355.562	313.47
355.944	356.63
356.326	356.86
356.709	343.75
357.091	362.5
357.473	368.61
357.855	348.04
358.238	364.31
358.62	332.67
359.002	350.98
359.384	339.68
359.766	363.41
360.148	380.58
360.53	354.14
360.912	361.15
361.294	327.48
361.676	341.71
362.057	374.48
362.439	371.32
362.821	335.61
363.203	354.6
363.584	375.84
363.966	355.05
364.348	350.3
364.729	330.87
365.111	333.13
365.493	347.14
365.874	348.49
366.256	349.62
366.637	362.96
367.019	364.09
367.4	344.65
367.781	341.04
368.163	328.16
368.544	334.26
368.925	345.78
369.306	351.21
369.688	332.9
370.069	343.3
370.45	338.32
370.831	354.82
371.212	357.31
371.593	334.48
371.974	351.21
372.355	334.48
372.736	360.02
373.117	341.49
373.498	365.44
373.879	333.13
374.26	341.71
374.641	362.28
375.021	346.69
375.402	331.09
375.783	371.09
376.163	360.02
376.544	358.66
376.925	380.13
377.305	338.32
377.686	379.68
378.066	359.79
378.447	366.35
378.827	369.06
379.208	343.3
379.588	362.96
379.968	378.1
380.349	369.28
380.729	380.81
381.109	358.66
381.489	401.6
381.87	394.82
382.25	381.26
382.63	378.1
383.01	379.68
383.39	387.36
383.77	374.03
384.15	387.59
384.53	389.4
384.91	368.38
385.29	383.3
385.67	387.81
386.049	369.06
386.429	399.11
386.809	396.4
387.189	405.67
387.568	406.57
387.948	396.18
388.328	416.29
388.707	416.06
389.087	427.36
389.466	426.68
389.846	412.9
390.225	405.89
390.605	433.92
390.984	439.34
391.363	434.59
391.743	437.76
392.122	450.19
392.501	462.61
392.881	458.55
393.26	450.86
393.639	453.58
394.018	429.62
394.397	432.79
394.776	468.26
395.155	440.24
395.534	447.02
395.913	458.1
396.292	486.57
396.671	449.51
397.05	468.72
397.429	462.39
397.808	471.43
398.186	479.56
398.565	478.43
398.944	480.47
399.323	473.91
399.701	478.43
400.08	483.86
400.458	480.02
400.837	487.25
401.215	482.28
401.594	491.99
401.972	483.18
402.351	503.97
402.729	484.08
403.107	491.99
403.486	509.17
403.864	490.18
404.242	484.76
404.62	506.91
404.999	510.52
405.377	515.04
405.755	524.08
406.133	506
406.511	536.51
406.889	552.1
407.267	521.6
407.645	520.47
408.023	560.92
408.401	541.26
408.779	562.05
409.156	593.23
409.534	567.02
409.912	577.41
410.29	558.21
410.667	566.34
411.045	584.19
411.422	586.91
411.8	596.85
412.178	586
412.555	616.51
412.933	616.51
413.31	602.5
413.687	626.9
414.065	627.36
414.442	635.04
414.819	636.17
415.197	629.16
415.574	632.1
415.951	636.62
416.328	641.14
416.705	664.19
417.082	651.31
417.46	648.82
417.837	647.69
418.214	651.76
418.591	680.91
418.967	661.48
419.344	683.85
419.721	689.5
420.098	687.69
420.475	710.07
420.852	682.72
421.228	670.52
421.605	709.39
421.982	723.63
422.358	707.35
422.735	703.74
423.111	725.21
423.488	750.74
423.864	742.83
424.241	745.77
424.617	755.49
424.994	749.39
425.37	734.7
425.746	754.36
426.123	750.97
426.499	758.43
426.875	778.76
427.251	795.71
427.627	786.9
428.003	806.79
428.379	804.98
428.756	806.79
429.132	829.84
429.507	838.42
429.883	825.54
430.259	827.35
430.635	870.29
431.011	850.85
431.387	902.38
431.763	860.12
432.138	898.31
432.514	913.22
432.89	885.2
433.265	920
433.641	925.43
434.016	933.56
434.392	954.35
434.767	950.74
435.143	961.36
435.518	974.92
435.894	961.36
436.269	971.75
436.644	985.99
437.02	1019.21
437.395	981.7
437.77	999.32
438.145	1027.57
438.52	1033
438.895	1028.02
439.271	1035.48
439.646	1044.97
440.021	1063.73
440.395	1054.01
440.77	1057.63
441.145	1071.41
441.52	1083.84
441.895	1088.36
442.27	1095.14
442.645	1116.38
443.019	1103.73
443.394	1124.29
443.769	1112.99
444.143	1081.36
444.518	1125.87
444.892	1116.61
445.267	1145.31
445.641	1178.3
446.016	1167.68
446.39	1183.05
446.764	1174.46
447.139	1179.88
447.513	1188.92
447.887	1190.28
448.262	1206.78
448.636	1184.18
449.01	1230.73
449.384	1228.92
449.758	1228.02
450.132	1237.51
450.506	1245.42
450.88	1241.58
451.254	1264.18
451.628	1284.74
452.002	1271.63
452.376	1272.54
452.75	1286.1
453.123	1314.34
453.497	1325.42
453.871	1344.17
454.244	1340.56
454.618	1364.74
454.992	1356.15
455.365	1386.21
455.739	1410.16
456.112	1448.13
456.486	1447.45
456.859	1434.79
457.232	1450.16
457.606	1488.8
457.979	1495.13
458.352	1529.03
458.725	1532.87
459.099	1530.84
459.472	1589.59
459.845	1588.24
460.218	1607.9
460.591	1612.42
460.964	1651.51
461.337	1696.48
461.71	1683.6
462.083	1665.3
462.456	1706.2
462.829	1726.08
463.201	1733.99
463.574	1721.56
463.947	1736.25
464.32	1796.82
464.692	1809.92
465.065	1809.92
465.438	1841.11
465.81	1849.7
466.183	1877.27
466.555	1916.59
466.928	1939.64
467.3	1945.74
467.672	1955.68
468.045	2002.01
468.417	2012.86
468.789	2002.01
469.161	2038.84
469.534	2050.6
469.906	2137.15
470.278	2137.6
470.65	2161.55
471.022	2190.71
471.394	2244.04
471.766	2248.1
472.138	2273.19
472.51	2309.57
472.882	2387.99
473.253	2379.17
473.625	2415.33
473.997	2440.64
474.369	2470.92
474.74	2492.62
475.112	2556.35
475.484	2579.17
475.855	2607.64
476.227	2635.89
476.598	2696.68
476.97	2683.57
477.341	2804.25
477.713	2797.47
478.084	2829.33
478.455	2868.43
478.827	2959.72
479.198	3018.48
479.569	3041.08
479.94	3088.99
480.311	3126.5
480.682	3155.65
481.053	3259.38
481.424	3319.49
481.795	3347.28
482.166	3376.89
482.537	3446.27
482.908	3519.94
483.279	3576.88
483.65	3583.89
484.021	3630.89
484.391	3686.71
484.762	3734.17
485.133	3798.35
485.503	3796.76
485.874	3909.08
486.244	3941.39
486.615	3996.31
486.985	4029.75
487.356	4093.71
487.726	4168.96
488.097	4206.92
488.467	4261.16
488.837	4329.18
489.207	4390.42
489.578	4456.41
489.948	4502.96
490.318	4515.62
490.688	4528.95
491.058	4653.92
491.428	4704.76
491.798	4792.44
492.168	4870.63
492.538	4899.33
492.908	4924.87
493.278	4979.56
493.648	5008.03
494.017	5071.99
494.387	5093
494.757	5185.65
495.126	5246.9
495.496	5262.26
495.866	5305.2
496.235	5360.34
496.605	5446.89
496.974	5469.94
497.344	5485.99
497.713	5588.13
498.082	5578.41
498.452	5597.17
498.821	5657.51
499.19	5735.02
499.559	5737.05
499.928	5765.3
500.298	5817.5
500.667	5920.1
501.036	5890.95
501.405	5963.71
501.774	6017.72
502.143	6028.12
502.512	6099.3
502.88	6129.58
503.249	6186.98
503.618	6193.99
503.987	6239.64
504.356	6307.21
504.724	6383.82
505.093	6488.22
505.462	6398.05
505.83	6447.54
506.199	6542.23
506.567	6613.19
506.936	6565.05
507.304	6678.04
507.672	6739.06
508.041	6843.46
508.409	6876.46
508.777	6920.98
509.145	7033.52
509.514	7014.31
509.882	7034.87
510.25	7177.01
510.618	7105.83
510.986	7197.35
511.354	7240.74
511.722	7301.76
512.09	7393.05
512.458	7382.88
512.826	7520.28
513.193	7521.64
513.561	7570.45
513.929	7640.51
514.297	7692.26
514.664	7790.11
515.032	7819.94
515.4	7905.58
515.767	7911.01
516.135	8025.58
516.502	8042.3
516.869	8159.14
517.237	8221.06
517.604	8150.77
517.972	8343.31
518.339	8403.65
518.706	8433.03
519.073	8445.23
519.44	8500.6
519.808	8661.27
520.175	8593.7
520.542	8828.04
520.909	8908.49
521.276	8835.73
521.643	8979.68
522.009	9080.47
522.376	9192.33
522.743	9155.04
523.11	9352.55
523.477	9409.05
523.843	9467.12
524.21	9538.76
524.577	9591.87
524.943	9732.2
525.31	9778.08
525.676	9876.38
526.043	9932.65
526.409	10117.73
526.776	10167.67
527.142	10193.43
527.508	10286.09
527.874	10409.7
528.241	10465.97
528.607	10542.35
528.973	10729.24
529.339	10658.05
529.705	10828.9
530.071	10865.05
530.437	10908.22
530.803	11018.04
531.169	11131.04
531.535	11123.13
531.901	11237.02
532.267	11264.82
532.632	11419.61
532.998	11360.41
533.364	11516.34
533.73	11568.76
534.095	11686.27
534.461	11731.02
534.826	11821.41
535.192	11961.75
535.557	12033.84
535.923	12036.55
536.288	12171.01
536.653	12291.68
537.019	12177.34
537.384	12302.08
537.749	12396.54
538.114	12480.83
538.479	12498.91
538.845	12643.99
539.21	12603.31
539.575	12738
539.94	12843.76
540.305	12820.03
540.67	12926.24
541.034	12966.02
541.399	13061.61
541.764	13174.82
542.129	13236.74
542.494	13374.59
542.858	13377.3
543.223	13479.67
543.587	13666.11
543.952	13655.26
544.316	13718.54
544.681	13739.55
545.045	13907.69
545.41	13921.47
545.774	14022.71
546.138	14107.91
546.503	14207.34
546.867	14259.77
547.231	14403.27
547.595	14449.82
547.959	14501.34
548.324	14614.56
548.688	14729.81
549.052	14803.48
549.416	14902.46
549.779	15067.65
550.143	15141.78
550.507	15311.94
550.871	15381.32
551.235	15360.3
551.599	15623.57
551.962	15611.82
552.326	15783.79
552.689	16006.61
553.053	15988.53
553.417	16030.34
553.78	16372.25
554.143	16287.06
554.507	16522.76
554.87	16648.4
555.234	16821.96
555.597	16827.38
555.96	16933.14
556.323	17108.5
556.686	17292.91
557.05	17560.02
557.413	17606.8
557.776	17699.68
558.139	17968.14
558.502	17939.9
558.865	18172.21
559.228	18379.88
559.59	18524.96
559.953	18567.22
560.316	18880.44
560.679	19077.72
561.041	19266.19
561.404	19403.13
561.767	19744.59
562.129	19729
562.492	19880.86
562.854	20116.11
563.217	20199.95
563.579	20510.22
563.941	20595.19
564.304	20805.36
564.666	20980.72
565.028	21055.29
565.39	21413.93
565.753	21664.09
566.115	21820.47
566.477	22030.18
566.839	22185.89
567.201	22455.48
567.563	22534.8
567.925	22788.58
568.287	23045.07
568.648	23130.27
569.01	23495.23
569.372	23774.09
569.734	23742.91
570.095	24021.09
570.457	24308.09
570.819	24511.93
571.18	24529.55
571.542	24826.72
571.903	24956.66
572.265	25327.95
572.626	25498.57
572.987	25618.79
573.349	25839.12
573.71	26021.04
574.071	26223.52
574.432	26509.84
574.794	26841.13
575.155	26868.47
575.516	26988.02
575.877	27237.05
576.238	27352.3
576.599	27551.62
576.96	27762.69
577.32	27862.35
577.681	28021.21
578.042	28250.81
578.403	28305.05
578.763	28543.68
579.124	28782.55
579.485	28892.15
579.845	29202.42
580.206	29063.9
580.566	29481.96
580.927	29393.15
581.287	29771
581.648	29766.03
582.008	30125.34
582.368	30119.91
582.728	30297.31
583.089	30336.41
583.449	30486.91
583.809	30580.92
584.169	30729.39
584.529	30845.32
584.889	31117.4
585.249	31076.95
585.609	31177.97
585.969	31305.87
586.329	31443.04
586.688	31607.78
587.048	31656.37
587.408	31706.77
587.768	31746.76
588.127	31912.64
588.487	31857.27
588.846	32151.95
589.206	32099.3
589.565	32273.76
589.925	32513.07
590.284	32705.61
590.643	32774.53
591.003	32779.28
591.362	32996.67
591.721	32988.77
592.08	33065.6
592.44	33322.99
592.799	33396.21
593.158	33283.67
593.517	33386.27
593.876	33570.67
594.235	33594.17
594.593	33799.37
594.952	33969.53
595.311	34055.4
595.67	34020.15
596.029	34384.21
596.387	34462.85
596.746	34534.49
597.104	34527.93
597.463	34389.41
597.822	34639.57
598.18	34745.1
598.538	34943.29
598.897	34973.57
599.255	34815.84
599.613	35420.57
599.972	35359.32
600.33	35416.5
600.688	35371.53
601.046	35744.4
601.404	35868.92
601.762	35863.04
602.12	36090.38
602.478	36278.4
602.836	36168.79
603.194	36057.16
603.552	36433.19
603.91	36322.46
604.268	36589.12
604.625	36610.14
604.983	36850.13
605.341	36645.17
605.698	37000.86
606.056	37148.2
606.413	37249.44
606.771	37397.01
607.128	37542.77
607.485	37406.5
607.843	37562.66
608.2	37786.61
608.557	38006.49
608.914	37767.62
609.272	38237.67
609.629	38334.16
609.986	38403.31
610.343	38375.97
610.7	38707.49
611.057	38685.34
611.414	38716.52
611.771	38853.7
612.127	38982.96
612.484	39216.4
612.841	39410.29
613.198	39140.24
613.554	39370.07
613.911	39750.62
614.267	39692.54
614.624	39847.34
614.98	39909.94
615.337	40233.77
615.693	40198.07
616.05	40292.08
616.406	40389.25
616.762	40391.51
617.118	40501.11
617.475	40507.89
617.831	40881.44
618.187	40867.2
618.543	41054.32
618.899	41208.44
619.255	41044.15
619.611	41092.96
619.967	41371.37
620.323	41598.03
620.678	41523.23
621.034	41470.12
621.39	41519.39
621.746	41507.19
622.101	42008.87
622.457	41708.31
622.812	41746.95
623.168	42117.11
623.523	42035.99
623.879	42273.49
624.234	41979.94
624.589	42348.29
624.945	42345.36
625.3	42448.86
625.655	42433.26
626.01	42525.46
626.365	42552.13
626.72	42679.81
627.075	42709.19
627.43	42805.46
627.785	42586.25
628.14	42813.59
628.495	42972.91
628.85	42852.91
629.205	42915.06
629.559	43260.13
629.914	42888.39
630.269	43010.87
630.623	43109.18
630.978	43020.14
631.332	43254.48
631.687	43258.55
632.041	43284.54
632.396	43415.84
632.75	43224.2
633.104	43397.53
633.459	43150.98
633.813	43260.13
634.167	43268.72
634.521	43292.22
634.875	43490.18
635.229	43378.55
635.583	43262.17
635.937	43260.81
636.291	43375.84
636.645	43515.27
636.999	43486.12
637.352	43562.5
637.706	43251.09
638.06	43609.28
638.413	43527.02
638.767	43494.7
639.121	43676.17
639.474	43363.18
639.828	43422.16
640.181	43582.61
640.534	43467.36
640.888	43511.65
641.241	43372.9
641.594	43595.49
641.947	43514.82
642.301	43582.39
642.654	43607.02
643.007	43747.58
643.36	43732.44
643.713	43721.59
644.066	43893.11
644.419	43673.91
644.771	43374.48
645.124	43247.7
645.477	43141.72
645.83	43009.29
646.182	42852.46
646.535	42775.4
646.888	42859.92
647.24	42711.9
647.593	42848.39
647.945	42957.99
648.298	42715.06
648.65	42531.34
649.002	42437.33
649.355	42893.59
649.707	42845
650.059	43068.95
650.411	43478.43
650.763	43703.74
651.115	44059.43
651.467	44055.14
651.819	44007.91
652.171	44007.23
652.523	43948.25
652.875	43899.89
653.227	43912.77
653.578	44163.39
653.93	44064.18
654.282	43928.14
654.633	43844.98
654.985	43980.79
655.337	44077.29
655.688	44228.47
656.039	44289.49
656.391	43897.86
656.742	44157.96
657.094	44193.22
657.445	44317.06
657.796	44272.08
658.147	44228.47
658.498	44260.11
658.849	44311.41
659.2	44301.69
659.551	44273.67
659.902	44477.73
660.253	44381.91
660.604	44610.38
660.955	44382.14
661.306	44594.11
661.656	44570.83
662.007	44527.22
662.358	44716.82
662.708	44697.38
663.059	44736.03
663.409	44525.64
663.76	44768.12
664.11	44756.82
664.461	44953.42
664.811	44909.58
665.161	44896.7
665.511	44831.17
665.862	44836.36
666.212	45096.24
666.562	45023.93
666.912	45043.82
667.262	44872.52
667.612	45061.44
667.962	45067.54
668.312	45058.73
668.662	45333.75
669.011	45303.47
669.361	45177.82
669.711	45180.76
670.06	45185.05
670.41	45345.73
670.76	45300.98
671.109	45455.56
671.459	45462.56
671.808	45344.82
672.157	45538.94
672.507	45309.12
672.856	45247.88
673.205	45288.1
673.554	45456.01
673.904	45374.43
674.253	45597.25
674.602	45502.11
674.951	45133.3
675.3	44721.11
675.649	45524.03
675.998	45506.63
676.346	45644.25
676.695	45849.22
677.044	45686.74
677.393	45687.64
677.741	45715.89
678.09	45663.23
678.438	45680.18
678.787	45863
679.135	45789.33
679.484	45624.59
679.832	45782.1
680.181	45585.04
680.529	45823.68
680.877	45600.64
681.225	45607.42
681.573	45971.25
681.922	45751.14
682.27	45630.01
682.618	45600.86
682.966	45551.15
683.314	45607.19
683.661	45548.21
684.009	45381.21
684.357	45480.64
684.705	45271.38
685.053	45608.32
685.4	45456.46
685.748	45325.39
686.095	45362.68
686.443	45345.95
686.79	45315.9
687.138	45432.51
687.485	45387.76
687.832	45221.44
688.18	45270.48
688.527	45115.9
688.874	45265.5
689.221	45106.86
689.568	44948.45
689.915	45046.08
690.262	45078.84
690.609	45047.21
690.956	44901.22
691.303	44816.7
691.65	44708.91
691.997	44821.45
692.344	44649.02
692.69	44613.32
693.037	44775.57
693.383	44347.56
693.73	44654.45
694.077	44356.15
694.423	44287.23
694.769	44141.47
695.116	44252.2
695.462	44241.12
695.808	44077.29
696.155	44309.6
696.501	44030.73
696.847	44027.8
697.193	43743.28
697.539	43877.97
697.885	43655.83
698.231	43683.17
698.577	43669.16
698.923	43542.39
699.269	43362.28
699.614	43302.62
699.96	43339.91
700.306	43483.86
700.651	43195.05
700.997	43123.87
701.342	43159.57
701.688	43012.68
702.033	42875.96
702.379	43095.39
702.724	43056.52
703.069	43084.55
703.415	42714.39
703.76	42814.27
704.105	42714.61
704.45	42726.81
704.795	42674.16
705.14	42561.17
705.485	42531.79
705.83	42344.68
706.175	42395.75
706.52	42557.55
706.865	42312.14
707.209	42195.08
707.554	42201.4
707.899	42233.95
708.243	42322.53
708.588	42125.02
708.932	41902.43
709.277	41963.9
709.621	41964.35
709.966	41642.78
710.31	41866.5
710.654	41534.53
710.998	41731.36
711.342	41724.58
711.687	41658.82
712.031	41612.72
712.375	41582.66
712.719	41748.76
713.063	41591.03
713.407	41654.53
713.75	41301.09
714.094	41440.29
714.438	41306.06
714.782	41442.55
715.125	41249.11
715.469	41368.88
715.812	41395.55
716.156	41135.22
716.499	41159.4
716.843	41201.88
717.186	40975.9
717.53	41299.96
717.873	41200.98
718.216	41292.95
718.559	40986.07
718.902	40807.54
719.246	40825.17
719.589	40826.3
719.932	40693.2
720.275	40796.7
720.617	41029.46
720.96	40772.29
721.303	40878.28
721.646	40752.18
721.989	40802.57
722.331	40894.32
722.674	40713.08
723.016	40962.12
723.359	40670.15
723.701	40842.34
724.044	40536.14
724.386	40481.45
724.729	40598.06
725.071	40453.2
725.413	40459.98
725.755	40327.33
726.097	40269.03
726.439	40184.96
726.782	40341.57
727.124	40550.15
727.465	40309.02
727.807	40355.13
728.149	40160.55
728.491	40203.26
728.833	40099.09
729.175	40088.69
729.516	40130.5
729.858	40098.18
730.199	40214.34
730.541	40085.3
730.882	40035.59
731.224	40144.51
731.565	40013.67
731.906	40032.65
732.248	40033.55
732.589	39920.56
732.93	39878.08
733.271	40041.01
733.612	40139.31
733.953	40108.13
734.294	39938.19
734.635	39996.26
734.976	39986.55
735.317	39628.36
735.658	39652.77
735.999	39839.43
736.339	39810.28
736.68	39901.35
737.021	39785.2
737.361	39642.83
737.702	39758.98
738.042	39514.92
738.383	39694.13
738.723	39832.43
739.063	39681.47
739.404	39727.57
739.744	39753.79
740.084	39476.5
740.424	39621.59
740.764	39579.78
741.104	39734.58
741.444	39504.98
741.784	39351.99
742.124	39545.88
742.464	39549.27
742.804	39524.19
743.143	39585.43
743.483	39620.91
743.823	39277.41
744.162	39446.22
744.502	39600.34
744.841	39281.93
745.181	39481.02
745.52	39336.4
745.86	39340.24
746.199	39354.7
746.538	39473.57
746.877	39561.93
747.216	39349.95
747.556	39087.14
747.895	39238.09
748.234	39134.37
748.573	39286.23
748.911	39194.03
749.25	39259.56
749.589	39199.22
749.928	39172.33
750.267	39220.24
750.605	38969.63
750.944	39055.05
751.283	39045.33
751.621	39100.47
751.96	38821.38
752.298	38918.78
752.636	38816.63
752.975	38650.31
753.313	38531.44
753.651	38688.5
753.989	38441.28
754.327	38575.51
754.666	38418.23
755.004	38354.27
755.342	38539.35
755.679	38361.51
756.017	38223.43
756.355	38314.73
756.693	38140.04
757.031	38321.05
757.368	38105.24
757.706	38129.65
758.044	38038.8
758.381	37912.48
758.719	37752.71
759.056	37987.5
759.394	37932.14
759.731	37583.22
760.068	37691.69
760.405	37593.39
760.743	37549.32
761.08	37627.74
761.417	37426.61
761.754	37257.58
762.091	37242.44
762.428	37227.75
762.765	37135.32
763.102	37446.95
763.438	37074.53
763.775	36970.81
764.112	37010.13
764.449	37051.71
764.785	36854.43
765.122	36756.12
765.458	36558.39
765.795	36590.93
766.131	36534.21
766.467	36303.48
766.804	36417.83
767.14	36115.24
767.476	36123.6
767.812	35959.53
768.148	36144.16
768.485	35900.33
768.821	35822.36
769.157	35722.7
769.492	35646.32
769.828	35620.79
770.164	35206.56
770.5	35203.85
770.836	35096.51
771.171	34993.01
771.507	35037.53
771.842	34852.22
772.178	35027.13
772.513	34927.02
772.849	34746.01
773.184	34771.09
773.519	34628.72
773.855	34458.33
774.19	34372.91
774.525	34407.71
774.86	34290.65
775.195	34228.73
775.53	34103.54
775.865	34027.16
776.2	33851.12
776.535	33611.12
776.87	33570.22
777.205	33592.82
777.539	33453.16
777.874	33505.59
778.209	33193.73
778.543	33200.74
778.878	33092.04
779.212	33066.5
779.547	32960.29
779.881	33141.98
780.215	32884.14
780.55	32859.96
780.884	32758.04
781.218	32645.72
781.552	32664.93
781.886	32460.64
782.22	32328.22
782.554	32303.36
782.888	31903.82
783.222	31997.38
783.556	31872.41
783.889	31940.66
784.223	31646.65
784.557	31665.41
784.89	31772.07
785.224	31508.8
785.557	31500.22
785.891	31444.4
786.224	31369.6
786.558	31347.23
786.891	31074.01
787.224	30974.36
787.557	30996.5
787.891	30833.12
788.224	30921.93
788.557	30860.46
788.89	30721.71
789.223	30643.29
789.556	30432
789.888	30453.92
790.221	30449.85
790.554	30153.81
790.887	30083.98
791.219	30035.17
791.552	30021.84
791.884	29968.96
792.217	29874.05
792.549	29748.4
792.882	29698
793.214	29542.3
793.546	29643.54
793.879	29444.9
794.211	29296.66
794.543	29585.47
794.875	29358.35
795.207	29555.86
795.539	29399.48
795.871	29335.3
796.203	29103.22
796.535	29065.25
796.867	29065.93
797.198	28934.18
797.53	28975.99
797.862	28705.04
798.193	28802.21
798.525	28513.85
798.856	28650.57
799.188	28462.78
799.519	28379.62
799.85	28165.62
800.182	28307.31
800.513	28309.34
800.844	28025.05
801.175	28322.9
801.506	28145.5
801.837	28052.4
802.168	27919.07
802.499	27983.7
802.83	27786.64
803.161	27732.63
803.491	27695.35
803.822	27728.34
804.153	27554.11
804.483	27489.02
804.814	27409.7
805.145	27443.15
805.475	27366.09
805.805	27200.89
806.136	27252.42
806.466	27324.06
806.796	27298.29
807.126	27042.48
807.457	26997.28
807.787	26960
808.117	26757.29
808.447	26852.88
808.777	26960.45
809.107	26744.41
809.436	26727.69
809.766	26751.42
810.096	26640.23
810.426	26676.61
810.755	26630.29
811.085	26632.55
811.414	26572.44
811.744	26342.16
812.073	26342.39
812.403	26399.56
812.732	26348.26
813.061	26376.28
813.39	26237.98
813.719	26211.77
814.049	26287.92
814.378	26141.04
814.707	26063.07
815.036	25940.82
815.365	25832.57
815.693	25655.62
816.022	25680.26
816.351	25654.27
816.68	25608.39
817.008	25696.75
817.337	25455.86
817.665	25452.92
817.994	25501.73
818.322	25599.81
818.651	25427.38
818.979	25219.03
819.307	25404.11
819.636	25380.38
819.964	25145.36
820.292	25303.77
820.62	25379.02
820.948	25228.29
821.276	25332.92
821.604	25291.34
821.932	25325.01
822.259	25472.8
822.587	25349.64
822.915	25263.77
823.243	25368.17
823.57	25407.04
823.898	25369.98
824.225	25383.99
824.553	25301.51
824.88	25348.97
825.207	25515.06
825.535	25163.43
825.862	25334.73
826.189	25177.9
826.516	25423.54
826.843	25626.47
827.17	25509.87
827.497	25554.61
827.824	25478.23
828.151	25651.56
828.478	25593.71
828.805	25682.06
829.131	25548.74
829.458	25468.06
829.785	25539.24
830.111	25470.32
830.438	25729.75
830.764	25724.55
831.09	25801.84
831.417	25638.68
831.743	25850.87
832.069	25886.13
832.395	25781.95
832.722	25679.13
833.048	25594.61
833.374	25734.04
833.7	25569.3
834.026	25700.82
834.351	25662.4
834.677	25642.74
835.003	25743.08
835.329	25703.08
835.654	25769.52
835.98	25598
836.306	25681.84
836.631	25525.23
836.956	25656.75
837.282	25487.49
837.607	25350.77
837.932	25332.24
838.258	25473.48
838.583	25388.97
838.908	25312.58
839.233	25576.08
839.558	25438
839.883	25334.5
840.208	25277.1
840.533	25308.74
840.858	25343.54
841.182	25360.27
841.507	25340.15
841.832	25167.5
842.156	25251.12
842.481	25246.82
842.805	25104.23
843.13	25105.36
843.454	25050.22
843.778	24888.19
844.103	24999.6
844.427	24837.79
844.751	24850.45
845.075	24858.13
845.399	24759.15
845.723	24597.57
846.047	24661.75
846.371	24520.97
846.695	24463.79
847.019	24305.15
847.343	24124.82
847.666	24059.06
847.99	23957.36
848.313	24053.63
848.637	23925.5
848.96	23903.35
849.284	23810.25
849.607	23581.1
849.931	23653.19
850.254	23593.31
850.577	23551.5
850.9	23373.88
851.223	23407.77
851.546	23277.61
851.869	23064.05
852.192	23298.4
852.515	23094.11
852.838	22860.67
853.161	23050.5
853.483	22843.27
853.806	22802.59
854.129	22757.4
854.451	22697.51
854.774	22673.56
855.096	22549.72
855.419	22551.98
855.741	22528.93
856.063	22363.51
856.385	22429.49
856.708	22290.97
857.03	22179.11
857.352	22235.38
857.674	22092.33
857.996	22031.99
858.318	22030.41
858.64	22050.07
858.961	21936.4
859.283	21866.57
859.605	21769.85
859.926	21794.26
860.248	21807.14
860.57	21751.32
860.891	21764.2
861.212	21704.09
861.534	21706.35
861.855	21754.26
862.176	21657.54
862.498	21635.17
862.819	21643.75
863.14	21702.96
863.461	21590.42
863.782	21406.25
864.103	21499.12
864.424	21424.78
864.745	21440.14
865.065	21295.51
865.386	21207.83
865.707	21238.11
866.027	21211.9
866.348	21292.35
866.668	21322.86
866.989	21169.42
867.309	21147.27
867.63	21187.72
867.95	21173.48
868.27	21032.24
868.59	21069.98
868.91	21026.37
869.23	20964.9
869.55	20984.11
869.87	21157.66
870.19	21019.81
870.51	21033.15
870.83	21012.13
871.15	20923.77
871.469	20749.54
871.789	20898.91
872.109	20833.15
872.428	20708.64
872.748	20741.63
873.067	20794.51
873.386	20865.47
873.706	20879.71
874.025	20732.14
874.344	20714.51
874.663	20843.77
874.982	20717.22
875.301	20627.06
875.62	20607.62
875.939	20598.58
876.258	20611.01
876.577	20450.56
876.896	20630.67
877.214	20594.51
877.533	20594.97
877.852	20534.18
878.17	20539.83
878.489	20495.08
878.807	20394.29
879.125	20379.38
879.444	20539.38
879.762	20442.43
880.08	20456.21
880.398	20410.79
880.716	20383
881.034	20331.25
881.352	20300.96
881.67	20125.37
881.988	20258.03
882.306	20091.93
882.624	20003.34
882.941	20028.65
883.259	19915.66
883.577	19941.42
883.894	19905.04
884.212	19879.96
884.529	19917.47
884.846	20022.33
885.164	19918.6
885.481	19847.19
885.798	19797.7
886.115	19743.24
886.432	19748.66
886.75	19596.12
887.067	19684.03
887.383	19601.55
887.7	19577.14
888.017	19518.39
888.334	19594.09
888.651	19491.95
888.967	19399.29
889.284	19257.6
889.6	19214.89
889.917	19055.57
890.233	19259.18
890.55	19082.46
890.866	19080.43
891.182	19145.29
891.498	19041.34
891.815	18845.86
892.131	18887.89
892.447	18846.76
892.763	18746.2
893.079	18612.87
893.395	18578.07
893.71	18629.59
894.026	18627.79
894.342	18552.53
894.657	18448.36
894.973	18510.5
895.289	18432.31
895.604	18408.36
895.92	18342.37
896.235	18342.37
896.55	18322.71
896.865	18306.21
897.181	18264.63
897.496	18202.49
897.811	18154.13
898.126	18129.27
898.441	17944.87
898.756	18065.09
899.071	17889.5
899.386	17870.07
899.7	17728.6
900.015	17694.25
900.33	17567.7
900.644	17501.49
900.959	17641.15
901.273	17554.14
901.588	17496.52
901.902	17321.83
902.216	17294.49
902.531	17421.27
902.845	17345.56
903.159	17142.63
903.473	17119.35
903.787	17155.74
904.101	16990.32
904.415	17049.07
904.729	16891.11
905.042	16817.44
905.356	16814.5
905.67	16837.55
905.984	16718.91
906.297	16666.03
906.611	16598.69
906.924	16553.27
907.237	16476.43
907.551	16408.86
907.864	16389.43
908.177	16348.52
908.491	16298.81
908.804	16177
909.117	16162.09
909.43	16148.53
909.743	16013.84
910.056	16000.51
910.368	16014.97
910.681	15845.94
910.994	15859.5
911.307	15822.21
911.619	15617.47
911.932	15643.23
912.244	15572.5
912.557	15593.97
912.869	15448.66
913.181	15405.5
913.494	15426.74
913.806	15301.09
914.118	15253.64
914.43	15182.45
914.742	15280.76
915.054	15148.1
915.366	15104.49
915.678	15087.54
915.99	15024.04
916.302	14879.41
916.613	14820.43
916.925	14848.68
917.236	14814.33
917.548	14721.68
917.859	14798.74
918.171	14558.52
918.482	14521
918.794	14474
919.105	14430.16
919.416	14269.03
919.727	14351.97
920.038	14288.24
920.349	14183.16
920.66	14077.17
920.971	14114.46
921.282	14060.45
921.593	13952.2
921.903	13847.12
922.214	13857.52
922.525	13865.65
922.835	13655.04
923.146	13583.4
923.456	13617.75
923.767	13618.65
924.077	13569.39
924.387	13583.63
924.697	13511.31
925.008	13408.49
925.318	13446.45
925.628	13297.08
925.938	13241.71
926.248	13148.84
926.558	13288.72
926.867	13060.93
927.177	13105.22
927.487	13022.06
927.796	12887.6
928.106	12735.29
928.416	12752.01
928.725	12775.51
929.034	12814.15
929.344	12770.09
929.653	12739.58
929.962	12582.52
930.271	12577.55
930.581	12441.96
930.89	12467.5
931.199	12411.23
931.508	12326.71
931.817	12354.05
932.125	12316.31
932.434	12370.32
932.743	12228.41
933.051	12143.21
933.36	12108.86
933.669	11945.48
933.977	11928.53
934.286	11898.47
934.594	11882.43
934.902	11813.28
935.21	11774.86
935.519	11741.19
935.827	11669.55
936.135	11599.27
936.443	11520.4
936.751	11462.1
937.059	11530.57
937.367	11436.34
937.674	11438.15
937.982	11373.29
938.29	11305.95
938.597	11274.31
938.905	11205.16
939.213	11206.74
939.52	11131.94
939.827	11155.44
940.135	11016.01
940.442	11022.11
940.749	11008.1
941.056	11042.68
941.363	10835.68
941.67	10827.31
941.977	10758.84
942.284	10720.88
942.591	10752.74
942.898	10690.59
943.205	10592.97
943.511	10654.66
943.818	10509.58
944.125	10454.44
944.431	10446.31
944.738	10401.56
945.044	10403.14
945.35	10373.31
945.657	10330.6
945.963	10303.71
946.269	10288.57
946.575	10220.32
946.881	10133.1
947.187	10052.19
947.493	10016.94
947.799	10025.08
948.105	9969.26
948.41	9948.69
948.716	9951.41
949.022	9880.45
949.327	9816.72
949.633	9775.14
949.938	9701.92
950.244	9762.94
950.549	9617.18
950.854	9597.29
951.16	9601.13
951.465	9502.6
951.77	9571.08
952.075	9407.92
952.38	9401.81
952.685	9375.6
952.99	9298.09
953.294	9310.07
953.599	9263.29
953.904	9161.82
954.209	9138.32
954.513	9100.81
954.818	9055.38
955.122	9051.54
955.426	8986.01
955.731	9009.73
956.035	8917.76
956.339	8930.41
956.643	8836.86
956.948	8848.16
957.252	8813.13
957.556	8839.8
957.86	8777.65
958.163	8669.86
958.467	8607.71
958.771	8637.77
959.075	8565.68
959.378	8607.94
959.682	8597.77
959.985	8457.66
960.289	8430.77
960.592	8335.85
960.896	8317.1
961.199	8354.84
961.502	8385.57
961.805	8282.75
962.108	8183.77
962.411	8164.33
962.714	8134.05
963.017	8162.98
963.32	8108.52
963.623	8058.57
963.926	8086.82
964.228	8027.61
964.531	8004.34
964.833	8028.29
965.136	7931.8
965.438	7853.61
965.741	7777.22
966.043	7796.66
966.345	7782.65
966.648	7723.67
966.95	7716.44
967.252	7693.16
967.554	7648.64
967.856	7631.92
968.158	7560.51
968.46	7533.84
968.761	7492.49
969.063	7497.01
969.365	7427.63
969.666	7392.38
969.968	7307.63
970.269	7324.58
970.571	7313.06
970.872	7249.56
971.174	7243.23
971.475	7213.62
971.776	7196.68
972.077	7193.74
972.378	7150.35
972.679	7083.23
972.98	7081.88
973.281	7029.67
973.582	6996.23
973.883	7036.68
974.183	6965.72
974.484	6863.12
974.785	6799.62
975.085	6881.66
975.386	6821.32
975.686	6763.92
975.986	6793.97
976.287	6738.16
976.587	6653.41
976.887	6673.75
977.187	6633.75
977.487	6664.94
977.787	6605.96
978.087	6553.08
978.387	6507.43
978.687	6530.25
978.987	6534.55
979.286	6417.03
979.586	6504.94
979.885	6386.3
980.185	6347.21
980.484	6338.39
980.784	6298.39
981.083	6289.81
981.382	6297.49
981.682	6263.37
981.981	6227.44
982.28	6180.66
982.579	6166.65
982.878	6160.32
983.177	6094.56
983.475	6076.25
983.774	6050.49
984.073	6007.33
984.372	5896.37
984.67	5940.44
984.969	5931.85
985.267	5913.32
985.566	5880.1
985.864	5834.9
986.162	5828.12
986.461	5760.33
986.759	5725.3
987.057	5695.92
987.355	5696.83
987.653	5702.03
987.951	5607.79
988.249	5626.77
988.547	5589.49
988.844	5545.42
989.142	5566.44
989.44	5524.18
989.737	5478.53
990.035	5469.26
990.332	5479.66
990.63	5442.6
990.927	5408.7
991.224	5362.83
991.521	5359.44
991.819	5385.42
992.116	5304.07
992.413	5254.81
992.71	5265.2
993.006	5249.16
993.303	5184.75
993.6	5229.5
993.897	5232.66
994.193	5198.76
994.49	5122.61
994.787	5108.59
995.083	5078.31
995.379	4982.95
995.676	4939.33
995.972	4979.56
996.268	4981.14
996.565	4999.22
996.861	4900.92
997.157	4890.97
997.453	4834.7
997.749	4861.14
998.044	4864.08
998.34	4808.26
998.636	4756.97
998.932	4702.5
999.227	4708.61
999.523	4641.04
999.818	4689.17
1000.114	4651.21
1000.409	4612.56
1000.704	4628.61
1001	4588.61
1001.295	4538.44
1001.59	4523.53
1001.885	4493.92
1002.18	4415.96
1002.475	4417.77
1002.77	4389.97
1003.065	4357.65
1003.359	4342.96
1003.654	4339.12
1003.949	4328.95
1004.243	4299.58
1004.538	4261.84
1004.832	4290.76
1005.127	4189.52
1005.421	4169.18
1005.715	4142.52
1006.009	4159.69
1006.304	4128.51
1006.598	4079.02
1006.892	4075.85
1007.186	4000.38
1007.48	4061.62
1007.773	4007.61
1008.067	3976.65
1008.361	3996.99
1008.655	3929.87
1008.948	3892.81
1009.242	3899.59
1009.535	3891.9
1009.829	3845.12
1010.122	3808.52
1010.415	3772.81
1010.708	3763.09
1011.001	3771.68
1011.295	3711.34
1011.588	3687.84
1011.881	3659.59
1012.173	3698.91
1012.466	3604.45
1012.759	3626.6
1013.052	3573.95
1013.344	3549.54
1013.637	3561.29
1013.93	3551.35
1014.222	3510.9
1014.514	3494.4
1014.807	3417.34
1015.099	3407.4
1015.391	3399.03
1015.683	3395.42
1015.976	3372.59
1016.268	3335.31
1016.56	3333.5
1016.851	3300.05
1017.143	3277
1017.435	3263.45
1017.727	3240.17
1018.018	3197.46
1018.31	3187.74
1018.602	3159.49
1018.893	3131.47
1019.185	3150.68
1019.476	3055.09
1019.767	3056.9
1020.058	3063.22
1020.35	2998.82
1020.641	2972.83
1020.932	2986.62
1021.223	2942.1
1021.514	2949.1
1021.804	2899.39
1022.095	2886.05
1022.386	2841.08
1022.677	2874.08
1022.967	2869.56
1023.258	2844.02
1023.548	2800.41
1023.839	2805.83
1024.129	2736.91
1024.419	2766.96
1024.709	2742.78
1025	2725.61
1025.29	2684.7
1025.58	2636.34
1025.87	2625.04
1026.16	2596.57
1026.449	2652.39
1026.739	2559.28
1027.029	2584.82
1027.319	2581.88
1027.608	2536.23
1027.898	2490.58
1028.187	2488.1
1028.477	2462.34
1028.766	2434.77
1029.055	2415.78
1029.344	2450.81
1029.634	2380.3
1029.923	2394.99
1030.212	2357.93
1030.501	2347.09
1030.79	2297.82
1031.078	2276.35
1031.367	2317.71
1031.656	2256.24
1031.945	2256.92
1032.233	2214.43
1032.522	2217.82
1032.81	2204.94
1033.099	2194.09
1033.387	2162.68
1033.675	2190.25
1033.963	2144.6
1034.251	2128.56
1034.54	2105.96
1034.828	2069.8
1035.116	2054.89
1035.403	2051.05
1035.691	2036.36
1035.979	2028.22
1036.267	1997.72
1036.554	2007.43
1036.842	1968.11
1037.129	1961.11
1037.417	1953.2
1037.704	1917.72
1037.992	1928.11
1038.279	1869.81
1038.566	1844.27
1038.853	1844.27
1039.14	1844.27
