Data from copper_heatsink_FLMS001491_024.txt Node
Date: Tue Feb 07 10:49:36 GMT 2017
User: dcchb
Spectrometer: FLMS00149
Trigger mode: 0
Integration Time (sec): 2.000000E-2
Scans to average: 10
Electric dark correction enabled: true
Nonlinearity correction enabled: false
Boxcar width: 0
XAxis mode: Wavelengths
Number of Pixels in Spectrum: 2048
>>>>>Begin Spectral Data<<<<<
341.393	7.75
341.776	7.75
342.16	7.75
342.543	-63.2
342.927	-62.75
343.31	-89.87
343.693	-66.14
344.077	-62.3
344.46	-64.11
344.843	-38.35
345.226	-34.96
345.61	-21.85
345.993	-14.17
346.376	2.56
346.759	11.82
347.142	6.62
347.525	31.93
347.908	50.24
348.291	85.49
348.674	99.5
349.057	103.57
349.44	124.14
349.823	150.58
350.206	164.59
350.588	222.44
350.971	240.06
351.354	265.37
351.737	246.84
352.119	290.01
352.502	296.56
352.884	284.81
353.267	313.06
353.65	314.86
354.032	309.44
354.414	343.34
354.797	320.51
355.179	311.25
355.562	350.34
355.944	356.22
356.326	346.28
356.709	346.5
357.091	379.04
357.473	373.39
357.855	355.09
358.238	364.35
358.62	346.28
359.002	369.1
359.384	370.23
359.766	355.77
360.148	360.74
360.53	370.46
360.912	378.37
361.294	361.19
361.676	363
362.057	355.54
362.439	367.29
362.821	372.94
363.203	371.36
363.584	348.54
363.966	364.13
364.348	370.23
364.729	362.77
365.111	359.16
365.493	336.11
365.874	337.24
366.256	343.56
366.637	346.05
367.019	355.32
367.4	337.69
367.781	332.27
368.163	367.07
368.544	329.78
368.925	352.38
369.306	355.32
369.688	328.2
370.069	362.32
370.45	363.22
370.831	362.32
371.212	336.33
371.593	364.81
371.974	346.5
372.355	348.31
372.736	351.47
373.117	359.61
373.498	346.73
373.879	358.25
374.26	369.1
374.641	367.74
375.021	378.37
375.402	359.84
375.783	383.79
376.163	367.74
376.544	363
376.925	371.81
377.305	384.47
377.686	368.42
378.066	391.7
378.447	385.6
378.827	399.83
379.208	391.7
379.588	388.53
379.968	396.22
380.349	371.13
380.729	398.48
381.109	384.47
381.489	410
381.87	397.57
382.25	416.78
382.63	395.09
383.01	415.65
383.39	425.14
383.77	393.51
384.15	416.56
384.53	431.92
384.91	403.68
385.29	418.36
385.67	405.03
386.049	438.03
386.429	424.01
386.809	440.51
387.189	450.45
387.568	443
387.948	431.02
388.328	447.97
388.707	438.7
389.087	438.48
389.466	458.82
389.846	464.24
390.225	460.17
390.605	465.82
390.984	466.5
391.363	469.66
391.743	470.79
392.122	466.27
392.501	470.57
392.881	460.17
393.26	471.7
393.639	473.73
394.018	482.09
394.397	503.56
394.776	477.12
395.155	490.23
395.534	511.47
395.913	493.16
396.292	529.77
396.671	527.74
397.05	499.72
397.429	515.54
397.808	510.79
398.186	531.36
398.565	521.19
398.944	535.88
399.323	534.29
399.701	545.14
400.08	538.36
400.458	544.46
400.837	547.85
401.215	539.94
401.594	537.46
401.972	570.45
402.351	595.54
402.729	558.93
403.107	553.95
403.486	590.34
403.864	604.12
404.242	572.94
404.62	597.34
404.999	594.41
405.377	596.89
405.755	579.72
406.133	593.28
406.511	623.78
406.889	645.7
407.267	636.21
407.645	628.53
408.023	612.94
408.401	630.79
408.779	655.65
409.156	645.93
409.534	661.97
409.912	687.28
410.29	682.99
410.667	694.74
411.045	700.39
411.422	686.38
411.8	694.97
412.178	698.81
412.555	715.98
412.933	730.22
413.31	747.4
413.687	730.45
414.065	730.9
414.442	784
414.819	756.89
415.197	773.38
415.574	767.06
415.951	785.36
416.328	769.54
416.705	819.03
417.082	810.44
417.46	792.82
417.837	818.58
418.214	831.69
418.591	834.85
418.967	834.62
419.344	844.79
419.721	853.16
420.098	870.78
420.475	844.57
420.852	857.68
421.228	887.28
421.605	911.91
421.982	900.84
422.358	903.78
422.735	900.84
423.111	902.87
423.488	908.07
423.864	954.4
424.241	951.01
424.617	934.51
424.994	971.8
425.37	947.62
425.746	937.22
426.123	962.76
426.499	970.89
426.875	990.78
427.251	996.88
427.627	1021.06
428.003	1029.42
428.379	1041.85
428.756	1063.32
429.132	1057.67
429.507	1086.82
429.883	1102.87
430.259	1083.66
430.635	1134.73
431.011	1140.61
431.387	1172.7
431.763	1188.97
432.138	1180.83
432.514	1179.02
432.89	1185.8
433.265	1227.83
433.641	1217.89
434.016	1265.12
434.392	1278.68
434.767	1274.39
435.143	1301.05
435.518	1289.3
435.894	1318
436.269	1318.23
436.644	1347.61
437.02	1354.84
437.395	1363.88
437.77	1367.49
438.145	1391.45
438.52	1399.13
438.895	1430.54
439.271	1418.11
439.646	1421.5
440.021	1430.99
440.395	1503.76
440.77	1496.98
441.145	1493.36
441.52	1513.7
441.895	1537.21
442.27	1522.97
442.645	1578.56
443.019	1545.34
443.394	1555.06
443.769	1598.9
444.143	1590.76
444.518	1595.06
444.892	1598.22
445.267	1604.32
445.641	1623.98
446.016	1628.95
446.39	1644.32
446.764	1656.52
447.139	1645.45
447.513	1692.68
447.887	1683.42
448.262	1681.83
448.636	1723.19
449.01	1769.52
449.384	1777.65
449.758	1751.89
450.132	1783.07
450.506	1795.5
450.88	1788.27
451.254	1798.89
451.628	1839.12
452.002	1845.9
452.376	1870.98
452.75	1867.37
453.123	1913.47
453.497	1959.34
453.871	1999.11
454.244	2016.29
454.618	2005.22
454.992	2052.9
455.365	2062.16
455.739	2097.19
456.112	2101.48
456.486	2166.12
456.859	2115.04
457.232	2152.1
457.606	2217.41
457.979	2228.49
458.352	2273.91
458.725	2286.79
459.099	2314.81
459.472	2365.66
459.845	2447.69
460.218	2397.52
460.591	2432.32
460.964	2452.66
461.337	2488.37
461.71	2538.53
462.083	2568.36
462.456	2571.08
462.829	2604.52
463.201	2640.91
463.574	2643.39
463.947	2721.58
464.32	2767.68
464.692	2752.99
465.065	2802.03
465.438	2847.45
465.81	2876.15
466.183	2927.45
466.555	2969.71
466.928	3009.93
467.3	3002.03
467.672	3054
468.045	3150.27
468.417	3173.32
468.789	3149.59
469.161	3242.02
469.534	3272.3
469.906	3336.93
470.278	3375.35
470.65	3390.26
471.022	3505.97
471.394	3525.63
471.766	3569.69
472.138	3578.28
472.51	3691.95
472.882	3755.23
473.253	3842.23
473.625	3808.11
473.997	3942.79
474.369	3977.14
474.74	3985.73
475.112	4046.52
475.484	4139.17
475.855	4182.79
476.227	4258.26
476.598	4361.99
476.97	4394.76
477.341	4510.23
477.713	4484.02
478.084	4601.31
478.455	4735.31
478.827	4757.91
479.198	4889.89
479.569	4867.51
479.94	5008.75
480.311	5081.07
480.682	5171.01
481.053	5260.72
481.424	5404.67
481.795	5470.21
482.166	5532.13
482.537	5586.14
482.908	5711.56
483.279	5759.69
483.65	5848.73
484.021	5966.92
484.391	6046.24
484.762	6164.43
485.133	6164.88
485.503	6278.1
485.874	6424.31
486.244	6436.96
486.615	6585.21
486.985	6693.68
487.356	6808.71
487.726	6804.64
488.097	6994.69
488.467	7001.47
488.837	7159.88
489.207	7254.34
489.578	7335.02
489.948	7434.45
490.318	7530.04
490.688	7554.45
491.058	7715.57
491.428	7796.25
491.798	7849.81
492.168	8048.22
492.538	8082.12
492.908	8107.2
493.278	8289.57
493.648	8299.97
494.017	8412.5
494.387	8522.78
494.757	8540.64
495.126	8667.41
495.496	8662.67
495.866	8779.73
496.235	8861.76
496.605	8932.94
496.974	9027.63
497.344	9063.56
497.713	9135.65
498.082	9186.04
498.452	9315.08
498.821	9350.11
499.19	9444.79
499.559	9479.14
499.928	9548.07
500.298	9630.1
500.667	9691.79
501.036	9668.74
501.405	9804.56
501.774	9831.22
502.143	9903.77
502.512	9987.6
502.88	10043.87
503.249	10075.29
503.618	10171.78
503.987	10285.9
504.356	10240.71
504.724	10325.67
505.093	10489.96
505.462	10522.05
505.83	10565.89
506.199	10659.45
506.567	10748.49
506.936	10832.55
507.304	10841.14
507.672	10988.71
508.041	11075.94
508.409	11145.99
508.777	11224.86
509.145	11235.48
509.514	11257.63
509.882	11378.53
510.25	11450.17
510.618	11454.68
510.986	11584.62
511.354	11652.87
511.722	11814.22
512.09	11893.77
512.458	11923.37
512.826	12030.26
513.193	12110.26
513.561	12098.96
513.929	12235.46
514.297	12459.4
514.664	12459.4
515.032	12561.1
515.4	12685.84
515.767	12670.7
516.135	12780.53
516.502	12747.08
516.869	12987.07
517.237	13048.77
517.604	13045.15
517.972	13126.05
518.339	13211.47
518.706	13321.3
519.073	13401.3
519.44	13550.22
519.808	13593.16
520.175	13638.58
520.542	13839.03
520.909	13973.94
521.276	14003.32
521.643	14122.86
522.009	14258.23
522.376	14364.21
522.743	14423.42
523.11	14535.06
523.477	14782.05
523.843	14879
524.21	14996.06
524.577	15047.58
524.943	15241.7
525.31	15211.65
525.676	15372.1
526.043	15425.88
526.409	15638.98
526.776	15689.6
527.142	15809.37
527.508	15968.24
527.874	16077.61
528.241	16165.52
528.607	16209.81
528.973	16293.2
529.339	16261.34
529.705	16510.82
530.071	16720.08
530.437	16803.92
530.803	16840.76
531.169	16989.23
531.535	16973.41
531.901	17073.07
532.267	17218.15
532.632	17381.08
532.998	17427.18
533.364	17559.38
533.73	17657.01
534.095	17718.25
534.461	17867.4
534.826	17913.5
535.192	17976.77
535.557	18178.35
535.923	18142.19
536.288	18314.62
536.653	18332.92
537.019	18374.73
537.384	18514.84
537.749	18585.34
538.114	18722.52
538.479	18675.51
538.845	18820.37
539.21	18812.01
539.575	18946.47
539.94	18988.5
540.305	19124.77
540.67	19197.31
541.034	19263.97
541.399	19405.66
541.764	19512.1
542.129	19619.44
542.494	19625.09
542.858	19809.95
543.223	19855.82
543.587	19962.48
543.952	19978.3
544.316	20057.17
544.681	20207
545.045	20251.06
545.41	20327.67
545.774	20509.59
546.138	20589.13
546.503	20761.33
546.867	20667.1
547.231	21020.99
547.595	20979.18
547.959	21144.37
548.324	21146.18
548.688	21270.47
549.052	21446.51
549.416	21473.63
549.779	21627.75
550.143	21655.77
550.507	21876.78
550.871	21994.52
551.235	21913.17
551.599	22164.69
551.962	22327.39
552.326	22506.37
552.689	22597.44
553.053	22620.72
553.417	22803.31
553.78	23059.13
554.143	23046.7
554.507	23260.25
554.87	23510.19
555.234	23753.8
555.597	23645.1
555.96	23852.1
556.323	24123.28
556.686	24145.65
557.05	24442.59
557.413	24494.57
557.776	24705.18
558.139	24934.1
558.502	25088.22
558.865	25331.16
559.228	25445.96
559.59	25547.42
559.953	25815.66
560.316	26283
560.679	26348.53
561.041	26552.14
561.404	26769.08
561.767	26976.31
562.129	26962.75
562.492	27435.73
562.854	27527.03
563.217	27768.61
563.579	27928.6
563.941	28279.33
564.304	28409.49
564.666	28752.99
565.028	28817.17
565.39	29148.91
565.753	29259.87
566.115	29539.86
566.477	29740.98
566.839	30059.39
567.201	30375.09
567.563	30547.52
567.925	30883.33
568.287	31067.73
568.648	31294.84
569.01	31574.61
569.372	31956.97
569.734	31926.46
570.095	32431.08
570.457	32539.33
570.819	32950.39
571.18	32964.18
571.542	33277.61
571.903	33378.85
572.265	33669.69
572.626	33986.52
572.987	34251.83
573.349	34443.01
573.71	34721.19
574.071	34971.35
574.432	35377.67
574.794	35543.09
575.155	35595.97
575.516	35875.06
575.877	36215.62
576.238	36345.1
576.599	36604.98
576.96	36694.47
577.32	37066.89
577.681	37231.86
578.042	37566.09
578.403	37697.84
578.763	37888.11
579.124	38139.86
579.485	38372.17
579.845	38471.38
580.206	38757.92
580.566	38848.54
580.927	39053.28
581.287	39274.07
581.648	39275.2
582.008	39472.03
582.368	39769.42
582.728	39869.98
583.089	39926.7
583.449	40079.24
583.809	40379.57
584.169	40494.6
584.529	40658.89
584.889	40975.94
585.249	40790.86
585.609	41005.55
585.969	41398.08
586.329	41272.66
586.688	41659.54
587.048	41496.15
587.408	41733.21
587.768	41843.72
588.127	41985.18
588.487	42031.06
588.846	42438.5
589.206	42260.2
589.565	42589.23
589.925	42788.32
590.284	42820.64
590.643	42892.5
591.003	43099.05
591.362	43473.96
591.721	43399.38
592.08	43440.06
592.44	43737
592.799	43814.29
593.158	43900.16
593.517	43987.16
593.876	44153.49
594.235	44176.54
594.593	44421.5
594.952	44575.17
595.311	44575.62
595.67	44795.95
596.029	45216.96
596.387	45086.34
596.746	45404.07
597.104	45210.41
597.463	45319.56
597.822	45748.02
598.18	45674.8
598.538	45640.9
598.897	45955.25
599.255	45702.15
599.613	46344.39
599.972	46328.12
600.33	46513.65
600.688	46615.34
601.046	46774.43
601.404	47011.04
601.762	46912.96
602.12	47245.61
602.478	47249
602.836	47512.95
603.194	47411.71
603.552	47443.12
603.91	47547.75
604.268	47796.78
604.625	47714.3
604.983	47966.94
605.341	47874.07
605.698	48218.46
606.056	48339.36
606.413	48386.14
606.771	48588.85
607.128	48691.45
607.485	48613.71
607.843	48862.97
608.2	49195.84
608.557	49422.27
608.914	49132.56
609.272	49497.3
609.629	49617.52
609.986	49977.74
610.343	49801.47
610.7	50083.95
611.057	50048.25
611.414	50236.72
611.771	50192.2
612.127	50452.08
612.484	50585.41
612.841	50762.35
613.198	50605.29
613.554	50651.62
613.911	50960.09
614.267	51110.14
614.624	51091.83
614.98	51262
615.337	51414.09
615.693	51461.99
616.05	51501.09
616.406	51798.03
616.762	51618.83
617.118	51627.64
617.475	51772.27
617.831	51954.41
618.187	51922.32
618.543	52083.67
618.899	52352.59
619.255	52213.84
619.611	52302.2
619.967	52541.74
620.323	52501.52
620.678	52460.39
621.034	52467.39
621.39	52570.67
621.746	52553.49
622.101	53112.8
622.457	52788.74
622.812	52942.86
623.168	53095.85
623.523	53049.98
623.879	53226.24
624.234	53114.38
624.589	53214.94
624.945	53335.17
625.3	53405.22
625.655	53455.61
626.01	53534.48
626.365	53563.41
626.72	53503.75
627.075	53526.8
627.43	53666.68
627.785	53537.87
628.14	53696.96
628.495	53822.84
628.85	53769.28
629.205	53777.19
629.559	53860.8
629.914	53717.08
630.269	53840.24
630.623	53846.56
630.978	53787.81
631.332	54001.81
631.687	54079.55
632.041	53990.06
632.396	54067.8
632.75	53996.84
633.104	54097.86
633.459	54067.12
633.813	54088.59
634.167	54079.55
634.521	54100.57
634.875	54262.6
635.229	54189.61
635.583	54040.46
635.937	54174.69
636.291	54168.36
636.645	54198.42
636.999	54124.52
637.352	54258.08
637.706	54101.92
638.06	54264.18
638.413	54231.64
638.767	54286.33
639.121	54236.61
639.474	54178.76
639.828	54270.51
640.181	54219.66
640.534	54306.44
640.888	54230.74
641.241	54178.31
641.594	54311.86
641.947	54406.1
642.301	54322.26
642.654	54307.8
643.007	54285.87
643.36	54399.09
643.713	54264.63
644.066	54464.63
644.419	54442.71
644.771	54301.92
645.124	54128.59
645.477	54132.66
645.83	53950.74
646.182	53733.12
646.535	53534.03
646.888	53700.81
647.24	53442.28
647.593	53599.11
647.945	53545.56
648.298	53489.06
648.65	53462.62
649.002	53542.39
649.355	53669.17
649.707	53726.12
650.059	53996.62
650.411	54310.06
650.763	54449.71
651.115	54680.67
651.467	54604.51
651.819	54538.52
652.171	54575.13
652.523	54595.92
652.875	54632.53
653.227	54561.8
653.578	54741.68
653.93	54680.67
654.282	54566.09
654.633	54465.53
654.985	54590.05
655.337	54616.94
655.688	54700.78
656.039	54723.38
656.391	54529.71
656.742	54587.11
657.094	54614.45
657.445	54803.6
657.796	54663.04
658.147	54691.51
658.498	54724.96
658.849	54778.07
659.2	54817.84
659.551	54754.56
659.902	54892.41
660.253	54867.33
660.604	54833.88
660.955	54780.33
661.306	54884.73
661.656	54818.29
662.007	54920.89
662.358	54869.59
662.708	54966.08
663.059	54984.16
663.409	54866.2
663.76	55061.22
664.11	55044.95
664.461	55110.26
664.811	55051.73
665.161	55079.75
665.511	55002.01
665.862	55050.15
666.212	55192.29
666.562	55173.99
666.912	55185.74
667.262	55227.77
667.612	55213.53
667.962	55355.23
668.312	55230.93
668.662	55290.82
669.011	55302.8
669.361	55327.2
669.711	55344.6
670.06	55325.4
670.41	55340.08
670.76	55349.58
671.109	55547.76
671.459	55404.04
671.808	55399.52
672.157	55403.81
672.507	55246.53
672.856	55332.4
673.205	55399.97
673.554	55549.12
673.904	55433.19
674.253	55581.21
674.602	55594.54
674.951	55178.51
675.3	55044.72
675.649	55500.98
675.998	55564.26
676.346	55557.03
676.695	55707.08
677.044	55501.89
677.393	55632.05
677.741	55596.8
678.09	55587.08
678.438	55604.94
678.787	55657.36
679.135	55713.63
679.484	55440.19
679.832	55674.76
680.181	55491.72
680.529	55649.45
680.877	55445.62
681.225	55545.05
681.573	55689
681.922	55533.98
682.27	55386.41
682.618	55451.95
682.966	55420.08
683.314	55567.88
683.661	55559.97
684.009	55439.74
684.357	55337.82
684.705	55337.37
685.053	55454.88
685.4	55425.51
685.748	55344.38
686.095	55193.2
686.443	55152.97
686.79	55169.24
687.138	55204.72
687.485	55374.21
687.832	55180.09
688.18	55257.83
688.527	55150.71
688.874	55119.07
689.221	55108
689.568	55011.73
689.915	55050.37
690.262	55103.03
690.609	54948.23
690.956	54872.53
691.303	54908.91
691.65	54802.92
691.997	54782.81
692.344	54666.88
692.69	54654.68
693.037	54829.36
693.383	54509.6
693.73	54664.4
694.077	54527.9
694.423	54550.27
694.769	54452.65
695.116	54408.81
695.462	54378.75
695.808	54365.42
696.155	54411.97
696.501	54103.51
696.847	54239.77
697.193	53982.15
697.539	54184.86
697.885	53927.24
698.231	53894.92
698.577	53992.1
698.923	53953.68
699.269	53877.75
699.614	53814.93
699.96	53758.43
700.306	53768.15
700.651	53559.34
700.997	53638.43
701.342	53548.72
701.688	53574.71
702.033	53442.28
702.379	53454.26
702.724	53338.56
703.069	53428.04
703.415	53157.54
703.76	53203.64
704.105	53225.34
704.45	53218.56
704.795	52998
705.14	53004.33
705.485	53066.02
705.83	52928.85
706.175	52958.45
706.52	52764.56
706.865	52722.75
707.209	52768.85
707.554	52635.07
707.899	52719.81
708.243	52665.58
708.588	52622.19
708.932	52415.19
709.277	52485.02
709.621	52466.94
709.966	52365.7
710.31	52419.71
710.654	52148.08
710.998	52334.74
711.342	52236.66
711.687	52181.07
712.031	52129.77
712.375	51967.97
712.719	52123.45
713.063	52137.68
713.407	52278.92
713.75	52043.67
714.094	51972.49
714.438	51964.81
714.782	51988.53
715.125	51952.38
715.469	51932.04
715.812	51725.94
716.156	51565.04
716.499	51560.75
716.843	51730.01
717.186	51508.09
717.53	51781.08
717.873	51803.68
718.216	51810.91
718.559	51659.96
718.902	51441.43
719.246	51567.53
719.589	51480.07
719.932	51375.22
720.275	51401.88
720.617	51384.71
720.96	51325.27
721.303	51358.95
721.646	51326.86
721.989	51223.13
722.331	51291.38
722.674	51161.44
723.016	51248.21
723.359	51233.07
723.701	51274.65
724.044	50962.57
724.386	50927.09
724.729	51136.81
725.071	51000.54
725.413	51026.98
725.755	51092.06
726.097	50896.36
726.439	50903.82
726.782	50941.78
727.124	51151.27
727.465	50871.73
727.807	50773.2
728.149	50733.65
728.491	50663.37
728.833	50737.72
729.175	50702.92
729.516	50575.92
729.858	50751.05
730.199	50623.82
730.541	50611.85
730.882	50534.79
731.224	50584.73
731.565	50475.13
731.906	50578.63
732.248	50619.76
732.589	50436.71
732.93	50396.49
733.271	50365.75
733.612	50556.26
733.953	50465.41
734.294	50308.58
734.635	50308.8
734.976	50448.46
735.317	50253.21
735.658	50320.1
735.999	50315.58
736.339	50210.95
736.68	50259.99
737.021	50176.15
737.361	49999.89
737.702	50162.82
738.042	50091.18
738.383	50153.1
738.723	50148.13
739.063	50172.08
739.404	50363.04
739.744	50194.23
740.084	49984.29
740.424	50087.79
740.764	49960.34
741.104	50105.65
741.444	49983.16
741.784	49817.74
742.124	49964.63
742.464	49909.94
742.804	49976.38
743.143	49765.09
743.483	49834.69
743.823	49653.23
744.162	49788.59
744.502	50108.81
744.841	49852.32
745.181	49942.71
745.52	49654.81
745.86	49770.97
746.199	49829.95
746.538	49761.93
746.877	49814.58
747.216	49804.86
747.556	49580.46
747.895	49657.97
748.234	49424.08
748.573	49409.17
748.911	49420.92
749.25	49589.95
749.589	49351.09
749.928	49445.1
750.267	49456.85
750.605	49274.03
750.944	49346.8
751.283	49314.03
751.621	49332.11
751.96	49043.53
752.298	49220.25
752.636	49179.34
752.975	48956.75
753.313	49008.95
753.651	49146.12
753.989	49022.06
754.327	48973.47
754.666	48891.67
755.004	48831.56
755.342	48973.47
755.679	48914.26
756.017	48611.67
756.355	48829.75
756.693	48594.05
757.031	48579.36
757.368	48365.58
757.706	48364.67
758.044	48328.97
758.381	48420.72
758.719	48157.9
759.056	48364.22
759.394	48116.32
759.731	48003.1
760.068	48011.01
760.405	48206.71
760.743	48014.85
761.08	47990.45
761.417	47739.61
761.754	47694.41
762.091	47517.01
762.428	47448.09
762.765	47289.22
763.102	47460.07
763.438	47219.85
763.775	47146.4
764.112	47130.36
764.449	47258.72
764.785	46974.2
765.122	46723.14
765.458	46730.14
765.795	46753.19
766.131	46738.05
766.467	46684.49
766.804	46529.24
767.14	46389.59
767.476	46390.94
767.812	46109.14
768.148	46364.95
768.485	46154.56
768.821	45890.62
769.157	45908.02
769.492	45807.45
769.828	45783.73
770.164	45555.71
770.5	45439.33
770.836	45366.56
771.171	45219.22
771.507	45168.83
771.842	44813.36
772.178	44822.39
772.513	44806.12
772.849	44802.28
773.184	44654.26
773.519	44686.81
773.855	44520.93
774.19	44440.26
774.525	44445
774.86	44346.25
775.195	44154.62
775.53	44022.19
775.865	43918.01
776.2	43845.02
776.535	43546.95
776.87	43511.69
777.205	43332.94
777.539	43228.54
777.874	43580.17
778.209	43139.73
778.543	43213.17
778.878	42897.25
779.212	42824.26
779.547	42824.26
779.881	42810.47
780.215	42572.74
780.55	42707.2
780.884	42433.31
781.218	42584.04
781.552	42573.19
781.886	42093.43
782.22	41982.02
782.554	41946.54
782.888	41739.76
783.222	41587.9
783.556	41710.16
783.889	41375.93
784.223	41194.02
784.557	41225.65
784.89	41316.72
785.224	41011.2
785.557	40955.6
785.891	40968.94
786.224	40896.62
786.558	40769.62
786.891	40494.15
787.224	40414.38
787.557	40387.03
787.891	40253.02
788.224	40179.13
788.557	40127.83
788.89	39929.19
789.223	39889.64
789.556	39769.87
789.888	39741.17
790.221	39521.52
790.554	39394.74
790.887	39443.55
791.219	39232.49
791.552	39234.07
791.884	39119.49
792.217	39018.25
792.549	39025.26
792.882	38758.15
793.214	38667.3
793.546	38776.68
793.879	38564.71
794.211	38341.89
794.543	38461.43
794.875	38448.55
795.207	38423.69
795.539	38271.83
795.871	38277.71
796.203	38058.5
796.535	37991.61
796.867	37965.63
797.198	37904.61
797.53	37855.12
797.862	37781.22
798.193	37830.71
798.525	37526.99
798.856	37760.21
799.188	37325.64
799.519	37253.78
799.85	36997.06
800.182	36953
800.513	37145.53
800.844	36763.85
801.175	36981.7
801.506	36936.5
801.837	36786.22
802.168	36625.55
802.499	36657.64
802.83	36488.83
803.161	36405.89
803.491	36364.76
803.822	36328.15
804.153	36246.12
804.483	36082.51
804.814	36127.03
805.145	36082.74
805.475	35895.85
805.805	35835.51
806.136	35927.94
806.466	36017.43
806.796	35857.43
807.126	35554.62
807.457	35587.61
807.787	35614.28
808.117	35465.35
808.447	35480.49
808.777	35503.54
809.107	35309.2
809.436	35317.11
809.766	35205.02
810.096	35182.42
810.426	35071.69
810.755	35156.21
811.085	34916.89
811.414	35151.91
811.744	34840.96
812.073	34924.35
812.403	34755.54
812.732	34487.3
813.061	34515.77
813.39	34502.89
813.719	34414.08
814.049	34652.04
814.378	34547.86
814.707	34528.88
815.036	34478.71
815.365	34484.81
815.693	34141.09
816.022	34066.07
816.351	33979.06
816.68	33823.59
817.008	34096.58
817.337	33737.26
817.665	33752.86
817.994	33765.06
818.322	33782.01
818.651	33567.32
818.979	33580.88
819.307	33838.95
819.636	33497.95
819.964	33436.25
820.292	33718.05
820.62	33797.15
820.948	33620.43
821.276	33880.99
821.604	33581.79
821.932	33604.61
822.259	33631.95
822.587	33589.92
822.915	33651.16
823.243	33805.74
823.57	33735.23
823.898	33691.61
824.225	33622.92
824.553	33926.86
824.88	33935.22
825.207	34100.64
825.535	34168.66
825.862	34011.15
826.189	33895
826.516	34126.18
826.843	34245.72
827.17	34139.74
827.497	34305.84
827.824	34159.62
828.151	34325.72
828.478	34232.16
828.805	34489.33
829.131	34220.64
829.458	34294.76
829.785	34130.7
830.111	34202.56
830.438	34369.11
830.764	34295.44
831.09	34294.08
831.417	34165.73
831.743	34522.1
832.069	34590.8
832.395	34302.45
832.722	34603.45
833.048	34264.03
833.374	34397.36
833.7	34257.25
834.026	34313.74
834.351	34396.68
834.677	34567.52
835.003	34557.58
835.329	34688.65
835.654	34632.38
835.98	34332.5
836.306	34503.34
836.631	34442.78
836.956	34439.17
837.282	34386.96
837.607	34403.46
837.932	34403.01
838.258	34363.23
838.583	34374.31
838.908	34162.11
839.233	34341.54
839.558	34143.58
839.883	34007.31
840.208	33967.09
840.533	34007.76
840.858	34209.34
841.182	34300.19
841.507	34224.03
841.832	34168.89
842.156	34063.58
842.481	33921.89
842.805	33881.89
843.13	33732.97
843.454	34007.76
843.778	33757.15
844.103	33756.92
844.427	33706.53
844.751	33856.36
845.075	33681.44
845.399	33651.39
845.723	33466.08
846.047	33385.86
846.371	33211.4
846.695	33196.71
847.019	32883.05
847.343	32874.46
847.666	32762.82
847.99	32558.76
848.313	32687.57
848.637	32503.4
848.96	32548.14
849.284	32374.13
849.607	32156.29
849.931	32134.37
850.254	32023.86
850.577	31828.84
850.9	31672.46
851.223	31639.92
851.546	31510.88
851.869	31532.57
852.192	31693.25
852.515	31419.81
852.838	31315.18
853.161	31403.54
853.483	31120.38
853.806	31045.13
854.129	31106.82
854.451	31103.21
854.774	30776.21
855.096	30811.69
855.419	30843.33
855.741	30712.03
856.063	30610.11
856.385	30617.8
856.708	30635.2
857.03	30524.24
857.352	30425.94
857.674	30375.54
857.996	30395.66
858.318	30214.19
858.64	30233.63
858.961	30143.23
859.283	30131.71
859.605	30032.95
859.926	30200.86
860.248	30101.43
860.57	29804.71
860.891	29864.82
861.212	29724.26
861.534	29794.54
861.855	29747.09
862.176	29932.84
862.498	29815.33
862.819	29754.77
863.14	29648.56
863.461	29566.75
863.782	29519.75
864.103	29654.88
864.424	29548.9
864.745	29592.29
865.065	29403.82
865.386	29380.77
865.707	29122.47
866.027	29406.08
866.348	29386.64
866.668	29475
866.989	29336.02
867.309	29162.24
867.63	29323.14
867.95	29250.15
868.27	29119.08
868.59	29428.22
868.91	29176.93
869.23	29173.31
869.55	29079.08
869.87	29194.78
870.19	29198.85
870.51	29280.2
870.83	29360.2
871.15	29047.44
871.469	29380.32
871.789	29222.58
872.109	29227.1
872.428	29023.94
872.748	29303.03
873.067	29214.22
873.386	29225.52
873.706	29054.22
874.025	28865.75
874.344	28765.64
874.663	28902.81
874.982	28932.19
875.301	28779.65
875.62	28803.16
875.939	28877.05
876.258	28852.19
876.577	28735.36
876.896	28837.05
877.214	28754.79
877.533	28959.76
877.852	28938.07
878.17	28797.51
878.489	28934.23
878.807	28804.06
879.125	28648.13
879.444	28813.55
879.762	28670.96
880.08	28750.73
880.398	28540.79
880.716	28643.16
881.034	28737.39
881.352	28626.89
881.67	28644.74
881.988	28645.19
882.306	28545.31
882.624	28451.98
882.941	28265.09
883.259	28365.2
883.577	28280.46
883.894	28219.67
884.212	28124.75
884.529	28169.05
884.846	28067.81
885.164	28193.45
885.481	28092.21
885.798	28142.38
886.115	27948.04
886.432	27960.01
886.75	27840.47
887.067	27787.36
887.383	27781.71
887.7	27764.99
888.017	27681.38
888.334	27720.7
888.651	27729.74
888.967	27676.18
889.284	27583.3
889.6	27527.71
889.917	27391.89
890.233	27426.47
890.55	27228.06
890.866	27425.11
891.182	27332.23
891.498	27274.61
891.815	27199.81
892.131	27076.87
892.447	27039.81
892.763	26830.55
893.079	26948.97
893.395	26919.36
893.71	26885.24
894.026	26803.21
894.342	26679.37
894.657	26654.29
894.973	26613.38
895.289	26614.96
895.604	26489.77
895.92	26397.34
896.235	26224.47
896.55	26387.63
896.865	26259.72
897.181	26373.61
897.496	26219.04
897.811	26001.42
898.126	26123.9
898.441	26115.54
898.756	25964.81
899.071	25873.74
899.386	25851.37
899.7	25690.24
900.015	25550.13
900.33	25462.68
900.644	25413.19
900.959	25367.77
901.273	25199.86
901.588	25278.5
901.902	25363.02
902.216	25261.1
902.531	25191.72
902.845	25154.66
903.159	25076.02
903.473	24987.89
903.787	24919.42
904.101	24803.49
904.415	24813.88
904.729	24711.06
905.042	24556.49
905.356	24400.33
905.67	24329.83
905.984	24240.11
906.297	24017.74
906.611	24133
906.924	24115.14
907.237	24026.56
907.551	24056.84
907.864	23979.33
908.177	23941.36
908.491	23845.32
908.804	23738.88
909.117	23700.46
909.43	23622.5
909.743	23419.57
910.056	23511.54
910.368	23435.84
910.681	23322.17
910.994	23240.59
911.307	23166.47
911.619	23053.48
911.932	22997.66
912.244	22849.19
912.557	22895.51
912.869	22752.01
913.181	22756.31
913.494	22723.77
913.806	22456.66
914.118	22386.6
914.43	22327.85
914.742	22380.73
915.054	22273.61
915.366	22162.65
915.678	22124.23
915.99	21910.45
916.302	21762.21
916.613	21780.06
916.925	21677.69
917.236	21668.2
917.548	21510.24
917.859	21550.92
918.171	21412.39
918.482	21322.22
918.794	21287.87
919.105	21416.46
919.416	21281.09
919.727	21251.26
920.038	21078.16
920.349	20964.49
920.66	20975.11
920.971	20925.62
921.282	20823.03
921.593	20699.64
921.903	20589.81
922.214	20616.7
922.525	20458.52
922.835	20382.13
923.146	20357.95
923.456	20329.71
923.767	20279.31
924.077	20194.79
924.387	20162.25
924.697	20059.43
925.008	19998.64
925.318	19842.26
925.628	19776.27
925.938	19745.09
926.248	19599.56
926.558	19614.47
926.867	19639.1
927.177	19516.17
927.487	19409.73
927.796	19353.91
928.106	19250.19
928.416	19151.88
928.725	19215.84
929.034	19134.26
929.344	19224.65
929.653	19090.42
929.962	18966.58
930.271	18878.67
930.581	18837.77
930.89	18727.26
931.199	18697.21
931.508	18685.46
931.817	18513.93
932.125	18487.27
932.434	18428.74
932.743	18238.69
933.051	18231.91
933.36	18108.07
933.669	18076.21
933.977	17982.65
934.286	17845.03
934.594	17937.68
934.902	17917.11
935.21	17771.58
935.519	17725.93
935.827	17715.09
936.135	17624.47
936.443	17460.18
936.751	17486.16
937.059	17481.87
937.367	17302.67
937.674	17389.22
937.982	17307.86
938.29	17152.16
938.597	17190.13
938.905	17030.81
939.213	17044.59
939.52	17026.06
939.827	16978.16
940.135	16850.02
940.442	16747.43
940.749	16668.78
941.056	16726.86
941.363	16633.53
941.67	16625.17
941.977	16514.66
942.284	16446.42
942.591	16396.48
942.898	16267.89
943.205	16316.48
943.511	16128.23
943.818	16094.34
944.125	16012.08
944.431	15878.75
944.738	16053.89
945.044	15883.49
945.35	15788.36
945.657	15664.29
945.963	15625.42
946.269	15482.15
946.575	15501.36
946.881	15464.3
947.187	15393.79
947.493	15355.37
947.799	15286.22
948.105	15171.65
948.41	15047.13
948.716	15147.92
949.022	15106.11
949.327	15040.58
949.633	14807.36
949.938	14843.75
950.244	14841.49
950.549	14754.48
950.854	14728.5
951.16	14875.61
951.465	14565.79
951.77	14616.41
952.075	14524.43
952.38	14468.84
952.685	14431.78
952.99	14360.15
953.294	14268.4
953.599	14220.04
953.904	14073.6
954.209	14003.77
954.513	14039.93
954.818	14074.95
955.122	13967.16
955.426	13941.4
955.731	13928.74
956.035	13782.99
956.339	13705.25
956.643	13734.17
956.948	13655.98
957.252	13531.01
957.556	13599.26
957.86	13570.11
958.163	13430
958.467	13422.99
958.771	13355.2
959.075	13315.2
959.378	13322.88
959.682	13241.53
959.985	13179.61
960.289	13142.1
960.592	13065.04
960.896	13032.72
961.199	13030.91
961.502	13065.49
961.805	12830.92
962.108	12803.35
962.411	12735.78
962.714	12653.52
963.017	12694.2
963.32	12653.07
963.623	12575.56
963.926	12541.89
964.228	12469.57
964.531	12472.51
964.833	12411.27
965.136	12399.74
965.438	12305.51
965.741	12257.38
966.043	12154.55
966.345	12153.65
966.648	12096.93
966.95	12004.73
967.252	12014.9
967.554	11980.32
967.856	11909.81
968.158	11885.86
968.46	11775.81
968.761	11792.98
969.063	11747.78
969.365	11665.07
969.666	11618.07
969.968	11474.57
970.269	11496.04
970.571	11419.88
970.872	11461.92
971.174	11337.63
971.475	11374.23
971.776	11272.77
972.077	11295.82
972.378	11280
972.679	11261.02
972.98	11157.29
973.281	11073.68
973.582	11104.64
973.883	11004.08
974.183	10929.05
974.484	10953
974.785	10858.77
975.085	10864.64
975.386	10786
975.686	10779.22
975.986	10631.2
976.287	10605.89
976.587	10531.09
976.887	10580.13
977.187	10530.19
977.487	10582.84
977.787	10489.96
978.087	10418.33
978.387	10388.72
978.687	10341.27
978.987	10318.67
979.286	10127.26
979.586	10227.82
979.885	10154.15
980.185	10061.27
980.484	9994.38
980.784	9922.07
981.083	9965.68
981.382	9905.57
981.682	9896.99
981.981	9779.02
982.28	9825.35
982.579	9737.44
982.878	9740.15
983.177	9644.11
983.475	9673.49
983.774	9562.08
984.073	9621.74
984.372	9518.24
984.67	9466.71
984.969	9414.74
985.267	9507.17
985.566	9397.11
985.864	9385.36
986.162	9389.2
986.461	9284.35
986.759	9256.78
987.057	9141.3
987.355	9124.12
987.653	9127.74
987.951	9155.76
988.249	9144.46
988.547	9083.67
988.844	8997.57
989.142	9020.85
989.44	8920.06
989.737	8794.42
990.035	8783.79
990.332	8761.87
990.63	8751.25
990.927	8758.03
991.224	8732.04
991.521	8662.89
991.819	8541.09
992.116	8530.92
992.413	8529.56
992.71	8463.58
993.006	8371.6
993.303	8349.46
993.6	8357.14
993.897	8291.6
994.193	8285.28
994.49	8177.03
994.787	8126.86
995.083	8094.55
995.379	8132.29
995.676	8094.1
995.972	8038.73
996.268	8053.87
996.565	7914.21
996.861	7928
997.157	7857.27
997.453	7798.28
997.749	7832.63
998.044	7744.73
998.34	7750.83
998.636	7732.75
998.932	7679.87
999.227	7545.41
999.523	7605.52
999.818	7551.74
1000.114	7442.81
1000.409	7418.18
1000.704	7427.22
1001	7309.03
1001.295	7339.31
1001.59	7250.95
1001.885	7317.84
1002.18	7189.71
1002.475	7126.89
1002.77	7124.63
1003.065	7085.99
1003.359	7070.62
1003.654	7044.86
1003.949	6941.13
1004.243	6954.01
1004.538	6916.05
1004.832	6878.08
1005.127	6806.22
1005.421	6770.74
1005.715	6715.6
1006.009	6693
1006.304	6651.87
1006.598	6639.44
1006.892	6558.77
1007.186	6556.96
1007.48	6537.75
1007.773	6478.32
1008.067	6390.86
1008.361	6389.28
1008.655	6313.58
1008.948	6274.48
1009.242	6283.07
1009.535	6177.76
1009.829	6167.82
1010.122	6234.71
1010.415	6186.8
1010.708	6054.6
1011.001	6040.59
1011.295	5966.24
1011.588	5974.6
1011.881	5903.87
1012.173	5871.78
1012.466	5891.22
1012.759	5853.48
1013.052	5883.53
1013.344	5777.09
1013.637	5732.8
1013.93	5722.41
1014.222	5624.33
1014.514	5629.98
1014.807	5590.66
1015.099	5568.96
1015.391	5554.05
1015.683	5514.95
1015.976	5478.57
1016.268	5439.93
1016.56	5362.64
1016.851	5311.12
1017.143	5314.06
1017.435	5251.23
1017.727	5236.09
1018.018	5250.55
1018.31	5158.13
1018.602	5145.25
1018.893	5126.94
1019.185	5051.01
1019.476	4979.37
1019.767	4966.04
1020.058	4970.79
1020.35	4903.67
1020.641	4893.05
1020.932	4883.33
1021.223	4814.63
1021.514	4766.72
1021.804	4745.71
1022.095	4705.71
1022.386	4677.46
1022.677	4625.71
1022.967	4600.63
1023.258	4581.87
1023.548	4546.62
1023.839	4582.32
1024.129	4451.93
1024.419	4474.3
1024.709	4413.97
1025	4414.42
1025.29	4420.97
1025.58	4346.17
1025.87	4291.48
1026.16	4238.15
1026.449	4278.15
1026.739	4225.72
1027.029	4215.33
1027.319	4159.28
1027.608	4114.76
1027.898	4105.5
1028.187	4049.91
1028.477	4009
1028.766	4002
1029.055	3911.15
1029.344	3918.84
1029.634	3917.93
1029.923	3884.26
1030.212	3898.05
1030.501	3851.49
1030.79	3809.69
1031.078	3731.72
1031.367	3759.97
1031.656	3728.33
1031.945	3675
1032.233	3695.79
1032.522	3673.42
1032.81	3602.01
1033.099	3578.96
1033.387	3501.67
1033.675	3563.82
1033.963	3501.67
1034.251	3458.51
1034.54	3416.93
1034.828	3423.26
1035.116	3413.77
1035.403	3363.15
1035.691	3309.59
1035.979	3264.62
1036.267	3237.27
1036.554	3205.86
1036.842	3198.18
1037.129	3184.62
1037.417	3134
1037.704	3112.98
1037.992	3105.98
1038.279	3080.44
1038.566	3072.53
1038.853	3072.53
1039.14	3072.53
