Data from copper_heatsink_FLMS001491_076.txt Node
Date: Tue Feb 07 10:50:33 GMT 2017
User: dcchb
Spectrometer: FLMS00149
Trigger mode: 0
Integration Time (sec): 2.000000E-2
Scans to average: 10
Electric dark correction enabled: true
Nonlinearity correction enabled: false
Boxcar width: 0
XAxis mode: Wavelengths
Number of Pixels in Spectrum: 2048
>>>>>Begin Spectral Data<<<<<
341.393	-2.75
341.776	-2.75
342.16	-2.75
342.543	-56.76
342.927	-49.31
343.31	-54.05
343.693	-65.35
344.077	-61.06
344.46	-59.25
344.843	-60.61
345.226	-32.36
345.61	-23.77
345.993	-17.22
346.376	-22.41
346.759	1.99
347.142	18.94
347.525	46.74
347.908	35.89
348.291	73.4
348.674	93.29
349.057	125.83
349.44	126.06
349.823	129.45
350.206	175.55
350.588	208.31
350.971	250.8
351.354	263.68
351.737	289.67
352.119	290.8
352.502	309.33
352.884	301.87
353.267	289.67
353.65	328.54
354.032	362.43
354.414	332.83
354.797	343.68
355.179	345.94
355.562	350.91
355.944	353.62
356.326	369.89
356.709	377.35
357.091	361.3
357.473	376.22
357.855	362.43
358.238	389.78
358.62	380.29
359.002	357.69
359.384	369.21
359.766	383.9
360.148	368.54
360.53	381.42
360.912	381.19
361.294	380.29
361.676	367.86
362.057	375.99
362.439	364.47
362.821	341.19
363.203	372.38
363.584	371.02
363.966	361.3
364.348	359.95
364.729	368.54
365.111	366.05
365.493	364.92
365.874	364.47
366.256	390.23
366.637	362.21
367.019	359.04
367.4	344.81
367.781	355.65
368.163	348.65
368.544	367.63
368.925	373.51
369.306	367.18
369.688	364.02
370.069	354.98
370.45	360.17
370.831	352.26
371.212	368.99
371.593	369.89
371.974	362.43
372.355	384.13
372.736	369.67
373.117	366.5
373.498	373.28
373.879	372.15
374.26	368.54
374.641	370.57
375.021	378.03
375.402	373.51
375.783	369.67
376.163	403.11
376.544	377.12
376.925	370.57
377.305	370.12
377.686	396.56
378.066	384.81
378.447	392.94
378.827	422.55
379.208	384.35
379.588	404.24
379.968	381.42
380.349	415.77
380.729	392.72
381.109	420.74
381.489	367.18
381.87	415.99
382.25	405.37
382.63	410.79
383.01	416.44
383.39	404.69
383.77	393.85
384.15	413.28
384.53	423.9
384.91	421.42
385.29	422.77
385.67	433.17
386.049	444.01
386.429	432.49
386.809	427.52
387.189	448.76
387.568	437.69
387.948	451.25
388.328	444.92
388.707	447.86
389.087	450.12
389.466	453.51
389.846	457.35
390.225	465.48
390.605	461.19
390.984	469.55
391.363	461.19
391.743	479.49
392.122	502.54
392.501	473.39
392.881	464.13
393.26	493.73
393.639	482.88
394.018	481.75
394.397	499.15
394.776	481.3
395.155	500.74
395.534	514.75
395.913	508.87
396.292	492.15
396.671	506.16
397.05	509.77
397.429	523.79
397.808	515.42
398.186	518.59
398.565	507.74
398.944	519.04
399.323	533.5
399.701	533.28
400.08	549.55
400.458	538.93
400.837	528.08
401.215	546.61
401.594	539.6
401.972	558.36
402.351	560.17
402.729	557.91
403.107	553.62
403.486	545.71
403.864	567.63
404.242	582.32
404.62	578.7
404.999	564.24
405.377	574.18
405.755	589.09
406.133	590.68
406.511	582.99
406.889	584.8
407.267	607.17
407.645	607.17
408.023	656.66
408.401	629.55
408.779	632.48
409.156	655.31
409.534	625.93
409.912	683.33
410.29	658.25
410.667	646.95
411.045	660.28
411.422	666.15
411.8	687.62
412.178	677.45
412.555	698.7
412.933	694.4
413.31	722.2
413.687	716.55
414.065	726.94
414.442	709.54
414.819	740.73
415.197	721.29
415.574	732.14
415.951	742.54
416.328	768.52
416.705	766.49
417.082	753.61
417.46	781.63
417.837	786.15
418.214	805.36
418.591	783.67
418.967	797.22
419.344	801.97
419.721	827.05
420.098	817.79
420.475	844.46
420.852	824.57
421.228	826.83
421.605	841.74
421.982	860.05
422.358	858.47
422.735	862.08
423.111	856.88
423.488	870.44
423.864	892.82
424.241	913.15
424.617	897.56
424.994	914.06
425.37	903.89
425.746	924
426.123	938.24
426.499	925.58
426.875	936.43
427.251	958.58
427.627	984.79
428.003	958.35
428.379	987.95
428.756	1013.04
429.132	994.73
429.507	1031.57
429.883	1051.91
430.259	1047.16
430.635	1033.38
431.011	1057.33
431.387	1074.05
431.763	1086.93
432.138	1126.93
432.514	1120.38
432.89	1132.81
433.265	1150.89
433.641	1150.21
434.016	1183.66
434.392	1186.82
434.767	1195.18
435.143	1201.28
435.518	1212.36
435.894	1244.44
436.269	1238.8
436.644	1264.33
437.02	1250.09
437.395	1297.55
437.77	1311.11
438.145	1302.3
438.52	1289.19
438.895	1334.39
439.271	1307.27
439.646	1346.36
440.021	1379.81
440.395	1366.02
440.77	1365.8
441.145	1408.73
441.52	1386.81
441.895	1405.34
442.27	1426.36
442.645	1411.45
443.019	1431.78
443.394	1460.94
443.769	1466.59
444.143	1466.36
444.518	1487.15
444.892	1491.67
445.267	1495.06
445.641	1510.65
446.016	1524.89
446.39	1519.01
446.764	1525.34
447.139	1528.05
447.513	1571.22
447.887	1555.17
448.262	1537.09
448.636	1590.2
449.01	1601.95
449.384	1625
449.758	1640.37
450.132	1605.34
450.506	1643.08
450.88	1643.3
451.254	1665
451.628	1662.74
452.002	1690.53
452.376	1727.82
452.75	1727.14
453.123	1785.67
453.497	1762.17
453.871	1792.23
454.244	1835.84
454.618	1838.33
454.992	1861.15
455.365	1837.88
455.739	1921.72
456.112	1931.88
456.486	1942.28
456.859	1987.48
457.232	2002.62
457.606	1999
457.979	1982.05
458.352	2041.03
458.725	2069.28
459.099	2092.56
459.472	2125.33
459.845	2177.98
460.218	2197.87
460.591	2197.19
460.964	2196.51
461.337	2252.55
461.71	2288.03
462.083	2296.62
462.456	2320.12
462.829	2335.72
463.201	2385.88
463.574	2391.76
463.947	2412.1
464.32	2486.22
464.692	2504.52
465.065	2507.46
465.438	2523.73
465.81	2563.51
466.183	2605.76
466.555	2691.19
466.928	2700.45
467.3	2666.1
467.672	2715.37
468.045	2778.19
468.417	2776.61
468.789	2842.14
469.161	2869.26
469.534	2941.58
469.906	2987.68
470.278	2968.02
470.65	3020.44
471.022	3054.79
471.394	3149.25
471.766	3148.8
472.138	3223.6
472.51	3274.22
472.882	3288.01
473.253	3323.49
473.625	3384.95
473.997	3427.21
474.369	3450.71
474.74	3525.29
475.112	3594.67
475.484	3644.61
475.855	3725.96
476.227	3692.74
476.598	3822.23
476.97	3834.43
477.341	3929.8
477.713	4000.53
478.084	4057.03
478.455	4124.14
478.827	4199.62
479.198	4210.92
479.569	4306.51
479.94	4423.57
480.311	4440.07
480.682	4547.18
481.053	4633.73
481.424	4703.34
481.795	4756.67
482.166	4825.37
482.537	4880.73
482.908	4991.92
483.279	5085.02
483.65	5134.06
484.021	5222.65
484.391	5272.81
484.762	5355.97
485.133	5383.54
485.503	5454.28
485.874	5655.85
486.244	5617.89
486.615	5752.35
486.985	5809.07
487.356	5906.24
487.726	5982.63
488.097	6129.06
488.467	6126.58
488.837	6266.01
489.207	6307.81
489.578	6458.54
489.948	6493.35
490.318	6560.01
490.688	6668.71
491.058	6730.63
491.428	6783.06
491.798	6950.28
492.168	7029.38
492.538	7027.57
492.908	7117.74
493.278	7163.39
493.648	7274.79
494.017	7334
494.387	7401.8
494.757	7479.53
495.126	7590.04
495.496	7670.94
495.866	7752.52
496.235	7787.55
496.605	7846.53
496.974	7893.31
497.344	8052.63
497.713	8058.5
498.082	8155
498.452	8258.05
498.821	8269.34
499.19	8335.78
499.559	8397.02
499.928	8410.36
500.298	8526.97
500.667	8670.24
501.036	8626.62
501.405	8765.83
501.774	8804.02
502.143	8872.49
502.512	8939.84
502.88	9022.32
503.249	8995.43
503.618	9071.81
503.987	9193.61
504.356	9215.31
504.724	9328.53
505.093	9359.71
505.462	9453.72
505.83	9496.88
506.199	9612.59
506.567	9662.98
506.936	9743.43
507.304	9855.29
507.672	9919.7
508.041	9938.91
508.409	10031.56
508.777	10164.21
509.145	10246.47
509.514	10308.84
509.882	10330.76
510.25	10449.17
510.618	10565.33
510.986	10524.65
511.354	10731.2
511.722	10774.59
512.09	10907.92
512.458	10942.95
512.826	11076.5
513.193	11149.49
513.561	11103.39
513.929	11210.51
514.297	11372.77
514.664	11397.85
515.032	11577.96
515.4	11629.26
515.767	11703.83
516.135	11811.62
516.502	11715.13
516.869	12069.47
517.237	12024.95
517.604	12084.16
517.972	12270.37
518.339	12401.44
518.706	12421.78
519.073	12541.32
519.44	12614.54
519.808	12750.13
520.175	12845.5
520.542	13021.54
520.909	13080.07
521.276	13120.52
521.643	13288.42
522.009	13399.83
522.376	13539.26
522.743	13716.66
523.11	13836.66
523.477	13918.24
523.843	14004.34
524.21	14245.68
524.577	14303.99
524.943	14466.24
525.31	14529.52
525.676	14706.46
526.043	14806.35
526.409	14874.37
526.776	15117.53
527.142	15121.37
527.508	15280.91
527.874	15421.02
528.241	15538.76
528.607	15648.36
528.973	15767.45
529.339	15887.9
529.705	16024.85
530.071	16260.77
530.437	16301
530.803	16513.42
531.169	16521.11
531.535	16531.95
531.901	16645.4
532.267	16740.08
532.632	16974.43
532.998	17017.59
533.364	17239.5
533.73	17181.88
534.095	17434.08
534.461	17485.37
534.826	17625.26
535.192	17711.36
535.557	17943.44
535.923	17840.84
536.288	18053.72
536.653	18306.14
537.019	18256.2
537.384	18410.32
537.749	18476.99
538.114	18686.02
538.479	18709.3
538.845	18802.4
539.21	18984.54
539.575	18989.97
539.94	19063.19
540.305	19161.04
540.67	19311.31
541.034	19461.59
541.399	19637.18
541.764	19713.56
542.129	19809.15
542.494	19901.13
542.858	20074.23
543.223	20174.79
543.587	20399.87
543.952	20369.37
544.316	20606.87
544.681	20636.7
545.045	20757.6
545.41	21024.72
545.774	20980.42
546.138	21154.43
546.503	21371.15
546.867	21370.02
547.231	21686.17
547.595	21796.67
547.959	21802.55
548.324	21955.99
548.688	22161.41
549.052	22259.26
549.416	22335.64
549.779	22545.13
550.143	22670.32
550.507	22842.52
550.871	23010.2
551.235	23126.36
551.599	23402.28
551.962	23590.98
552.326	23821.48
552.689	23928.59
553.053	23906
553.417	24066.67
553.78	24590.05
554.143	24555.92
554.507	24712.08
554.87	25048.56
555.234	25275.68
555.597	25247.66
555.96	25586.4
556.323	25756.79
556.686	25943
557.05	26351.81
557.413	26498.92
557.776	26575.76
558.139	26961.96
558.502	27081.73
558.865	27364.89
559.228	27753.13
559.59	27892.56
559.953	27947.92
560.316	28425.2
560.679	28659.09
561.041	28911.51
561.404	29211.39
561.767	29495.68
562.129	29630.59
562.492	30070.35
562.854	30301.08
563.217	30601.19
563.579	30837.34
563.941	31090.44
564.304	31407.49
564.666	31785.34
565.028	32044.76
565.39	32387.58
565.753	32731.53
566.115	32924.06
566.477	33390.72
566.839	33635.46
567.201	33864.38
567.563	34082.9
567.925	34671.81
568.287	34722.43
568.648	34890.11
569.01	35341.63
569.372	35909.52
569.734	36019.12
570.095	36429.96
570.457	36758.31
570.819	36965.54
571.18	37211.63
571.542	37652.07
571.903	37789.25
572.265	38190.37
572.626	38478.49
572.987	38766.85
573.349	39067.4
573.71	39505.81
574.071	39608.86
574.432	39993.03
574.794	40421.72
575.155	40585.56
575.516	40770.86
575.877	41147.58
576.238	41364.75
576.599	41715.24
576.96	41942.58
577.32	42137.61
577.681	42518.39
578.042	42717.7
578.403	42876.8
578.763	43316.11
579.124	43437.01
579.485	43822.99
579.845	44008.74
580.206	44177.78
580.566	44387.04
580.927	44668.84
581.287	44937.08
581.648	44820.7
582.008	45295.72
582.368	45535.71
582.728	45673.78
583.089	45834.01
583.449	45933.89
583.809	46109.25
584.169	46405.29
584.529	46396.48
584.889	46929.12
585.249	46801.66
585.609	46845.05
585.969	47286.62
586.329	47167.08
586.688	47451.59
587.048	47641.19
587.408	47699.95
587.768	47900.17
588.127	48057.23
588.487	47964.57
588.846	48436.65
589.206	48304.9
589.565	48508.51
589.925	48796.19
590.284	48859.24
590.643	48971.33
591.003	49041.61
591.362	49434.36
591.721	49532.67
592.08	49691.08
592.44	49751.87
592.799	49841.58
593.158	49845.65
593.517	50001.81
593.876	50294.45
594.235	50170.84
594.593	50283.61
594.952	50537.84
595.311	50637.95
595.67	50656.25
596.029	51075.68
596.387	51059.86
596.746	51210.14
597.104	51109.35
597.463	51316.12
597.822	51530.81
598.18	51558.38
598.538	51536.46
598.897	51893.51
599.255	51755.43
599.613	52258.7
599.972	52102.32
600.33	52342.99
600.688	52336.21
601.046	52531.23
601.404	52734.16
601.762	52704.33
602.12	52954.5
602.478	52990.65
602.836	53102.29
603.194	53080.14
603.552	53303.87
603.91	53212.8
604.268	53448.95
604.625	53435.39
604.983	53634.71
605.341	53591.09
605.698	53764.87
606.056	53965.09
606.413	54030.63
606.771	54095.71
607.128	54305.65
607.485	54202.6
607.843	54351.3
608.2	54619.31
608.557	54759.65
608.914	54733.66
609.272	54888.01
609.629	54895.24
609.986	55154.67
610.343	55144.27
610.7	55305.62
611.057	55380.87
611.414	55439.63
611.771	55512.17
612.127	55712.62
612.484	55753.29
612.841	55938.37
613.198	55817.25
613.554	55943.12
613.911	56207.52
614.267	56257.46
614.624	56298.36
614.98	56337.01
615.337	56602.76
615.693	56631.69
616.05	56585.81
616.406	56864.9
616.762	56824.45
617.118	56887.05
617.475	56983.54
617.831	57136.99
618.187	57151.22
618.543	57209.07
618.899	57410.43
619.255	57440.71
619.611	57447.26
619.967	57516.41
620.323	57689.97
620.678	57619.91
621.034	57666.24
621.39	57765.44
621.746	57714.15
622.101	58058.77
622.457	57906.46
622.812	58011.09
623.168	58084.08
623.523	58170.18
623.879	58257.41
624.234	58206.56
624.589	58336.05
624.945	58388.48
625.3	58478.87
625.655	58424.18
626.01	58534.92
626.365	58600.22
626.72	58643.16
627.075	58677.28
627.43	58740.79
627.785	58784.85
628.14	58909.6
628.495	58940.1
628.85	58911.85
629.205	58862.36
629.559	59086.77
629.914	58957.05
630.269	59012.42
630.623	59019.2
630.978	58984.85
631.332	59176.71
631.687	59261.9
632.041	59237.5
632.396	59270.94
632.75	59229.81
633.104	59334.89
633.459	59193.2
633.813	59310.71
634.167	59356.14
634.521	59387.32
634.875	59408.34
635.229	59405.63
635.583	59404.95
635.937	59439.98
636.291	59452.63
636.645	59566.08
636.999	59464.61
637.352	59622.34
637.706	59557.04
638.06	59682.23
638.413	59624.6
638.767	59576.7
639.121	59704.6
639.474	59556.13
639.828	59675
640.181	59719.97
640.534	59764.49
640.888	59797.26
641.241	59698.5
641.594	59746.86
641.947	59874.77
642.301	59865.05
642.654	59943.01
643.007	59923.81
643.36	59918.61
643.713	59844.94
644.066	60044.71
644.419	59870.02
644.771	59950.92
645.124	59794.54
645.477	59782.57
645.83	59673.42
646.182	59500.99
646.535	59411.73
646.888	59504.83
647.24	59296.48
647.593	59489.92
647.945	59468.9
648.298	59488.34
648.65	59453.31
649.002	59432.52
649.355	59550.71
649.707	59612.85
650.059	59776.92
650.411	60102.56
650.763	60204.93
651.115	60419.61
651.467	60377.81
651.819	60431.81
652.171	60433.62
652.523	60421.42
652.875	60456.22
653.227	60348.65
653.578	60548.2
653.93	60500.97
654.282	60493.73
654.633	60497.58
654.985	60600.85
655.337	60640.4
655.688	60651.47
656.039	60791.58
656.391	60590.23
656.742	60637.46
657.094	60728.98
657.445	60821.64
657.796	60806.72
658.147	60785.93
658.498	60832.93
658.849	60881.29
659.2	60907.51
659.551	60883.55
659.902	60907.06
660.253	60953.38
660.604	61079.71
660.955	61047.62
661.306	61054.17
661.656	61041.29
662.007	61114.51
662.358	61115.41
662.708	61192.7
663.059	61226.37
663.409	61084.45
663.76	61296.2
664.11	61279.48
664.461	61344.11
664.811	61335.29
665.161	61349.98
665.511	61352.47
665.862	61413.26
666.212	61518.11
666.562	61547.04
666.912	61532.58
667.262	61577.32
667.612	61582.29
667.962	61588.39
668.312	61572.8
668.662	61779.8
669.011	61747.26
669.361	61733.25
669.711	61794.72
670.06	61739.35
670.41	61792.01
670.76	61725.34
671.109	61882.62
671.459	61963.75
671.808	61899.35
672.157	62001.49
672.507	61838.33
672.856	61914.94
673.205	61978.44
673.554	62078.33
673.904	61994.03
674.253	62177.76
674.602	62141.83
674.951	61742.74
675.3	61728.73
675.649	62163.75
675.998	62120.13
676.346	62203.29
676.695	62295.72
677.044	62161.26
677.393	62313.57
677.741	62304.31
678.09	62263.41
678.438	62276.74
678.787	62355.61
679.135	62393.12
679.484	62257.08
679.832	62407.58
680.181	62249.17
680.529	62373.91
680.877	62286.46
681.225	62331.2
681.573	62467.24
681.922	62370.97
682.27	62338.21
682.618	62353.8
682.966	62367.13
683.314	62477.86
683.661	62400.35
684.009	62412.1
684.357	62261.6
684.705	62305.89
685.053	62370.07
685.4	62395.38
685.748	62280.58
686.095	62391.54
686.443	62400.12
686.79	62328.04
687.138	62375.72
687.485	62375.49
687.832	62434.93
688.18	62414.59
688.527	62361.48
688.874	62400.12
689.221	62392.44
689.568	62257.98
689.915	62260.47
690.262	62330.75
690.609	62293.46
690.956	62238.1
691.303	62279.68
691.65	62120.36
691.997	62156.06
692.344	62080.36
692.69	62093.47
693.037	62058.66
693.383	62004.88
693.73	62071.09
694.077	61907.48
694.423	61939.8
694.769	61933.02
695.116	61981.15
695.462	62020.02
695.808	61913.13
696.155	61975.5
696.501	61877.43
696.847	61858.44
697.193	61743.64
697.539	61974.6
697.885	61799.46
698.231	61799.91
698.577	61829.29
698.923	61848.05
699.269	61741.84
699.614	61686.02
699.96	61597.66
700.306	61620.94
700.651	61548.62
700.997	61417.33
701.342	61524.22
701.688	61463.65
702.033	61433.14
702.379	61495.74
702.724	61506.81
703.069	61601.05
703.415	61451.22
703.76	61424.78
704.105	61424.78
704.45	61403.31
704.795	61296.2
705.14	61266.82
705.485	61287.39
705.83	61178.01
706.175	61234.05
706.52	61223.21
706.865	61208.29
707.209	61133.94
707.554	61120.38
707.899	61202.87
708.243	61079.26
708.588	61121.29
708.932	61033.61
709.277	61034.51
709.621	61022.76
709.966	60959.03
710.31	61072.7
710.654	60928.07
710.998	60968.75
711.342	61052.36
711.687	60887.62
712.031	60955.42
712.375	60847.62
712.719	60891.01
713.063	60886.04
713.407	61016.21
713.75	60851.69
714.094	60913.38
714.438	60778.25
714.782	60795.2
715.125	60748.64
715.469	60877.23
715.812	60716.33
716.156	60632.71
716.499	60686.27
716.843	60733.95
717.186	60683.33
717.53	60797.23
717.873	60786.61
718.216	60732.82
718.559	60629.78
718.902	60504.81
719.246	60561.53
719.589	60602.66
719.932	60592.04
720.275	60584.13
720.617	60564.69
720.96	60598.82
721.303	60539.61
721.646	60584.58
721.989	60516.78
722.331	60573.05
722.674	60506.39
723.016	60618.25
723.359	60559.72
723.701	60595.88
724.044	60539.83
724.386	60366.05
724.729	60554.52
725.071	60480.63
725.413	60525.37
725.755	60488.76
726.097	60435.88
726.439	60322.89
726.782	60345.72
727.124	60548.2
727.465	60464.58
727.807	60377.81
728.149	60380.06
728.491	60398.6
728.833	60468.88
729.175	60411.25
729.516	60355.88
729.858	60360.18
730.199	60433.4
730.541	60469.78
730.882	60344.59
731.224	60457.8
731.565	60318.37
731.906	60315.66
732.248	60421.87
732.589	60349.78
732.93	60289.45
733.271	60308.88
733.612	60333.06
733.953	60391.36
734.294	60364.02
734.635	60336
734.976	60408.76
735.317	60263.46
735.658	60338.94
735.999	60305.94
736.339	60295.77
736.68	60390.46
737.021	60288.09
737.361	60199.5
737.702	60310.01
738.042	60176.68
738.383	60231.59
738.723	60256.68
739.063	60272.5
739.404	60352.04
739.744	60277.69
740.084	60252.38
740.424	60321.31
740.764	60266.17
741.104	60355.66
741.444	60223.91
741.784	60246.28
742.124	60270.46
742.464	60211.26
742.804	60205.83
743.143	60124.48
743.483	60280.41
743.823	60108.66
744.162	60121.54
744.502	60172.39
744.841	60158.6
745.181	60192.5
745.52	60109.11
745.86	60283.34
746.199	60154.53
746.538	60181.65
746.877	60201.31
747.216	60260.97
747.556	60231.59
747.895	60274.76
748.234	60136.68
748.573	60131.26
748.911	60144.36
749.25	60119.28
749.589	60078.38
749.928	60105.72
750.267	60206.74
750.605	60132.39
750.944	60066.4
751.283	59968.32
751.621	60010.13
751.96	59823.7
752.298	59879.97
752.636	59989.11
752.975	59817.37
753.313	59804.26
753.651	59937.59
753.989	59738.05
754.327	59769.69
754.666	59658.95
755.004	59795
755.342	59786.41
755.679	59771.72
756.017	59647.43
756.355	59791.38
756.693	59673.87
757.031	59735.11
757.368	59596.58
757.706	59506.19
758.044	59423.48
758.381	59452.63
758.719	59493.53
759.056	59556.36
759.394	59453.08
759.731	59416.25
760.068	59406.31
760.405	59251.96
760.743	59271.17
761.08	59306.19
761.417	59089.03
761.754	59013.55
762.091	59042.02
762.428	58870.5
762.765	58890.39
763.102	59035.24
763.438	58947.11
763.775	58863.27
764.112	58885.64
764.449	58962.25
764.785	58884.51
765.122	58725.87
765.458	58599.09
765.795	58603.61
766.131	58659.43
766.467	58595.25
766.804	58466.44
767.14	58487.23
767.476	58424.41
767.812	58367.46
768.148	58448.36
768.485	58206.79
768.821	58087.92
769.157	58253.12
769.492	58124.53
769.828	58081.14
770.164	57938.77
770.5	57919.11
770.836	57905.33
771.171	57897.42
771.507	57833.69
771.842	57635.96
772.178	57628.5
772.513	57668.5
772.849	57545.56
773.184	57434.83
773.519	57486.58
773.855	57380.6
774.19	57298.34
774.525	57182.86
774.86	57198.23
775.195	57174.27
775.53	57082.07
775.865	57005.46
776.2	56830.55
776.535	56772.02
776.87	56791.01
777.205	56700.16
777.539	56534.06
777.874	56524.57
778.209	56364.35
778.543	56402.09
778.878	56223.34
779.212	56264.47
779.547	56160.51
779.881	56335.2
780.215	56236.45
780.55	56194.19
780.884	56055.88
781.218	56086.39
781.552	56174.98
781.886	55996
782.22	55774.31
782.554	55756.23
782.888	55412.06
783.222	55504.03
783.556	55392.85
783.889	55424.71
784.223	55318.28
784.557	55223.36
784.89	55271.72
785.224	55005.52
785.557	54923.94
785.891	54871.96
786.224	54819.31
786.558	54776.6
786.891	54574.79
787.224	54554
787.557	54525.76
787.891	54494.34
788.224	54509.48
788.557	54454.8
788.89	54566.66
789.223	54492.99
789.556	54308.59
789.888	54282.37
790.221	54142.94
790.554	53963.51
790.887	53957.18
791.219	53835.6
791.552	53847.36
791.884	53790.86
792.217	53657.76
792.549	53665.67
792.882	53342.74
793.214	53379.8
793.546	53374.6
793.879	53177.09
794.211	53028.62
794.543	53232.68
794.875	53171.67
795.207	53318.56
795.539	53123.08
795.871	53214.15
796.203	52844.9
796.535	52735.75
796.867	52761.51
797.198	52628.86
797.53	52669.31
797.862	52467.28
798.193	52617.78
798.525	52390.67
798.856	52352.71
799.188	52148.42
799.519	51941.19
799.85	52043.56
800.182	51971.47
800.513	51948.65
800.844	51735.32
801.175	52053.73
801.506	51913.39
801.837	51772.83
802.168	51752.04
802.499	51645.15
802.83	51380.75
803.161	51336.69
803.491	51519.28
803.822	51436.57
804.153	51272.28
804.483	51064.6
804.814	50973.76
805.145	50882.46
805.475	50971.27
805.805	50851.5
806.136	50932.86
806.466	50907.09
806.796	50935.57
807.126	50534
807.457	50596.14
807.787	50662.58
808.117	50399.76
808.447	50262.36
808.777	50411.97
809.107	50340.1
809.436	50199.77
809.766	50220.11
810.096	50114.8
810.426	50023.73
810.755	50079.54
811.085	49918.65
811.414	49965.65
811.744	49630.52
812.073	49757.07
812.403	49674.13
812.732	49508.26
813.061	49552.1
813.39	49465.78
813.719	49543.29
814.049	49879.1
814.378	49519.56
814.707	49489.05
815.036	49288.38
815.365	49230.08
815.693	48904.43
816.022	49021.04
816.351	48995.51
816.68	48846.58
817.008	48997.99
817.337	48679.36
817.665	48774.72
817.994	48735.63
818.322	48639.36
818.651	48449.31
818.979	48492.24
819.307	48491.34
819.636	48529.53
819.964	48316.43
820.292	48440.72
820.62	48489.3
820.948	48325.92
821.276	48470.1
821.604	48353.26
821.932	48552.58
822.259	48609.98
822.587	48548.29
822.915	48520.26
823.243	48673.48
823.57	48722.52
823.898	48605.91
824.225	48726.13
824.553	48583.09
824.88	48741.05
825.207	48774.27
825.535	48674.84
825.862	48869.41
826.189	48652.69
826.516	48936.52
826.843	49083.86
827.17	49095.39
827.497	49105.79
827.824	49097.65
828.151	49228.72
828.478	49141.94
828.805	49227.36
829.131	48939.69
829.458	48985.34
829.785	48810.43
830.111	48974.49
830.438	49064.88
830.764	49151.66
831.09	49333.8
831.417	49079.8
831.743	49264.2
832.069	49223.75
832.395	49106.01
832.722	49339.45
833.048	49240.47
833.374	49268.94
833.7	49233.69
834.026	49203.64
834.351	49406.57
834.677	49212.67
835.003	49242.5
835.329	49245.89
835.654	49148.72
835.98	49017.2
836.306	49270.53
836.631	48971.78
836.956	49143.98
837.282	49291.54
837.607	49155.05
837.932	49040.7
838.258	48981.04
838.583	48853.59
838.908	48761.84
839.233	48951.89
839.558	48731.56
839.883	48802.29
840.208	48746.92
840.533	48728.62
840.858	48677.32
841.182	48885.9
841.507	48761.16
841.832	48402.75
842.156	48369.08
842.481	48543.31
842.805	48361.17
843.13	48193.94
843.454	48174.96
843.778	48112.14
844.103	48101.74
844.427	48026.27
844.751	47878.92
845.075	47770
845.399	47940.62
845.723	47744.46
846.047	47876.44
846.371	47506.05
846.695	47609.33
847.019	47474.42
847.343	47320.3
847.666	47099.28
847.99	46960.08
848.313	46874.66
848.637	46618.62
848.96	46510.83
849.284	46493.2
849.607	46107.9
849.931	46144.96
850.254	45929.15
850.577	45931.63
850.9	45646.44
851.223	45449.38
851.546	45170.97
851.869	45108.15
852.192	45409.61
852.515	45113.8
852.838	44946.57
853.161	45044.2
853.483	44944.31
853.806	44789.51
854.129	44683.98
854.451	44625.9
854.774	44398.79
855.096	44145.01
855.419	44223.2
855.741	44205.8
856.063	43893.27
856.385	43775.3
856.708	43843.1
857.03	43773.72
857.352	43673.61
857.674	43587.29
857.996	43528.08
858.318	43330.34
858.64	43411.02
858.961	43167.41
859.283	43159.73
859.605	42971.03
859.926	43117.02
860.248	43051.48
860.57	42856.01
860.891	43019.84
861.212	42697.82
861.534	42641.1
861.855	42525.85
862.176	42665.05
862.498	42595.22
862.819	42668.44
863.14	42425.28
863.461	42429.35
863.782	42359.52
864.103	42371.27
864.424	42369.24
864.745	42440.65
865.065	42287.21
865.386	42356.36
865.707	42249.47
866.027	42207.44
866.348	42134.44
866.668	42112.75
866.989	42104.61
867.309	41825.75
867.63	42038.17
867.95	42083.6
868.27	41736.71
868.59	41964.5
868.91	41855.81
869.23	41738.97
869.55	41562.71
869.87	41839.31
870.19	41689.71
870.51	41759.09
870.83	41669.82
871.15	41419.89
871.469	41497.4
871.789	41722.7
872.109	41683.61
872.428	41343.05
872.748	41589.15
873.067	41537.85
873.386	41455.82
873.706	41359.32
874.025	41311.41
874.344	41203.62
874.663	41481.13
874.982	41180.8
875.301	41314.8
875.62	41366.78
875.939	41068.93
876.258	41101.93
876.577	40920.24
876.896	40967.47
877.214	40928.82
877.533	41010.4
877.852	40978.09
878.17	40811.31
878.489	40911.65
878.807	40843.4
879.125	40655.61
879.444	40690.41
879.762	40519.12
880.08	40548.5
880.398	40434.15
880.716	40465.33
881.034	40299.24
881.352	40501.27
881.67	40444.54
881.988	40450.19
882.306	40508.05
882.624	40169.97
882.941	39932.02
883.259	40082.75
883.577	39976.99
883.894	40073.48
884.212	40048.85
884.529	39990.32
884.846	39840.72
885.164	39839.14
885.481	39669.42
885.798	39623.1
886.115	39472.37
886.432	39380.62
886.75	39240.51
887.067	39359.6
887.383	39011.14
887.7	39236.21
888.017	39019.95
888.334	39026.73
888.651	38908.99
888.967	38914.87
889.284	38700.63
889.6	38655.66
889.917	38509.68
890.233	38484.6
890.55	38424.94
890.866	38395.56
891.182	38217.94
891.498	37987.21
891.815	38009.58
892.131	37997.38
892.447	37814.78
892.763	37515.81
893.079	37553.77
893.395	37541.8
893.71	37433.55
894.026	37404.17
894.342	37223.84
894.657	37145.2
894.973	37095.93
895.289	37142.03
895.604	37087.57
895.92	36798.99
896.235	36761.48
896.55	36873.11
896.865	36745.21
897.181	36754.47
897.496	36855.94
897.811	36561.26
898.126	36466.57
898.441	36320.36
898.756	36284.43
899.071	35975.28
899.386	36076.3
899.7	35721.05
900.015	35778.45
900.33	35453.26
900.644	35521.96
900.959	35356.54
901.273	35180.5
901.588	35127.4
901.902	35093.05
902.216	34968.76
902.531	34969.89
902.845	34729.67
903.159	34637.46
903.473	34646.73
903.787	34345.95
904.101	34315.89
904.415	34301.65
904.729	34167.42
905.042	33932.85
905.356	33857.82
905.67	33935.34
905.984	33795.91
906.297	33655.34
906.611	33496.93
906.924	33417.84
907.237	33340.55
907.551	33285.41
907.864	33167.9
908.177	33063.04
908.491	32821.02
908.804	32697.18
909.117	32600.68
909.43	32497.63
909.743	32334.7
910.056	32255.61
910.368	32309.84
910.681	32188.72
910.994	32115.72
911.307	32026.23
911.619	31645.45
911.932	31743.3
912.244	31643.65
912.557	31552.12
912.869	31287.04
913.181	31268.06
913.494	31116.65
913.806	31178.8
914.118	30932.03
914.43	30730.22
914.742	30760.05
915.054	30565.71
915.366	30366.62
915.678	30414.07
915.99	30273.29
916.302	30075.55
916.613	29864.71
916.925	29995.1
917.236	29944.03
917.548	29869.68
917.859	29760.53
918.171	29545.4
918.482	29442.12
918.794	29384.27
919.105	29366.87
919.416	29314.44
919.727	29064.96
920.038	28925.98
920.349	28818.18
920.66	28632.88
920.971	28664.97
921.282	28583.84
921.593	28371.19
921.903	28293
922.214	28120.35
922.525	28116.73
922.835	28020.69
923.146	27974.59
923.456	27742.96
923.767	27567.59
924.077	27528.5
924.387	27491.89
924.697	27410.08
925.008	27407.82
925.318	27309.75
925.628	27193.82
925.938	27107.27
926.248	26783.43
926.558	26702.08
926.867	26681.74
927.177	26590.67
927.487	26300.51
927.796	26046.73
928.106	26123.56
928.416	26019.84
928.725	25947.98
929.034	25912.95
929.344	25865.72
929.653	25830.69
929.962	25639.96
930.271	25550.25
930.581	25390.48
930.89	25225.28
931.199	25155.91
931.508	25119.75
931.817	25117.72
932.125	24895.35
932.434	24910.04
932.743	24646.32
933.051	24433.21
933.36	24436.6
933.669	24408.81
933.977	24378.98
934.286	24319.32
934.594	24249.04
934.902	24000.68
935.21	24000.91
935.519	24005.65
935.827	23922.27
936.135	23807.47
936.443	23691.54
936.751	23586
937.059	23542.16
937.367	23434.6
937.674	23439.79
937.982	23449.28
938.29	23223.53
938.597	23197.77
938.905	22883.42
939.213	22838.91
939.52	22739.02
939.827	22677.33
940.135	22487.95
940.442	22445.92
940.749	22332.25
941.056	22368.18
941.363	22156.66
941.67	22127.96
941.977	22073.5
942.284	21918.48
942.591	21773.85
942.898	21821.98
943.205	21691.36
943.511	21466.29
943.818	21346.06
944.125	21363.92
944.431	21216.57
944.738	21204.82
945.044	21138.16
945.35	21031.72
945.657	20958.28
945.963	20964.6
946.269	20778.85
946.575	20644.16
946.881	20550.83
947.187	20553.09
947.493	20403.04
947.799	20390.61
948.105	20247.33
948.41	20249.14
948.716	20140.67
949.022	20055.7
949.327	19992.65
949.633	19772.55
949.938	19730.96
950.244	19745.88
950.549	19554.92
950.854	19378.88
951.16	19550.18
951.465	19385.21
951.77	19283.52
952.075	19198.32
952.38	19208.04
952.685	19192.9
952.99	19109.96
953.294	18944.32
953.599	18808.5
953.904	18869.52
954.209	18723.99
954.513	18704.55
954.818	18457.33
955.122	18478.57
955.426	18326.93
955.731	18308.85
956.035	18160.84
956.339	18179.82
956.643	18116.09
956.948	17915.19
957.252	18033.83
957.556	17875.42
957.86	17735.31
958.163	17684.92
958.467	17645.82
958.771	17506.39
959.075	17481.76
959.378	17361.76
959.682	17193.18
959.985	17257.81
960.289	17213.06
960.592	16988.66
960.896	16880.42
961.199	16912.73
961.502	16947.99
961.805	16819.18
962.108	16788.22
962.411	16838.38
962.714	16715.68
963.017	16600.2
963.32	16528.34
963.623	16416.25
963.926	16426.42
964.228	16276.14
964.531	16208.57
964.833	16217.61
965.136	16044.51
965.438	16026.65
965.741	16053.77
966.043	15996.83
966.345	15889.03
966.648	15868.01
966.95	15797.73
967.252	15572.88
967.554	15514.35
967.856	15460.79
968.158	15497.63
968.46	15423.73
968.761	15356.39
969.063	15212.66
969.365	15129.28
969.666	15141.03
969.968	14972.9
970.269	14941.49
970.571	14947.36
970.872	14854.48
971.174	14736.75
971.475	14705.33
971.776	14577.65
972.077	14604.77
972.378	14549.63
972.679	14506.24
972.98	14406.36
973.281	14288.62
973.582	14122.52
973.883	14083.2
974.183	14002.75
974.484	14064.67
974.785	13985.13
975.085	13906.94
975.386	13840.27
975.686	13865.36
975.986	13784.91
976.287	13758.69
976.587	13605.48
976.887	13579.26
977.187	13527.74
977.487	13451.58
977.787	13361.19
978.087	13377.68
978.387	13278.25
978.687	13269.89
978.987	13092.04
979.286	13025.38
979.586	13011.37
979.885	12967.75
980.185	12919.62
980.484	12784.03
980.784	12757.59
981.083	12616.35
981.382	12646.18
981.682	12610.47
981.981	12584.49
982.28	12536.8
982.579	12346.07
982.878	12492.28
983.177	12378.62
983.475	12364.6
983.774	12263.36
984.073	12219.75
984.372	12153.31
984.67	12110.15
984.969	12117.61
985.267	11948.34
985.566	11965.07
985.864	11856.37
986.162	11863.37
986.461	11815.47
986.759	11770.72
987.057	11663.61
987.355	11634.23
987.653	11608.47
987.951	11484.18
988.249	11433.33
988.547	11365.08
988.844	11298.42
989.142	11324.63
989.44	11186.33
989.737	11156.5
990.035	11010.06
990.332	11086.22
990.63	11059.55
990.927	10967.35
991.224	10877.19
991.521	10871.76
991.819	10816.85
992.116	10734.36
992.413	10711.31
992.71	10607.81
993.006	10587.93
993.303	10566.46
993.6	10546.8
993.897	10397.65
994.193	10390.42
994.49	10324.88
994.787	10329.63
995.083	10221.16
995.379	10139.13
995.676	10116.3
995.972	10075.17
996.268	9997.66
996.565	9975.51
996.861	9913.82
997.157	9901.17
997.453	9809.87
997.749	9664.34
998.044	9625.02
998.34	9662.3
998.636	9669.53
998.932	9551.12
999.227	9452.82
999.523	9492.82
999.818	9451.91
1000.114	9296.21
1000.409	9250.56
1000.704	9236.32
1001	9182.77
1001.295	9123.79
1001.59	9135.54
1001.885	9108.19
1002.18	8979.38
1002.475	8945.49
1002.77	8877.24
1003.065	8904.13
1003.359	8812.61
1003.654	8745.04
1003.949	8738.71
1004.243	8655.78
1004.538	8593.4
1004.832	8580.07
1005.127	8513.63
1005.421	8480.64
1005.715	8345.95
1006.009	8396.8
1006.304	8291.27
1006.598	8188.22
1006.892	8212.4
1007.186	8183.02
1007.48	8061.89
1007.773	8067.54
1008.067	7982.35
1008.361	7950.71
1008.655	7922.46
1008.948	7827.55
1009.242	7795.68
1009.535	7757.04
1009.829	7652.41
1010.122	7550.04
1010.415	7503.72
1010.708	7462.59
1011.001	7488.57
1011.295	7357.73
1011.588	7328.58
1011.881	7300.1
1012.173	7294.46
1012.466	7218.75
1012.759	7168.36
1013.052	7179.2
1013.344	7122.71
1013.637	7061.47
1013.93	6986.44
1014.222	6967.46
1014.514	6950.96
1014.807	6858.31
1015.099	6797.29
1015.391	6781.7
1015.683	6729.95
1015.976	6707.35
1016.268	6608.15
1016.56	6612.67
1016.851	6455.38
1017.143	6459.22
1017.435	6471.43
1017.727	6419.45
1018.018	6355.95
1018.31	6348.04
1018.602	6313.24
1018.893	6221.94
1019.185	6155.73
1019.476	6117.08
1019.767	6101.94
1020.058	6035.96
1020.35	5989.86
1020.641	5980.82
1020.932	5892.23
1021.223	5844.78
1021.514	5830.31
1021.804	5767.49
1022.095	5735.17
1022.386	5717.1
1022.677	5670.54
1022.967	5589.42
1023.258	5527.5
1023.548	5513.94
1023.839	5520.72
1024.129	5487.72
1024.419	5393.26
1024.709	5382.19
1025	5315.3
1025.29	5262.64
1025.58	5259.93
1025.87	5172.93
1026.16	5132.03
1026.449	5189.2
1026.739	5134.74
1027.029	5081.63
1027.319	4969.54
1027.608	5007.51
1027.898	4907.17
1028.187	4888.19
1028.477	4876.67
1028.766	4829.66
1029.055	4796.67
1029.344	4764.58
1029.634	4722.55
1029.923	4642.55
1030.212	4641.42
1030.501	4607.97
1030.79	4551.02
1031.078	4531.82
1031.367	4488.43
1031.656	4457.47
1031.945	4442.78
1032.233	4382.44
1032.522	4350.8
1032.81	4295.44
1033.099	4275.1
1033.387	4274.2
1033.675	4187.19
1033.963	4187.87
1034.251	4136.57
1034.54	4079.62
1034.828	4104.26
1035.116	3993.07
1035.403	4008.89
1035.691	3974.77
1035.979	3929.57
1036.267	3901.1
1036.554	3886.41
1036.842	3865.17
1037.129	3796.47
1037.417	3806.41
1037.704	3720.09
1037.992	3723.93
1038.279	3700.43
1038.566	3661.78
1038.853	3661.78
1039.14	3661.78
