Data from copper_heatsink_FLMS001491_015.txt Node
Date: Tue Feb 07 10:49:18 GMT 2017
User: dcchb
Spectrometer: FLMS00149
Trigger mode: 0
Integration Time (sec): 2.000000E-2
Scans to average: 10
Electric dark correction enabled: true
Nonlinearity correction enabled: false
Boxcar width: 0
XAxis mode: Wavelengths
Number of Pixels in Spectrum: 2048
>>>>>Begin Spectral Data<<<<<
341.393	-2.42
341.776	-2.42
342.16	-2.42
342.543	-72.02
342.927	-55.97
343.31	-70.66
343.693	-58.91
344.077	-73.6
344.46	-55.52
344.843	-67.95
345.226	-51.91
345.61	-22.08
345.993	-1.74
346.376	-20.72
346.759	9.79
347.142	15.44
347.525	44.82
347.908	66.28
348.291	66.28
348.674	118.71
349.057	101.76
349.44	125.72
349.823	153.74
350.206	153.06
350.588	206.39
350.971	227.64
351.354	234.87
351.737	252.04
352.119	256.11
352.502	261.98
352.884	287.52
353.267	307.18
353.65	297.24
354.032	306.73
354.414	303.79
354.797	318.48
355.179	322.32
355.562	343.79
355.944	331.59
356.326	360.51
356.709	339.95
357.091	370.23
357.473	355.32
357.855	357.12
358.238	354.41
358.62	363
359.002	367.52
359.384	367.07
359.766	357.35
360.148	363.68
360.53	351.47
360.912	344.24
361.294	368.42
361.676	339.27
362.057	338.37
362.439	353.96
362.821	370.23
363.203	328.88
363.584	363
363.966	353.96
364.348	339.72
364.729	308.76
365.111	355.77
365.493	358.48
365.874	315.54
366.256	346.5
366.637	307.63
367.019	322.1
367.4	325.71
367.781	323.45
368.163	342.21
368.544	349.44
368.925	350.8
369.306	362.77
369.688	324.13
370.069	341.08
370.45	345.15
370.831	330.68
371.212	330.01
371.593	342.89
371.974	333.85
372.355	347.86
372.736	350.12
373.117	366.39
373.498	344.69
373.879	353.06
374.26	332.94
374.641	348.99
375.021	342.66
375.402	345.37
375.783	340.17
376.163	333.4
376.544	363.9
376.925	341.3
377.305	353.51
377.686	346.28
378.066	355.99
378.447	361.19
378.827	357.35
379.208	361.64
379.588	368.42
379.968	341.98
380.349	341.53
380.729	356.67
381.109	356.9
381.489	360.51
381.87	364.13
382.25	372.04
382.63	360.51
383.01	363.45
383.39	380.4
383.77	378.82
384.15	372.49
384.53	371.13
384.91	374.98
385.29	367.97
385.67	386.95
386.049	385.37
386.429	380.63
386.809	395.77
387.189	378.37
387.568	383.34
387.948	364.13
388.328	370.91
388.707	390.12
389.087	405.71
389.466	416.1
389.846	401.64
390.225	377.46
390.605	398.7
390.984	398.03
391.363	417.69
391.743	405.48
392.122	379.72
392.501	408.87
392.881	423.56
393.26	393.28
393.639	401.64
394.018	417.46
394.397	392.6
394.776	419.27
395.155	419.04
395.534	431.7
395.913	425.6
396.292	422.88
396.671	464.69
397.05	433.28
397.429	419.27
397.808	441.41
398.186	425.37
398.565	411.36
398.944	427.63
399.323	422.88
399.701	430.12
400.08	419.72
400.458	423.11
400.837	431.25
401.215	446.39
401.594	429.21
401.972	444.13
402.351	460.17
402.729	447.06
403.107	441.41
403.486	452.04
403.864	481.41
404.242	460.4
404.62	444.8
404.999	473.05
405.377	469.89
405.755	476.22
406.133	468.76
406.511	462.43
406.889	475.99
407.267	466.5
407.645	485.93
408.023	477.8
408.401	469.21
408.779	479.15
409.156	495.42
409.534	486.16
409.912	494.52
410.29	499.04
410.667	491.81
411.045	528.87
411.422	512.83
411.8	485.71
412.178	515.99
412.555	517.8
412.933	505.59
413.31	516.67
413.687	528.19
414.065	517.12
414.442	534.29
414.819	551.92
415.197	551.92
415.574	554.41
415.951	569.77
416.328	554.86
416.705	546.27
417.082	556.21
417.46	547.63
417.837	555.08
418.214	560.28
418.591	564.8
418.967	570.45
419.344	566.61
419.721	575.42
420.098	564.58
420.475	585.82
420.852	587.85
421.228	579.26
421.605	599.38
421.982	596.89
422.358	599.38
422.735	600.05
423.111	608.42
423.488	621.3
423.864	617
424.241	614.29
424.617	619.26
424.994	626.72
425.37	614.52
425.746	645.25
426.123	636.89
426.499	633.5
426.875	637.12
427.251	656.1
427.627	647.06
428.003	651.35
428.379	647.96
428.756	640.51
429.132	656.32
429.507	676.21
429.883	678.24
430.259	681.41
430.635	666.27
431.011	687.06
431.387	691.13
431.763	692.03
432.138	702.43
432.514	697.68
432.89	701.97
433.265	706.04
433.641	726.83
434.016	726.38
434.392	722.31
434.767	746.04
435.143	722.99
435.518	740.84
435.894	755.53
436.269	756.66
436.644	780.39
437.02	778.81
437.395	766.38
437.77	757.56
438.145	800.5
438.52	804.57
438.895	829.2
439.271	790.11
439.646	807.28
440.021	807.51
440.395	814.74
440.77	828.07
441.145	845.02
441.52	832.37
441.895	827.62
442.27	848.64
442.645	845.92
443.019	853.38
443.394	866.49
443.769	851.35
444.143	860.39
444.518	868.3
444.892	863.32
445.267	843.89
445.641	875.98
446.016	893.15
446.39	885.25
446.764	900.39
447.139	888.18
447.513	903.78
447.887	920.05
448.262	919.59
448.636	939.25
449.01	929.09
449.384	923.21
449.758	929.09
450.132	944
450.506	932.7
450.88	946.26
451.254	956.66
451.628	946.03
452.002	984.68
452.376	988.07
452.75	994.62
453.123	994.85
453.497	1012.93
453.871	1022.19
454.244	1026.26
454.618	1044.11
454.992	1062.42
455.365	1049.76
455.739	1061.06
456.112	1098.35
456.486	1118.23
456.859	1106.03
457.232	1129.31
457.606	1091.79
457.979	1122.3
458.352	1138.8
458.725	1153.26
459.099	1171.34
459.472	1165.92
459.845	1200.94
460.218	1185.35
460.591	1215.86
460.964	1235.74
461.337	1240.26
461.71	1266.25
462.083	1274.84
462.456	1289.08
462.829	1277.55
463.201	1302.86
463.574	1311
463.947	1301.28
464.32	1342.86
464.692	1370.43
465.065	1391.22
465.438	1379.92
465.81	1423.76
466.183	1409.98
466.555	1466.47
466.928	1438.45
467.3	1457.66
467.672	1447.04
468.045	1504.21
468.417	1521.61
468.789	1500.6
469.161	1552.8
469.534	1571.55
469.906	1587.37
470.278	1636.64
470.65	1626.47
471.022	1658.56
471.394	1669.41
471.766	1683.19
472.138	1708.5
472.51	1749.63
472.882	1772.23
473.253	1802.74
473.625	1805.9
473.997	1859.23
474.369	1874.82
474.74	1906.91
475.112	1902.39
475.484	1957.99
475.855	1985.33
476.227	2006.8
476.598	2047.93
476.97	2087.7
477.341	2106.23
477.713	2169.51
478.084	2185.55
478.455	2255.83
478.827	2273.01
479.198	2291.08
479.569	2304.64
479.94	2370.63
480.311	2401.36
480.682	2484.53
481.053	2485.2
481.424	2554.58
481.795	2567.69
482.166	2631.41
482.537	2647.68
482.908	2722.26
483.279	2720
483.65	2812.88
484.021	2825.31
484.391	2846.78
484.762	2892.88
485.133	2948.69
485.503	2973.78
485.874	3057.39
486.244	3112.76
486.615	3138.75
486.985	3164.96
487.356	3222.58
487.726	3262.58
488.097	3336.25
488.467	3371.96
488.837	3397.72
489.207	3474.33
489.578	3546.87
489.948	3531.5
490.318	3601.78
490.688	3655.34
491.058	3668
491.428	3726.75
491.798	3779.86
492.168	3875
492.538	3902.34
492.908	3953.64
493.278	3986.63
493.648	4028.21
494.017	4038.61
494.387	4148.44
494.757	4129
495.126	4218.94
495.496	4247.42
495.866	4274.53
496.235	4335.1
496.605	4347.53
496.974	4395.21
497.344	4443.34
497.713	4460.74
498.082	4514.08
498.452	4559.72
498.821	4661.42
499.19	4641.08
499.559	4677.01
499.928	4722.66
500.298	4740.96
500.667	4781.41
501.036	4832.03
501.405	4872.48
501.774	4862.32
502.143	4969.21
502.512	5000.39
502.88	5046.04
503.249	5082.65
503.618	5080.84
503.987	5147.73
504.356	5179.37
504.724	5209.43
505.093	5267.5
505.462	5251.91
505.83	5307.95
506.199	5399.48
506.567	5445.8
506.936	5476.31
507.304	5545.91
507.672	5565.57
508.041	5640.15
508.409	5638.11
508.777	5739.35
509.145	5767.38
509.514	5793.59
509.882	5881.27
510.25	5894.15
510.618	5954.49
510.986	5988.16
511.354	6102.74
511.722	6076.97
512.09	6141.6
512.458	6162.39
512.826	6237.19
513.193	6325.1
513.561	6347.93
513.929	6352.22
514.297	6463.4
514.664	6480.13
515.032	6548.15
515.4	6563.29
515.767	6609.84
516.135	6697.75
516.502	6678.09
516.869	6828.82
517.237	6897.52
517.604	6829.95
517.972	7019.77
518.339	6955.37
518.706	7053.67
519.073	7080.11
519.44	7170.5
519.808	7244.85
520.175	7225.19
520.542	7337.96
520.909	7410.95
521.276	7424.28
521.643	7507.22
522.009	7673.54
522.376	7663.37
522.743	7788.34
523.11	7872.86
523.477	7913.76
523.843	7944.49
524.21	8066.07
524.577	8115.34
524.943	8242.57
525.31	8209.35
525.676	8363.01
526.043	8412.96
526.409	8474.65
526.776	8581.31
527.142	8616.34
527.508	8638.71
527.874	8786.96
528.241	8866.5
528.607	8872.15
528.973	8963.9
529.339	8994.18
529.705	9086.84
530.071	9190.56
530.437	9242.99
530.803	9417.9
531.169	9456.32
531.535	9414.29
531.901	9501.29
532.267	9560.95
532.632	9659.7
532.998	9713.26
533.364	9740.61
533.73	9770.44
534.095	9971.56
534.461	10052.01
534.826	10083.2
535.192	10170.42
535.557	10254.49
535.923	10299.69
536.288	10289.07
536.653	10466.24
537.019	10443.19
537.384	10569.28
537.749	10586.23
538.114	10557.08
538.479	10665.1
538.845	10839.56
539.21	10768.38
539.575	10905.77
539.94	10918.2
540.305	11112.09
540.67	11080.23
541.034	11167.91
541.399	11270.73
541.764	11312.09
542.129	11452.42
542.494	11455.81
542.858	11553.89
543.223	11618.52
543.587	11696.26
543.952	11823.71
544.316	11805.86
544.681	11880.44
545.045	11948.68
545.41	12078.17
545.774	12190.03
546.138	12192.97
546.503	12315.9
546.867	12330.14
547.231	12539.4
547.595	12607.65
547.959	12666.18
548.324	12730.58
548.688	12793.63
549.052	12884.7
549.416	13040.86
549.779	13049.45
550.143	13133.74
550.507	13399.49
550.871	13417.34
551.235	13515.65
551.599	13632.03
551.962	13631.12
552.326	13828.41
552.689	13978.46
553.053	13991.57
553.417	14105.91
553.78	14394.49
554.143	14333.71
554.507	14495.73
554.87	14660.7
555.234	14860.7
555.597	14845.33
555.96	15043.74
556.323	15222.5
556.686	15332.1
557.05	15492.54
557.413	15583.84
557.776	15730.96
558.139	15891.86
558.502	16063.38
558.865	16138.63
559.228	16377.27
559.59	16505.85
559.953	16629.46
560.316	16921.89
560.679	17004.82
561.041	17157.13
561.404	17295.66
561.767	17514.19
562.129	17579.95
562.492	17814.29
562.854	18028.3
563.217	18158.92
563.579	18392.81
563.941	18521.17
564.304	18663.99
564.666	18911.89
565.028	19093.13
565.39	19209.06
565.753	19429.62
566.115	19716.61
566.477	19868.25
566.839	20063.05
567.201	20334.23
567.563	20374
567.925	20687.66
568.287	20734.21
568.648	20912.74
569.01	21187.76
569.372	21453.74
569.734	21536.91
570.095	21698.94
570.457	21910.91
570.819	22146.83
571.18	22269.09
571.542	22553.38
571.903	22706.37
572.265	22845.57
572.626	23065.23
572.987	23242.4
573.349	23454.6
573.71	23654.14
574.071	23847.58
574.432	24043.73
574.794	24350.16
575.155	24363.72
575.516	24483.72
575.877	24590.84
576.238	24671.74
576.599	25020.2
576.96	25046.19
577.32	25219.52
577.681	25396.24
578.042	25602.79
578.403	25645.05
578.763	25818.15
579.124	26017.01
579.485	26143.56
579.845	26333.16
580.206	26327.06
580.566	26438.25
580.927	26532.48
581.287	26925.92
581.648	26808.18
582.008	27179.24
582.368	27092.69
582.728	27212.69
583.089	27348.28
583.449	27327.26
583.809	27514.83
584.169	27630.98
584.529	27645.22
584.889	27858.77
585.249	27898.77
585.609	27882.95
585.969	28064.87
586.329	28118.2
586.688	28325.65
587.048	28322.94
587.408	28332.21
587.768	28462.15
588.127	28401.81
588.487	28558.64
588.846	28894
589.206	28801.8
589.565	28729.71
589.925	28893.1
590.284	28908.46
590.643	28929.25
591.003	29343.71
591.362	29364.04
591.721	29351.16
592.08	29501.22
592.44	29651.72
592.799	29706.18
593.158	29737.14
593.517	29735.56
593.876	29850.81
594.235	29810.81
594.593	29882.22
594.952	30116.57
595.311	30159.73
595.67	30248.99
596.029	30432.72
596.387	30581.64
596.746	30556.1
597.104	30457.8
597.463	30475.65
597.822	30763.33
598.18	30668.87
598.538	30847.62
598.897	30903.44
599.255	30853.27
599.613	31239.02
599.972	31090.33
600.33	31183.43
600.688	31277.89
601.046	31391.11
601.404	31579.35
601.762	31622.97
602.12	31748.61
602.478	31872.68
602.836	31897.31
603.194	31812.34
603.552	31928.27
603.91	31822.96
604.268	32042.17
604.625	31957.65
604.983	32366.23
605.341	32302.05
605.698	32389.28
606.056	32481.25
606.413	32568.93
606.771	32710.85
607.128	32868.58
607.485	32649.38
607.843	32889.15
608.2	33117.84
608.557	33170.95
608.914	33054.57
609.272	33241.46
609.629	33451.85
609.986	33586.76
610.343	33430.83
610.7	33680.31
611.057	33729.13
611.414	33744.49
611.771	33748.79
612.127	33915.56
612.484	33996.69
612.841	34351.94
613.198	34164.37
613.554	34101.55
613.911	34499.05
614.267	34432.61
614.624	34451.14
614.98	34544.93
615.337	34769.55
615.693	34795.09
616.05	34839.38
616.406	35064.23
616.762	34832.83
617.118	35059.04
617.475	35121.41
617.831	35059.04
618.187	35349.88
618.543	35280.95
618.899	35448.86
619.255	35508.97
619.611	35695.4
619.967	35708.51
620.323	35735.4
620.678	35681.84
621.034	35679.13
621.39	35885.91
621.746	35904.66
622.101	36211.1
622.457	36078.67
622.812	36134.26
623.168	36312.34
623.523	36381.71
623.879	36499
624.234	36336.52
624.589	36360.24
624.945	36531.31
625.3	36594.36
625.655	36531.99
626.01	36625.55
626.365	36731.99
626.72	36756.17
627.075	36619.9
627.43	36699.9
627.785	36713.23
628.14	36794.81
628.495	36878.42
628.85	36902.38
629.205	36928.59
629.559	37011.3
629.914	36768.14
630.269	36892.21
630.623	36873.9
630.978	36931.75
631.332	36989.83
631.687	36997.74
632.041	36918.87
632.396	37165.2
632.75	37000.68
633.104	36970.85
633.459	36870.74
633.813	37020.57
634.167	36999.78
634.521	37013.11
634.875	37193.22
635.229	37058.76
635.583	36850.4
635.937	37022.6
636.291	37038.87
636.645	37028.7
636.999	36920
637.352	37158.64
637.706	36909.61
638.06	37105.08
638.413	37006.33
638.767	36947.57
639.121	37058.76
639.474	36943.51
639.828	37007.01
640.181	37009.94
640.534	37130.85
640.888	37047.46
641.241	36901.7
641.594	37019.89
641.947	37097.17
642.301	36796.17
642.654	37022.6
643.007	37068.02
643.36	36993.67
643.713	37066.21
644.066	37251.75
644.419	36908.03
644.771	36480.24
645.124	36111.44
645.477	36156.41
645.83	35908.28
646.182	35873.25
646.535	36136.75
646.888	36266.69
647.24	36026.47
647.593	36376.52
647.945	36336.06
648.298	36260.81
648.65	36183.53
649.002	36184.43
649.355	36250.42
649.707	36141.27
650.059	36167.71
650.411	36554.36
650.763	36642.27
651.115	37148.25
651.467	37001.58
651.819	37257.4
652.171	37148.92
652.523	36912.55
652.875	36924.98
653.227	36819.22
653.578	37014.24
653.93	37021.7
654.282	36886.33
654.633	36751.87
654.985	37117.06
655.337	37098.76
655.688	36971.75
656.039	37247.9
656.391	36884.3
656.742	37031.87
657.094	37073.67
657.445	37292.65
657.796	37080.9
658.147	37275.02
658.498	37130.39
658.849	37223.95
659.2	37201.8
659.551	37127.46
659.902	37266.44
660.253	37114.8
660.604	37202.26
660.955	37087.91
661.306	37319.54
661.656	37184.4
662.007	37257.4
662.358	37228.02
662.708	37251.29
663.059	37343.95
663.409	36959.55
663.76	37345.08
664.11	37254.68
664.461	37566.31
664.811	37523.15
665.161	37320.22
665.511	37257.4
665.862	37307.56
666.212	37493.1
666.562	37705.29
666.912	37599.31
667.262	37454.9
667.612	37585.75
667.962	37561.57
668.312	37509.14
668.662	37657.16
669.011	37576.71
669.361	37617.61
669.711	37395.47
670.06	37593.66
670.41	37517.95
670.76	37376.26
671.109	37714.56
671.459	37668.68
671.808	37485.19
672.157	37839.98
672.507	37554.56
672.856	37623.26
673.205	37667.78
673.554	37740.77
673.904	37772.18
674.253	37955.46
674.602	37673.2
674.951	37076.16
675.3	37145.31
675.649	37657.84
675.998	37732.64
676.346	37755.69
676.695	37971.95
677.044	37767.89
677.393	37779.64
677.741	37808.79
678.09	37777.61
678.438	37657.39
678.787	37810.15
679.135	37884.27
679.484	37526.54
679.832	37661.91
680.181	37435.47
680.529	37638.85
680.877	37542.81
681.225	37624.17
681.573	37779.87
681.922	37526.77
682.27	37581.46
682.618	37646.76
682.966	37464.85
683.314	37543.26
683.661	37412.42
684.009	37352.76
684.357	37329.94
684.705	37204.74
685.053	37261.24
685.4	37190.73
685.748	37090.62
686.095	37201.8
686.443	37149.15
686.79	37059.21
687.138	37066.67
687.485	37239.54
687.832	36948.03
688.18	37086.1
688.527	36981.25
688.874	36985.76
689.221	36822.83
689.568	36921.59
689.915	36680.69
690.262	36790.97
690.609	36680.01
690.956	36647.69
691.303	36686.11
691.65	36530.41
691.997	36429.62
692.344	36386.01
692.69	36282.96
693.037	36363.18
693.383	36109.4
693.73	36292
694.077	36082.51
694.423	36249.06
694.769	36105.56
695.116	35888.62
695.462	36034.6
695.808	35790.54
696.155	35959.35
696.501	35667.38
696.847	35642.98
697.193	35392.81
697.539	35648.17
697.885	35421.51
698.231	35257.9
698.577	35354.85
698.923	35254.96
699.269	35126.15
699.614	34924.35
699.96	35123.89
700.306	35197.79
700.651	34965.7
700.997	35059.26
701.342	34880.28
701.688	34869.89
702.033	34672.38
702.379	34754.86
702.724	34598.71
703.069	34895.88
703.415	34353.74
703.76	34407.3
704.105	34381.54
704.45	34542.89
704.795	34131.15
705.14	34151.49
705.485	34101.55
705.83	34010.93
706.175	34094.32
706.52	34039.85
706.865	33852.74
707.209	33932.29
707.554	33794.66
707.899	33879.86
708.243	33722.12
708.588	33855.23
708.932	33579.3
709.277	33634.21
709.621	33730.48
709.966	33489.36
710.31	33496.37
710.654	33252.08
710.998	33495.69
711.342	33310.38
711.687	33305.18
712.031	33060.9
712.375	33091.4
712.719	33190.38
713.063	33229.48
713.407	33210.72
713.75	33182.93
714.094	33076.26
714.438	33004.17
714.782	33180.22
715.125	32883.73
715.469	32999.65
715.812	32765.08
716.156	32661.13
716.499	32996.04
716.843	33010.28
717.186	32712.2
717.53	32939.54
717.873	32887.57
718.216	32824.97
718.559	32752.88
718.902	32594.47
719.246	32736.84
719.589	32597.41
719.932	32447.13
720.275	32466.79
720.617	32508.82
720.96	32495.71
721.303	32338.2
721.646	32411.2
721.989	32230.41
722.331	32523.74
722.674	32350.63
723.016	32378.65
723.359	32231.99
723.701	32494.13
724.044	32114.71
724.386	32085.1
724.729	32222.73
725.071	32131.43
725.413	32120.81
725.755	32105.89
726.097	32005.33
726.439	31804.88
726.782	31946.58
727.124	32089.85
727.465	31829.97
727.807	31866.35
728.149	31800.14
728.491	31765.56
728.833	31804.88
729.175	31749.07
729.516	31669.52
729.858	31667.03
730.199	31702.06
730.541	31693.47
730.882	31679.24
731.224	31723.53
731.565	31711.55
731.906	31678.56
732.248	31697.32
732.589	31584.1
732.93	31510.88
733.271	31547.26
733.612	31595.85
733.953	31601.27
734.294	31611.44
734.635	31442.18
734.976	31606.92
735.317	31398.12
735.658	31456.19
735.999	31466.81
736.339	31423.2
736.68	31551.56
737.021	31469.98
737.361	31412.8
737.702	31646.47
738.042	31388.85
738.383	31325.57
738.723	31332.58
739.063	31257.78
739.404	31338.46
739.744	31379.36
740.084	31202.19
740.424	31184.11
740.764	31133.04
741.104	31295.29
741.444	31155.64
741.784	31066.6
742.124	31125.35
742.464	31053.27
742.804	31006.49
743.143	30907.05
743.483	31070.21
743.823	30842.2
744.162	30992.48
744.502	31093.72
744.841	30899.82
745.181	30962.19
745.52	30988.18
745.86	30960.84
746.199	30931.23
746.538	30748.41
746.877	30879.26
747.216	30883.33
747.556	30827.06
747.895	30942.99
748.234	30740.28
748.573	30791.35
748.911	30660.28
749.25	30664.35
749.589	30632.26
749.928	30599.49
750.267	30741.18
750.605	30727.62
750.944	30604.92
751.283	30463.45
751.621	30552.71
751.96	30281.53
752.298	30337.8
752.636	30334.41
752.975	30215.32
753.313	30138.71
753.651	30336
753.989	30168.32
754.327	30077.02
754.666	30002.67
755.004	30060.07
755.342	30107.53
755.679	30161.99
756.017	29899.17
756.355	30030.47
756.693	29903.24
757.031	29816.91
757.368	29747.54
757.706	29802.45
758.044	29754.99
758.381	29660.53
758.719	29575.79
759.056	29640.65
759.394	29526.98
759.731	29309.36
760.068	29365.85
760.405	29285.18
760.743	29231.84
761.08	29306.87
761.417	29172.41
761.754	29182.13
762.091	29024.84
762.428	28952.08
762.765	28970.16
763.102	28940.78
763.438	28808.13
763.775	28795.7
764.112	28788.01
764.449	28882.25
764.785	28660.33
765.122	28417.63
765.458	28429.38
765.795	28476.16
766.131	28505.99
766.467	28299.67
766.804	28287.69
767.14	28124.08
767.476	28231.87
767.812	28128.37
768.148	28131.76
768.485	27870.98
768.821	27750.3
769.157	27767.7
769.492	27690.87
769.828	27750.75
770.164	27539.46
770.5	27443.64
770.836	27504.88
771.171	27266.02
771.507	27276.87
771.842	27078.91
772.178	27134.27
772.513	26967.95
772.849	27023.77
773.184	26916.88
773.519	26982.86
773.855	26913.04
774.19	26726.37
774.525	26641.4
774.86	26622.42
775.195	26726.15
775.53	26578.13
775.865	26557.11
776.2	26428.75
776.535	26092.94
776.87	26137.69
777.205	26061.08
777.539	25928.65
777.874	25931.82
778.209	25745.61
778.543	25725.72
778.878	25681.88
779.212	25831.71
779.547	25628.32
779.881	25678.04
780.215	25342.91
780.55	25538.61
780.884	25320.76
781.218	25324.38
781.552	25373.41
781.886	25152.86
782.22	25096.13
782.554	25095.46
782.888	24915.8
783.222	24890.26
783.556	24792.87
783.889	24781.79
784.223	24676.26
784.557	24642.13
784.89	24577.96
785.224	24575.24
785.557	24343.16
785.891	24301.58
786.224	24275.36
786.558	24338.41
786.891	24139.1
787.224	24063.17
787.557	23918.99
787.891	24035.6
788.224	24070.85
788.557	23998.31
788.89	23860.23
789.223	23945.2
789.556	23797.19
789.888	23772.33
790.221	23607.13
790.554	23530.75
790.887	23524.42
791.219	23536.63
791.552	23371.66
791.884	23222.06
792.217	23208.27
792.549	23247.37
792.882	23101.38
793.214	22955.85
793.546	22980.26
793.879	22975.74
794.211	22728.06
794.543	22916.98
794.875	22838.57
795.207	22905.91
795.539	22653.26
795.871	22795.4
796.203	22608.97
796.535	22508.18
796.867	22424.11
797.198	22415.75
797.53	22297.56
797.862	22192.48
798.193	22289.2
798.525	22181.86
798.856	22131.69
799.188	22122.65
799.519	21962.88
799.85	21961.75
800.182	21978.48
800.513	22000.85
800.844	21822.1
801.175	21898.48
801.506	21889.44
801.837	21782.77
802.168	21786.16
802.499	21610.8
802.83	21516.79
803.161	21575.1
803.491	21662.1
803.822	21514.76
804.153	21438.15
804.483	21352.73
804.814	21317.7
805.145	21236.57
805.475	21284.71
805.805	21148.67
806.136	21168.78
806.466	21119.06
806.796	21100.53
807.126	20949.8
807.457	20884.72
807.787	21031.61
808.117	20891.5
808.447	20750.49
808.777	20953.64
809.107	20797.04
809.436	20770.6
809.766	20810.82
810.096	20707.77
810.426	20626.19
810.755	20666.19
811.085	20579.42
811.414	20598.17
811.744	20501.23
812.073	20266.88
812.403	20421.91
812.732	20334.9
813.061	20305.75
813.39	20301.68
813.719	20327.67
814.049	20428.46
814.378	20347.56
814.707	20274.34
815.036	20198.86
815.365	20146.21
815.693	19966.33
816.022	19979.66
816.351	19959.09
816.68	19898.76
817.008	20014.23
817.337	19859.89
817.665	19897.85
817.994	19891.75
818.322	19953.22
818.651	19910.28
818.979	19781.92
819.307	19890.17
819.636	19798.65
819.964	19666.67
820.292	19779.21
820.62	19853.33
820.948	19799.1
821.276	19908.7
821.604	19703.06
821.932	19779.21
822.259	19828.48
822.587	19866.67
822.915	19704.41
823.243	19906.21
823.57	19777.4
823.898	19811.08
824.225	19849.94
824.553	19822.83
824.88	19827.12
825.207	19842.49
825.535	19717.97
825.862	19825.99
826.189	19761.13
826.516	19942.6
826.843	20026.89
827.17	19978.53
827.497	19972.43
827.824	19912.09
828.151	19987.12
828.478	19905.54
828.805	20034.8
829.131	19939.21
829.458	19985.53
829.785	19921.13
830.111	19986.44
830.438	20093.33
830.764	20016.27
831.09	20181.91
831.417	20047.45
831.743	20202.48
832.069	20119.32
832.395	20007.23
832.722	20155.25
833.048	20113.89
833.374	20040.9
833.7	20133.55
834.026	20227.34
834.351	20149.82
834.677	20169.71
835.003	20168.35
835.329	20214.45
835.654	20098.75
835.98	20050.62
836.306	20141.69
836.631	19981.24
836.956	20124.29
837.282	20073.22
837.607	19970.62
837.932	20034.35
838.258	19952.54
838.583	20077.28
838.908	19918.42
839.233	19931.75
839.558	19922.48
839.883	19831.41
840.208	19710.51
840.533	19816.05
840.858	19898.08
841.182	19918.42
841.507	19926.1
841.832	19581.25
842.156	19708.93
842.481	19738.08
842.805	19653.57
843.13	19705.77
843.454	19741.25
843.778	19640.46
844.103	19629.61
844.427	19500.57
844.751	19605.43
845.075	19493.12
845.399	19518.88
845.723	19400.01
846.047	19427.81
846.371	19330.41
846.695	19383.97
847.019	19219.45
847.343	19218.1
847.666	19136.29
847.99	19060.36
848.313	19047.93
848.637	18803.64
848.96	18925.45
849.284	18829.41
849.607	18691.33
849.931	18688.62
850.254	18494.73
850.577	18435.52
850.9	18421.51
851.223	18452.47
851.546	18459.7
851.869	18208.86
852.192	18302.64
852.515	18195.75
852.838	18067.39
853.161	18123.89
853.483	17980.84
853.806	18017.22
854.129	17915.31
854.451	17833.73
854.774	17729.55
855.096	17806.83
855.419	17800.73
855.741	17715.09
856.063	17697.23
856.385	17666.95
856.708	17691.36
857.03	17578.59
857.352	17565.26
857.674	17541.53
857.996	17482.77
858.318	17349.22
858.64	17357.81
858.961	17308.54
859.283	17215.89
859.605	17224.25
859.926	17241.43
860.248	17218.15
860.57	17183.8
860.891	17236
861.212	17137.25
861.534	17128.21
861.855	17127.3
862.176	17080.53
862.498	17108.1
862.819	17040.3
863.14	17049.57
863.461	16945.39
863.782	16910.81
864.103	17022
864.424	16896.58
864.745	16937.03
865.065	16921.43
865.386	16722.12
865.707	16857.03
866.027	16970.02
866.348	16910.13
866.668	16893.19
866.989	16739.97
867.309	16657.03
867.63	16757.14
867.95	16726.18
868.27	16748.78
868.59	16759.63
868.91	16748.56
869.23	16792.85
869.55	16686.64
869.87	16784.26
870.19	16735.45
870.51	16661.1
870.83	16825.84
871.15	16605.51
871.469	16639.41
871.789	16685.51
872.109	16667.2
872.428	16586.08
872.748	16625.4
873.067	16518.96
873.386	16513.76
873.706	16482.12
874.025	16463.14
874.344	16450.94
874.663	16535
874.982	16470.15
875.301	16533.65
875.62	16365.29
875.939	16327.78
876.258	16321.45
876.577	16301.11
876.896	16407.55
877.214	16300.88
877.533	16393.76
877.852	16235.8
878.17	16330.49
878.489	16318.51
878.807	16245.97
879.125	16246.42
879.444	16271.96
879.762	16261.56
880.08	16236.71
880.398	16118.74
880.716	16229.47
881.034	16120.32
881.352	16215.46
881.67	16148.57
881.988	16173.2
882.306	16172.07
882.624	16114.45
882.941	16124.17
883.259	16076.48
883.577	15971.85
883.894	15957.17
884.212	15974.79
884.529	15945.19
884.846	15817.73
885.164	15831.52
885.481	15829.71
885.798	15941.35
886.115	15842.14
886.432	15771.18
886.75	15858.64
887.067	15781.35
887.383	15736.83
887.7	15763.95
888.017	15632.2
888.334	15784.29
888.651	15723.72
888.967	15723.27
889.284	15541.13
889.6	15513.34
889.917	15516.05
890.233	15465.43
890.55	15365.99
890.866	15476.73
891.182	15429.5
891.498	15407.8
891.815	15283.74
892.131	15345.88
892.447	15257.07
892.763	15171.65
893.079	15187.02
893.395	15147.24
893.71	15168.26
894.026	15128.26
894.342	15061.6
894.657	15089.84
894.973	15058.43
895.289	14914.25
895.604	15043.06
895.92	14924.88
896.235	14801.26
896.55	14863.86
896.865	14715.62
897.181	14751.77
897.496	14814.82
897.811	14681.94
898.126	14589.97
898.441	14625.67
898.756	14599.23
899.071	14556.3
899.386	14486.47
899.7	14367.38
900.015	14281.73
900.33	14262.07
900.644	14228.85
900.959	14280.6
901.273	14180.04
901.588	14150.66
901.902	14118.57
902.216	14159.02
902.531	14098.68
902.845	13976.2
903.159	13982.3
903.473	13958.57
903.787	13921.29
904.101	13827.96
904.415	13794.51
904.729	13818.46
905.042	13692.14
905.356	13601.97
905.67	13633.38
905.984	13669.32
906.297	13527.62
906.611	13457.57
906.924	13527.4
907.237	13454.18
907.551	13361.08
907.864	13365.59
908.177	13299.61
908.491	13285.37
908.804	13140.52
909.117	13112.49
909.43	13020.07
909.743	12959.96
910.056	13019.16
910.368	12977.58
910.681	12863.46
910.994	12769.9
911.307	12814.42
911.619	12773.07
911.932	12776.68
912.244	12667.08
912.557	12658.27
912.869	12632.96
913.181	12535.79
913.494	12599.29
913.806	12516.13
914.118	12512.74
914.43	12532.17
914.742	12402.23
915.054	12319.52
915.366	12350.93
915.678	12215.57
915.99	12117.94
916.302	12146.87
916.613	12084.27
916.925	12134.89
917.236	12032.07
917.548	12035.01
917.859	11909.36
918.171	11866.65
918.482	11869.36
918.794	11764.51
919.105	11889.25
919.416	11665.53
919.727	11710.27
920.038	11607.45
920.349	11544.63
920.66	11482.71
920.971	11505.98
921.282	11480.9
921.593	11378.08
921.903	11399.09
922.214	11345.08
922.525	11316.16
922.835	11253.33
923.146	11172.21
923.456	11124.75
923.767	11064.19
924.077	11051.31
924.387	11032.32
924.697	10859.22
925.008	10917.52
925.318	10871.2
925.628	10930.4
925.938	10894.02
926.248	10733.57
926.558	10721.82
926.867	10723.4
927.177	10715.27
927.487	10678.21
927.796	10515.5
928.106	10483.18
928.416	10515.95
928.725	10530.42
929.034	10477.54
929.344	10436.63
929.653	10409.29
929.962	10375.39
930.271	10245.22
930.581	10336.97
930.89	10203.19
931.199	10114.15
931.508	10127.26
931.817	10160.03
932.125	10081.16
932.434	10090.2
932.743	9916.87
933.051	9972.24
933.36	9860.6
933.669	9866.03
933.977	9851.11
934.286	9834.84
934.594	9708.97
934.902	9716.43
935.21	9656.99
935.519	9705.35
935.827	9625.58
936.135	9602.98
936.443	9478.92
936.751	9485.7
937.059	9537.45
937.367	9443.21
937.674	9378.58
937.982	9423.33
938.29	9371.35
938.597	9330.45
938.905	9154.41
939.213	9163.45
939.52	9168.42
939.827	9113.28
940.135	9083
940.442	9101.75
940.749	9041.87
941.056	9063.56
941.363	9056.56
941.67	8957.35
941.977	8905.6
942.284	8857.46
942.591	8881.87
942.898	8842.78
943.205	8823.57
943.511	8718.03
943.818	8642.33
944.125	8642.78
944.431	8646.4
944.738	8651.59
945.044	8565.95
945.35	8549
945.657	8473.29
945.963	8442.11
946.269	8454.99
946.575	8394.65
946.881	8389.23
947.187	8362.79
947.493	8302.45
947.799	8259.06
948.105	8185.39
948.41	8162.79
948.716	8152.17
949.022	8133.64
949.327	8087.77
949.633	7995.57
949.938	8085.96
950.244	8050.03
950.549	7925.29
950.854	7868.11
951.16	7900.43
951.465	7895
951.77	7809.36
952.075	7816.36
952.38	7811.39
952.685	7747.44
952.99	7770.04
953.294	7734.33
953.599	7676.93
953.904	7675.58
954.209	7591.51
954.513	7549.48
954.818	7526.2
955.122	7503.83
955.426	7489.59
955.731	7409.59
956.035	7408.92
956.339	7424.96
956.643	7378.41
956.948	7312.42
957.252	7228.81
957.556	7251.63
957.86	7266.55
958.163	7205.98
958.467	7154.91
958.771	7198.3
959.075	7172.99
959.378	7087.12
959.682	7155.59
959.985	7071.07
960.289	7019.77
960.592	6987.23
960.896	6969.15
961.199	6888.25
961.502	6894.35
961.805	6844.41
962.108	6773.68
962.411	6781.14
962.714	6747.69
963.017	6705.21
963.32	6767.58
963.623	6731.65
963.926	6732.32
964.228	6649.39
964.531	6644.42
964.833	6643.06
965.136	6562.38
965.438	6558.77
965.741	6580.91
966.043	6593.12
966.345	6507.02
966.648	6452.78
966.95	6434.03
967.252	6387.7
967.554	6370.98
967.856	6260.92
968.158	6272.9
968.46	6254.14
968.761	6216.4
969.063	6224.99
969.365	6202.17
969.666	6178.44
969.968	6065.22
970.269	6117.42
970.571	6137.99
970.872	6066.8
971.174	6062.96
971.475	6036.52
971.776	6033.36
972.077	5986.81
972.378	5990.87
972.679	5929.18
972.98	5989.97
973.281	5905.45
973.582	5852.8
973.883	5827.49
974.183	5833.36
974.484	5816.64
974.785	5737.55
975.085	5683.99
975.386	5705.23
975.686	5683.31
975.986	5652.58
976.287	5650.32
976.587	5681.73
976.887	5662.75
977.187	5628.4
977.487	5634.27
977.787	5576.87
978.087	5539.36
978.387	5497.1
978.687	5457.1
978.987	5430.21
979.286	5432.24
979.586	5425.24
979.885	5365.58
980.185	5379.59
980.484	5310.21
980.784	5345.92
981.083	5248.52
981.382	5245.81
981.682	5217.56
981.981	5184.57
982.28	5148.18
982.579	5174.17
982.878	5139.82
983.177	5106.38
983.475	5117.68
983.774	5044.91
984.073	5027.96
984.372	4998.58
984.67	5022.54
984.969	4996.55
985.267	4978.24
985.566	4966.27
985.864	4928.75
986.162	4884.91
986.461	4855.76
986.759	4868.19
987.057	4816.67
987.355	4816.22
987.653	4747.29
987.951	4740.28
988.249	4773.5
988.547	4731.25
988.844	4697.12
989.142	4725.6
989.44	4694.41
989.737	4693.73
990.035	4678.59
990.332	4626.62
990.63	4633.62
990.927	4542.78
991.224	4522.89
991.521	4509.78
991.819	4530.35
992.116	4513.85
992.413	4469.78
992.71	4439.28
993.006	4416.23
993.303	4447.64
993.6	4450.35
993.897	4387.3
994.193	4377.36
994.49	4368.54
994.787	4349.33
995.083	4335.78
995.379	4266.63
995.676	4300.3
995.972	4268.43
996.268	4227.76
996.565	4200.41
996.861	4184.14
997.157	4145.27
997.453	4159.06
997.749	4115.67
998.044	4072.96
998.34	4061.88
998.636	4041.77
998.932	4027.99
999.227	4003.13
999.523	3994.77
999.818	3978.5
1000.114	3946.63
1000.409	3922.45
1000.704	3916.35
1001	3925.17
1001.295	3854.21
1001.59	3783.7
1001.885	3816.47
1002.18	3774.43
1002.475	3776.92
1002.77	3728.56
1003.065	3700.09
1003.359	3713.42
1003.654	3739.63
1003.949	3668.22
1004.243	3713.42
1004.538	3651.73
1004.832	3650.82
1005.127	3581.9
1005.421	3547.1
1005.715	3577.6
1006.009	3526.53
1006.304	3509.58
1006.598	3495.35
1006.892	3485.85
1007.186	3421.9
1007.48	3448.57
1007.773	3417.16
1008.067	3413.77
1008.361	3405.63
1008.655	3364.95
1008.948	3360.21
1009.242	3334.22
1009.535	3321.11
1009.829	3275.46
1010.122	3242.02
1010.415	3270.04
1010.708	3246.76
1011.001	3193.21
1011.295	3194.56
1011.588	3195.69
1011.881	3175.58
1012.173	3128.35
1012.466	3128.12
1012.759	3075.02
1013.052	3072.31
1013.344	3047.9
1013.637	3009.03
1013.93	3020.56
1014.222	3001.35
1014.514	3000.44
1014.807	2975.59
1015.099	2975.81
1015.391	2972.65
1015.683	2929.94
1015.976	2888.36
1016.268	2883.61
1016.56	2836.38
1016.851	2797.51
1017.143	2847.91
1017.435	2795.7
1017.727	2790.73
1018.018	2760
1018.31	2731.52
1018.602	2724.52
1018.893	2699.66
1019.185	2629.15
1019.476	2670.96
1019.767	2626.44
1020.058	2645.65
1020.35	2596.61
1020.641	2596.84
1020.932	2555.71
1021.223	2568.59
1021.514	2516.16
1021.804	2515.71
1022.095	2498.31
1022.386	2475.94
1022.677	2465.77
1022.967	2467.12
1023.258	2392.1
1023.548	2420.57
1023.839	2364.98
1024.129	2369.05
1024.419	2320.91
1024.709	2343.74
1025	2297.41
1025.29	2314.59
1025.58	2291.08
1025.87	2210.63
1026.16	2250.63
1026.449	2240.01
1026.739	2205.21
1027.029	2174.48
1027.319	2199.11
1027.608	2158.43
1027.898	2152.33
1028.187	2144.2
1028.477	2154.14
1028.766	2093.8
1029.055	2083.63
1029.344	2071.65
1029.634	2050.64
1029.923	2021.94
1030.212	2046.8
1030.501	2035.95
1030.79	1978.32
1031.078	1993.46
1031.367	1937.19
1031.656	1946.91
1031.945	1941.26
1032.233	1932.45
1032.522	1918.66
1032.81	1884.99
1033.099	1860.13
1033.387	1865.78
1033.675	1859.46
1033.963	1850.87
1034.251	1821.27
1034.54	1791.66
1034.828	1789.85
1035.116	1782.17
1035.403	1766.58
1035.691	1759.12
1035.979	1762.28
1036.267	1715.28
1036.554	1721.38
1036.842	1702.62
1037.129	1701.72
1037.417	1691.1
1037.704	1661.95
1037.992	1643.42
1038.279	1680.48
1038.566	1642.06
1038.853	1642.06
1039.14	1642.06
