Data from copper_heatsink_FLMS001491_074.txt Node
Date: Tue Feb 07 10:50:33 GMT 2017
User: dcchb
Spectrometer: FLMS00149
Trigger mode: 0
Integration Time (sec): 2.000000E-2
Scans to average: 10
Electric dark correction enabled: true
Nonlinearity correction enabled: false
Boxcar width: 0
XAxis mode: Wavelengths
Number of Pixels in Spectrum: 2048
>>>>>Begin Spectral Data<<<<<
341.393	-20.2
341.776	-20.2
342.16	-20.2
342.543	-62.23
342.927	-75.34
343.31	-64.04
343.693	-47.77
344.077	-60.87
344.46	-49.8
344.843	-71.95
345.226	-41.44
345.61	-36.92
345.993	-24.26
346.376	-17.49
346.759	19.58
347.142	33.36
347.525	30.87
347.908	45.34
348.291	83.75
348.674	73.13
349.057	128.5
349.44	121.27
349.823	155.39
350.206	189.51
350.588	210.98
350.971	244.65
351.354	250.76
351.737	267.25
352.119	293.47
352.502	296.63
352.884	293.24
353.267	339.34
353.65	323.3
354.032	329.85
354.414	325.33
354.797	326.01
355.179	327.36
355.562	338.89
355.944	367.59
356.326	354.48
356.709	370.53
357.091	368.72
357.473	372.11
357.855	378.44
358.238	370.3
358.62	361.71
359.002	384.99
359.384	371.43
359.766	371.43
360.148	376.85
360.53	397.42
360.912	361.94
361.294	396.74
361.676	375.95
362.057	377.53
362.439	382.5
362.821	350.87
363.203	372.56
363.584	366.46
363.966	368.95
364.348	350.87
364.729	359.91
365.111	371.2
365.493	374.14
365.874	339.57
366.256	353.8
366.637	369.62
367.019	355.84
367.4	363.75
367.781	367.82
368.163	375.5
368.544	365.78
368.925	365.56
369.306	362.17
369.688	355.84
370.069	375.5
370.45	354.71
370.831	364.65
371.212	349.28
371.593	331.88
371.974	357.87
372.355	340.02
372.736	375.27
373.117	355.16
373.498	370.3
373.879	374.14
374.26	370.3
374.641	381.37
375.021	349.06
375.402	354.93
375.783	349.51
376.163	386.12
376.544	404.88
376.925	373.69
377.305	371.2
377.686	381.83
378.066	390.19
378.447	395.16
378.827	403.52
379.208	385.89
379.588	391.09
379.968	395.39
380.349	410.98
380.729	413.01
381.109	401.94
381.489	392.9
381.87	401.49
382.25	388.15
382.63	404.88
383.01	422.05
383.39	403.52
383.77	407.81
384.15	405.33
384.53	447.59
384.91	417.98
385.29	420.24
385.67	446.68
386.049	436.29
386.429	436.51
386.809	427.7
387.189	428.15
387.568	412.56
387.948	432.22
388.328	447.14
388.707	424.31
389.087	455.95
389.466	448.72
389.846	454.37
390.225	481.26
390.605	455.04
390.984	457.3
391.363	474.03
391.743	478.32
392.122	455.95
392.501	458.89
392.881	484.42
393.26	472.22
393.639	499.56
394.018	462.95
394.397	488.49
394.776	489.17
395.155	495.95
395.534	492.33
395.913	478.32
396.292	511.77
396.671	509.51
397.05	514.03
397.429	527.36
397.808	505.66
398.186	527.81
398.565	501.82
398.944	515.38
399.323	511.99
399.701	534.36
400.08	507.92
400.458	534.82
400.837	562.61
401.215	552.22
401.594	542.95
401.972	532.56
402.351	546.34
402.729	566.45
403.107	554.7
403.486	546.12
403.864	554.93
404.242	581.37
404.62	565.55
404.999	554.25
405.377	599.45
405.755	590.63
406.133	597.41
406.511	593.35
406.889	585.21
407.267	606.45
407.645	596.74
408.023	636.51
408.401	637.19
408.779	642.61
409.156	618.2
409.534	620.69
409.912	631.99
410.29	663.85
410.667	656.4
411.045	666.34
411.422	665.89
411.8	667.47
412.178	664.76
412.555	701.59
412.933	704.3
413.31	677.86
413.687	693.91
414.065	714.47
414.442	704.08
414.819	718.99
415.197	730.52
415.574	740.46
415.951	737.97
416.328	767.8
416.705	770.29
417.082	768.26
417.46	754.25
417.837	796.28
418.214	765.54
418.591	785.21
418.967	787.47
419.344	773.91
419.721	784.53
420.098	814.81
420.475	789.05
420.852	807.8
421.228	822.94
421.605	839.89
421.982	842.15
422.358	844.19
422.735	864.75
423.111	877.63
423.488	881.7
423.864	879.44
424.241	877.41
424.617	909.72
424.994	891.87
425.37	918.99
425.746	907.69
426.123	952.21
426.499	938.87
426.875	945.88
427.251	951.3
427.627	970.29
428.003	971.19
428.379	982.04
428.756	1014.58
429.132	1015.93
429.507	1030.62
429.883	1026.33
430.259	1034.69
430.635	1050.51
431.011	1045.99
431.387	1076.5
431.763	1079.43
432.138	1072.43
432.514	1118.08
432.89	1103.84
433.265	1146.55
433.641	1155.37
434.016	1145.2
434.392	1170.96
434.767	1172.99
435.143	1198.98
435.518	1231.75
435.894	1227
436.269	1223.61
436.644	1254.35
437.02	1253.89
437.395	1283.27
437.77	1294.34
438.145	1285.98
438.52	1291.63
438.895	1299.09
439.271	1325.08
439.646	1363.5
440.021	1358.75
440.395	1388.35
440.77	1380.44
441.145	1347.9
441.52	1372.76
441.895	1419.99
442.27	1410.05
442.645	1409.82
443.019	1440.1
443.394	1439.2
443.769	1441.69
444.143	1400.1
444.518	1466.09
444.892	1459.54
445.267	1462.48
445.641	1474.9
446.016	1506.77
446.39	1484.4
446.764	1504.06
447.139	1516.26
447.513	1548.35
447.887	1549.03
448.262	1572.08
448.636	1593.77
449.01	1603.49
449.384	1612.75
449.758	1622.92
450.132	1622.02
450.506	1641.91
450.88	1662.92
451.254	1638.29
451.628	1652.75
452.002	1657.72
452.376	1702.47
452.75	1745.41
453.123	1720.1
453.497	1789.02
453.871	1785.18
454.244	1836.25
454.618	1833.54
454.992	1863.37
455.365	1838.28
455.739	1914.89
456.112	1936.59
456.486	1957.38
456.859	1941.56
457.232	1979.07
457.606	1986.98
457.979	2033.31
458.352	2059.75
458.725	2046.87
459.099	2106.07
459.472	2147.88
459.845	2132.51
460.218	2155.79
460.591	2176.81
460.964	2203.93
461.337	2231.49
461.71	2283.7
462.083	2315.11
462.456	2342.23
462.829	2329.8
463.201	2382.45
463.574	2408.89
463.947	2425.39
464.32	2455.67
464.692	2485.27
465.065	2522.56
465.438	2544.71
465.81	2572.5
466.183	2572.28
466.555	2669.68
466.928	2718.04
467.3	2698.83
467.672	2697.92
468.045	2788.99
468.417	2811.37
468.789	2847.98
469.161	2897.24
469.534	2907.86
469.906	2913.28
470.278	2960.97
470.65	3013.4
471.022	3062.21
471.394	3127.29
471.766	3150.57
472.138	3213.39
472.51	3282.77
472.882	3323.9
473.253	3332.48
473.625	3364.57
473.997	3416.55
474.369	3505.13
474.74	3513.04
475.112	3578.8
475.484	3667.39
475.855	3671.23
476.227	3736.09
476.598	3800.27
476.97	3839.14
477.341	3944.22
477.713	3947.38
478.084	3996.65
478.455	4136.08
478.827	4215.85
479.198	4282.29
479.569	4292.46
479.94	4416.52
480.311	4410.65
480.682	4510.31
481.053	4633.47
481.424	4706.68
481.795	4712.33
482.166	4861.93
482.537	4841.14
482.908	5037.07
483.279	5070.74
483.65	5178.76
484.021	5262.38
484.391	5278.19
484.762	5350.06
485.133	5442.48
485.503	5449.26
485.874	5613.33
486.244	5618.3
486.615	5751.63
486.985	5792.53
487.356	5904.62
487.726	5955.24
488.097	6083.6
488.467	6113.43
488.837	6267.1
489.207	6340.77
489.578	6397.71
489.948	6465.96
490.318	6538.5
490.688	6557.48
491.058	6722.45
491.428	6815.33
491.798	6868.21
492.168	7007.19
492.538	7030.01
492.908	7151.59
493.278	7253.06
493.648	7173.51
494.017	7300.06
494.387	7420.51
494.757	7458.02
495.126	7631.8
495.496	7674.29
495.866	7721.75
496.235	7798.35
496.605	7898.69
496.974	7915.41
497.344	8036.99
497.713	8062.75
498.082	8189.76
498.452	8226.59
498.821	8254.61
499.19	8316.08
499.559	8388.85
499.928	8488.73
500.298	8519.69
500.667	8622.74
501.036	8667.03
501.405	8800.81
501.774	8778.89
502.143	8826.35
502.512	8881.94
502.88	9005.78
503.249	9020.02
503.618	9099.34
503.987	9144.99
504.356	9234.93
504.724	9311.76
505.093	9371.87
505.462	9390.18
505.83	9507.24
506.199	9597.63
506.567	9692.32
506.936	9741.13
507.304	9793.56
507.672	9873.33
508.041	9927.56
508.409	10043.94
508.777	10044.85
509.145	10228.8
509.514	10256.59
509.882	10394.67
510.25	10389.7
510.618	10541.56
510.986	10564.38
511.354	10652.74
511.722	10776.36
512.09	10847.31
512.458	10984.03
512.826	11057.03
513.193	11073.3
513.561	11148.55
513.929	11276.91
514.297	11354.19
514.664	11506.96
515.032	11511.93
515.4	11624.47
515.767	11743.79
516.135	11836.44
516.502	11814.97
516.869	12080.95
517.237	12105.81
517.604	12015.42
517.972	12257.45
518.339	12393.49
518.706	12502.64
519.073	12445.24
519.44	12587.38
519.808	12792.35
520.175	12814.72
520.542	12943.08
520.909	13120.7
521.276	13226.46
521.643	13294.25
522.009	13383.97
522.376	13502.84
522.743	13642.72
523.11	13844.75
523.477	13935.59
523.843	14020.11
524.21	14159.77
524.577	14283.38
524.943	14395.24
525.31	14537.61
525.676	14678.4
526.043	14872.29
526.409	15009.24
526.776	15112.06
527.142	15213.53
527.508	15290.13
527.874	15449.23
528.241	15538.04
528.607	15600.18
528.973	15739.61
529.339	15864.58
529.705	16057.12
530.071	16155.87
530.437	16199.72
530.803	16406.94
531.169	16526.03
531.535	16606.94
531.901	16638.35
532.267	16822.3
532.632	16939.58
532.998	17041.95
533.364	17198.33
533.73	17238.56
534.095	17462.51
534.461	17607.14
534.826	17642.39
535.192	17731.65
535.557	17936.17
535.923	17915.15
536.288	18142.04
536.653	18317.4
537.019	18230.4
537.384	18450.05
537.749	18547.45
538.114	18536.6
538.479	18720.33
538.845	18894.56
539.21	18852.98
539.575	19020.21
539.94	19042.35
540.305	19306.98
540.67	19309.01
541.034	19432.4
541.399	19558.95
541.764	19676.23
542.129	19870.58
542.494	19976.34
542.858	20082.1
543.223	20145.37
543.587	20339.95
543.952	20377.23
544.316	20499.04
544.681	20668.75
545.045	20845.47
545.41	20976.09
545.774	20997.56
546.138	21268.51
546.503	21313.48
546.867	21316.64
547.231	21652
547.595	21718.67
547.959	21851.77
548.324	21962.28
548.688	22161.82
549.052	22329.05
549.416	22373.11
549.779	22529.94
550.143	22624.86
550.507	23001.8
550.871	23126.31
551.235	23126.76
551.599	23355.23
551.962	23690.37
552.326	23710.03
552.689	23910.7
553.053	24019.4
553.417	24225.27
553.78	24658.7
554.143	24529.67
554.507	24812.82
554.87	24891.69
555.234	25357.89
555.597	25243.09
555.96	25580.94
556.323	25869.52
556.686	26013.69
557.05	26255.72
557.413	26380.01
557.776	26608.93
558.139	26959.66
558.502	27137.96
558.865	27367.33
559.228	27547.21
559.59	27902.68
559.953	28046.86
560.316	28506.74
560.679	28557.58
561.041	29030.79
561.404	29231.46
561.767	29623.32
562.129	29720.49
562.492	30181.95
562.854	30333.58
563.217	30517.98
563.579	30755.49
563.941	31023.51
564.304	31612.87
564.666	31816.25
565.028	32007.44
565.39	32323.59
565.753	32677.25
566.115	32970.35
566.477	33293.28
566.839	33513.38
567.201	33886.71
567.563	34136.19
567.925	34648.04
568.287	34805.55
568.648	34978.66
569.01	35468.59
569.372	35725.08
569.734	35968.91
570.095	36378.85
570.457	36860.64
570.819	36972.95
571.18	37110.35
571.542	37617.23
571.903	37960.05
572.265	38183.32
572.626	38496.3
572.987	38684.32
573.349	39029.85
573.71	39362.72
574.071	39671.19
574.432	40024.63
574.794	40421.68
575.155	40607.66
575.516	40705.96
575.877	41097.59
576.238	41292.61
576.599	41881.53
576.96	41834.75
577.32	42186.38
577.681	42484.45
578.042	42780.94
578.403	42940.71
578.763	43112.45
579.124	43594.7
579.485	43891.42
579.845	43994.46
580.206	44173.89
580.566	44563.49
580.927	44668.57
581.287	44922.8
581.648	44836.02
582.008	45239.4
582.368	45470.58
582.728	45645.49
583.089	45729.56
583.449	45978.82
583.809	46163.67
584.169	46425.36
584.529	46396.21
584.889	46899.25
585.249	46797.33
585.609	46999.13
585.969	47268.73
586.329	47314.15
586.688	47500.14
587.048	47638.89
587.408	47619.45
587.768	47721.15
588.127	47924.53
588.487	48054.47
588.846	48459.21
589.206	48314.35
589.565	48537.17
589.925	48762.7
590.284	48850.38
590.643	48979.19
591.003	49077.95
591.362	49394.32
591.721	49553.41
592.08	49571.49
592.44	49698.5
592.799	49909.56
593.158	49983.46
593.517	50077.47
593.876	50153.17
594.235	50183
594.593	50314.52
594.952	50589.09
595.311	50596.1
595.67	50711.12
596.029	51050.1
596.387	51069.31
596.746	51285.57
597.104	51151.11
597.463	51397.66
597.822	51540.71
598.18	51492.12
598.538	51645.79
598.897	51988.6
599.255	51752.23
599.613	52276.51
599.972	52106.79
600.33	52152.44
600.688	52212.55
601.046	52422.49
601.404	52649.83
601.762	52608.93
602.12	52929.15
602.478	52992.42
602.836	53102.7
603.194	53050.05
603.552	53213.88
603.91	53220.44
604.268	53497.04
604.625	53458.17
604.983	53667.66
605.341	53541.11
605.698	53768.44
606.056	54100.64
606.413	53978.38
606.771	54142.9
607.128	54365.04
607.485	54219.51
607.843	54311.71
608.2	54595.54
608.557	54784.01
608.914	54679.16
609.272	54897
609.629	55000.73
609.986	55121.86
610.343	55141.74
610.7	55371.57
611.057	55449.3
611.414	55439.59
611.771	55563.2
612.127	55716.19
612.484	55750.31
612.841	55943.76
613.198	55872.34
613.554	56004.77
613.911	56161.83
614.267	56239.34
614.624	56217.19
614.98	56416.28
615.337	56575.15
615.693	56569.73
616.05	56662.61
616.406	56790.96
616.762	56776.95
617.118	56925.65
617.475	56953.45
617.831	57082.26
618.187	57178.07
618.543	57308.24
618.899	57395.47
619.255	57367.67
619.611	57490.16
619.967	57535.13
620.323	57606.08
620.678	57599.53
621.034	57647.21
621.39	57708.45
621.746	57776.93
622.101	58005.85
622.457	57872.07
622.812	57966.07
623.168	58127.88
623.523	58107.99
623.879	58277.48
624.234	58126.75
624.589	58330.13
624.945	58462.78
625.3	58489.68
625.655	58458.04
626.01	58571.03
626.365	58657.58
626.72	58625.49
627.075	58671.82
627.43	58766.73
627.785	58805.37
628.14	58885.15
628.495	58945.94
628.85	58979.83
629.205	58895.54
629.559	59002.66
629.914	58963.79
630.269	59081.53
630.623	59001.75
630.978	58997.01
631.332	59208.53
631.687	59287.62
632.041	59252.14
632.396	59333.5
632.75	59225.7
633.104	59342.76
633.459	59312.03
633.813	59284.68
634.167	59370.56
634.521	59390.9
634.875	59468.86
635.229	59417.11
635.583	59394.29
635.937	59456.66
636.291	59439.26
636.645	59564.22
636.999	59445.36
637.352	59610.55
637.706	59521.51
638.06	59718.57
638.413	59661.4
638.767	59655.3
639.121	59621.17
639.474	59622.3
639.828	59714.5
640.181	59780.04
640.534	59739.14
640.888	59679.25
641.241	59679.7
641.594	59810.32
641.947	59892.58
642.301	59861.39
642.654	59872.69
643.007	59853.03
643.36	59919.24
643.713	59852.58
644.066	60023.87
644.419	59895.52
644.771	59921.28
645.124	59757.21
645.477	59769.19
645.83	59680.15
646.182	59523.32
646.535	59424.12
646.888	59493.49
647.24	59314.51
647.593	59540.27
647.945	59464.11
648.298	59414.4
648.65	59417.34
649.002	59414.62
649.355	59534.62
649.707	59520.38
650.059	59819.59
650.411	60180.25
650.763	60163.76
651.115	60412.11
651.467	60409.63
651.819	60428.38
652.171	60423.19
652.523	60404.43
652.875	60433.35
653.227	60360.81
653.578	60537.53
653.93	60541.15
654.282	60491.43
654.633	60465.44
654.985	60622.28
655.337	60649.39
655.688	60665.21
656.039	60794.47
656.391	60560.36
656.742	60631.09
657.094	60716.28
657.445	60857.3
657.796	60775.49
658.147	60780.69
658.498	60863.85
658.849	60892.55
659.2	60829.5
659.551	60827.24
659.902	60978.2
660.253	60968.26
660.604	61082.38
660.955	61005.54
661.306	61109.72
661.656	61027.01
662.007	61107.69
662.358	61115.14
662.708	61164.86
663.059	61214.58
663.409	61150.62
663.76	61262.71
664.11	61302.94
664.461	61314.01
664.811	61323.73
665.161	61332.77
665.511	61340.68
665.862	61384.06
666.212	61456.83
666.562	61539.77
666.912	61544.29
667.262	61588.58
667.612	61525.53
667.962	61653.66
668.312	61676.03
668.662	61750.61
669.011	61757.16
669.361	61726.2
669.711	61770.27
670.06	61776.14
670.41	61746.31
670.76	61787.22
671.109	61880.77
671.459	61914.22
671.808	61959.42
672.157	61974.33
672.507	61812.3
672.856	61922.13
673.205	61999.41
673.554	62066.53
673.904	62043.93
674.253	62169.58
674.602	62133.42
674.951	61860.44
675.3	61702.7
675.649	62138.17
675.998	62111.28
676.346	62171.61
676.695	62257.04
677.044	62163.48
677.393	62269.92
677.741	62360.99
678.09	62275.34
678.438	62266.3
678.787	62306.07
679.135	62372.06
679.484	62252.97
679.832	62417.48
680.181	62258.17
680.529	62339.52
680.877	62351.27
681.225	62339.52
681.573	62466.07
681.922	62358.5
682.27	62303.14
682.618	62387.2
682.966	62381.78
683.314	62400.99
683.661	62403.47
684.009	62358.95
684.357	62361.89
684.705	62290.25
685.053	62368.9
685.4	62394.88
685.748	62314.21
686.095	62417.48
686.443	62343.59
686.79	62380.87
687.138	62449.8
687.485	62403.25
687.832	62373.64
688.18	62440.31
688.527	62362.57
688.874	62382.23
689.221	62407.99
689.568	62304.94
689.915	62283.02
690.262	62292.06
690.609	62310.14
690.956	62259.52
691.303	62213.65
691.65	62147.43
691.997	62154.67
692.344	62012.75
692.69	62060.43
693.037	62092.97
693.383	61982.24
693.73	62067.44
694.077	61951.73
694.423	61901.11
694.769	61952.64
695.116	61965.07
695.462	62001.22
695.808	61901.34
696.155	62055.46
696.501	61860.21
696.847	61910.15
697.193	61751.96
697.539	61926.42
697.885	61833.77
698.231	61793.54
698.577	61858.4
698.923	61876.25
699.269	61735.02
699.614	61641.01
699.96	61592.42
700.306	61624.96
700.651	61522.82
700.997	61500.22
701.342	61430.16
701.688	61485.3
702.033	61417.06
702.379	61474.23
702.724	61503.38
703.069	61506.55
703.415	61355.59
703.76	61446.21
704.105	61410.5
704.45	61398.53
704.795	61288.25
705.14	61238.53
705.485	61280.34
705.83	61108.14
706.175	61246.21
706.52	61235.14
706.865	61160.79
707.209	61121.25
707.554	61122.15
707.899	61228.14
708.243	61085.31
708.588	61163.73
708.932	61014.13
709.277	60998.31
709.621	61098.65
709.966	60946.11
710.31	61086.9
710.654	60856.39
710.998	60907.24
711.342	60940.69
711.687	60942.95
712.031	60894.36
712.375	60863.4
712.719	60910.86
713.063	60879.22
713.407	60997.63
713.75	60822.5
714.094	60887.58
714.438	60713.35
714.782	60862.95
715.125	60782.27
715.469	60900.23
715.812	60728.26
716.156	60670.18
716.499	60604.88
716.843	60741.82
717.186	60661.6
717.53	60777.98
717.873	60817.07
718.216	60736.62
718.559	60665.66
718.902	60447.14
719.246	60638.32
719.589	60576.85
719.932	60561.26
720.275	60585.67
720.617	60632.9
720.96	60639.45
721.303	60601.71
721.646	60583.63
721.989	60502.96
722.331	60609.4
722.674	60503.41
723.016	60591.32
723.359	60504.77
723.701	60620.02
724.044	60461.15
724.386	60372.34
724.729	60478.55
725.071	60455.05
725.413	60469.74
725.755	60438.33
726.097	60434.03
726.439	60295.73
726.782	60394.26
727.124	60528.95
727.465	60393.81
727.807	60391.1
728.149	60365.56
728.491	60338.89
728.833	60458.44
729.175	60413.92
729.516	60399.01
729.858	60382.73
730.199	60469.29
730.541	60446.69
730.882	60389.74
731.224	60452.34
731.565	60244.43
731.906	60310.87
732.248	60361.49
732.589	60342.28
732.93	60238.33
733.271	60316.3
733.612	60369.4
733.953	60419.34
734.294	60326.92
734.635	60253.47
734.976	60358.33
735.317	60262.06
735.658	60330.98
735.999	60297.54
736.339	60266.58
736.68	60331.21
737.021	60288.73
737.361	60209.86
737.702	60326.01
738.042	60248.27
738.383	60212.12
738.723	60255.51
739.063	60193.59
739.404	60328.72
739.744	60215.96
740.084	60227.48
740.424	60350.42
740.764	60288.73
741.104	60386.8
741.444	60229.74
741.784	60213.47
742.124	60267.71
742.464	60234.94
742.804	60215.28
743.143	60173.25
743.483	60216.64
743.823	60126.47
744.162	60080.14
744.502	60143.87
744.841	60125.79
745.181	60211.67
745.52	60151.1
745.86	60302.28
746.199	60254.38
746.538	60187.49
746.877	60184.77
747.216	60304.77
747.556	60236.75
747.895	60216.41
748.234	60104.32
748.573	60125.79
748.911	60238.11
749.25	60161.95
749.589	60034.04
749.928	60105.45
750.267	60148.16
750.605	60093.93
750.944	60043.99
751.283	60000.6
751.621	60039.69
751.96	59857.55
752.298	59891.67
752.636	59868.85
752.975	59836.31
753.313	59791.34
753.651	59891.67
753.989	59761.06
754.327	59731.45
754.666	59653.04
755.004	59838.12
755.342	59852.13
755.679	59786.82
756.017	59589.76
756.355	59761.28
756.693	59617.33
757.031	59706.14
757.368	59593.83
757.706	59517.45
758.044	59450.1
758.381	59423.66
758.719	59451.91
759.056	59481.97
759.394	59401.29
759.731	59354.06
760.068	59377.56
760.405	59335.53
760.743	59211.69
761.08	59343.89
761.417	59030.68
761.754	59026.61
762.091	59017.8
762.428	58951.13
762.765	58925.15
763.102	59053.5
763.438	58914.07
763.775	58878.14
764.112	58925.15
764.449	59022.09
764.785	58867.97
765.122	58672.5
765.458	58631.59
765.795	58593.18
766.131	58594.31
766.467	58570.58
766.804	58484.25
767.14	58402.45
767.476	58438.38
767.812	58357.25
768.148	58366.52
768.485	58317.93
768.821	58093.3
769.157	58159.29
769.492	58158.39
769.828	58189.8
770.164	57920.2
770.5	57895.57
770.836	57928.56
771.171	57849.02
771.507	57807.89
771.842	57667.78
772.178	57641.34
772.513	57663.71
772.849	57643.82
773.184	57482.02
773.519	57537.61
773.855	57421.46
774.19	57302.14
774.525	57304.62
774.86	57246.77
775.195	57127.23
775.53	57152.76
775.865	57034.8
776.2	56955.93
776.535	56772.21
776.87	56757.07
777.205	56703.06
777.539	56558.65
777.874	56633.91
778.209	56438.88
778.543	56444.08
778.878	56257.19
779.212	56334.03
779.547	56262.39
779.881	56368.38
780.215	56174.03
780.55	56217.19
780.884	56094.49
781.218	56010.87
781.552	56141.04
781.886	55913.47
782.22	55803.65
782.554	55735.17
782.888	55468.06
783.222	55479.36
783.556	55406.14
783.889	55366.37
784.223	55221.06
784.557	55200.72
784.89	55235.98
785.224	54963.44
785.557	54873.5
785.891	54950.79
786.224	54865.37
786.558	54806.84
786.891	54613.85
787.224	54576.33
787.557	54530.23
787.891	54512.15
788.224	54462.44
788.557	54509.44
788.89	54417.92
789.223	54494.75
789.556	54309
789.888	54308.32
790.221	54260.64
790.554	53937.03
790.887	53937.71
791.219	53934.09
791.552	53778.84
791.884	53756.24
792.217	53717.82
792.549	53510.15
792.882	53383.6
793.214	53277.84
793.546	53420.21
793.879	53172.3
794.211	53047.11
794.543	53274.45
794.875	53160.78
795.207	53339.76
795.539	53152.19
795.871	53181.12
796.203	52868.13
796.535	52710.39
796.867	52748.81
797.198	52591.98
797.53	52705.2
797.862	52465.2
798.193	52497.74
798.525	52322.61
798.856	52520.79
799.188	52076.74
799.519	52099.34
799.85	51882.39
800.182	51930.3
800.513	52055.04
800.844	51655.28
801.175	52022.95
801.506	51845.78
801.837	51684.43
802.168	51683.08
802.499	51661.83
802.83	51339.13
803.161	51303.65
803.491	51470.65
803.822	51506.36
804.153	51281.28
804.483	50999.93
804.814	50947.28
805.145	50940.95
805.475	50935.07
805.805	50840.16
806.136	50910.89
806.466	50988.41
806.796	50917.67
807.126	50516.55
807.457	50516.78
807.787	50674.52
808.117	50330.8
808.447	50257.8
808.777	50472.03
809.107	50214.64
809.436	50257.8
809.766	50303.9
810.096	50006.06
810.426	50079.95
810.755	50104.59
811.085	49951.37
811.414	49855.78
811.744	49648.78
812.073	49665.28
812.403	49740.75
812.732	49482
813.061	49506.64
813.39	49548.89
813.719	49577.59
814.049	49794.76
814.378	49577.82
814.707	49369.92
815.036	49448.78
815.365	49149.58
815.693	48817.39
816.022	49021.23
816.351	49107.1
816.68	48889.25
817.008	48895.58
817.337	48764.73
817.665	48717.73
817.994	48672.76
818.322	48683.15
818.651	48613.55
818.979	48378.3
819.307	48560.67
819.636	48531.97
819.964	48349.15
820.292	48535.81
820.62	48512.09
820.948	48327.23
821.276	48543.27
821.604	48368.59
821.932	48455.59
822.259	48522.93
822.587	48558.19
822.915	48423.95
823.243	48622.14
823.57	48552.99
823.898	48583.27
824.225	48519.54
824.553	48656.71
824.88	48762.02
825.207	48794.79
825.535	48704.17
825.862	48834.34
826.189	48702.82
826.516	48859.42
826.843	48948.23
827.17	49004.73
827.497	49165.4
827.824	49024.39
828.151	49174.22
828.478	49119.98
828.805	49157.04
829.131	48882.02
829.458	48982.81
829.785	48848.35
830.111	48982.81
830.438	49264.16
830.764	49207.21
831.09	49308
831.417	49015.8
831.743	49254.67
832.069	49193.2
832.395	49034.33
832.722	49418.05
833.048	49329.92
833.374	49421.89
833.7	49184.61
834.026	49320.88
834.351	49434.32
834.677	49268
835.003	49185.97
835.329	49218.73
835.654	49111.39
835.98	49023.71
836.306	49184.16
836.631	49112.75
836.956	49173.09
837.282	49214.21
837.607	49211.73
837.932	48959.31
838.258	48992.07
838.583	48826.65
838.908	48705.3
839.233	48977.38
839.558	48769.03
839.883	48774.68
840.208	48759.76
840.533	48856.94
840.858	48742.59
841.182	48811.06
841.507	48647.22
841.832	48369.72
842.156	48437.51
842.481	48425.99
842.805	48341.7
843.13	48246.56
843.454	48268.93
843.778	48182.38
844.103	48054.7
844.427	48132.43
844.751	47942.38
845.075	47748.94
845.399	47791.65
845.723	47735.38
846.047	47819.45
846.371	47631.66
846.695	47620.36
847.019	47465.79
847.343	47310.31
847.666	47087.49
847.99	46851.79
848.313	46779.25
848.637	46489.77
848.96	46339.26
849.284	46440.28
849.607	46206.61
849.931	46030.12
850.254	45810.24
850.577	45753.29
850.9	45567.08
851.223	45472.17
851.546	45247.31
851.869	45096.81
852.192	45345.16
852.515	44982.46
852.838	44807.55
853.161	44913.31
853.483	44825.18
853.806	44711.06
854.129	44666.31
854.451	44462.25
854.774	44395.81
855.096	44344.51
855.419	44283.72
855.741	44233.33
856.063	43913.11
856.385	43900
856.708	43816.62
857.03	43784.75
857.352	43711.99
857.674	43551.54
857.996	43385.44
858.318	43270.42
858.64	43491.2
858.961	43247.59
859.283	43129.4
859.605	42915.62
859.926	43181.83
860.248	42996.75
860.57	42837.43
860.891	42830.88
861.212	42672.69
861.534	42646.25
861.855	42511.34
862.176	42675.63
862.498	42618.68
862.819	42615.29
863.14	42481.51
863.461	42483.09
863.782	42426.6
864.103	42632.24
864.424	42339.37
864.745	42475.63
865.065	42316.54
865.386	42248.97
865.707	42106.38
866.027	42225.02
866.348	42000.84
866.668	42110.45
866.989	42034.06
867.309	41932.37
867.63	42038.81
867.95	42047.17
868.27	41766.27
868.59	41965.14
868.91	42017.57
869.23	41758.37
869.55	41618.93
869.87	41892.37
870.19	41700.51
870.51	41699.84
870.83	41628.65
871.15	41322.22
871.469	41586.39
871.789	41819.83
872.109	41711.36
872.428	41505.04
872.748	41615.77
873.067	41583.91
873.386	41543.46
873.706	41324.7
874.025	41214.65
874.344	40993.19
874.663	41291.03
874.982	41247.87
875.301	41273.41
875.62	41318.38
875.939	41087.65
876.258	41050.14
876.577	41124.48
876.896	40940.99
877.214	40866.86
877.533	41025.05
877.852	40874.32
878.17	40864.6
878.489	40893.98
878.807	40887.2
879.125	40807.66
879.444	40648.11
879.762	40463.03
880.08	40433.43
880.398	40454.67
880.716	40607.44
881.034	40476.37
881.352	40508.23
881.67	40375.8
881.988	40437.27
882.306	40490.83
882.624	40269.59
882.941	40048.58
883.259	39980.56
883.577	40045.64
883.894	40025.08
884.212	39926.1
884.529	39995.93
884.846	39768.36
885.164	39788.02
885.481	39620.34
885.798	39607.46
886.115	39298.54
886.432	39303.51
886.75	39217.42
887.067	39191.43
887.383	39034.14
887.7	39189.39
888.017	38999.79
888.334	39166.34
888.651	39021.26
888.967	38921.38
889.284	38763.19
889.6	38771.55
889.917	38461.05
890.233	38448.4
890.55	38361.84
890.866	38497.66
891.182	38142.64
891.498	38049.31
891.815	37993.27
892.131	37981.29
892.447	37838.69
892.763	37652.48
893.079	37540.4
893.395	37584.69
893.71	37412.49
894.026	37360.97
894.342	37302.66
894.657	37175.66
894.973	37087.98
895.289	37155.55
895.604	37050.47
895.92	36834.65
896.235	36874.65
896.55	36770.02
896.865	36684.15
897.181	36645.28
897.496	36652.96
897.811	36418.62
898.126	36474.44
898.441	36353.31
898.756	36217.95
899.071	36027.67
899.386	36028.12
899.7	35718.07
900.015	35633.33
900.33	35538.19
900.644	35454.12
900.959	35386.78
901.273	35245.32
901.588	35205.54
901.902	35109.27
902.216	35183.17
902.531	34861.6
902.845	34822.95
903.159	34675.16
903.473	34593.36
903.787	34395.17
904.101	34316.3
904.415	34281.27
904.729	34053.26
905.042	33991.11
905.356	33836.09
905.67	33812.13
905.984	33790.21
906.297	33720.61
906.611	33493.95
906.924	33428.19
907.237	33300.96
907.551	33366.04
907.864	33113.62
908.177	33101.64
908.491	32890.58
908.804	32727.87
909.117	32743.91
909.43	32409.68
909.743	32451.49
910.056	32352.28
910.368	32272.96
910.681	32105.74
910.994	32020.54
911.307	31884.27
911.619	31771.74
911.932	31802.92
912.244	31668.01
912.557	31633.89
912.869	31242.03
913.181	31242.03
913.494	31169.94
913.806	31049.72
914.118	30909.84
914.43	30558.89
914.742	30697.19
915.054	30561.15
915.366	30342.85
915.678	30230.08
915.99	30237.76
916.302	30129.52
916.613	30017.21
916.925	29866.7
917.236	29978.34
917.548	29766.14
917.859	29884.1
918.171	29580.38
918.482	29472.81
918.794	29391.68
919.105	29479.82
919.416	29217.9
919.727	29020.85
920.038	28958.25
920.349	28769.78
920.66	28714.19
920.971	28679.61
921.282	28521.88
921.593	28395.78
921.903	28213.86
922.214	28125.96
922.525	28077.37
922.835	28062.45
923.146	27951.04
923.456	27756.7
923.767	27526.2
924.077	27648
924.387	27586.99
924.697	27464.05
925.008	27313.55
925.318	27327.78
925.628	27180.67
925.938	27107
926.248	26706.33
926.558	26641.93
926.867	26565.32
927.177	26573.23
927.487	26305.21
927.796	26013.24
928.106	26060.25
928.416	26029.97
928.725	26128.49
929.034	25855.28
929.344	25943.19
929.653	25870.65
929.962	25641.95
930.271	25437.89
930.581	25368.74
930.89	25312.24
931.199	25216.43
931.508	25077.67
931.817	25077.45
932.125	24960.61
932.434	24888.07
932.743	24562.21
933.051	24543.68
933.36	24477.24
933.669	24261.88
933.977	24329.22
934.286	24258.03
934.594	24173.74
934.902	24034.31
935.21	23958.38
935.519	23927.65
935.827	23943.24
936.135	23802.45
936.443	23704.6
936.751	23582.35
937.059	23508.68
937.367	23376.93
937.674	23424.38
937.982	23413.31
938.29	23136.26
938.597	23220.1
938.905	22878.64
939.213	22873.44
939.52	22676.61
939.827	22734.23
940.135	22457.4
940.442	22395.26
940.749	22308.93
941.056	22536.05
941.363	22180.35
941.67	22110.97
941.977	22173.12
942.284	21987.59
942.591	21917.53
942.898	21722.96
943.205	21603.42
943.511	21545.56
943.818	21520.93
944.125	21384.44
944.431	21272.12
944.738	21202.3
945.044	21100.83
945.35	21101.96
945.657	21009.76
945.963	20883.89
946.269	20766.83
946.575	20707.17
946.881	20630.33
947.187	20516.89
947.493	20304.69
947.799	20411.36
948.105	20284.13
948.41	20090.01
948.716	20118.48
949.022	19991.25
949.327	20040.29
949.633	19808.89
949.938	19735.67
950.244	19854.53
950.549	19487.99
950.854	19460.19
951.16	19416.13
951.465	19375
951.77	19389.69
952.075	19269.47
952.38	19198.28
952.685	19168.45
952.99	18979.76
953.294	18980.66
953.599	18856.14
953.904	18785.64
954.209	18761
954.513	18681.46
954.818	18543.83
955.122	18472.42
955.426	18377.06
955.731	18388.81
956.035	18163.73
956.339	18221.13
956.643	18153.11
956.948	17984.3
957.252	17943.62
957.556	17759.45
957.86	17675.16
958.163	17673.35
958.467	17567.14
958.771	17582.28
959.075	17349.29
959.378	17307.48
959.682	17301.83
959.985	17145.68
960.289	17108.39
960.592	16942.75
960.896	16938.45
961.199	16999.69
961.502	16947.04
961.805	16753.37
962.108	16729.42
962.411	16788.4
962.714	16589.54
963.017	16525.81
963.32	16510.22
963.623	16477
963.926	16435.42
964.228	16187.29
964.531	16232.48
964.833	16289.43
965.136	16034.3
965.438	16090.79
965.741	16045.82
966.043	15993.17
966.345	15921.3
966.648	15827.75
966.95	15726.06
967.252	15612.16
967.554	15489.68
967.856	15459.85
968.158	15381.21
968.46	15418.72
968.761	15357.03
969.063	15281.55
969.365	15220.76
969.666	15051.72
969.968	14965.4
970.269	14872.52
970.571	14867.09
970.872	14898.05
971.174	14754.56
971.475	14607.21
971.776	14594.33
972.077	14538.74
972.378	14479.31
972.679	14488.8
972.98	14403.83
973.281	14219.65
973.582	14131.75
973.883	14113.22
974.183	13993.9
974.484	13969.04
974.785	13888.59
975.085	13988.02
975.386	13908.25
975.686	13765.43
975.986	13832.55
976.287	13710.29
976.587	13523.18
976.887	13577.41
977.187	13534.02
977.487	13436.17
977.787	13284.31
978.087	13307.36
978.387	13249.96
978.687	13288.61
978.987	13085.9
979.286	13044.09
979.586	12985.34
979.885	12954.15
980.185	12896.98
980.484	12829.18
980.784	12801.39
981.083	12699.02
981.382	12678.23
981.682	12585.57
981.981	12478.23
982.28	12505.35
982.579	12464.9
982.878	12497.89
983.177	12398.46
983.475	12358.46
983.774	12238.92
984.073	12177.67
984.372	12123.44
984.67	12122.53
984.969	11989.88
985.267	12013.61
985.566	11932.93
985.864	11868.98
986.162	11895.87
986.461	11782.2
986.759	11718.03
987.057	11534.08
987.355	11600.29
987.653	11596.22
987.951	11504.92
988.249	11479.84
988.547	11381.76
988.844	11297.7
989.142	11318.71
989.44	11181.09
989.737	11175.21
990.035	11067.65
990.332	11030.81
990.63	11016.12
990.927	10951.27
991.224	10892.74
991.521	10867.43
991.819	10848.67
992.116	10734.55
992.413	10796.92
992.71	10647.77
993.006	10507.21
993.303	10490.26
993.6	10461.56
993.897	10382.02
994.193	10440.32
994.49	10329.14
994.787	10239.19
995.083	10214.79
995.379	10204.84
995.676	10143.38
995.972	10116.94
996.268	10003.04
996.565	9946.77
996.861	9913.78
997.157	9908.13
997.453	9869.49
997.749	9776.83
998.044	9744.97
998.34	9611.64
998.636	9579.55
998.932	9590.85
999.227	9469.95
999.523	9402.38
999.818	9364.64
1000.114	9301.59
1000.409	9249.62
1000.704	9240.35
1001	9185.44
1001.295	9182.27
1001.59	9147.92
1001.885	9044.42
1002.18	9054.82
1002.475	8954.71
1002.77	8930.75
1003.065	8848.72
1003.359	8826.35
1003.654	8704.09
1003.949	8661.16
1004.243	8667.03
1004.538	8547.26
1004.832	8543.87
1005.127	8498.22
1005.421	8468.17
1005.715	8368.06
1006.009	8361.5
1006.304	8327.83
1006.598	8237.89
1006.892	8163.09
1007.186	8147.72
1007.48	8077.22
1007.773	8004.9
1008.067	7986.6
1008.361	7897.79
1008.655	7918.13
1008.948	7811.24
1009.242	7783.67
1009.535	7723.33
1009.829	7614.4
1010.122	7571.69
1010.415	7510.9
1010.708	7461.41
1011.001	7431.36
1011.295	7394.52
1011.588	7375.09
1011.881	7270.46
1012.173	7230.23
1012.466	7211.03
1012.759	7138.26
1013.052	7110.46
1013.344	7091.93
1013.637	7060.97
1013.93	6983.23
1014.222	6963.12
1014.514	6943.46
1014.807	6876.34
1015.099	6760.19
1015.391	6730.36
1015.683	6746.86
1015.976	6710.47
1016.268	6662.34
1016.56	6508.44
1016.851	6552.29
1017.143	6456.69
1017.435	6482.46
1017.727	6399.3
1018.018	6416.24
1018.31	6300.99
1018.602	6300.31
1018.893	6220.09
1019.185	6180.09
1019.476	6149.58
1019.767	6101.45
1020.058	6043.37
1020.35	5983.49
1020.641	5937.61
1020.932	5891.96
1021.223	5858.74
1021.514	5824.17
1021.804	5757.5
1022.095	5759.76
1022.386	5694.45
1022.677	5648.58
1022.967	5586.66
1023.258	5535.81
1023.548	5519.09
1023.839	5506.21
1024.129	5416.27
1024.419	5418.53
1024.709	5320.91
1025	5304.41
1025.29	5266.44
1025.58	5246.78
1025.87	5188.93
1026.16	5112.1
1026.449	5123.4
1026.739	5072.32
1027.029	5107.58
1027.319	4982.61
1027.608	4955.04
1027.898	4941.93
1028.187	4905.55
1028.477	4863.74
1028.766	4809.51
1029.055	4762.5
1029.344	4714.14
1029.634	4680.7
1029.923	4679.57
1030.212	4608.38
1030.501	4640.7
1030.79	4551.21
1031.078	4502.17
1031.367	4457.2
1031.656	4438.22
1031.945	4423.08
1032.233	4402.96
1032.522	4337.43
1032.81	4273.02
1033.099	4268.05
1033.387	4231.44
1033.675	4180.14
1033.963	4177.88
1034.251	4148.05
1034.54	4087.49
1034.828	4039.81
1035.116	4056.98
1035.403	3994.39
1035.691	3963.43
1035.979	3940.83
1036.267	3898.12
1036.554	3875.75
1036.842	3841.17
1037.129	3785.8
1037.417	3746.03
1037.704	3770.89
1037.992	3699.03
1038.279	3671.01
1038.566	3693.6
1038.853	3693.6
1039.14	3693.6
