Data from copper_heatsink_FLMS001491_091.txt Node
Date: Tue Feb 07 10:50:52 GMT 2017
User: dcchb
Spectrometer: FLMS00149
Trigger mode: 0
Integration Time (sec): 2.000000E-2
Scans to average: 10
Electric dark correction enabled: true
Nonlinearity correction enabled: false
Boxcar width: 0
XAxis mode: Wavelengths
Number of Pixels in Spectrum: 2048
>>>>>Begin Spectral Data<<<<<
341.393	0.95
341.776	0.95
342.16	0.95
342.543	-54.42
342.927	-65.94
343.31	-78.6
343.693	-60.52
344.077	-86.74
344.46	-67.07
344.843	-59.17
345.226	-23.01
345.61	-29.11
345.993	-19.39
346.376	-36.34
346.759	12.47
347.142	58.12
347.525	46.14
347.908	88.85
348.291	56.76
348.674	101.06
349.057	96.54
349.44	139.25
349.823	151.9
350.206	164.78
350.588	197.1
350.971	210.43
351.354	225.8
351.737	240.04
352.119	252.01
352.502	251.79
352.884	264.22
353.267	285.23
353.65	295.18
354.032	298.79
354.414	317.32
354.797	305.35
355.179	304.67
355.562	323.42
355.944	319.81
356.326	334.5
356.709	322.29
357.091	346.02
357.473	327.72
357.855	349.64
358.238	355.51
358.62	342.18
359.002	362.52
359.384	335.17
359.766	327.27
360.148	332.69
360.53	322.75
360.912	333.82
361.294	333.82
361.676	367.26
362.057	315.51
362.439	331.11
362.821	308.28
363.203	328.85
363.584	307.38
363.966	322.97
364.348	320.03
364.729	332.24
365.111	322.07
365.493	329.07
365.874	319.58
366.256	323.88
366.637	326.36
367.019	316.87
367.4	322.52
367.781	339.47
368.163	305.57
368.544	317.32
368.925	324.33
369.306	318.9
369.688	311.67
370.069	332.91
370.45	333.37
370.831	319.13
371.212	307.15
371.593	308.96
371.974	311.22
372.355	340.6
372.736	345.57
373.117	323.65
373.498	323.65
373.879	328.62
374.26	315.97
374.641	318.68
375.021	320.94
375.402	306.02
375.783	332.69
376.163	345.34
376.544	329.53
376.925	330.2
377.305	345.57
377.686	319.36
378.066	337.43
378.447	343.54
378.827	343.54
379.208	352.8
379.588	348.96
379.968	353.03
380.349	349.19
380.729	333.59
381.109	343.54
381.489	347.83
381.87	340.6
382.25	371.33
382.63	341.73
383.01	350.32
383.39	358
383.77	333.59
384.15	338.11
384.53	354.38
384.91	348.51
385.29	366.36
385.67	359.58
386.049	353.25
386.429	360.26
386.809	370.43
387.189	348.73
387.568	379.24
387.948	369.75
388.328	354.84
388.707	360.26
389.087	359.35
389.466	394.16
389.846	406.36
390.225	383.54
390.605	367.26
390.984	379.92
391.363	376.76
391.743	369.07
392.122	377.89
392.501	400.48
392.881	398.68
393.26	394.16
393.639	412.46
394.018	375.4
394.397	399.81
394.776	383.99
395.155	419.92
395.534	414.04
395.913	405.91
396.292	407.94
396.671	393.93
397.05	438.9
397.429	410.88
397.808	403.2
398.186	410.43
398.565	402.97
398.944	398.9
399.323	423.76
399.701	422.18
400.08	403.65
400.458	409.75
400.837	427.83
401.215	435.06
401.594	421.27
401.972	415.62
402.351	414.72
402.729	418.34
403.107	434.38
403.486	434.16
403.864	433.25
404.242	422.86
404.62	435.06
404.999	435.06
405.377	455.62
405.755	442.74
406.133	453.59
406.511	452.01
406.889	421.05
407.267	450.43
407.645	484.78
408.023	443.19
408.401	464.89
408.779	460.6
409.156	458.56
409.534	490.65
409.912	484.32
410.29	466.02
410.667	495.85
411.045	464.89
411.422	478
411.8	488.62
412.178	478.67
412.555	510.99
412.933	489.07
413.31	502.63
413.687	505.11
414.065	520.71
414.442	531.1
414.819	494.04
415.197	498.11
415.574	517.54
415.951	494.72
416.328	529.75
416.705	530.2
417.082	562.06
417.46	544.21
417.837	539.24
418.214	548.05
418.591	530.88
418.967	535.85
419.344	555.06
419.721	546.69
420.098	547.37
420.475	574.26
420.852	551.89
421.228	550.54
421.605	548.73
421.982	554.6
422.358	574.94
422.735	547.37
423.111	555.73
423.488	549.63
423.864	581.27
424.241	591.89
424.617	587.15
424.994	605.22
425.37	580.82
425.746	603.87
426.123	593.47
426.499	598.9
426.875	606.35
427.251	605.9
427.627	601.83
428.003	632.79
428.379	647.93
428.756	645.22
429.132	647.48
429.507	654.04
429.883	655.17
430.259	654.49
430.635	642.29
431.011	663.53
431.387	670.53
431.763	661.72
432.138	673.02
432.514	677.09
432.89	684.32
433.265	695.62
433.641	711.66
434.016	708.27
434.392	705.56
434.767	710.98
435.143	730.19
435.518	712.11
435.894	737.88
436.269	741.94
436.644	761.15
437.02	734.03
437.395	735.62
437.77	770.42
438.145	756.63
438.52	780.36
438.895	771.1
439.271	772.68
439.646	784.43
440.021	790.53
440.395	796.41
440.77	782.17
441.145	787.82
441.52	814.94
441.895	791.66
442.27	806.8
442.645	804.99
443.019	809.74
443.394	808.38
443.769	813.81
444.143	817.42
444.518	797.76
444.892	832.34
445.267	830.53
445.641	858.78
446.016	865.78
446.39	856.52
446.764	872.34
447.139	844.54
447.513	854.94
447.887	855.61
448.262	880.02
448.636	853.58
449.01	895.39
449.384	865.56
449.758	897.65
450.132	898.55
450.506	917.53
450.88	915.72
451.254	912.11
451.628	896.52
452.002	924.99
452.376	934.26
452.75	940.81
453.123	910.3
453.497	947.36
453.871	961.82
454.244	928.83
454.618	971.54
454.992	976.74
455.365	979
455.739	994.59
456.112	1026
456.486	1025.78
456.859	1030.52
457.232	1047.25
457.606	1072.56
457.979	1063.74
458.352	1073.46
458.725	1078.43
459.099	1099.22
459.472	1119.56
459.845	1120.24
460.218	1110.75
460.591	1122.72
460.964	1153.01
461.337	1164.98
461.71	1175.15
462.083	1162.72
462.456	1198.65
462.829	1165.44
463.201	1226.68
463.574	1218.54
463.947	1236.17
464.32	1247.47
464.692	1269.39
465.065	1266.68
465.438	1289.95
465.81	1298.31
466.183	1292.44
466.555	1326.56
466.928	1350.06
467.3	1357.52
467.672	1356.39
468.045	1388.71
468.417	1417.63
468.789	1411.08
469.161	1414.92
469.534	1432.32
469.906	1462.6
470.278	1458.76
470.65	1500.79
471.022	1519.32
471.394	1541.92
471.766	1520.45
472.138	1555.48
472.51	1554.35
472.882	1608.81
473.253	1640
473.625	1645.2
473.997	1665.08
474.369	1703.5
474.74	1701.69
475.112	1717.74
475.484	1789.37
475.855	1770.39
476.227	1814.01
476.598	1840.9
476.97	1847.23
477.341	1891.97
477.713	1930.16
478.084	1929.94
478.455	1947.56
478.827	1976.71
479.198	2046.32
479.569	2048.35
479.94	2104.62
480.311	2102.13
480.682	2155.24
481.053	2226.65
481.424	2188.46
481.795	2213.77
482.166	2300.77
482.537	2330.6
482.908	2333.54
483.279	2363.14
483.65	2411.73
484.021	2464.61
484.391	2494.44
484.762	2553.2
485.133	2507.55
485.503	2568.34
485.874	2655.11
486.244	2669.35
486.615	2702.34
486.985	2754.77
487.356	2774.88
487.726	2759.74
488.097	2862.79
488.467	2886.07
488.837	2919.51
489.207	2922.9
489.578	2976.24
489.948	3030.25
490.318	3068.44
490.688	3066.85
491.058	3092.84
491.428	3147.53
491.798	3172.16
492.168	3229.34
492.538	3246.74
492.908	3310.69
493.278	3328.32
493.648	3353.85
494.017	3411.7
494.387	3401.99
494.757	3443.34
495.126	3464.13
495.496	3514.3
495.866	3503.23
496.235	3561.08
496.605	3604.47
496.974	3623.22
497.344	3666.39
497.713	3669.78
498.082	3719.27
498.452	3732.37
498.821	3769.66
499.19	3766.95
499.559	3803.78
499.928	3849.88
500.298	3889.21
500.667	3932.82
501.036	3897.57
501.405	3981.86
501.774	3997.68
502.143	4012.82
502.512	4032.03
502.88	4042.42
503.249	4083.1
503.618	4116.77
503.987	4156.09
504.356	4188.18
504.724	4207.16
505.093	4257.33
505.462	4270.21
505.83	4258.69
506.199	4268.18
506.567	4393.15
506.936	4389.53
507.304	4405.12
507.672	4461.85
508.041	4494.16
508.409	4481.51
508.777	4540.26
509.145	4574.61
509.514	4600.6
509.882	4631.56
510.25	4639.92
510.618	4709.52
510.986	4734.38
511.354	4760.37
511.722	4816.41
512.09	4871.55
512.458	4859.8
512.826	4917.43
513.193	4985.67
513.561	4972.34
513.929	5007.82
514.297	5043.07
514.664	5133.01
515.032	5165.78
515.4	5189.51
515.767	5212.11
516.135	5241.26
516.502	5202.17
516.869	5293.69
517.237	5320.13
517.604	5335.72
517.972	5406.45
518.339	5468.15
518.706	5506.34
519.073	5481.25
519.44	5544.08
519.808	5632.66
520.175	5679.67
520.542	5694.81
520.909	5758.76
521.276	5775.03
521.643	5836.27
522.009	5896.84
522.376	5948.81
522.743	5967.57
523.11	5999.66
523.477	6068.13
523.843	6126.89
524.21	6257.05
524.577	6253.89
524.943	6277.17
525.31	6299.31
525.676	6394.22
526.043	6448.91
526.409	6473.32
526.776	6507.67
527.142	6620.66
527.508	6589.7
527.874	6678.06
528.241	6728
528.607	6726.42
528.973	6800.32
529.339	6873.08
529.705	6936.81
530.071	6959.18
530.437	7036.02
530.803	7123.24
531.169	7120.99
531.535	7170.93
531.901	7175.22
532.267	7229.46
532.632	7320.53
532.998	7322.56
533.364	7315.78
533.73	7384.93
534.095	7479.17
534.461	7547.41
534.826	7509.9
535.192	7613.85
535.557	7720.29
535.923	7723.68
536.288	7748.77
536.653	7788.09
537.019	7767.3
537.384	7859.72
537.749	7957.12
538.114	7904.24
538.479	8005.03
538.845	8033.05
539.21	8073.05
539.575	8129.77
539.94	8180.17
540.305	8238.92
540.67	8206.83
541.034	8251.12
541.399	8324.8
541.764	8391.46
542.129	8494.06
542.494	8517.11
542.858	8492.7
543.223	8560.27
543.587	8637.33
543.952	8649.76
544.316	8680.27
544.681	8670.1
545.045	8791
545.41	8805.46
545.774	8865.35
546.138	8918.23
546.503	9074.38
546.867	9034.83
547.231	9114.15
547.595	9136.98
547.959	9265.11
548.324	9317.31
548.688	9348.27
549.052	9363.41
549.416	9375.16
549.779	9509.17
550.143	9515.95
550.507	9632.11
550.871	9676.62
551.235	9795.72
551.599	9801.37
551.962	9887.01
552.326	9957.07
552.689	10027.58
553.053	9985.54
553.417	10094.69
553.78	10219.89
554.143	10280.22
554.507	10397.51
554.87	10486.55
555.234	10571.29
555.597	10631.85
555.96	10661.23
556.323	10796.37
556.686	10851.51
557.05	10924.73
557.413	11029.81
557.776	11084.5
558.139	11142.57
558.502	11296.69
558.865	11402
559.228	11489.46
559.59	11580.98
559.953	11731.03
560.316	11826.17
560.679	11901.42
561.041	12021.42
561.404	12178.93
561.767	12252.15
562.129	12375.31
562.492	12599.03
562.854	12599.49
563.217	12594.51
563.579	12775.98
563.941	12955.86
564.304	12983.66
564.666	13185.68
565.028	13356.08
565.39	13443.98
565.753	13524.88
566.115	13698.21
566.477	13829.96
566.839	13821.37
567.201	14097.98
567.563	14148.37
567.925	14354.47
568.287	14396.05
568.648	14560.11
569.01	14615.03
569.372	14880.33
569.734	14881.01
570.095	15081.68
570.457	15168.68
570.819	15360.77
571.18	15415.23
571.542	15634.21
571.903	15733.64
572.265	15833.75
572.626	15963.24
572.987	16074.42
573.349	16144.02
573.71	16391.25
574.071	16367.52
574.432	16650.45
574.794	16773.84
575.155	16864.01
575.516	16912.82
575.877	17104.9
576.238	17231.91
576.599	17322.07
576.96	17425.35
577.32	17563.2
577.681	17660.14
578.042	17811.33
578.403	17760.93
578.763	17874.6
579.124	18030.3
579.485	18131.99
579.845	18215.16
580.206	18358.88
580.566	18393.23
580.927	18484.53
581.287	18703.05
581.648	18804.52
582.008	18843.16
582.368	18883.39
582.728	18999.09
583.089	19054.68
583.449	19186.2
583.809	19167.22
584.169	19347.33
584.529	19367.44
584.889	19552.52
585.249	19430.49
585.609	19639.3
585.969	19834.1
586.329	19848.33
586.688	19826.64
587.048	19858.73
587.408	19968.33
587.768	19978.05
588.127	20038.39
588.487	20104.82
588.846	20283.35
589.206	20235.22
589.565	20356.12
589.925	20428.66
590.284	20427.53
590.643	20544.36
591.003	20600.63
591.362	20869.55
591.721	20782.32
592.08	20846.27
592.44	20921.98
592.799	21032.48
593.158	20895.76
593.517	21053.73
593.876	21137.57
594.235	21147.73
594.593	21276.55
594.952	21358.8
595.311	21381.4
595.67	21463.43
596.029	21554.5
596.387	21607.16
596.746	21766.93
597.104	21628.17
597.463	21645.57
597.822	21873.59
598.18	21811.67
598.538	21881.27
598.897	22045.34
599.255	22010.31
599.613	22368.95
599.972	22193.13
600.33	22406.68
600.688	22236.97
601.046	22509.06
601.404	22612.56
601.762	22624.76
602.12	22740.46
602.478	22754.7
602.836	22748.14
603.194	22738.88
603.552	22897.29
603.91	22856.84
604.268	23090.28
604.625	23016.61
604.983	23185.42
605.341	23155.14
605.698	23285.76
606.056	23245.98
606.413	23299.54
606.771	23552.87
607.128	23571.63
607.485	23491.85
607.843	23652.75
608.2	23755.35
608.557	23897.27
608.914	23735.01
609.272	24021.33
609.629	24105.62
609.986	24188.33
610.343	24075.57
610.7	24360.53
611.057	24449.34
611.414	24325.96
611.771	24464.71
612.127	24620.64
612.484	24649.79
612.841	24809.33
613.198	24691.14
613.554	24664.48
613.911	24972.49
614.267	24856.56
614.624	24923.68
614.98	24995.77
615.337	25204.13
615.693	25245.48
616.05	25190.11
616.406	25351.24
616.762	25324.57
617.118	25443.22
617.475	25510.33
617.831	25591.23
618.187	25516.66
618.543	25775.64
618.899	25935.41
619.255	25914.84
619.611	25991
619.967	25974.05
620.323	26081.39
620.678	25997.78
621.034	26017.89
621.39	25999.58
621.746	26087.04
622.101	26475.73
622.457	26272.57
622.812	26388.28
623.168	26467.6
623.523	26539.01
623.879	26592.34
624.234	26364.77
624.589	26550.3
624.945	26596.86
625.3	26607.25
625.655	26619
626.01	26640.92
626.365	26748.27
626.72	26781.94
627.075	26802.5
627.43	26805.44
627.785	26718.21
628.14	26840.24
628.495	26939
628.85	26862.16
629.205	26818.32
629.559	27063.51
629.914	26857.19
630.269	27006.79
630.623	26980.8
630.978	27099.44
631.332	27072.55
631.687	27121.82
632.041	26973.12
632.396	27187.58
632.75	27078.65
633.104	27162.04
633.459	27061.48
633.813	27176.5
634.167	27178.99
634.521	27127.69
634.875	27262.38
635.229	27129.5
635.583	27058.77
635.937	27059.9
636.291	27108.26
636.645	27094.7
636.999	27108.71
637.352	27247.91
637.706	27194.81
638.06	27220.57
638.413	27239.1
638.767	27229.61
639.121	27317.97
639.474	27192.1
639.828	27192.77
640.181	27170.63
640.534	27293.56
640.888	27283.39
641.241	27181.7
641.594	27189.16
641.947	27251.08
642.301	27173.79
642.654	27239.55
643.007	27370.4
643.36	27226.67
643.713	27251.76
644.066	27409.04
644.419	27213.56
644.771	27101.25
645.124	26773.58
645.477	26756.18
645.83	26574.48
646.182	26492.23
646.535	26431.44
646.888	26608.83
647.24	26628.49
647.593	26664.43
647.945	26643.41
648.298	26613.81
648.65	26602.51
649.002	26454.26
649.355	26597.31
649.707	26670.3
650.059	26583.52
650.411	26856.96
650.763	26960.69
651.115	27291.08
651.467	27285.2
651.819	27266.9
652.171	27222.83
652.523	27268.03
652.875	27256.27
653.227	27178.08
653.578	27267.35
653.93	27281.36
654.282	27201.81
654.633	27133.34
654.985	27235.71
655.337	27221.7
655.688	27299.89
656.039	27441.81
656.391	27188.03
656.742	27339.66
657.094	27387.57
657.445	27529.71
657.796	27353.45
658.147	27291.75
658.498	27266.44
658.849	27368.59
659.2	27222.6
659.551	27276.39
659.902	27390.51
660.253	27336.27
660.604	27416.04
660.955	27373.33
661.306	27375.82
661.656	27397.06
662.007	27486.55
662.358	27457.17
662.708	27518.41
663.059	27514.8
663.409	27419.21
663.76	27539.21
664.11	27656.94
664.461	27618.75
664.811	27595.25
665.161	27724.96
665.511	27546.21
665.862	27737.62
666.212	27737.39
666.562	27832.3
666.912	27812.64
667.262	27746.66
667.612	27874.34
667.962	27788.92
668.312	27690.61
668.662	27897.61
669.011	27860.33
669.361	27856.03
669.711	27756.83
670.06	27799.99
670.41	27821.01
670.76	27720.22
671.109	27884.05
671.459	27824.4
671.808	27763.15
672.157	27898.74
672.507	27639.09
672.856	27675.92
673.205	27884.28
673.554	27910.27
673.904	27900.1
674.253	28035.46
674.602	27944.17
674.951	27541.24
675.3	27393.22
675.649	28010.38
675.998	28000.21
676.346	27868.91
676.695	27964.96
677.044	27878.18
677.393	27934
677.741	28032.98
678.09	27952.53
678.438	27965.86
678.787	28002.92
679.135	28088.57
679.484	27724.06
679.832	27951.62
680.181	27767.45
680.529	27943.71
680.877	27871.4
681.225	27870.95
681.573	27920.66
681.922	27918.63
682.27	27823.04
682.618	27653.55
682.966	27684.74
683.314	27820.1
683.661	27720.67
684.009	27612.2
684.357	27646.55
684.705	27529.26
685.053	27631.41
685.4	27694.91
685.748	27416.5
686.095	27402.03
686.443	27460.34
686.79	27434.8
687.138	27451.98
687.485	27445.42
687.832	27407.46
688.18	27489.94
688.527	27248.37
688.874	27354.8
689.221	27328.14
689.568	27124.98
689.915	27157.75
690.262	27171.76
690.609	27115.94
690.956	27008.37
691.303	27088.37
691.65	26835.27
691.997	26845.44
692.344	26807.25
692.69	26869.62
693.037	26827.36
693.383	26616.07
693.73	26726.8
694.077	26599.12
694.423	26578.1
694.769	26575.39
695.116	26581.49
695.462	26475.5
695.808	26398.44
696.155	26388.05
696.501	26228.73
696.847	26210.43
697.193	26104.67
697.539	26233.48
697.885	26152.12
698.231	26053.14
698.577	26055.18
698.923	26047.49
699.269	25913.94
699.614	25817.44
699.96	25871
700.306	25940.15
700.651	25778.8
700.997	25772.47
701.342	25822.64
701.688	25687.95
702.033	25729.99
702.379	25466.49
702.724	25573.61
703.069	25607.96
703.415	25290.45
703.76	25365.25
704.105	25387.4
704.45	25383.33
704.795	25096.78
705.14	25233.05
705.485	25219.27
705.83	25128.87
706.175	25164.8
706.52	25142.66
706.865	24981.08
707.209	24814.76
707.554	24847.52
707.899	24912.38
708.243	24819.5
708.588	24750.13
708.932	24696.34
709.277	24766.85
709.621	24746.96
709.966	24573.41
710.31	24687.3
710.654	24393.98
710.998	24598.04
711.342	24574.76
711.687	24508.32
712.031	24440.3
712.375	24299.52
712.719	24472.85
713.063	24251.16
713.407	24254.32
713.75	24328.89
714.094	24288.44
714.438	24241.66
714.782	24294.77
715.125	23995.34
715.469	24143.14
715.812	24072.86
716.156	23985.17
716.499	23971.39
716.843	23947.66
717.186	23827.21
717.53	23971.39
717.873	23923.48
718.216	23977.72
718.559	23813.43
718.902	23692.53
719.246	23823.6
719.589	23724.62
719.932	23595.81
720.275	23717.16
720.617	23703.15
720.96	23669.93
721.303	23744.73
721.646	23716.25
721.989	23522.59
722.331	23715.8
722.674	23592.42
723.016	23575.02
723.359	23626.54
723.701	23690.04
724.044	23442.14
724.386	23294.35
724.729	23527.33
725.071	23425.87
725.413	23424.29
725.755	23453.89
726.097	23292.76
726.439	23236.49
726.782	23275.81
727.124	23510.61
727.465	23344.97
727.807	23254.35
728.149	23102.03
728.491	23173.22
728.833	23309.71
729.175	23253.67
729.516	23129.38
729.858	23036.27
730.199	23112.65
730.541	23019.1
730.882	23083.96
731.224	23228.36
731.565	23063.39
731.906	23059.32
732.248	23125.31
732.589	23004.18
732.93	22933.45
733.271	23011.64
733.612	23161.24
733.953	23098.42
734.294	22995.6
734.635	22830.63
734.976	23043.05
735.317	22873.34
735.658	22839.67
735.999	22898.42
736.339	22720.12
736.68	22799.22
737.021	22689.16
737.361	22718.54
737.702	22835.15
738.042	22678.77
738.383	22716.96
738.723	22781.36
739.063	22590.63
739.404	22647.36
739.744	22592.89
740.084	22519.22
740.424	22738.65
740.764	22627.92
741.104	22697.98
741.444	22644.87
741.784	22654.59
742.124	22673.12
742.464	22619.79
742.804	22586.34
743.143	22498.89
743.483	22502.5
743.823	22345.22
744.162	22340.92
744.502	22421.6
744.841	22352.67
745.181	22435.38
745.52	22288.27
745.86	22312.45
746.199	22208.72
746.538	22255.73
746.877	22354.71
747.216	22331.21
747.556	22227.25
747.895	22267.93
748.234	22131.21
748.573	22092.34
748.911	22173.24
749.25	22144.09
749.589	21941.61
749.928	22111.78
750.267	22014.38
750.605	22055.73
750.944	21941.39
751.283	21862.74
751.621	21955.4
751.96	21803.76
752.298	21800.37
752.636	21905
752.975	21810.54
753.313	21675.4
753.651	21851.9
753.989	21719.7
754.327	21621.85
754.666	21557.89
755.004	21692.58
755.342	21803.31
755.679	21627.27
756.017	21539.14
756.355	21532.81
756.693	21475.41
757.031	21446.48
757.368	21391.57
757.706	21404.23
758.044	21201.97
758.381	21346.83
758.719	21263.44
759.056	21256.43
759.394	21222.76
759.731	21026.83
760.068	20982.32
760.405	20913.84
760.743	20999.94
761.08	21048.75
761.417	20886.27
761.754	20825.48
762.091	20845.37
762.428	20789.55
762.765	20776.67
763.102	20763.11
763.438	20663.23
763.775	20647.86
764.112	20628.65
764.449	20607.86
764.785	20500.07
765.122	20341.88
765.458	20455.1
765.795	20300.07
766.131	20240.64
766.467	20223.92
766.804	20132.17
767.14	20024.15
767.476	19991.16
767.812	19912.06
768.148	19917.03
768.485	19870.71
768.821	19812.85
769.157	19804.27
769.492	19851.72
769.828	19784.38
770.164	19571.05
770.5	19463.94
770.836	19630.49
771.171	19472.52
771.507	19591.62
771.842	19325.86
772.178	19463.94
772.513	19286.54
772.849	19411.51
773.184	19222.36
773.519	19293.55
773.855	19209.71
774.19	19162.7
774.525	19089.26
774.86	18948.7
775.195	18829.38
775.53	18831.19
775.865	18760
776.2	18670.51
776.535	18462.16
776.87	18468.26
777.205	18396.85
777.539	18435.72
777.874	18447.92
778.209	18287.7
778.543	18338.09
778.878	18289.05
779.212	18290.63
779.547	18127.48
779.881	18157.31
780.215	18070.3
780.55	18164.31
780.884	18019.23
781.218	18020.13
781.552	17977.42
781.886	17813.36
782.22	17744.89
782.554	17764.77
782.888	17537.21
783.222	17538.34
783.556	17526.14
783.889	17404.56
784.223	17446.14
784.557	17413.6
784.89	17313.71
785.224	17330.21
785.557	17183.55
785.891	17279.59
786.224	17208.86
786.558	17165.92
786.891	17061.29
787.224	17088.18
787.557	16916.43
787.891	16996.43
788.224	16906.49
788.557	16932.93
788.89	16770.45
789.223	16789.43
789.556	16715.54
789.888	16666.04
790.221	16607.06
790.554	16468.76
790.887	16425.37
791.219	16463.11
791.552	16452.49
791.884	16260.41
792.217	16303.34
792.549	16323.45
792.882	16249.11
793.214	16125.49
793.546	16182.44
793.879	16047.08
794.211	15907.42
794.543	16019.96
794.875	15937.25
795.207	16044.59
795.539	15903.8
795.871	15872.39
796.203	15818.84
796.535	15619.52
796.867	15637.6
797.198	15622.23
797.53	15748.55
797.862	15544.49
798.193	15591.27
798.525	15503.59
798.856	15561.22
799.188	15435.57
799.519	15354.44
799.85	15314.67
800.182	15343.37
800.513	15257.72
800.844	15162.58
801.175	15329.36
801.506	15231.05
801.837	15127.55
802.168	15232.18
802.499	15100.89
802.83	15078.97
803.161	14919.65
803.491	14996.48
803.822	14982.7
804.153	14888.46
804.483	14812.31
804.814	14723.95
805.145	14805.08
805.475	14718.07
805.805	14615.25
806.136	14721.92
806.466	14653.44
806.796	14606.21
807.126	14520.56
807.457	14579.09
807.787	14586.33
808.117	14508.81
808.447	14380.23
808.777	14452.54
809.107	14395.82
809.436	14352.66
809.766	14329.16
810.096	14352.89
810.426	14287.8
810.755	14242.38
811.085	14249.16
811.414	14199.44
811.744	14150.86
812.073	14137.75
812.403	14145.89
812.732	14135.94
813.061	14206.45
813.39	14149.73
813.719	14062.05
814.049	14105.89
814.378	13950.64
814.707	13816.4
815.036	13932.33
815.365	13880.36
815.693	13778.66
816.022	13739.79
816.351	13704.09
816.68	13589.74
817.008	13646.69
817.337	13605.11
817.665	13613.92
817.994	13662.96
818.322	13613.02
818.651	13621.15
818.979	13504.09
819.307	13617.09
819.636	13552.45
819.964	13530.99
820.292	13446.47
820.62	13491.89
820.948	13445.79
821.276	13577.31
821.604	13533.02
821.932	13514.94
822.259	13410.31
822.587	13473.36
822.915	13561.95
823.243	13545
823.57	13540.48
823.898	13481.27
824.225	13473.13
824.553	13473.59
824.88	13474.26
825.207	13512.46
825.535	13392.01
825.862	13565.79
826.189	13429.97
826.516	13592.91
826.843	13605.11
827.17	13574.15
827.497	13535.73
827.824	13506.58
828.151	13523.08
828.478	13421.38
828.805	13582.06
829.131	13490.76
829.458	13534.38
829.785	13526.01
830.111	13577.99
830.438	13600.14
830.764	13656.41
831.09	13606.69
831.417	13604.66
831.743	13656.63
832.069	13642.85
832.395	13562.17
832.722	13591.32
833.048	13532.12
833.374	13621.61
833.7	13602.62
834.026	13617.76
834.351	13567.14
834.677	13472
835.003	13540.03
835.329	13563.98
835.654	13518.33
835.98	13479.46
836.306	13513.13
836.631	13525.56
836.956	13451.44
837.282	13455.51
837.607	13418.22
837.932	13420.93
838.258	13385.23
838.583	13362.85
838.908	13335.06
839.233	13476.75
839.558	13382.74
839.883	13333.25
840.208	13290.99
840.533	13365.34
840.858	13368.28
841.182	13329.64
841.507	13338.22
841.832	13231.33
842.156	13258.9
842.481	13197.89
842.805	13264.1
843.13	13272.46
843.454	13248.28
843.778	13150.88
844.103	13107.04
844.427	13075.63
844.751	13079.7
845.075	13004.67
845.399	13042.19
845.723	12916.54
846.047	12913.15
846.371	12852.36
846.695	12985.01
847.019	12765.81
847.343	12749.54
847.666	12631.35
847.99	12645.36
848.313	12667.05
848.637	12682.19
848.96	12606.26
849.284	12616.43
849.607	12527.4
849.931	12429.32
850.254	12443.11
850.577	12216.44
850.9	12192.04
851.223	12214.86
851.546	12147.52
851.869	12112.94
852.192	12173.51
852.515	12077.01
852.838	12071.14
853.161	12012.61
853.483	12034.08
853.806	12038.37
854.129	11983.46
854.451	11889.22
854.774	11922.21
855.096	11929.45
855.419	11800.64
855.741	11904.59
856.063	11783.46
856.385	11696.91
856.708	11677.25
857.03	11596.35
857.352	11625.73
857.674	11595.22
857.996	11592.96
858.318	11488.1
858.64	11516.8
858.961	11484.94
859.283	11516.8
859.605	11425.28
859.926	11499.18
860.248	11341.21
860.57	11318.61
860.891	11300.76
861.212	11285.85
861.534	11268.67
861.855	11275.68
862.176	11265.96
862.498	11217.37
862.819	11214.66
863.14	11293.3
863.461	11188.67
863.782	11151.39
864.103	11159.07
864.424	11100.09
864.745	11205.85
865.065	11062.58
865.386	11050.37
865.707	11122.69
866.027	11032.97
866.348	11093.31
866.668	11026.42
866.989	10979.87
867.309	10893.09
867.63	10931.73
867.95	10927.21
868.27	10863.26
868.59	10883.6
868.91	10863.26
869.23	10875.69
869.55	10859.19
869.87	10957.04
870.19	10908
870.51	10870.49
870.83	10837.27
871.15	10794.79
871.469	10775.8
871.789	10830.27
872.109	10802.7
872.428	10734.68
872.748	10789.36
873.067	10724.05
873.386	10774.45
873.706	10739.2
874.025	10781
874.344	10790.72
874.663	10764.28
874.982	10802.7
875.301	10692.19
875.62	10677.95
875.939	10675.69
876.258	10719.99
876.577	10643.83
876.896	10630.05
877.214	10512.99
877.533	10547.56
877.852	10545.3
878.17	10611.51
878.489	10574.45
878.807	10586.66
879.125	10576.71
879.444	10600.44
879.762	10566.32
880.08	10540.33
880.398	10540.78
880.716	10522.7
881.034	10426.43
881.352	10452.2
881.67	10409.49
881.988	10405.19
882.306	10472.08
882.624	10450.39
882.941	10406.55
883.259	10345.76
883.577	10386.44
883.894	10386.21
884.212	10278.64
884.529	10302.14
884.846	10321.8
885.164	10251.52
885.481	10348.47
885.798	10218.76
886.115	10242.94
886.432	10263.5
886.75	10261.47
887.067	10223.28
887.383	10141.7
887.7	10169.94
888.017	10084.75
888.334	10042.72
888.651	9998.65
888.967	10039.55
889.284	10048.59
889.6	10029.38
889.917	9836.62
890.233	9933.57
890.55	9909.16
890.866	9894.02
891.182	9889.27
891.498	9859.9
891.815	9878.43
892.131	9832.55
892.447	9816.51
892.763	9738.09
893.079	9669.84
893.395	9680.69
893.71	9690.41
894.026	9680.47
894.342	9685.89
894.657	9619
894.973	9601.37
895.289	9569.96
895.604	9624.2
895.92	9493.13
896.235	9480.47
896.55	9478.21
896.865	9484.09
897.181	9398.44
897.496	9370.64
897.811	9338.55
898.126	9341.72
898.441	9294.71
898.756	9264.21
899.071	9198.67
899.386	9364.32
899.7	9244.32
900.015	9221.04
900.33	9179.69
900.644	9099.24
900.959	9129.52
901.273	9064.89
901.588	8938.11
901.902	8974.72
902.216	8973.59
902.531	8923.88
902.845	8929.3
903.159	8832.8
903.473	8892.92
903.787	8829.19
904.101	8757.1
904.415	8718.46
904.729	8721.62
905.042	8680.72
905.356	8621.74
905.67	8609.31
905.984	8560.04
906.297	8636.2
906.611	8494.73
906.924	8471.01
907.237	8489.54
907.551	8422.87
907.864	8463.77
908.177	8345.59
908.491	8347.62
908.804	8309.2
909.117	8159.38
909.43	8224.23
909.743	8170.45
910.056	8231.46
910.368	8246.83
910.681	8177.68
910.994	8140.17
911.307	8184.23
911.619	8050.9
911.932	8044.12
912.244	8021.98
912.557	8071.02
912.869	7966.84
913.181	8001.64
913.494	7948.99
913.806	7947.86
914.118	7982.43
914.43	7880.51
914.742	7847.52
915.054	7886.16
915.366	7809.78
915.678	7758.03
915.99	7721.87
916.302	7624.7
916.613	7652.27
916.925	7663.8
917.236	7621.99
917.548	7576.79
917.859	7547.41
918.171	7454.08
918.482	7426.97
918.794	7437.81
919.105	7442.11
919.416	7397.59
919.727	7310.13
920.038	7339.06
920.349	7253.64
920.66	7273.98
920.971	7205.5
921.282	7209.57
921.593	7115.79
921.903	7132.51
922.214	7110.59
922.525	7125.28
922.835	7079.86
923.146	7046.86
923.456	7040.76
923.767	6988.56
924.077	7003.7
924.387	6980.65
924.697	6931.16
925.008	6838.05
925.318	6847.09
925.628	6850.26
925.938	6829.47
926.248	6770.94
926.558	6760.32
926.867	6719.41
927.177	6692.52
927.487	6650.26
927.796	6600.32
928.106	6583.15
928.416	6576.14
928.725	6642.81
929.034	6549.02
929.344	6515.58
929.653	6500.89
929.962	6431.96
930.271	6434.68
930.581	6426.54
930.89	6343.6
931.199	6346.09
931.508	6313.55
931.817	6302.93
932.125	6312.42
932.434	6275.58
932.743	6221.8
933.051	6224.74
933.36	6207.79
933.669	6147.45
933.977	6143.84
934.286	6129.37
934.594	6136.6
934.902	6083.05
935.21	6044.18
935.519	6070.84
935.827	6023.16
936.135	5972.31
936.443	5918.98
936.751	5903.16
937.059	5898.64
937.367	5854.58
937.674	5903.84
937.982	5861.58
938.29	5831.3
938.597	5839.44
938.905	5752.43
939.213	5730.06
939.52	5700.91
939.827	5730.97
940.135	5635.15
940.442	5690.06
940.749	5712.89
941.056	5643.96
941.363	5585.43
941.67	5617.75
941.977	5569.39
942.284	5527.81
942.591	5558.99
942.898	5510.86
943.205	5439.45
943.511	5468.6
943.818	5424.98
944.125	5417.08
944.431	5356.51
944.738	5382.05
945.044	5343.86
945.35	5331.2
945.657	5319.9
945.963	5298.43
946.269	5241.26
946.575	5211.43
946.881	5122.62
947.187	5122.17
947.493	5176.4
947.799	5177.53
948.105	5113.81
948.41	5077.2
948.716	5087.82
949.022	5068.61
949.327	5063.41
949.633	4980.93
949.938	5061.38
950.244	5039.91
950.549	4954.49
950.854	4919.91
951.16	4950.87
951.465	4906.13
951.77	4890.31
952.075	4894.38
952.38	4849.86
952.685	4827.26
952.99	4769.63
953.294	4766.02
953.599	4756.08
953.904	4743.19
954.209	4724.21
954.513	4743.65
954.818	4669.98
955.122	4649.64
955.426	4651.9
955.731	4613.71
956.035	4566.48
956.339	4622.07
956.643	4562.18
956.948	4541.39
957.252	4593.14
957.556	4569.87
957.86	4518.34
958.163	4500.26
958.467	4374.84
958.771	4423.88
959.075	4405.12
959.378	4415.07
959.682	4377.78
959.985	4341.4
960.289	4394.73
960.592	4339.59
960.896	4336.88
961.199	4305.24
961.502	4346.14
961.805	4330.32
962.108	4220.04
962.411	4242.87
962.714	4211.46
963.017	4178.01
963.32	4198.8
963.623	4136.2
963.926	4174.85
964.228	4114.74
964.531	4141.85
964.833	4105.92
965.136	4096.88
965.438	4100.73
965.741	4034.51
966.043	4061.4
966.345	4042.87
966.648	4009.88
966.95	3992.71
967.252	3957.23
967.554	3949.32
967.856	4020.73
968.158	3926.94
968.46	3919.71
968.761	3902.54
969.063	3882.2
969.365	3886.95
969.666	3836.78
969.968	3837.91
970.269	3801.3
970.571	3792.49
970.872	3800.17
971.174	3775.54
971.475	3734.41
971.776	3766.95
972.077	3712.04
972.378	3735.54
972.679	3715.42
972.98	3710.23
973.281	3678.36
973.582	3698.02
973.883	3676.1
974.183	3659.61
974.484	3635.2
974.785	3603.11
975.085	3627.74
975.386	3609.21
975.686	3584.13
975.986	3531.93
976.287	3524.24
976.587	3512.72
976.887	3500.74
977.187	3520.85
977.487	3499.84
977.787	3510.91
978.087	3437.01
978.387	3429.33
978.687	3446.05
978.987	3404.02
979.286	3414.64
979.586	3430.46
979.885	3356.11
980.185	3347.07
980.484	3328.99
980.784	3328.09
981.083	3291.26
981.382	3294.19
981.682	3293.29
981.981	3293.29
982.28	3285.83
982.579	3226.17
982.878	3181.88
983.177	3248.32
983.475	3179.62
983.774	3134.2
984.073	3150.92
984.372	3103.01
984.67	3099.4
984.969	3069.79
985.267	3104.37
985.566	3109.11
985.864	3088.55
986.162	3086.74
986.461	3020.53
986.759	3084.03
987.057	3057.82
987.355	2994.77
987.653	3013.97
987.951	2987.99
988.249	2993.41
988.547	2919.06
988.844	2930.81
989.142	2967.87
989.44	2953.86
989.737	2912.06
990.035	2886.29
990.332	2877.93
990.63	2891.49
990.927	2874.77
991.224	2841.1
991.521	2811.04
991.819	2821.66
992.116	2751.38
992.413	2765.39
992.71	2747.99
993.006	2771.49
993.303	2736.24
993.6	2772.85
993.897	2765.62
994.193	2730.37
994.49	2674.1
994.787	2709.12
995.083	2672.97
995.379	2663.25
995.676	2693.08
995.972	2661.22
996.268	2665.96
996.565	2636.13
996.861	2654.44
997.157	2613.53
997.453	2614.44
997.749	2600.88
998.044	2564.04
998.34	2560.2
998.636	2566.08
998.932	2505.74
999.227	2534.66
999.523	2506.42
999.818	2506.42
1000.114	2446.53
1000.409	2446.98
1000.704	2467.77
1001	2421
1001.295	2398.62
1001.59	2429.36
1001.885	2441.11
1002.18	2399.3
1002.475	2376.48
1002.77	2375.57
1003.065	2330.83
1003.359	2314.11
1003.654	2333.54
1003.949	2312.75
1004.243	2327.44
1004.538	2292.19
1004.832	2297.84
1005.127	2238.18
1005.421	2238.18
1005.715	2216.71
1006.009	2215.58
1006.304	2200.89
1006.598	2181.23
1006.892	2166.54
1007.186	2176.03
1007.48	2207.67
1007.773	2164.05
1008.067	2133.32
1008.361	2103.72
1008.655	2103.72
1008.948	2092.19
1009.242	2064.62
1009.535	2077.5
1009.829	2066.43
1010.122	2058.29
1010.415	2041.57
1010.708	2019.65
1011.001	2024.17
1011.295	2000.89
1011.588	1996.6
1011.881	1980.33
1012.173	1932.42
1012.466	1941.23
1012.759	1948.69
1013.052	1936.04
1013.344	1916.6
1013.637	1929.48
1013.93	1908.47
1014.222	1916.6
1014.514	1917.05
1014.807	1872.08
1015.099	1856.49
1015.391	1846.77
1015.683	1828.92
1015.976	1813.33
1016.268	1772.2
1016.56	1791.18
1016.851	1790.5
1017.143	1799.54
1017.435	1762.03
1017.727	1732.43
1018.018	1743.73
1018.31	1703.5
1018.602	1698.75
1018.893	1717.74
1019.185	1725.65
1019.476	1680.9
1019.767	1663.5
1020.058	1678.42
1020.35	1707.57
1020.641	1639.32
1020.932	1628.25
1021.223	1617.4
1021.514	1615.37
1021.804	1619.66
1022.095	1573.56
1022.386	1552.77
1022.677	1552.54
1022.967	1566.33
1023.258	1536.5
1023.548	1574.01
1023.839	1555.93
1024.129	1541.02
1024.419	1513
1024.709	1500.34
1025	1493.56
1025.29	1492.66
1025.58	1493.79
1025.87	1459.67
1026.16	1442.26
1026.449	1450.63
1026.739	1421.47
1027.029	1437.52
1027.319	1418.31
1027.608	1395.49
1027.898	1415.15
1028.187	1387.58
1028.477	1378.54
1028.766	1400.46
1029.055	1357.52
1029.344	1350.97
1029.634	1351.42
1029.923	1325.43
1030.212	1329.72
1030.501	1314.81
1030.79	1289.95
1031.078	1288.14
1031.367	1282.72
1031.656	1281.82
1031.945	1258.09
1032.233	1243.85
1032.522	1258.09
1032.81	1219.22
1033.099	1235.94
1033.387	1211.99
1033.675	1215.15
1033.963	1205.66
1034.251	1184.87
1034.54	1206.34
1034.828	1185.32
1035.116	1169.96
1035.403	1185.32
1035.691	1165.21
1035.979	1132.44
1036.267	1141.26
1036.554	1151.2
1036.842	1129.5
1037.129	1136.51
1037.417	1110.52
1037.704	1122.27
1037.992	1101.93
1038.279	1087.7
1038.566	1114.59
1038.853	1114.59
1039.14	1114.59
