Data from copper_heatsink_FLMS001491_083.txt Node
Date: Tue Feb 07 10:50:42 GMT 2017
User: dcchb
Spectrometer: FLMS00149
Trigger mode: 0
Integration Time (sec): 2.000000E-2
Scans to average: 10
Electric dark correction enabled: true
Nonlinearity correction enabled: false
Boxcar width: 0
XAxis mode: Wavelengths
Number of Pixels in Spectrum: 2048
>>>>>Begin Spectral Data<<<<<
341.393	-2.68
341.776	-2.68
342.16	-2.68
342.543	-77.71
342.927	-47.88
343.31	-75.45
343.693	-70.7
344.077	-63.7
344.46	-50.14
344.843	-47.88
345.226	-43.13
345.61	-25.51
345.993	-22.8
346.376	-9.01
346.759	10.65
347.142	38.9
347.525	24.43
347.908	60.37
348.291	66.47
348.674	91.55
349.057	115.96
349.44	96.07
349.823	125.67
350.206	177.42
350.588	212.45
350.971	237.76
351.354	250.19
351.737	261.04
352.119	264.2
352.502	286.57
352.884	283.86
353.267	296.29
353.65	332
354.032	333.8
354.414	340.13
354.797	319.79
355.179	352.11
355.562	350.53
355.944	333.13
356.326	348.95
356.709	375.16
357.091	346.01
357.473	339.91
357.855	346.91
358.238	360.92
358.62	349.85
359.002	367.25
359.384	362.96
359.766	369.74
360.148	367.7
360.53	372.67
360.912	343.75
361.294	369.06
361.676	344.43
362.057	348.72
362.439	342.39
362.821	347.14
363.203	344.88
363.584	347.82
363.966	339.45
364.348	338.32
364.729	350.3
365.111	358.66
365.493	355.5
365.874	329.51
366.256	345.56
366.637	345.78
367.019	330.87
367.4	359.34
367.781	366.8
368.163	348.49
368.544	339.91
368.925	346.91
369.306	334.71
369.688	343.07
370.069	337.42
370.45	344.88
370.831	338.55
371.212	324.99
371.593	354.6
371.974	346.69
372.355	329.51
372.736	337.87
373.117	357.76
373.498	360.92
373.879	339
374.26	353.47
374.641	341.26
375.021	367.25
375.402	329.06
375.783	345.1
376.163	362.28
376.544	350.75
376.925	356.63
377.305	372
377.686	370.41
378.066	372
378.447	387.36
378.827	379.91
379.208	362.05
379.588	369.51
379.968	372.22
380.349	357.53
380.729	364.31
381.109	351.21
381.489	376.29
381.87	376.29
382.25	380.81
382.63	364.99
383.01	382.17
383.39	369.96
383.77	369.28
384.15	394.37
384.53	384.2
384.91	388.72
385.29	381.26
385.67	405.22
386.049	392.56
386.429	395.5
386.809	391.88
387.189	401.83
387.568	423.52
387.948	393.92
388.328	427.14
388.707	389.17
389.087	423.75
389.466	415.16
389.846	440.92
390.225	423.75
390.605	424.2
390.984	406.8
391.363	425.33
391.743	411.32
392.122	449.51
392.501	450.64
392.881	435.05
393.26	451.99
393.639	441.15
394.018	438.66
394.397	437.76
394.776	466.23
395.155	444.54
395.534	454.03
395.913	444.76
396.292	464.87
396.671	483.18
397.05	472.33
397.429	458.32
397.808	487.47
398.186	482.5
398.565	452.45
398.944	474.59
399.323	475.72
399.701	477.53
400.08	461.71
400.458	483.86
400.837	487.7
401.215	502.39
401.594	506.91
401.972	480.47
402.351	480.92
402.729	481.6
403.107	519.11
403.486	502.16
403.864	526.12
404.242	529.51
404.62	517.08
404.999	528.6
405.377	519.34
405.755	513.24
406.133	532.67
406.511	510.07
406.889	548.26
407.267	527.7
407.645	550.07
408.023	551.65
408.401	556.62
408.779	560.47
409.156	563.86
409.534	557.75
409.912	560.92
410.29	570.86
410.667	571.99
411.045	561.37
411.422	587.81
411.8	553.23
412.178	602.72
412.555	627.36
412.933	609.73
413.31	600.01
413.687	610.41
414.065	609.96
414.442	609.28
414.819	634.36
415.197	627.58
415.574	639.56
415.951	636.17
416.328	651.99
416.705	632.33
417.082	673
417.46	681.59
417.837	661.93
418.214	668.49
418.591	671.87
418.967	681.37
419.344	689.28
419.721	675.04
420.098	698.09
420.475	683.63
420.852	701.7
421.228	701.03
421.605	730.86
421.982	718.43
422.358	717.52
422.735	719.78
423.111	702.38
423.488	721.82
423.864	723.17
424.241	737.18
424.617	757.52
424.994	756.17
425.37	746.9
425.746	749.61
426.123	783.96
426.499	775.6
426.875	776.28
427.251	779.22
427.627	808.14
428.003	789.16
428.379	781.02
428.756	811.08
429.132	850.18
429.507	838.2
429.883	813.79
430.259	839.78
430.635	854.47
431.011	876.16
431.387	875.71
431.763	877.07
432.138	876.62
432.514	875.03
432.89	895.37
433.265	916.61
433.641	947.12
434.016	934.47
434.392	940.79
434.767	947.57
435.143	943.73
435.518	963.84
435.894	961.81
436.269	984.18
436.644	990.28
437.02	993.22
437.395	974.01
437.77	999.55
438.145	1018.31
438.52	1040.9
438.895	1020.11
439.271	1038.65
439.646	1060.11
440.021	1071.64
440.395	1068.47
440.77	1069.6
441.145	1089.04
441.52	1086.33
441.895	1066.44
442.27	1097.63
442.645	1098.53
443.019	1110.96
443.394	1089.94
443.769	1138.53
444.143	1103.95
444.518	1121.58
444.892	1128.36
445.267	1146.44
445.641	1145.53
446.016	1166.78
446.39	1157.29
446.764	1194.57
447.139	1188.02
447.513	1187.34
447.887	1177.62
448.262	1193.67
448.636	1186.44
449.01	1201.8
449.384	1214.69
449.758	1235.93
450.132	1226.21
450.506	1242.03
450.88	1246.1
451.254	1242.26
451.628	1297.62
452.002	1268.92
452.376	1304.63
452.75	1286.32
453.123	1330.84
453.497	1340.56
453.871	1313.44
454.244	1372.2
454.618	1361.8
454.992	1379.65
455.365	1365.87
455.739	1432.53
456.112	1433.89
456.486	1442.02
456.859	1461.23
457.232	1468.24
457.606	1489.48
457.979	1492.64
458.352	1515.02
458.725	1532.42
459.099	1522.47
459.472	1564.51
459.845	1591.85
460.218	1615.58
460.591	1581.91
460.964	1618.97
461.337	1646.54
461.71	1682.47
462.083	1707.1
462.456	1723.15
462.829	1708.01
463.201	1739.87
463.574	1722.47
463.947	1776.48
464.32	1794.78
464.692	1797.72
465.065	1809.02
465.438	1842.69
465.81	1857.61
466.183	1881.33
466.555	1898.51
466.928	1941.22
467.3	1929.92
467.672	1979.41
468.045	2043.59
468.417	2013.08
468.789	2034.55
469.161	2055.57
469.534	2068
469.906	2158.84
470.278	2148.22
470.65	2174.21
471.022	2203.59
471.394	2216.24
471.766	2260.53
472.138	2280.87
472.51	2340.53
472.882	2380.3
473.253	2364.71
473.625	2385.95
473.997	2434.09
474.369	2443.81
474.74	2496.46
475.112	2544.59
475.484	2592.28
475.855	2607.87
476.227	2640.64
476.598	2757.47
476.97	2726.28
477.341	2784.36
477.713	2813.29
478.084	2855.55
478.455	2927.86
478.827	2945.04
479.198	3029.1
479.569	3011.25
479.94	3080.17
480.311	3116.33
480.682	3196.33
481.053	3283.56
481.424	3329.43
481.795	3333.05
482.166	3369.88
482.537	3451.69
482.908	3511.57
483.279	3532.82
483.65	3572.59
484.021	3668.86
484.391	3651.68
484.762	3721.29
485.133	3779.36
485.503	3799.25
485.874	3877.67
486.244	3955.63
486.615	4001.05
486.985	4046.7
487.356	4151.78
487.726	4153.82
488.097	4229.07
488.467	4295.51
488.837	4373.02
489.207	4404.43
489.578	4480.59
489.948	4499.57
490.318	4566.24
490.688	4580.92
491.058	4648.95
491.428	4714.71
491.798	4767.59
492.168	4873.57
492.538	4882.16
492.908	4930.52
493.278	4962.38
493.648	5001.7
494.017	5061.14
494.387	5105.43
494.757	5164.41
495.126	5247.8
495.496	5307.01
495.866	5299.78
496.235	5347.91
496.605	5404.18
496.974	5461.58
497.344	5472.88
497.713	5546.78
498.082	5597.17
498.452	5628.81
498.821	5671.74
499.19	5709.03
499.559	5782.7
499.928	5783.83
500.298	5797.39
500.667	5938.18
501.036	5903.83
501.405	5966.65
501.774	5967.1
502.143	6042.81
502.512	6063.82
502.88	6171.62
503.249	6164.84
503.618	6200.54
503.987	6231.95
504.356	6294.33
504.724	6356.47
505.093	6397.15
505.462	6450.71
505.83	6487.77
506.199	6496.13
506.567	6619.52
506.936	6636.46
507.304	6704.26
507.672	6763.92
508.041	6776.35
508.409	6873.29
508.777	6885.72
509.145	6993.06
509.514	6992.61
509.882	7123.46
510.25	7120.07
510.618	7164.13
510.986	7197.35
511.354	7276.22
511.722	7328.88
512.09	7382.66
512.458	7408.87
512.826	7427.63
513.193	7539.04
513.561	7563.67
513.929	7679.6
514.297	7741.75
514.664	7788.98
515.032	7852.48
515.4	7906.04
515.767	7968.41
516.135	7991.91
516.502	8017.9
516.869	8189.87
517.237	8159.59
517.604	8159.81
517.972	8375.85
518.339	8341.5
518.706	8382.86
519.073	8511.67
519.44	8578.56
519.808	8595.73
520.175	8671.44
520.542	8760.7
520.909	8902.17
521.276	8849.51
521.643	8938.32
522.009	9044.99
522.376	9206.34
522.743	9201.82
523.11	9323.4
523.477	9354.58
523.843	9444.75
524.21	9616.27
524.577	9680.45
524.943	9694.24
525.31	9799.09
525.676	9894.01
526.043	9970.61
526.409	10038.41
526.776	10110.27
527.142	10200.21
527.508	10296.03
527.874	10380.77
528.241	10430.71
528.607	10560.65
528.973	10656.47
529.339	10689.92
529.705	10764.49
530.071	10895.56
530.437	10936.92
530.803	11032.51
531.169	11111.6
531.535	11067.31
531.901	11178.27
532.267	11322.67
532.632	11399.05
532.998	11452.38
533.364	11429.56
533.73	11524.92
534.095	11698.03
534.461	11739.15
534.826	11903.22
535.192	11847.85
535.557	11991.58
535.923	12097.11
536.288	12107.28
536.653	12206.49
537.019	12213.49
537.384	12370.1
537.749	12355.86
538.114	12496.87
538.479	12450.55
538.845	12535.74
539.21	12614.39
539.575	12713.14
539.94	12808.96
540.305	12872.91
540.67	12913.14
541.034	12985.68
541.399	13099.12
541.764	13215.27
542.129	13262.73
542.494	13248.95
542.858	13396.74
543.223	13452.1
543.587	13608.48
543.952	13628.6
544.316	13713.11
544.681	13786.56
545.045	13846.67
545.41	13934.35
545.774	14018.42
546.138	14139.77
546.503	14191.75
546.867	14186.77
547.231	14466.54
547.595	14479.2
547.959	14544.96
548.324	14587.22
548.688	14762.8
549.052	14856.59
549.416	14869.47
549.779	15090.93
550.143	15049.58
550.507	15260.87
550.871	15353.07
551.235	15363.69
551.599	15632.39
551.962	15693.63
552.326	15783.34
552.689	15922.32
553.053	15978.14
553.417	16084.8
553.78	16355.3
554.143	16197.79
554.507	16470.78
554.87	16618.12
555.234	16916.65
555.597	16841.62
555.96	16998.68
556.323	17136.3
556.686	17354.37
557.05	17516.63
557.413	17654.03
557.776	17687.25
558.139	17965.66
558.502	18042.49
558.865	18196.61
559.228	18336.27
559.59	18483.16
559.953	18666.88
560.316	18927.67
560.679	18997.27
561.041	19159.98
561.404	19470.25
561.767	19612.62
562.129	19632.96
562.492	20039.28
562.854	20151.14
563.217	20181.42
563.579	20385.71
563.941	20621.41
564.304	20779.59
564.666	20933.04
565.028	21197.66
565.39	21354.72
565.753	21680.14
566.115	21829.74
566.477	22073.35
566.839	22234.92
567.201	22466.33
567.563	22554.92
567.925	22911.74
568.287	22978.18
568.648	23151.28
569.01	23429.47
569.372	23732.51
569.734	23884.37
570.095	23969.34
570.457	24363.23
570.819	24486.39
571.18	24559.61
571.542	24838.92
571.903	25046.83
572.265	25263.77
572.626	25532.01
572.987	25721.84
573.349	25868.95
573.71	26094.71
574.071	26212.9
574.432	26467.58
574.794	26788.25
575.155	26784.18
575.516	26890.85
575.877	27200.44
576.238	27383.04
576.599	27540.32
576.96	27723.37
577.32	27853.31
577.681	28189.12
578.042	28323.58
578.403	28419.39
578.763	28544.81
579.124	28815.54
579.485	28963.11
579.845	29117
580.206	29263.44
580.566	29363.1
580.927	29442.19
581.287	29728.51
581.648	29669.76
582.008	30102.51
582.368	30133.7
582.728	30228.16
583.089	30260.93
583.449	30415.27
583.809	30683.97
584.169	30717.86
584.529	30895.04
584.889	31186.1
585.249	31073.34
585.609	31111.75
585.969	31494.79
586.329	31391.07
586.688	31517.39
587.048	31566.88
587.408	31619.54
587.768	31859.08
588.127	31930.04
588.487	31902.01
588.846	32261.1
589.206	32077.38
589.565	32196.02
589.925	32474.65
590.284	32506.97
590.643	32699.06
591.003	32845.49
591.362	32969.1
591.721	32962.55
592.08	33082.1
592.44	33311.47
592.799	33338.81
593.158	33306.5
593.517	33353.95
593.876	33498.81
594.235	33614.51
594.593	33919.36
594.952	33881.4
595.311	34012.92
595.67	34076.87
596.029	34372.23
596.387	34334.04
596.746	34538.56
597.104	34473.25
597.463	34470.76
597.822	34738.78
598.18	34753.24
598.538	34816.29
598.897	35045.21
599.255	34942.61
599.613	35460.34
599.972	35375.14
600.33	35430.28
600.688	35375.6
601.046	35728.58
601.404	35993.66
601.762	35773.55
602.12	36226.65
602.478	36286.08
602.836	36288.57
603.194	36217.61
603.552	36439.97
603.91	36340.77
604.268	36738.72
604.625	36666.86
604.983	36831.38
605.341	36822.79
605.698	36986.17
606.056	37201.08
606.413	37170.35
606.771	37433.62
607.128	37530.34
607.485	37356.33
607.843	37525.37
608.2	37866.15
608.557	38128.52
608.914	37838.13
609.272	38092.81
609.629	38401.05
609.986	38513.37
610.343	38500.71
610.7	38789.74
611.057	38713.59
611.414	38801.95
611.771	38732.8
612.127	39132.11
612.484	39225.21
612.841	39394.92
613.198	39251.88
613.554	39498.42
613.911	39690.28
614.267	39629.72
614.624	39774.8
614.98	40006.43
615.337	40258.63
615.693	40161.68
616.05	40172.08
616.406	40523.48
616.762	40472.18
617.118	40515.8
617.475	40570.71
617.831	40681.9
618.187	40818.16
618.543	40949.91
618.899	41051.15
619.255	41197.82
619.611	41081.89
619.967	41438.49
620.323	41590.12
620.678	41612.04
621.034	41510.8
621.39	41425.15
621.746	41696.33
622.101	42053.16
622.457	41928.64
622.812	41944.46
623.168	42139.26
623.523	42129.09
623.879	42363.43
624.234	42214.96
624.589	42406.14
624.945	42449.76
625.3	42323.66
625.655	42440.49
626.01	42562.52
626.365	42574.73
626.72	42650.21
627.075	42708.06
627.43	42749.19
627.785	42570.66
628.14	42891.56
628.495	43004.55
628.85	42911.44
629.205	42760.49
629.559	43164.32
629.914	42967.49
630.269	43172.68
630.623	43035.73
630.978	43073.02
631.332	43242.51
631.687	43323.63
632.041	43260.13
632.396	43421.26
632.75	43225.56
633.104	43369.06
633.459	43179.46
633.813	43261.94
634.167	43416.97
634.521	43166.35
634.875	43327.25
635.229	43269.4
635.583	43206.12
635.937	43338.55
636.291	43394.14
636.645	43474.59
636.999	43387.81
637.352	43606.34
637.706	43462.39
638.06	43574.02
638.413	43500.13
638.767	43477.53
639.121	43586.45
639.474	43316.86
639.828	43520.69
640.181	43667.35
640.534	43519.34
640.888	43480.47
641.241	43444.76
641.594	43652.89
641.947	43658.99
642.301	43484.99
642.654	43565.21
643.007	43694.02
643.36	43723.17
643.713	43756.62
644.066	44002.04
644.419	43565.89
644.771	43431.2
645.124	43278.66
645.477	43215.62
645.83	42915.06
646.182	42798.9
646.535	42758
646.888	42919.35
647.24	42550.55
647.593	42917.09
647.945	42863.99
648.298	42713.93
648.65	42625.8
649.002	42397.33
649.355	42784.67
649.707	42872.12
650.059	43020.37
650.411	43560.01
650.763	43553.91
651.115	43990.74
651.467	43934.01
651.819	44041.13
652.171	43847.46
652.523	43934.69
652.875	44095.82
653.227	43930.62
653.578	44179.66
653.93	44156.38
654.282	43926.33
654.633	43983.28
654.985	44021.7
655.337	44088.81
655.688	44076.38
656.039	44349.37
656.391	44046.1
656.742	44215.14
657.094	44146.44
657.445	44458.07
657.796	44274.34
658.147	44213.78
658.498	44279.77
658.849	44221.69
659.2	44420.78
659.551	44396.6
659.902	44552.08
660.253	44348.01
660.604	44554.34
660.955	44383.95
661.306	44523.6
661.656	44477.05
662.007	44573.09
662.358	44608.8
662.708	44566.54
663.059	44656.26
663.409	44423.72
663.76	44718.85
664.11	44865.52
664.461	44827.32
664.811	44871.62
665.161	44832.97
665.511	44715.69
665.862	44966.53
666.212	44995.23
666.562	45082.91
666.912	44958.85
667.262	45058.5
667.612	45034.78
667.962	45068.67
668.312	45099.86
668.662	45444.71
669.011	45229.35
669.361	45252.17
669.711	45239.74
670.06	45096.02
670.41	45234.55
670.76	45300.98
671.109	45455.33
671.459	45465.95
671.808	45315.45
672.157	45556.8
672.507	45318.61
672.856	45202
673.205	45502.56
673.554	45448.32
673.904	45279.29
674.253	45625.72
674.602	45539.62
674.951	44999.97
675.3	45004.72
675.649	45602.45
675.998	45587.76
676.346	45728.54
676.695	45911.82
677.044	45466.4
677.393	45708.88
677.741	45733.52
678.09	45680.18
678.438	45697.58
678.787	45806.73
679.135	45719.05
679.484	45558.15
679.832	45718.37
680.181	45558.15
680.529	45809.45
680.877	45635.89
681.225	45617.81
681.573	45866.84
681.922	45707.98
682.27	45550.47
682.618	45667.98
682.966	45631.37
683.314	45796.79
683.661	45536.23
684.009	45414.65
684.357	45492.84
684.705	45510.47
685.053	45425.5
685.4	45616.68
685.748	45307.76
686.095	45500.75
686.443	45262.57
686.79	45324.49
687.138	45554.31
687.485	45426.4
687.832	45253.98
688.18	45343.02
688.527	45104.6
688.874	45183.92
689.221	45097.15
689.568	44982.57
689.915	44903.25
690.262	45052.85
690.609	44879.07
690.956	44916.36
691.303	44923.37
691.65	44753.43
691.997	44758.85
692.344	44644.28
692.69	44851.28
693.037	44691.73
693.383	44351.18
693.73	44587.1
694.077	44269.37
694.423	44317.06
694.769	44304.17
695.116	44226.44
695.462	44275.47
695.808	44161.35
696.155	44236.61
696.501	43964.07
696.847	43975.37
697.193	43669.84
697.539	43771.08
697.885	43795.49
698.231	43625.1
698.577	43597.53
698.923	43526.34
699.269	43419.9
699.614	43369.06
699.96	43348.27
700.306	43571.99
700.651	43227.59
700.997	43213.58
701.342	43137.2
701.688	43128.16
702.033	42916.64
702.379	43185.79
702.724	43095.84
703.069	43047.48
703.415	42645.23
703.76	42738.57
704.105	42727.04
704.45	42800.48
704.795	42478.91
705.14	42484.33
705.485	42491.11
705.83	42495.18
706.175	42478.91
706.52	42474.17
706.865	42401.17
707.209	42288.86
707.554	42167.96
707.899	42374.28
708.243	42124.57
708.588	42153.95
708.932	41937.91
709.277	41913.5
709.621	41935.65
709.966	41819.72
710.31	41911.47
710.654	41553.51
710.998	41733.62
711.342	41735.2
711.687	41820.4
712.031	41642.1
712.375	41553.96
712.719	41832.15
713.063	41544.02
713.407	41579.5
713.75	41557.81
714.094	41414.31
714.438	41292.95
714.782	41451.82
715.125	41217.7
715.469	41484.36
715.812	41309
716.156	41061.1
716.499	41089.8
716.843	41243.69
717.186	40958.95
717.53	41112.39
717.873	41269.23
718.216	41211.37
718.559	41030.14
718.902	40833.3
719.246	40876.02
719.589	40918.05
719.932	40779.52
720.275	40919.63
720.617	40861.78
720.96	40691.61
721.303	40841.89
721.646	40935
721.989	40797.15
722.331	40998.05
722.674	40805.73
723.016	40893.19
723.359	40763.25
723.701	40798.28
724.044	40514.67
724.386	40574.55
724.729	40719.41
725.071	40450.94
725.413	40446.65
725.755	40457.5
726.097	40224.51
726.439	40263.6
726.782	40306.77
727.124	40410.72
727.465	40388.57
727.807	40338.18
728.149	40192.19
728.491	40242.81
728.833	40097.51
729.175	40003.5
729.516	40029.94
729.858	40107.67
730.199	40185.64
730.541	40076.94
730.882	40085.98
731.224	40152.87
731.565	40051.18
731.906	40133.44
732.248	40132.08
732.589	40017.96
732.93	39904.97
733.271	40011.41
733.612	39937.96
733.953	40006.21
734.294	39961.69
734.635	39962.82
734.976	40043.5
735.317	39783.61
735.658	39708.59
735.999	39759.66
736.339	39764.63
736.68	39849.6
737.021	39796.95
737.361	39746.1
737.702	39711.53
738.042	39753.11
738.383	39663.62
738.723	39721.24
739.063	39681.24
739.404	39867.45
739.744	39581.36
740.084	39625.43
740.424	39677.86
740.764	39559.67
741.104	39866.55
741.444	39535.71
741.784	39408.26
742.124	39594.47
742.464	39581.59
742.804	39510.4
743.143	39598.31
743.483	39641.47
743.823	39312.89
744.162	39348.6
744.502	39507.01
744.841	39321.48
745.181	39464.98
745.52	39278.09
745.86	39470.4
746.199	39444.19
746.538	39476.96
746.877	39523.96
747.216	39408.03
747.556	39206
747.895	39179.34
748.234	39124.88
748.573	39125.1
748.911	39199.68
749.25	39222.5
749.589	39102.28
749.928	39177.98
750.267	39212.1
750.605	38991.77
750.944	39091.2
751.283	39064.76
751.621	39016.63
751.96	38818.22
752.298	38883.98
752.636	38864.32
752.975	38519.02
753.313	38534.38
753.651	38787.71
753.989	38484.44
754.327	38509.07
754.666	38461.39
755.004	38545.68
755.342	38602.18
755.679	38434.05
756.017	38145.47
756.355	38353.37
756.693	38131
757.031	38261.85
757.368	38224.11
757.706	38077.67
758.044	37846.94
758.381	38028.86
758.719	37845.81
759.056	38044.23
759.394	37876.09
759.731	37665.48
760.068	37782.09
760.405	37600.4
760.743	37522.43
761.08	37634.07
761.417	37418.03
761.754	37348.2
762.091	37293.06
762.428	37336.22
762.765	36994.76
763.102	37304.13
763.438	37123.8
763.775	36990.47
764.112	36937.59
764.449	37151.37
764.785	36920.19
765.122	36721.77
765.458	36675.67
765.795	36491.72
766.131	36550.03
766.467	36411.5
766.804	36390.03
767.14	36250.83
767.476	36293.31
767.812	36143.71
768.148	36168.79
768.485	35949.14
768.821	35727.22
769.157	35611.97
769.492	35592.09
769.828	35504.18
770.164	35296.73
770.5	35209.27
770.836	35193.68
771.171	34936.28
771.507	35171.08
771.842	34835.72
772.178	34967.47
772.513	34906.46
772.849	34746.01
773.184	34584.43
773.519	34600.25
773.855	34496.97
774.19	34453.36
774.525	34361.16
774.86	34311.22
775.195	34263.53
775.53	34176.53
775.865	33988.51
776.2	33843.43
776.535	33582.42
776.87	33755.98
777.205	33642.31
777.539	33548.75
777.874	33522.76
778.209	33253.84
778.543	33197.12
778.878	33073.28
779.212	33088.42
779.547	32895.43
779.881	33157.35
780.215	32809.34
780.55	32908.77
780.884	32800.3
781.218	32705.16
781.552	32582.22
781.886	32448.44
782.22	32395.56
782.554	32260.42
782.888	31925.29
783.222	32032.63
783.556	31904.5
783.889	31740.89
784.223	31585.86
784.557	31690.95
784.89	31772.07
785.224	31606.88
785.557	31421.8
785.891	31478.52
786.224	31241.92
786.558	31399.43
786.891	31231.52
787.224	31021.13
787.557	31014.13
787.891	30968.93
788.224	30903.17
788.557	30846.45
788.89	30756.96
789.223	30690.52
789.556	30488.27
789.888	30462.05
790.221	30346.57
790.554	30160.59
790.887	30143.64
791.219	30163.3
791.552	30167.6
791.884	29971.44
792.217	29945
792.549	29827.72
792.882	29685.8
793.214	29518.57
793.546	29624.33
793.879	29536.2
794.211	29327.84
794.543	29620.27
794.875	29523.55
795.207	29576.2
795.539	29423.89
795.871	29397.67
796.203	29055.54
796.535	28998.36
796.867	29045.37
797.198	29000.62
797.53	28858.48
797.862	28626.17
798.193	28921.98
798.525	28679.27
798.856	28688.77
799.188	28394.31
799.519	28364.48
799.85	28251.04
800.182	28218.04
800.513	28282
800.844	27956.81
801.175	28239.74
801.506	28201.32
801.837	28013.75
802.168	27945.51
802.499	27933.08
802.83	27806.53
803.161	27728.34
803.491	27734.89
803.822	27634.33
804.153	27535.35
804.483	27501.9
804.814	27369.03
805.145	27360.44
805.475	27325.41
805.805	27232.53
806.136	27284.51
806.466	27298.07
806.796	27189.6
807.126	27007.45
807.457	27034.35
807.787	26988.02
808.117	26924.97
808.447	26831.87
808.777	27054.46
809.107	26835.03
809.436	26821.02
809.766	26712.32
810.096	26653.11
810.426	26567.24
810.755	26728.59
811.085	26562.04
811.414	26619.44
811.744	26421.71
812.073	26467.58
812.403	26469.39
812.732	26326.34
813.061	26286.79
813.39	26143.07
813.719	26167.25
814.049	26284.53
814.378	26267.36
814.707	26094.94
815.036	25968.61
815.365	25924.54
815.693	25682.06
816.022	25819.01
816.351	25585.8
816.68	25724.55
817.008	25644.1
817.337	25453.14
817.665	25462.18
817.994	25584.89
818.322	25615.4
818.651	25462.18
818.979	25330.89
819.307	25379.7
819.636	25321.85
819.964	25159.59
820.292	25287.95
820.62	25360.72
820.948	25281.17
821.276	25406.37
821.604	25355.75
821.932	25362.53
822.259	25367.5
822.587	25368.17
822.915	25280.04
823.243	25399.59
823.57	25424.67
823.898	25443.88
824.225	25335.41
824.553	25312.13
824.88	25481.17
825.207	25446.14
825.535	25334.5
825.862	25346.25
826.189	25196.65
826.516	25386.71
826.843	25602.74
827.17	25533.37
827.497	25488.17
827.824	25583.54
828.151	25582.63
828.478	25534.27
828.805	25676.64
829.131	25512.13
829.458	25511.22
829.785	25393.94
830.111	25593.71
830.438	25710.54
830.764	25729.97
831.09	25705.34
831.417	25742.63
831.743	25878.22
832.069	25743.76
832.395	25702.4
832.722	25681.39
833.048	25740.14
833.374	25737.2
833.7	25584.67
834.026	25710.76
834.351	25669.86
834.677	25628.96
835.003	25659.24
835.329	25760.71
835.654	25699.69
835.98	25575.85
836.306	25645
836.631	25539.7
836.956	25626.25
837.282	25512.8
837.607	25408.63
837.932	25299.93
838.258	25479.58
838.583	25380.6
838.908	25426.7
839.233	25458.34
839.558	25465.12
839.883	25418.79
840.208	25216.54
840.533	25318.23
840.858	25361.62
841.182	25506.7
841.507	25393.26
841.832	25181.29
842.156	25127.05
842.481	25246.37
842.805	25129.54
843.13	25056.77
843.454	24964.34
843.778	24844.12
844.103	24840.73
844.427	24883.22
844.751	24841.41
845.075	24729.32
845.399	24765.7
845.723	24619.04
846.047	24661.75
846.371	24587.86
846.695	24488.88
847.019	24392.83
847.343	24276.9
847.666	24060.41
847.99	24024.93
848.313	24106.97
848.637	23926.18
848.96	23964.6
849.284	23854.77
849.607	23689.35
849.931	23678.28
850.254	23611.84
850.577	23494.55
850.9	23390.83
851.223	23443.48
851.546	23229.93
851.869	23108.12
852.192	23144.5
852.515	23057.05
852.838	23000.1
853.161	23068.57
853.483	22961.01
853.806	22724.4
854.129	22723.95
854.451	22734.35
854.774	22624.07
855.096	22559.89
855.419	22592.88
855.741	22590.62
856.063	22355.37
856.385	22274.24
856.708	22309.95
857.03	22170.52
857.352	22253.23
857.674	22164.87
857.996	22108.83
858.318	22032.67
858.64	22020.47
858.961	22032.22
859.283	21858.21
859.605	21816.18
859.926	21768.04
860.248	21847.59
860.57	21793.13
860.891	21707.48
861.212	21640.36
861.534	21686.01
861.855	21606.69
862.176	21583.64
862.498	21702.06
862.819	21690.76
863.14	21592.91
863.461	21533.02
863.782	21537.54
864.103	21432.23
864.424	21449.18
864.745	21379.35
865.065	21263.42
865.386	21243.76
865.707	21256.19
866.027	21319.47
866.348	21241.5
866.668	21279.47
866.989	21246.7
867.309	21054.16
867.63	21249.64
867.95	21156.53
868.27	20974.17
868.59	21100.04
868.91	21039.48
869.23	20980.49
869.55	20974.17
869.87	21190.43
870.19	21077.67
870.51	21018.23
870.83	21039.93
871.15	20897.78
871.469	20933.49
871.789	20922.87
872.109	20797.9
872.428	20720.61
872.748	20824.57
873.067	20711.8
873.386	20921.96
873.706	20801.06
874.025	20737.56
874.344	20787.5
874.663	20738.47
874.982	20671.8
875.301	20679.26
875.62	20540.05
875.939	20552.71
876.258	20627.73
876.577	20601.29
876.896	20562.2
877.214	20552.71
877.533	20592.26
877.852	20546.83
878.17	20532.37
878.489	20508.19
878.807	20501.64
879.125	20399.04
879.444	20488.98
879.762	20444.91
880.08	20472.03
880.398	20257.35
880.716	20372.37
881.034	20316.33
881.352	20264.13
881.67	20173.28
881.988	20258.7
882.306	20110.91
882.624	20002.21
882.941	20010.12
883.259	19923.12
883.577	19887.19
883.894	19902.33
884.212	19906.4
884.529	19907.75
884.846	19885.16
885.164	19940.75
885.481	19866.62
885.798	19804.25
886.115	19747.31
886.432	19751.15
886.75	19667.53
887.067	19742.56
887.383	19562.68
887.7	19587.08
888.017	19516.58
888.334	19496.92
888.651	19550.93
888.967	19424.38
889.284	19255.57
889.6	19305.06
889.917	19168.79
890.233	19086.31
890.55	19037.49
890.866	19087.21
891.182	19102.8
891.498	19055.57
891.815	18888.12
892.131	18909.81
892.447	18944.16
892.763	18716.82
893.079	18773.77
893.395	18685.41
893.71	18722.02
894.026	18580.1
894.342	18664.85
894.657	18546.89
894.973	18535.13
895.289	18392.09
895.604	18520.67
895.92	18279.32
896.235	18260.79
896.55	18443.39
896.865	18338.3
897.181	18245.65
897.496	18258.98
897.811	18238.42
898.126	18033.23
898.441	17962.04
898.756	18031.87
899.071	17945.32
899.386	17943.29
899.7	17647.47
900.015	17722.5
900.33	17571.32
900.644	17460.13
900.959	17594.37
901.273	17537.42
901.588	17510.75
901.902	17419.46
902.216	17363.41
902.531	17300.82
902.845	17350.98
903.159	17196.19
903.473	17128.62
903.787	17199.35
904.101	17061.95
904.415	17126.36
904.729	16991.67
905.042	16725.01
905.356	16893.6
905.67	16719.14
905.984	16841.39
906.297	16672.36
906.611	16539.48
906.924	16561.4
907.237	16461.52
907.551	16486.15
907.864	16363.21
908.177	16304.68
908.491	16330.9
908.804	16233.73
909.117	16210.68
909.43	16043.22
909.743	16023.34
910.056	16079.61
910.368	15924.13
910.681	15906.73
910.994	15898.82
911.307	15853.62
911.619	15639.62
911.932	15721.87
912.244	15660.18
912.557	15570.69
912.869	15493.63
913.181	15409.57
913.494	15437.59
913.806	15263.13
914.118	15296.58
914.43	15241.66
914.742	15166.41
915.054	15207.76
915.366	15083.7
915.678	15043.02
915.99	15047.32
916.302	14942.23
916.613	14897.94
916.925	14727.32
917.236	14803.93
917.548	14719.64
917.859	14688.46
918.171	14622.92
918.482	14613.88
918.794	14461.34
919.105	14459.76
919.416	14266.09
919.727	14331.85
920.038	14258.86
920.349	14165.76
920.66	14130.28
920.971	14210.73
921.282	14025.65
921.593	13985.65
921.903	13882.83
922.214	13937.06
922.525	13787.24
922.835	13737.52
923.146	13659.33
923.456	13678.76
923.767	13592.89
924.077	13541.82
924.387	13493.23
924.697	13529.62
925.008	13445.32
925.318	13346.12
925.628	13343.18
925.938	13265.67
926.248	13159.23
926.558	13117.65
926.867	13148.84
927.177	13101.15
927.487	12975.05
927.796	12912.91
928.106	12839.46
928.416	12802.4
928.725	12848.28
929.034	12657.77
929.344	12818.67
929.653	12714.04
929.962	12634.05
930.271	12570.55
930.581	12511.79
930.89	12519.02
931.199	12438.35
931.508	12407.84
931.817	12392.24
932.125	12297.33
932.434	12296.88
932.743	12182.08
933.051	12155.87
933.36	12023.21
933.669	11982.76
933.977	11945.7
934.286	11922.65
934.594	11867.74
934.902	11818.93
935.21	11717.23
935.519	11733.05
935.827	11647.63
936.135	11625.94
936.443	11581.19
936.751	11508.2
937.059	11555.88
937.367	11506.39
937.674	11430.46
937.982	11407.86
938.29	11278.38
938.597	11279.96
938.905	11219.17
939.213	11229.79
939.52	11131.04
939.827	11209.23
940.135	11097.36
940.442	11032.05
940.749	10946.63
941.056	10998.38
941.363	10854.66
941.67	10872.28
941.977	10768.33
942.284	10714.32
942.591	10712.97
942.898	10703.02
943.205	10615.34
943.511	10567.66
943.818	10519.07
944.125	10486.31
944.431	10476.14
944.738	10405.86
945.044	10379.64
945.35	10414.67
945.657	10271.17
945.963	10314.11
946.269	10269.36
946.575	10244.73
946.881	10161.57
947.187	10097.84
947.493	10018.75
947.799	10005.19
948.105	9963.38
948.41	9882.93
948.716	9906.21
949.022	9903.27
949.327	9800.22
949.633	9740.11
949.938	9705.99
950.244	9753.67
950.549	9664.86
950.854	9632.54
951.16	9599.55
951.465	9539.44
951.77	9500.34
952.075	9376.5
952.38	9340.35
952.685	9380.57
952.99	9261.48
953.294	9284.08
953.599	9209.05
953.904	9195.04
954.209	9160.47
954.513	9136.51
954.818	9072.56
955.122	9008.83
955.426	9046.57
955.731	8963.41
956.035	8873.47
956.339	8867.82
956.643	8818.1
956.948	8764.54
957.252	8763.41
957.556	8829.85
957.86	8732
958.163	8695.17
958.467	8641.83
958.771	8659.46
959.075	8575.85
959.378	8544.89
959.682	8504.89
959.985	8423.08
960.289	8471.44
960.592	8393.93
960.896	8394.16
961.199	8343.54
961.502	8350.54
961.805	8292.47
962.108	8205.91
962.411	8122.98
962.714	8148.74
963.017	8192.58
963.32	8170.89
963.623	8038.69
963.926	8034.17
964.228	8004.34
964.531	7961.85
964.833	8007.95
965.136	7878.24
965.438	7840.95
965.741	7817.68
966.043	7749.65
966.345	7718.24
966.648	7783.33
966.95	7740.62
967.252	7622.2
967.554	7642.77
967.856	7628.75
968.158	7550.56
968.46	7542.43
968.761	7516.44
969.063	7528.19
969.365	7431.7
969.666	7450.91
969.968	7358.93
970.269	7319.38
970.571	7303.57
970.872	7282.32
971.174	7179.5
971.475	7217.01
971.776	7190.35
972.077	7114.64
972.378	7089.11
972.679	7064.48
972.98	7071.71
973.281	6989.22
973.582	6969.79
973.883	6951.03
974.183	6969.79
974.484	6916.23
974.785	6810.92
975.085	6862.67
975.386	6823.58
975.686	6809.11
975.986	6774.09
976.287	6775.44
976.587	6687.99
976.887	6740.42
977.187	6593.75
977.487	6678.5
977.787	6583.58
978.087	6618.84
978.387	6560.53
978.687	6554.21
978.987	6488.45
979.286	6439.41
979.586	6414.77
979.885	6393.08
980.185	6335
980.484	6370.93
980.784	6309.01
981.083	6343.14
981.382	6323.03
981.682	6299.07
981.981	6203.25
982.28	6196.02
982.579	6130.94
982.878	6208.9
983.177	6137.27
983.475	6114.44
983.774	6056.82
984.073	5981.34
984.372	5905.41
984.67	5963.49
984.969	5964.62
985.267	5905.41
985.566	5901.12
985.864	5866.54
986.162	5860.44
986.461	5787.45
986.759	5751.74
987.057	5709.71
987.355	5675.36
987.653	5696.6
987.951	5657.73
988.249	5644.63
988.547	5609.6
988.844	5576.38
989.142	5594.46
989.44	5512.88
989.737	5494.12
990.035	5549.03
990.332	5459.09
990.63	5452.09
990.927	5422.48
991.224	5412.54
991.521	5355.82
991.819	5331.41
992.116	5354.92
992.413	5297.06
992.71	5227.69
993.006	5287.35
993.303	5254.13
993.6	5243.51
993.897	5168.25
994.193	5175.94
994.49	5136.62
994.787	5140.23
995.083	5086.67
995.379	5010.97
995.676	4945.89
995.972	4967.58
996.268	4930.97
996.565	4967.36
996.861	4884.87
997.157	4878.54
997.453	4895.72
997.749	4862.27
998.044	4816.17
998.34	4804.65
998.636	4775.27
998.932	4734.82
999.227	4702.05
999.523	4710.19
999.818	4713.58
1000.114	4613.24
1000.409	4655.5
1000.704	4580.7
1001	4532.11
1001.295	4513.81
1001.59	4554.71
1001.885	4488.05
1002.18	4429.74
1002.475	4417.77
1002.77	4422.96
1003.065	4389.74
1003.359	4343.42
1003.654	4354.72
1003.949	4294.83
1004.243	4283.76
1004.538	4228.17
1004.832	4222.06
1005.127	4245.11
1005.421	4149.07
1005.715	4130.54
1006.009	4171.22
1006.304	4131.9
1006.598	4072.01
1006.892	4051
1007.186	4057.32
1007.48	4065.68
1007.773	3992.01
1008.067	3979.81
1008.361	3938.23
1008.655	3947.04
1008.948	3863.43
1009.242	3942.52
1009.535	3892.58
1009.829	3867.27
1010.122	3781.62
1010.415	3809.19
1010.708	3748.18
1011.001	3768.52
1011.295	3750.89
1011.588	3667.5
1011.881	3637.45
1012.173	3635.86
1012.466	3685.58
1012.759	3607.17
1013.052	3644.45
1013.344	3576.88
1013.637	3533.49
1013.93	3478.35
1014.222	3494.85
1014.514	3473.61
1014.807	3432.25
1015.099	3419.83
1015.391	3385.93
1015.683	3360.62
1015.976	3335.76
1016.268	3339.38
1016.56	3297.12
1016.851	3263.9
1017.143	3289.66
1017.435	3274.52
1017.727	3204.92
1018.018	3230
1018.31	3188.19
1018.602	3180.74
1018.893	3175.54
1019.185	3102.32
1019.476	3119.04
1019.767	3113.39
1020.058	3068.87
1020.35	3017.12
1020.641	2938.93
1020.932	2985.94
1021.223	2945.04
1021.514	2954.98
1021.804	2937.35
1022.095	2919.95
1022.386	2864.13
1022.677	2825.26
1022.967	2840.41
1023.258	2830.69
1023.548	2809.9
1023.839	2760.63
1024.129	2797.47
1024.419	2752.95
1024.709	2669.34
1025	2695.78
1025.29	2668.21
1025.58	2676.57
1025.87	2631.15
1026.16	2633.41
1026.449	2557.7
1026.739	2545.72
1027.029	2548.21
1027.319	2534.88
1027.608	2521.77
1027.898	2487.42
1028.187	2463.47
1028.477	2479.74
1028.766	2451.04
1029.055	2443.35
1029.344	2381.89
1029.634	2384.15
1029.923	2332.17
1030.212	2358.61
1030.501	2336.92
1030.79	2315
1031.078	2295.11
1031.367	2255.79
1031.656	2300.76
1031.945	2246.3
1032.233	2250.82
1032.522	2205.62
1032.81	2217.37
1033.099	2170.82
1033.387	2153.42
1033.675	2149.35
1033.963	2147.77
1034.251	2156.13
1034.54	2118.84
1034.828	2091.72
1035.116	2039.07
1035.403	2066.64
1035.691	2047.21
1035.979	2038.84
1036.267	2036.13
1036.554	1973.08
1036.842	1991.61
1037.129	1965.63
1037.417	1949.13
1037.704	1942.8
1037.992	1929.7
1038.279	1897.38
1038.566	1883.37
1038.853	1883.37
1039.14	1883.37
