Data from copper_heatsink_FLMS001491_033.txt Node
Date: Tue Feb 07 10:49:50 GMT 2017
User: dcchb
Spectrometer: FLMS00149
Trigger mode: 0
Integration Time (sec): 2.000000E-2
Scans to average: 10
Electric dark correction enabled: true
Nonlinearity correction enabled: false
Boxcar width: 0
XAxis mode: Wavelengths
Number of Pixels in Spectrum: 2048
>>>>>Begin Spectral Data<<<<<
341.393	-12.58
341.776	-12.58
342.16	-12.58
342.543	-71.57
342.927	-67.95
343.31	-76.54
343.693	-68.63
344.077	-55.07
344.46	-62.98
344.843	-60.49
345.226	-41.74
345.61	-33.37
345.993	-11.91
346.376	6.17
346.759	-9.65
347.142	26.28
347.525	36.91
347.908	53.4
348.291	69.67
348.674	98.6
349.057	129.33
349.44	134.76
349.823	140.63
350.206	161.2
350.588	215.21
350.971	238.48
351.354	263.11
351.737	239.61
352.119	247.52
352.502	268.31
352.884	306.05
353.267	291.59
353.65	308.09
354.032	326.62
354.414	323.9
354.797	333.62
355.179	337.91
355.562	350.57
355.944	325.49
356.326	332.04
356.709	358.93
357.091	352.38
357.473	369.78
357.855	338.59
358.238	363.9
358.62	360.51
359.002	354.86
359.384	357.8
359.766	345.15
360.148	342.21
360.53	355.32
360.912	363.68
361.294	352.6
361.676	364.58
362.057	337.69
362.439	355.54
362.821	359.16
363.203	346.5
363.584	348.99
363.966	331.36
364.348	344.47
364.729	359.84
365.111	331.59
365.493	342.43
365.874	360.06
366.256	317.35
366.637	332.49
367.019	307.63
367.4	324.58
367.781	343.79
368.163	339.04
368.544	325.03
368.925	335.2
369.306	355.77
369.688	337.69
370.069	334.3
370.45	337.01
370.831	342.43
371.212	343.56
371.593	337.91
371.974	357.8
372.355	323.45
372.736	324.81
373.117	315.54
373.498	347.86
373.879	335.66
374.26	343.79
374.641	346.5
375.021	342.21
375.402	356.67
375.783	345.82
376.163	337.24
376.544	343.34
376.925	367.52
377.305	336.33
377.686	363.45
378.066	369.78
378.447	354.86
378.827	368.65
379.208	358.71
379.588	355.09
379.968	366.16
380.349	372.04
380.729	356.45
381.109	363.45
381.489	370.91
381.87	367.52
382.25	346.73
382.63	378.14
383.01	371.59
383.39	363.68
383.77	379.5
384.15	409.33
384.53	379.27
384.91	369.55
385.29	389.66
385.67	381.08
386.049	391.25
386.429	391.47
386.809	390.12
387.189	389.44
387.568	385.37
387.948	395.77
388.328	365.03
388.707	392.15
389.087	413.17
389.466	405.48
389.846	407.07
390.225	413.85
390.605	418.59
390.984	414.52
391.363	429.89
391.743	394.86
392.122	402.77
392.501	421.08
392.881	413.39
393.26	411.81
393.639	430.12
394.018	439.83
394.397	439.83
394.776	428.53
395.155	424.47
395.534	443.45
395.913	435.09
396.292	439.16
396.671	428.08
397.05	444.35
397.429	441.87
397.808	442.77
398.186	445.71
398.565	469.44
398.944	429.89
399.323	454.52
399.701	462.66
400.08	441.87
400.458	433.96
400.837	449.55
401.215	479.15
401.594	463.34
401.972	471.47
402.351	470.79
402.729	489.1
403.107	468.98
403.486	484.58
403.864	473.28
404.242	490.68
404.62	493.39
404.999	475.99
405.377	489.32
405.755	508.53
406.133	511.02
406.511	493.16
406.889	493.16
407.267	498.81
407.645	503.33
408.023	518.93
408.401	499.27
408.779	499.72
409.156	522.09
409.534	542.66
409.912	524.35
410.29	530.45
410.667	515.54
411.045	559.15
411.422	553.5
411.8	550.34
412.178	559.6
412.555	547.4
412.933	575.2
413.31	562.77
413.687	558.25
414.065	564.35
414.442	587.85
414.819	571.58
415.197	598.47
415.574	596.67
415.951	582.88
416.328	596.67
416.705	610.22
417.082	583.11
417.46	595.76
417.837	614.29
418.214	600.96
418.591	612.71
418.967	627.4
419.344	622.88
419.721	614.74
420.098	623.78
420.475	623.78
420.852	637.12
421.228	627.4
421.605	628.3
421.982	640.51
422.358	663.1
422.735	656.1
423.111	663.78
423.488	663.33
423.864	676.89
424.241	687.51
424.617	661.75
424.994	663.1
425.37	674.63
425.746	686.61
426.123	701.07
426.499	699.94
426.875	708.98
427.251	725.93
427.627	746.49
428.003	722.99
428.379	740.39
428.756	727.28
429.132	733.84
429.507	753.5
429.883	731.35
430.259	751.46
430.635	761.18
431.011	760.95
431.387	781.74
431.763	785.36
432.138	794.63
432.514	817.9
432.89	829.2
433.265	835.53
433.641	817.9
434.016	830.33
434.392	831.69
434.767	874.17
435.143	850.44
435.518	870.56
435.894	867.39
436.269	882.76
436.644	875.08
437.02	877.56
437.395	884.57
437.77	881.4
438.145	916.66
438.52	913.04
438.895	928.41
439.271	909.2
439.646	925.24
440.021	955.75
440.395	986.49
440.77	928.41
441.145	976.32
441.52	964.79
441.895	968.18
442.27	979.71
442.645	943.55
443.019	976.99
443.394	988.75
443.769	998.91
444.143	980.38
444.518	1020.38
444.892	1021.06
445.267	986.03
445.641	1017.9
446.016	1004.79
446.39	1008.63
446.764	1037.33
447.139	1024.22
447.513	1024.45
447.887	1043.21
448.262	1050.21
448.636	1054.05
449.01	1077.56
449.384	1066.94
449.758	1083.88
450.132	1115.07
450.506	1104.45
450.88	1119.14
451.254	1110.32
451.628	1125.46
452.002	1108.97
452.376	1125.24
452.75	1144.9
453.123	1148.97
453.497	1154.62
453.871	1176.31
454.244	1205.46
454.618	1204.56
454.992	1212.24
455.365	1227.16
455.739	1260.15
456.112	1239.81
456.486	1283.88
456.859	1273.03
457.232	1295.86
457.606	1289.53
457.979	1294.5
458.352	1328.4
458.725	1342.86
459.099	1325.23
459.472	1366.14
459.845	1377.44
460.218	1409.53
460.591	1426.47
460.964	1406.14
461.337	1428.96
461.71	1446.81
462.083	1487.72
462.456	1472.57
462.829	1512.12
463.201	1494.04
463.574	1509.18
463.947	1562.52
464.32	1570.2
464.692	1575.4
465.065	1587.15
465.438	1619.01
465.81	1619.69
466.183	1643.19
466.555	1677.31
466.928	1686.81
467.3	1742.4
467.672	1711.44
468.045	1766.58
468.417	1770.65
468.789	1757.54
469.161	1803.19
469.534	1803.41
469.906	1875.28
470.278	1859.23
470.65	1901.72
471.022	1951.43
471.394	1970.19
471.766	1978.32
472.138	2008.83
472.51	2019.68
472.882	2068.04
473.253	2090.64
473.625	2120.69
473.997	2165.89
474.369	2162.73
474.74	2208.37
475.112	2248.83
475.484	2258.77
475.855	2290.41
476.227	2338.31
476.598	2372.21
476.97	2374.25
477.341	2467.8
477.713	2491.98
478.084	2502.83
478.455	2571.3
478.827	2600.45
479.198	2677.74
479.569	2674.58
479.94	2782.6
480.311	2767.91
480.682	2800.22
481.053	2898.3
481.424	2944.63
481.795	2962.93
482.166	3010.39
482.537	2994.57
482.908	3109.59
483.279	3117.5
483.65	3164.96
484.021	3309.14
484.391	3312.07
484.762	3345.07
485.133	3365.63
485.503	3417.61
485.874	3488.79
486.244	3522.92
486.615	3654.66
486.985	3645.62
487.356	3723.36
487.726	3746.19
488.097	3791.16
488.467	3837.48
488.837	3929.91
489.207	3972.4
489.578	4005.84
489.948	4016.69
490.318	4136.46
490.688	4118.15
491.058	4172.84
491.428	4320.41
491.798	4370.13
492.168	4428.2
492.538	4439.05
492.908	4502.33
493.278	4555.88
493.648	4604.02
494.017	4658.93
494.387	4710.46
494.757	4735.99
495.126	4825.25
495.496	4776.22
495.866	4889.21
496.235	4945.03
496.605	5005.36
496.974	4990.9
497.344	5059.82
497.713	5140.95
498.082	5189.54
498.452	5216.2
498.821	5243.1
499.19	5236.77
499.559	5359.93
499.928	5363.77
500.298	5479.7
500.667	5489.42
501.036	5494.39
501.405	5605.12
501.774	5613.03
502.143	5693.25
502.512	5700.26
502.88	5743.2
503.249	5833.14
503.618	5851.44
503.987	5895.51
504.356	5953.81
504.724	5975.96
505.093	6013.02
505.462	6080.36
505.83	6121.94
506.199	6187.7
506.567	6229.06
506.936	6261.6
507.304	6391.99
507.672	6428.38
508.041	6467.25
508.409	6504.53
508.777	6568.26
509.145	6681.02
509.514	6664.08
509.882	6772.1
510.25	6788.14
510.618	6798.31
510.986	6853.68
511.354	6888.25
511.722	7037.4
512.09	7104.06
512.458	7121.69
512.826	7222.71
513.193	7278.98
513.561	7317.84
513.929	7330.95
514.297	7441
514.664	7533.88
515.032	7576.37
515.4	7686.2
515.767	7709.25
516.135	7775.69
516.502	7773.43
516.869	7947.21
517.237	7953.76
517.604	7937.94
517.972	8115.11
518.339	8141.78
518.706	8218.16
519.073	8296.12
519.44	8294.32
519.808	8425.16
520.175	8539.06
520.542	8617.47
520.909	8756.9
521.276	8671.93
521.643	8785.83
522.009	8899.05
522.376	9006.61
522.743	9023.56
523.11	9138.81
523.477	9259.26
523.843	9360.28
524.21	9419.03
524.577	9536.09
524.943	9595.98
525.31	9652.25
525.676	9769.76
526.043	9846.37
526.409	9893.6
526.776	10073.48
527.142	10077.77
527.508	10212.01
527.874	10287.71
528.241	10375.62
528.607	10398.89
528.973	10531.77
529.339	10576.52
529.705	10705.1
530.071	10781.48
530.437	10850.63
530.803	10966.56
531.169	11136.73
531.535	11142.83
531.901	11248.14
532.267	11296.04
532.632	11326.55
532.998	11444.52
533.364	11437.51
533.73	11583.04
534.095	11759.31
534.461	11844.28
534.826	11877.72
535.192	11879.53
535.557	12023.03
535.923	12063.03
536.288	12240.65
536.653	12224.61
537.019	12221.22
537.384	12375.56
537.749	12530.59
538.114	12549.57
538.479	12574.43
538.845	12705.05
539.21	12731.49
539.575	12851.48
539.94	12867.98
540.305	13023.23
540.67	12970.35
541.034	13073.4
541.399	13234.52
541.764	13305.71
542.129	13406.05
542.494	13456.89
542.858	13572.6
543.223	13518.81
543.587	13717
543.952	13808.52
544.316	13823.44
544.681	13915.64
545.045	14039.93
545.41	14089.42
545.774	14117.67
546.138	14129.19
546.503	14410.99
546.867	14389.75
547.231	14637.2
547.595	14591.33
547.959	14790.87
548.324	14908.38
548.688	14883.3
549.052	14984.76
549.416	15186.34
549.779	15136.85
550.143	15364.64
550.507	15484.41
550.871	15635.59
551.235	15612.09
551.599	15870.16
551.962	15883.95
552.326	16090.04
552.689	16161.68
553.053	16215.69
553.417	16328.91
553.78	16646.41
554.143	16639.86
554.507	16772.74
554.87	16989
555.234	17111.03
555.597	17253.85
555.96	17405.49
556.323	17471.25
556.686	17554.41
557.05	17783.56
557.413	18017.68
557.776	18083.66
558.139	18325.69
558.502	18415.18
558.865	18584.21
559.228	18864.43
559.59	18904.21
559.953	19112.56
560.316	19373.35
560.679	19545.77
561.041	19675.94
561.404	19852.88
561.767	20090.62
562.129	20197.73
562.492	20536.93
562.854	20602.92
563.217	20814.21
563.579	20960.2
563.941	21262.11
564.304	21458.04
564.666	21707.07
565.028	21880.4
565.39	22102.09
565.753	22297.79
566.115	22634.28
566.477	22915.4
566.839	22904.1
567.201	23213.47
567.563	23434.03
567.925	23803.74
568.287	23856.17
568.648	24049.83
569.01	24378.86
569.372	24651.63
569.734	24740.89
570.095	24986.76
570.457	25346.52
570.819	25361.89
571.18	25667.64
571.542	25937.24
571.903	26223.79
572.265	26415.87
572.626	26617.9
572.987	26858.57
573.349	26989.64
573.71	27317.77
574.071	27558.22
574.432	27722.96
574.794	28079.56
575.155	28270.29
575.516	28381.92
575.877	28663.95
576.238	28828.69
576.599	29088.35
576.96	29302.58
577.32	29470.93
577.681	29677.03
578.042	29919.28
578.403	30072.73
578.763	30338.71
579.124	30518.82
579.485	30814.63
579.845	30955.64
580.206	31137.56
580.566	31203.32
580.927	31452.12
581.287	31771.66
581.648	31746.81
582.008	32015.95
582.368	32092.56
582.728	32276.06
583.089	32191.99
583.449	32382.5
583.809	32748.14
584.169	32869.94
584.529	32965.08
584.889	33481.22
585.249	33392.64
585.609	33323.71
585.969	33717.83
586.329	33644.16
586.688	33850.03
587.048	34036.01
587.408	34195.1
587.768	34212.96
588.127	34397.36
588.487	34597.13
588.846	34725.71
589.206	34719.61
589.565	34833.73
589.925	35126.15
590.284	35088.41
590.643	35285.02
591.003	35465.13
591.362	35635.97
591.721	35766.14
592.08	35890.65
592.44	36171.77
592.799	36001.84
593.158	36164.32
593.517	36322.51
593.876	36473.46
594.235	36468.49
594.593	36655.6
594.952	36931.53
595.311	36885.88
595.67	37033.67
596.029	37388.24
596.387	37456.49
596.746	37624.62
597.104	37599.08
597.463	37754.78
597.822	37919.07
598.18	37920.43
598.538	37919.3
598.897	38314.09
599.255	38270.02
599.613	38784.81
599.972	38464.37
600.33	38816.9
600.688	38796.56
601.046	39081.75
601.404	39253.5
601.762	39240.39
602.12	39415.53
602.478	39528.97
602.836	39778.69
603.194	39623.66
603.552	39822.07
603.91	39975.29
604.268	40231.56
604.625	40118.11
604.983	40509.97
605.341	40309.97
605.698	40668.61
606.056	40773.69
606.413	40839.67
606.771	41107.24
607.128	41294.58
607.485	41175.49
607.843	41220
608.2	41523.95
608.557	41877.84
608.914	41807.78
609.272	41981.34
609.629	42149.02
609.986	42287.09
610.343	42180.88
610.7	42633.98
611.057	42568.22
611.414	42724.6
611.771	42859.51
612.127	43279.38
612.484	43247.75
612.841	43472.37
613.198	43345.15
613.554	43514.86
613.911	43734.29
614.267	43819.94
614.624	43814.74
614.98	43988.29
615.337	44386.25
615.693	44293.37
616.05	44448.39
616.406	44755.96
616.762	44702.85
617.118	44792.57
617.475	44804.77
617.831	45002.05
618.187	45044.54
618.543	45211.09
618.899	45399.1
619.255	45497.18
619.611	45412.66
619.967	45555.71
620.323	45788.02
620.678	45804.06
621.034	45888.36
621.39	45919.77
621.746	45960.67
622.101	46421.22
622.457	46155.47
622.812	46401.11
623.168	46439.08
623.523	46477.04
623.879	46795.22
624.234	46542.12
624.589	46680.88
624.945	46793.64
625.3	46885.62
625.655	46853.98
626.01	46971.26
626.365	47018.04
626.72	47075.67
627.075	47224.82
627.43	47135.55
627.785	47110.02
628.14	47425.49
628.495	47356.11
628.85	47408.09
629.205	47411.93
629.559	47731.47
629.914	47401.31
630.269	47629.78
630.623	47520.86
630.978	47543.91
631.332	47912.71
631.687	47756.56
632.041	47704.13
632.396	47724.47
632.75	47781.19
633.104	47833.84
633.459	47702.32
633.813	47833.84
634.167	47940.96
634.521	47938.47
634.875	48158.8
635.229	48033.16
635.583	47775.54
635.937	47962.65
636.291	48006.04
636.645	48127.84
636.999	47857.8
637.352	48162.65
637.706	47829.77
638.06	48115.87
638.413	48115.42
638.767	48027.06
639.121	48084.68
639.474	48118.81
639.828	48051.91
640.181	48163.1
640.534	48266.15
640.888	48170.1
641.241	48074.74
641.594	48153.61
641.947	48172.82
642.301	48186.15
642.654	48210.33
643.007	48239.71
643.36	48252.59
643.713	48236.99
644.066	48410.1
644.419	48070.45
644.771	48026.38
645.124	47701.19
645.477	47550.68
645.83	47415.77
646.182	47376.23
646.535	47461.2
646.888	47545.49
647.24	47377.13
647.593	47667.97
647.945	47661.87
648.298	47561.31
648.65	47450.35
649.002	47353.63
649.355	47610.57
649.707	47353.4
650.059	47464.36
650.411	48125.58
650.763	48135.3
651.115	48610.32
651.467	48586.82
651.819	48615.29
652.171	48381.17
652.523	48382.08
652.875	48399.02
653.227	48374.84
653.578	48740.48
653.93	48493.26
654.282	48486.48
654.633	48345.92
654.985	48560.15
655.337	48567.61
655.688	48426.14
656.039	48722.18
656.391	48368.74
656.742	48616.19
657.094	48610.32
657.445	48831.1
657.796	48685.8
658.147	48723.08
658.498	48845.79
658.849	48918.33
659.2	48893.47
659.551	48897.32
659.902	48975.05
660.253	48741.39
660.604	48958.11
660.955	48889.18
661.306	49027.93
661.656	48957.65
662.007	48984.09
662.358	48914.04
662.708	48901.84
663.059	49012.34
663.409	48807.15
663.76	49120.36
664.11	49113.81
664.461	49141.6
664.811	49067.48
665.161	49145.9
665.511	48939.35
665.862	49212.11
666.212	49324.2
666.562	49250.53
666.912	49168.04
667.262	49194.71
667.612	49154.71
667.962	49380.69
668.312	49292.11
668.662	49525.55
669.011	49470.41
669.361	49451.43
669.711	49446.91
670.06	49363.29
670.41	49429.05
670.76	49390.18
671.109	49490.07
671.459	49488.71
671.808	49414.14
672.157	49606.45
672.507	49453.69
672.856	49512.44
673.205	49527.58
673.554	49673.79
673.904	49576.39
674.253	49664.08
674.602	49615.72
674.951	49137.08
675.3	48891.89
675.649	49670.4
675.998	49502.72
676.346	49696.17
676.695	49853.45
677.044	49462.5
677.393	49645.32
677.741	49733.45
678.09	49550.63
678.438	49590.86
678.787	49743.62
679.135	49799.89
679.484	49431.99
679.832	49747.69
680.181	49541.59
680.529	49730.97
680.877	49533.01
681.225	49387.25
681.573	49573.68
681.922	49414.82
682.27	49356.74
682.618	49574.81
682.966	49503.18
683.314	49498.88
683.661	49317.19
684.009	49255.95
684.357	49111.1
684.705	49068.61
685.053	49180.92
685.4	49249.17
685.748	49034.26
686.095	49076.97
686.443	48991.55
686.79	48963.08
687.138	49103.64
687.485	49174.37
687.832	49029.52
688.18	49138.89
688.527	48806.92
688.874	48941.83
689.221	48859.35
689.568	48651.67
689.915	48595.63
690.262	48718.11
690.609	48658
690.956	48488.97
691.303	48404.22
691.65	48293.94
691.997	48355.41
692.344	48082.87
692.69	48300.72
693.037	48251.23
693.383	47937.79
693.73	48119.94
694.077	47790.45
694.423	47863.44
694.769	47783.22
695.116	47886.04
695.462	47820.28
695.808	47670.23
696.155	47855.99
696.501	47466.85
696.847	47510.01
697.193	47297.58
697.539	47469.56
697.885	47259.17
698.231	47044.71
698.577	47175.78
698.923	47100.98
699.269	46990.25
699.614	46799.52
699.96	46898.72
700.306	46844.94
700.651	46567.21
700.997	46577.38
701.342	46648.79
701.688	46558.62
702.033	46344.39
702.379	46466.65
702.724	46287.44
703.069	46416.25
703.415	46013.32
703.76	45930.39
704.105	45901.69
704.45	45849.94
704.795	45595.93
705.14	45621.92
705.485	45680.23
705.83	45409.72
706.175	45583.96
706.52	45586.67
706.865	45454.02
707.209	45292.21
707.554	45332.44
707.899	45409.27
708.243	45211.09
708.588	45199.79
708.932	44940.36
709.277	44831.43
709.621	44881.38
709.966	44699.01
710.31	44966.57
710.654	44482.52
710.998	44581.95
711.342	44683.19
711.687	44563.19
712.031	44507.6
712.375	44351.9
712.719	44465.34
713.063	44338.11
713.407	44447.26
713.75	44205.46
714.094	44296.31
714.438	44257.89
714.782	44202.52
715.125	43807.96
715.469	43958.69
715.812	43912.81
716.156	43791.24
716.499	43730.67
716.843	43859.71
717.186	43530
717.53	43875.53
717.873	44002.98
718.216	43748.3
718.559	43651.8
718.902	43218.82
719.246	43443.67
719.589	43380.4
719.932	43163.23
720.275	43178.37
720.617	43221.08
720.96	43082.33
721.303	43234.64
721.646	43280.51
721.989	43128.88
722.331	43238.48
722.674	43188.77
723.016	43254.07
723.359	43125.72
723.701	43100.41
724.044	42872.39
724.386	42680.76
724.729	42902.45
725.071	42697.48
725.413	42595.56
725.755	42677.82
726.097	42497.48
726.439	42494.77
726.782	42536.35
727.124	42696.12
727.465	42470.37
727.807	42503.36
728.149	42354.89
728.491	42378.62
728.833	42489.12
729.175	42331.39
729.516	42161.67
729.858	42022.24
730.199	42234.89
730.541	42219.07
730.882	42021.34
731.224	42099.08
731.565	41905.18
731.906	41939.53
732.248	42069.92
732.589	41876.48
732.93	41646.21
733.271	41816.37
733.612	41897.95
733.953	41983.6
734.294	41745.41
734.635	41514.69
734.976	41642.82
735.317	41573.67
735.658	41720.56
735.999	41542.03
736.339	41377.74
736.68	41408.7
737.021	41420.45
737.361	41112.66
737.702	41314.46
738.042	41287.12
738.383	41255.48
738.723	41381.36
739.063	41358.31
739.404	41228.37
739.744	41145.43
740.084	41065.88
740.424	41161.02
740.764	40970.29
741.104	41121.48
741.444	40877.41
741.784	40831.09
742.124	41007.35
742.464	40880.8
742.804	40928.71
743.143	40903.18
743.483	40728.49
743.823	40624.77
744.162	40730.75
744.502	40854.59
744.841	40664.54
745.181	40791.54
745.52	40613.24
745.86	40538.21
746.199	40459.57
746.538	40539.34
746.877	40562.62
747.216	40455.05
747.556	40464.54
747.895	40521.04
748.234	40321.04
748.573	40124.21
748.911	40199.01
749.25	40139.13
749.589	39949.98
749.928	39984.33
750.267	40161.73
750.605	39965.35
750.944	39958.79
751.283	39771.45
751.621	39978.45
751.96	39675.86
752.298	39709.31
752.636	39798.12
752.975	39537.56
753.313	39408.07
753.651	39504.34
753.989	39433.84
754.327	39270.45
754.666	39094.18
755.004	39161.75
755.342	39260.06
755.679	39162.66
756.017	39048.99
756.355	39114.75
756.693	38967.86
757.031	39019.38
757.368	38790.46
757.706	38771.48
758.044	38608.77
758.381	38641.09
758.719	38421.43
759.056	38517.02
759.394	38419.85
759.731	38086.07
760.068	38028.9
760.405	38048.79
760.743	37978.51
761.08	37935.8
761.417	37741.23
761.754	37762.02
762.091	37762.92
762.428	37462.14
762.765	37309.82
763.102	37517.05
763.438	37261.69
763.775	37172.2
764.112	37212.65
764.449	37084.97
764.785	37062.37
765.122	36843.62
765.458	36806.11
765.795	36728.37
766.131	36624.42
766.467	36514.36
766.804	36406.12
767.14	36119.35
767.476	36291.09
767.812	36192.57
768.148	36341.26
768.485	36129.29
768.821	36012.91
769.157	35953.48
769.492	35845.68
769.828	35692.47
770.164	35573.15
770.5	35330.67
770.836	35310.1
771.171	35213.83
771.507	35248.64
771.842	35034.63
772.178	34926.16
772.513	34819.72
772.849	34543.34
773.184	34460.63
773.519	34638.71
773.855	34456.34
774.19	34426.28
774.525	34218.15
774.86	34208.89
775.195	34101.09
775.53	34127.53
775.865	33876.69
776.2	33612.07
776.535	33410.72
776.87	33511.28
777.205	33424.28
777.539	33253.21
777.874	33430.83
778.209	32957.85
778.543	32969.6
778.878	32729.83
779.212	32802.6
779.547	32524.19
779.881	32596.73
780.215	32300.69
780.55	32550.63
780.884	32301.82
781.218	32343.4
781.552	32280.35
781.886	32219.56
782.22	31855.73
782.554	31918.1
782.888	31585
783.222	31492.58
783.556	31380.49
783.889	31418.45
784.223	31198.12
784.557	31093.72
784.89	31241.51
785.224	31141.85
785.557	31091.23
785.891	30893.5
786.224	30829.09
786.558	30815.31
786.891	30594.29
787.224	30524.24
787.557	30415.77
787.891	30206.06
788.224	30163.12
788.557	30235.89
788.89	29984.37
789.223	30005.16
789.556	29725.39
789.888	29654.66
790.221	29675.67
790.554	29404.72
790.887	29543.02
791.219	29430.03
791.552	29453.99
791.884	29264.61
792.217	29207.21
792.549	29168.8
792.882	28985.3
793.214	28807.9
793.546	28916.37
793.879	28849.26
794.211	28770.84
794.543	28806.77
794.875	28721.58
795.207	28605.42
795.539	28526.33
795.871	28454.92
796.203	28275.71
796.535	28168.6
796.867	28127.01
797.198	27976.51
797.53	28071.2
797.862	27853.12
798.193	27875.04
798.525	27721.15
798.856	27731.32
799.188	27360.26
799.519	27339.46
799.85	27348.5
800.182	27334.49
800.513	27359.13
800.844	27029.19
801.175	27096.31
801.506	27139.24
801.837	26869.19
802.168	26905.8
802.499	26853.6
802.83	26746.26
803.161	26747.39
803.491	26747.16
803.822	26707.84
804.153	26667.17
804.483	26514.63
804.814	26300.17
805.145	26431.92
805.475	26256.33
805.805	26121.19
806.136	26076
806.466	26197.8
806.796	26197.57
807.126	25838.49
807.457	25903.57
807.787	25926.85
808.117	25779.05
808.447	25726.85
808.777	25959.84
809.107	25705.16
809.436	25618.15
809.766	25626.52
810.096	25480.08
810.426	25398.95
810.755	25316.69
811.085	25362.57
811.414	25321.21
811.744	25245.73
812.073	25245.06
812.403	25233.53
812.732	25007.55
813.061	25078.73
813.39	24827.21
813.719	24747.22
814.049	24935.91
814.378	24824.05
814.707	24735.24
815.036	24707.22
815.365	24604.4
815.693	24345.65
816.022	24417.96
816.351	24325.53
816.68	24208.93
817.008	24318.3
817.337	24075.82
817.665	24104.3
817.994	24218.42
818.322	24262.94
818.651	24008.03
818.979	23966.9
819.307	24004.86
819.636	23907.69
819.964	23737.3
820.292	23932.1
820.62	23936.62
820.948	23810.97
821.276	24010.74
821.604	23749.95
821.932	23907.01
822.259	23876.05
822.587	23715.61
822.915	23787.47
823.243	23862.04
823.57	23828.6
823.898	23930.06
824.225	23897.97
824.553	23806.68
824.88	23732.1
825.207	23797.41
825.535	23749.95
825.862	23823.62
826.189	23741.59
826.516	23857.52
826.843	23937.52
827.17	23888.26
827.497	23973.68
827.824	23949.72
828.151	24105.65
828.478	24149.04
828.805	24040.12
829.131	24081.02
829.458	23902.72
829.785	23816.85
830.111	23905.2
830.438	24091.19
830.764	24012.55
831.09	24025.88
831.417	23944.53
831.743	24084.18
832.069	24037.86
832.395	23834.7
832.722	24034.47
833.048	23893
833.374	23992.89
833.7	23722.38
834.026	23851.19
834.351	23953.11
834.677	23731.88
835.003	23881.48
835.329	23910.85
835.654	23815.49
835.98	23637.87
836.306	23781.37
836.631	23554.25
836.956	23646.45
837.282	23665.89
837.607	23571.88
837.932	23539.34
838.258	23672.22
838.583	23539.11
838.908	23456.85
839.233	23386.8
839.558	23382.96
839.883	23304.32
840.208	23359.23
840.533	23356.29
840.858	23395.39
841.182	23368.27
841.507	23288.95
841.832	23234.26
842.156	23168.73
842.481	23191.1
842.805	23039.01
843.13	23056.64
843.454	22997.66
843.778	22910.65
844.103	22751.56
844.427	22747.27
844.751	22794.5
845.075	22703.2
845.399	22801.73
845.723	22640.15
846.047	22683.54
846.371	22347.73
846.695	22486.49
847.019	22254.17
847.343	22260.28
847.666	22125.14
847.99	22107.74
848.313	22099.38
848.637	21912.71
848.96	21865.48
849.284	21834.3
849.607	21689.22
849.931	21580.97
850.254	21421.43
850.577	21386.63
850.9	21363.12
851.223	21387.53
851.546	21288.55
851.869	21058.05
852.192	21184.15
852.515	21039.29
852.838	20842.69
853.161	20873.42
853.483	20637.49
853.806	20751.16
854.129	20682.01
854.451	20562.47
854.774	20583.71
855.096	20404.05
855.419	20501.68
855.741	20494.45
856.063	20394.11
856.385	20400.21
856.708	20313.43
857.03	20309.37
857.352	20271.4
857.674	20089.26
857.996	20072.76
858.318	19735.14
858.64	19743.73
858.961	19851.3
859.283	19637.52
859.605	19626.9
859.926	19751.19
860.248	19701.93
860.57	19612.66
860.891	19653.57
861.212	19547.81
861.534	19404.31
861.855	19481.37
862.176	19567.47
862.498	19454.7
862.819	19429.84
863.14	19327.02
863.461	19279.34
863.782	19407.7
864.103	19317.75
864.424	19334.7
864.745	19348.26
865.065	19201.15
865.386	19132
865.707	19218.77
866.027	19280.47
866.348	19201.83
866.668	19196.18
866.989	19148.27
867.309	18973.36
867.63	19051.55
867.95	19006.58
868.27	18884.09
868.59	18907.6
868.91	18850.65
869.23	18713.02
869.55	18730.65
869.87	18753.93
870.19	18771.1
870.51	18652.69
870.83	18634.16
871.15	18608.62
871.469	18597.32
871.789	18639.35
872.109	18676.64
872.428	18514.16
872.748	18609.98
873.067	18572.46
873.386	18591.45
873.706	18525.69
874.025	18445.01
874.344	18457.66
874.663	18545.12
874.982	18454.5
875.301	18479.81
875.62	18322.07
875.939	18358.46
876.258	18306.26
876.577	18301.74
876.896	18344.9
877.214	18244.34
877.533	18202.3
877.852	18228.74
878.17	18156.66
878.489	18054.06
878.807	18209.54
879.125	18046.38
879.444	18046.15
879.762	18081.86
880.08	18119.59
880.398	17960.73
880.716	18049.99
881.034	17943.1
881.352	17931.35
881.67	17797.12
881.988	17895.19
882.306	17804.35
882.624	17706.95
882.941	17597.12
883.259	17557.12
883.577	17586.5
883.894	17495.2
884.212	17577.01
884.529	17504.24
884.846	17433.74
885.164	17481.64
885.481	17426.05
885.798	17424.92
886.115	17409.78
886.432	17298.82
886.75	17208.88
887.067	17253.4
887.383	17111.94
887.7	17186.29
888.017	17082.79
888.334	17201.88
888.651	17127.53
888.967	17116.46
889.284	17059.51
889.6	16895.22
889.917	16909.68
890.233	16936.12
890.55	16867.65
890.866	16836.46
891.182	16869.23
891.498	16855.67
891.815	16639.63
892.131	16575.45
892.447	16590.37
892.763	16474.89
893.079	16510.37
893.395	16389.02
893.71	16363.48
894.026	16304.27
894.342	16271.96
894.657	16221.11
894.973	16237.16
895.289	16224.28
895.604	16209.81
895.92	15989.48
896.235	15969.82
896.55	16012.76
896.865	15936.15
897.181	15804.85
897.496	15775.48
897.811	15747.45
898.126	15780.9
898.441	15725.53
898.756	15700.22
899.071	15636.27
899.386	15606.89
899.7	15410.06
900.015	15393.56
900.33	15466.1
900.644	15314.7
900.959	15338.88
901.273	15257.52
901.588	15099.79
901.902	15127.13
902.216	15099.56
902.531	15019.34
902.845	15051.88
903.159	14951.54
903.473	14873.8
903.787	14824.99
904.101	14717.42
904.415	14712.9
904.729	14755.61
905.042	14696.63
905.356	14654.83
905.67	14521.5
905.984	14561.5
906.297	14430.2
906.611	14391.56
906.924	14407.38
907.237	14337.55
907.551	14304.78
907.864	14170.55
908.177	14169.42
908.491	14169.87
908.804	14138.23
909.117	14038.8
909.43	14042.64
909.743	14001.28
910.056	13913.15
910.368	13845.58
910.681	13687.39
910.994	13709.09
911.307	13667.06
911.619	13585.93
911.932	13574.4
912.244	13450.34
912.557	13451.02
912.869	13445.14
913.181	13455.54
913.494	13368.53
913.806	13235.43
914.118	13233.17
914.43	13146.84
914.742	13148.65
915.054	13041.99
915.366	12955.44
915.678	12972.61
915.99	12872.95
916.302	12800.86
916.613	12735.55
916.925	12822.33
917.236	12682.67
917.548	12582.56
917.859	12596.58
918.171	12493.75
918.482	12456.01
918.794	12379.41
919.105	12333.98
919.416	12206.53
919.727	12292.63
920.038	12173.54
920.349	12159.98
920.66	12083.82
920.971	12131.28
921.282	12156.81
921.593	11971.28
921.903	12001.11
922.214	11866.65
922.525	11843.15
922.835	11781.91
923.146	11677.05
923.456	11681.8
923.767	11635.02
924.077	11699.42
924.387	11644.28
924.697	11599.09
925.008	11510.73
925.318	11408.13
925.628	11354.57
925.938	11379.43
926.248	11229.15
926.558	11220.57
926.867	11227.8
927.177	11180.79
927.487	11005.43
927.796	10964.53
928.106	11048.37
928.416	10925.89
928.725	10859.9
929.034	10839.11
929.344	10910.29
929.653	10807.02
929.962	10706.46
930.271	10616.74
930.581	10625.78
930.89	10588.94
931.199	10510.08
931.508	10501.72
931.817	10440.7
932.125	10394.6
932.434	10387.59
932.743	10274.83
933.051	10271.89
933.36	10270.31
933.669	10251.78
933.977	10268.28
934.286	10134.95
934.594	10154.61
934.902	9986.7
935.21	9983.54
935.519	10003.2
935.827	9867.83
936.135	9853.6
936.443	9844.78
936.751	9768.63
937.059	9734.28
937.367	9739.48
937.674	9691.12
937.982	9659.93
938.29	9572.93
938.597	9632.81
938.905	9517.79
939.213	9525.92
939.52	9476.43
939.827	9471.23
940.135	9323.89
940.442	9282.09
940.749	9248.64
941.056	9254.29
941.363	9104.46
941.67	9051.58
941.977	9105.82
942.284	9138.81
942.591	9081.41
942.898	9003.45
943.205	9026.95
943.511	8941.98
943.818	8913.28
944.125	8847.3
944.431	8758.94
944.738	8781.53
945.044	8773.85
945.35	8756.9
945.657	8739.95
945.963	8676.9
946.269	8637.13
946.575	8589.22
946.881	8518.72
947.187	8466.74
947.493	8465.61
947.799	8414.31
948.105	8397.14
948.41	8336.57
948.716	8264.03
949.022	8222.23
949.327	8174.77
949.633	8154.66
949.938	8100.87
950.244	8124.83
950.549	8069.24
950.854	7992.85
951.16	8032.85
951.465	7981.1
951.77	7954.44
952.075	7897.94
952.38	7841.22
952.685	7868.56
952.99	7815.01
953.294	7777.27
953.599	7767.55
953.904	7702.92
954.209	7668.8
954.513	7672.64
954.818	7633.32
955.122	7608.68
955.426	7521
955.731	7478.29
956.035	7443.49
956.339	7379.31
956.643	7440.1
956.948	7403.94
957.252	7389.25
957.556	7402.81
957.86	7384.96
958.163	7314.23
958.467	7261.35
958.771	7276.04
959.075	7243.04
959.378	7154.68
959.682	7156.72
959.985	7105.19
960.289	7116.04
960.592	7076.49
960.896	7059.77
961.199	6944.97
961.502	6985.65
961.805	6912.88
962.108	6872.88
962.411	6817.07
962.714	6819.55
963.017	6783.4
963.32	6779.33
963.623	6756.28
963.926	6770.97
964.228	6661.82
964.531	6655.26
964.833	6624.08
965.136	6624.98
965.438	6555.38
965.741	6496.85
966.043	6523.74
966.345	6535.94
966.648	6455.95
966.95	6486
967.252	6352.22
967.554	6342.28
967.856	6331.43
968.158	6314.48
968.46	6223.18
968.761	6260.47
969.063	6228.16
969.365	6220.7
969.666	6230.42
969.968	6109.97
970.269	6083.98
970.571	6131.66
970.872	6062.74
971.174	6057.99
971.475	6012.57
971.776	6063.41
972.077	5975.96
972.378	5937.32
972.679	5961.04
972.98	5914.04
973.281	5926.47
973.582	5851.89
973.883	5836.98
974.183	5810.77
974.484	5748.17
974.785	5752.91
975.085	5725.34
975.386	5745.91
975.686	5721.95
975.986	5584.78
976.287	5656.65
976.587	5548.63
976.887	5523.32
977.187	5541.39
977.487	5516.99
977.787	5483.09
978.087	5427.05
978.387	5435.63
978.687	5405.8
978.987	5403.09
979.286	5390.89
979.586	5385.69
979.885	5280.38
980.185	5273.38
980.484	5270.67
980.784	5221.63
981.083	5254.85
981.382	5193.61
981.682	5214.4
981.981	5194.96
982.28	5105.7
982.579	5089.2
982.878	5062.31
983.177	5063.21
983.475	5043.55
983.774	5028.64
984.073	4992.93
984.372	4973.05
984.67	4956.32
984.969	4917
985.267	4937.79
985.566	4892.6
985.864	4847.85
986.162	4845.37
986.461	4820.06
986.759	4796.33
987.057	4763.11
987.355	4736.67
987.653	4714.52
987.951	4734.18
988.249	4663.9
988.547	4638.82
988.844	4646.5
989.142	4640.4
989.44	4606.73
989.737	4575.32
990.035	4580.29
990.332	4530.35
990.63	4523.12
990.927	4434.76
991.224	4458.26
991.521	4444.7
991.819	4438.82
992.116	4408.09
992.413	4361.54
992.71	4321.54
993.006	4280.41
993.303	4334.87
993.6	4278.38
993.897	4250.58
994.193	4277.02
994.49	4255.33
994.787	4175.78
995.083	4178.27
995.379	4185.72
995.676	4158.61
995.972	4124.26
996.268	4120.87
996.565	4074.09
996.861	4027.08
997.157	4032.73
997.453	4067.31
997.749	3989.8
998.044	3974.43
998.34	4032.51
998.636	3933.98
998.932	3895.56
999.227	3893.53
999.523	3885.39
999.818	3895.11
1000.114	3853.3
1000.409	3792.51
1000.704	3784.38
1001	3784.83
1001.295	3744.83
1001.59	3736.24
1001.885	3708.45
1002.18	3722.91
1002.475	3687.43
1002.77	3680.2
1003.065	3656.92
1003.359	3587.32
1003.654	3581.9
1003.949	3547.1
1004.243	3525.63
1004.538	3459.87
1004.832	3510.94
1005.127	3482.24
1005.421	3443.82
1005.715	3452.86
1006.009	3453.31
1006.304	3440.88
1006.598	3398.4
1006.892	3330.38
1007.186	3332.86
1007.48	3324.5
1007.773	3297.39
1008.067	3305.07
1008.361	3267.33
1008.655	3263.04
1008.948	3227.56
1009.242	3204.28
1009.535	3147.11
1009.829	3165.41
1010.122	3140.55
1010.415	3123.15
1010.708	3129.71
1011.001	3074.79
1011.295	3035.92
1011.588	3052.65
1011.881	3001.8
1012.173	3010.84
1012.466	3010.61
1012.759	2999.54
1013.052	2964.29
1013.344	2914.8
1013.637	2912.08
1013.93	2862.14
1014.222	2883.61
1014.514	2852.2
1014.807	2822.37
1015.099	2819.88
1015.391	2781.69
1015.683	2778.08
1015.976	2775.82
1016.268	2751.41
1016.56	2751.64
1016.851	2752.09
1017.143	2732.65
1017.435	2693.11
1017.727	2684.29
1018.018	2638.87
1018.31	2618.98
1018.602	2605.43
1018.893	2604.75
1019.185	2590.74
1019.476	2575.82
1019.767	2527.01
1020.058	2520.91
1020.35	2505.32
1020.641	2449.27
1020.932	2442.27
1021.223	2423.06
1021.514	2441.59
1021.804	2391.87
1022.095	2371.53
1022.386	2362.72
1022.677	2394.58
1022.967	2327.47
1023.258	2307.58
1023.548	2298.54
1023.839	2308.48
1024.129	2236.4
1024.419	2235.27
1024.709	2236.85
1025	2215.38
1025.29	2189.17
1025.58	2210.41
1025.87	2179.67
1026.16	2183.52
1026.449	2141.26
1026.739	2131.99
1027.029	2127.92
1027.319	2095.83
1027.608	2086.8
1027.898	2044.76
1028.187	2065.78
1028.477	2079.11
1028.766	2045.44
1029.055	2024.88
1029.344	2000.7
1029.634	2004.54
1029.923	1978.1
1030.212	1962.96
1030.501	1948.72
1030.79	1919.12
1031.078	1899.91
1031.367	1877.76
1031.656	1871.66
1031.945	1877.76
1032.233	1850.42
1032.522	1814.03
1032.81	1840.02
1033.099	1833.02
1033.387	1817.88
1033.675	1802.74
1033.963	1784.43
1034.251	1774.49
1034.54	1743.08
1034.828	1734.26
1035.116	1723.19
1035.403	1726.35
1035.691	1691.55
1035.979	1694.26
1036.267	1666.69
1036.554	1653.13
1036.842	1675.73
1037.129	1662.17
1037.417	1625.11
1037.704	1624.43
1037.992	1597.32
1038.279	1588.73
1038.566	1544.21
1038.853	1544.21
1039.14	1544.21
