Data from copper_heatsink_FLMS001491_030.txt Node
Date: Tue Feb 07 10:49:37 GMT 2017
User: dcchb
Spectrometer: FLMS00149
Trigger mode: 0
Integration Time (sec): 2.000000E-2
Scans to average: 10
Electric dark correction enabled: true
Nonlinearity correction enabled: false
Boxcar width: 0
XAxis mode: Wavelengths
Number of Pixels in Spectrum: 2048
>>>>>Begin Spectral Data<<<<<
341.393	3.84
341.776	3.84
342.16	3.84
342.543	-51.3
342.927	-49.72
343.31	-79.32
343.693	-51.52
344.077	-77.06
344.46	-65.54
344.843	-48.36
345.226	-26.89
345.61	-31.86
345.993	-5.88
346.376	-11.07
346.759	10.4
347.142	21.69
347.525	46.55
347.908	60.79
348.291	87.91
348.674	89.04
349.057	81.13
349.44	136.95
349.823	132.65
350.206	167
350.588	213.55
350.971	246.77
351.354	254.91
351.737	257.62
352.119	277.73
352.502	294.46
352.884	287.22
353.267	324.96
353.65	306.88
354.032	302.14
354.414	341.23
354.797	344.4
355.179	381.68
355.562	344.4
355.944	331.97
356.326	359.09
356.709	367.67
357.091	363.38
357.473	360.67
357.855	378.52
358.238	328.35
358.62	342.59
359.002	362.7
359.384	371.29
359.766	361.35
360.148	379.43
360.53	374.91
360.912	363.15
361.294	364.96
361.676	393.89
362.057	374.45
362.439	377.84
362.821	385.98
363.203	344.85
363.584	347.11
363.966	348.47
364.348	359.09
364.729	353.44
365.111	357.73
365.493	359.54
365.874	339.2
366.256	368.35
366.637	340.56
367.019	345.75
367.4	336.26
367.781	338.52
368.163	350.05
368.544	341.23
368.925	325.87
369.306	365.64
369.688	338.07
370.069	332.19
370.45	334.45
370.831	364.96
371.212	358.18
371.593	345.98
371.974	343.95
372.355	346.66
372.736	374
373.117	361.57
373.498	369.03
373.879	345.75
374.26	373.1
374.641	364.51
375.021	361.12
375.402	365.41
375.783	361.12
376.163	390.27
376.544	386.2
376.925	360.67
377.305	365.64
377.686	391.18
378.066	399.54
378.447	378.3
378.827	397.73
379.208	389.82
379.588	399.76
379.968	392.53
380.349	394.34
380.729	392.53
381.109	388.69
381.489	403.15
381.87	391.63
382.25	432.31
382.63	380.78
383.01	419.88
383.39	418.07
383.77	401.35
384.15	420.1
384.53	412.42
384.91	430.72
385.29	442.47
385.67	404.74
386.049	444.73
386.429	426.2
386.809	446.54
387.189	442.25
387.568	430.95
387.948	445.41
388.328	432.31
388.707	433.43
389.087	456.94
389.466	448.58
389.846	442.7
390.225	461.46
390.605	435.02
390.984	477.05
391.363	472.53
391.743	480.67
392.122	463.49
392.501	469.37
392.881	475.69
393.26	483.15
393.639	489.25
394.018	490.38
394.397	481.34
394.776	478.18
395.155	500.1
395.534	510.04
395.913	504.17
396.292	518.18
396.671	518.86
397.05	513.21
397.429	511.85
397.808	514.79
398.186	542.13
398.565	548.69
398.944	543.26
399.323	545.97
399.701	547.1
400.08	533.77
400.458	545.97
400.837	553.21
401.215	536.94
401.594	542.58
401.972	569.02
402.351	554.79
402.729	569.48
403.107	569.25
403.486	590.49
403.864	566.99
404.242	608.12
404.62	589.82
404.999	585.07
405.377	596.14
405.755	605.63
406.133	615.13
406.511	596.14
406.889	638.4
407.267	633.2
407.645	628.91
408.023	652.86
408.401	649.47
408.779	640.44
409.156	646.08
409.534	631.85
409.912	683.15
410.29	666.65
410.667	679.98
411.045	703.03
411.422	705.74
411.8	711.85
412.178	731.96
412.555	717.72
412.933	710.72
413.31	739.42
413.687	726.99
414.065	746.65
414.442	780.77
414.819	757.04
415.197	774.89
415.574	778.28
415.951	792.07
416.328	782.35
416.705	799.98
417.082	797.04
417.46	785.52
417.837	796.36
418.214	828.68
418.591	836.36
418.967	834.55
419.344	851.05
419.721	824.16
420.098	837.72
420.475	858.28
420.852	883.82
421.228	894.67
421.605	883.37
421.982	921.33
422.358	900.09
422.735	900.99
423.111	927.66
423.488	919.07
423.864	943.03
424.241	920.88
424.617	944.83
424.994	950.94
425.37	973.08
425.746	968.56
426.123	976.25
426.499	985.28
426.875	976.92
427.251	980.54
427.627	1030.71
428.003	1046.3
428.379	1061.22
428.756	1067.54
429.132	1057.6
429.507	1081.1
429.883	1114.77
430.259	1103.7
430.635	1122.68
431.011	1134.43
431.387	1166.07
431.763	1162.46
432.138	1161.1
432.514	1200.87
432.89	1173.3
433.265	1224.6
433.641	1239.97
434.016	1222.34
434.392	1270.48
434.767	1256.92
435.143	1302.34
435.518	1316.8
435.894	1301.43
436.269	1325.39
436.644	1347.99
437.02	1354.77
437.395	1365.39
437.77	1364.94
438.145	1380.53
438.52	1393.86
438.895	1409.23
439.271	1386.86
439.646	1463.46
440.021	1455.33
440.395	1453.07
440.77	1483.8
441.145	1504.59
441.52	1489.9
441.895	1494.88
442.27	1517.47
442.645	1512.05
443.019	1536.91
443.394	1591.37
443.769	1563.12
444.143	1583.01
444.518	1589.11
444.892	1578.72
445.267	1604.03
445.641	1629.56
446.016	1634.99
446.39	1652.84
446.764	1646.06
447.139	1644.7
447.513	1716.11
447.887	1678.6
448.262	1702.55
448.636	1682.89
449.01	1702.1
449.384	1760.41
449.758	1753.4
450.132	1756.11
450.506	1807.64
450.88	1812.38
451.254	1835.88
451.628	1853.74
452.002	1825.04
452.376	1850.35
452.75	1895.54
453.123	1921.98
453.497	1942.77
453.871	1971.7
454.244	1990.23
454.618	2003.56
454.992	2014.64
455.365	2029.1
455.739	2085.82
456.112	2112.03
456.486	2118.81
456.859	2117.23
457.232	2184.35
457.606	2192.03
457.979	2213.73
458.352	2264.57
458.725	2284.91
459.099	2287.17
459.472	2400.16
459.845	2384.12
460.218	2383.21
460.591	2440.61
460.964	2453.49
461.337	2491.91
461.71	2528.07
462.083	2568.29
462.456	2576.66
462.829	2606.26
463.201	2653.04
463.574	2661.17
463.947	2691.45
464.32	2760.38
464.692	2785.24
465.065	2814.16
465.438	2864.56
465.81	2918.79
466.183	2934.84
466.555	2990.88
466.928	2982.29
467.3	3024.78
467.672	3048.96
468.045	3176.19
468.417	3151.33
468.789	3193.81
469.161	3222.74
469.534	3278.33
469.906	3353.81
470.278	3378.44
470.65	3417.99
471.022	3447.59
471.394	3485.78
471.766	3569.17
472.138	3615.05
472.51	3692.33
472.882	3760.13
473.253	3785.44
473.625	3822.5
473.997	3947.69
474.369	3924.87
474.74	4035.37
475.112	4080.57
475.484	4112.89
475.855	4207.57
476.227	4269.27
476.598	4374.12
476.97	4392.43
477.341	4545.87
477.713	4554.46
478.084	4597.85
478.455	4671.29
478.827	4765.07
479.198	4898.18
479.569	4949.25
479.94	5002.58
480.311	5043.71
480.682	5181.78
481.053	5296.36
481.424	5352.18
481.795	5457.94
482.166	5526.18
482.537	5616.8
482.908	5753.52
483.279	5774.76
483.65	5874.65
484.021	6011.14
484.391	6117.13
484.762	6055.43
485.133	6160.74
485.503	6223.57
485.874	6410.23
486.244	6492.26
486.615	6610.67
486.985	6642.99
487.356	6809.99
487.726	6821.06
488.097	6950.55
488.467	7019.93
488.837	7171.11
489.207	7303.76
489.578	7382.63
489.948	7410.88
490.318	7553.93
490.688	7571.55
491.058	7710.08
491.428	7795.5
491.798	7900.58
492.168	8064.42
492.538	8063.74
492.908	8132.67
493.278	8286.79
493.648	8247.24
494.017	8346
494.387	8485.88
494.757	8572.66
495.126	8653.33
495.496	8728.81
495.866	8767
496.235	8858.3
496.605	8912.08
496.974	9014.68
497.344	9143.04
497.713	9166.99
498.082	9257.38
498.452	9381.22
498.821	9388.68
499.19	9413.99
499.559	9468.9
499.928	9493.54
500.298	9601.1
500.667	9715.68
501.036	9697.6
501.405	9836.58
501.774	9848.33
502.143	9971.72
502.512	9998.16
502.88	10110.92
503.249	10111.37
503.618	10231.37
503.987	10224.82
504.356	10286.06
504.724	10414.42
505.093	10445.83
505.462	10439.5
505.83	10548.42
506.199	10681.75
506.567	10823.67
506.936	10865.48
507.304	10926.04
507.672	10995.42
508.041	11029.77
508.409	11196.54
508.777	11232.25
509.145	11301.62
509.514	11323.54
509.882	11351.34
510.25	11458.91
510.618	11576.42
510.986	11532.35
511.354	11721.73
511.722	11822.97
512.09	11936.86
512.458	11934.83
512.826	12081.49
513.193	12147.48
513.561	12120.59
513.929	12280.13
514.297	12420.46
514.664	12534.81
515.032	12531.42
515.4	12633.11
515.767	12669.05
516.135	12812.09
516.502	12745.2
516.869	12947
517.237	13006.44
517.604	13033.33
517.972	13277.62
518.339	13349.25
518.706	13331.4
519.073	13447.1
519.44	13459.31
519.808	13640.09
520.175	13627.66
520.542	13784.27
520.909	13876.7
521.276	13973.42
521.643	14094.54
522.009	14233.52
522.376	14302.9
522.743	14434.65
523.11	14647.75
523.477	14742.89
523.843	14842.1
524.21	14933.84
524.577	15074.86
524.943	15171.13
525.31	15164.8
525.676	15413.61
526.043	15488.18
526.409	15539.25
526.776	15773.82
527.142	15822.86
527.508	15959.58
527.874	16063.76
528.241	16158.9
528.607	16166.35
528.973	16412
529.339	16438.89
529.705	16567.47
530.071	16717.07
530.437	16830.29
530.803	16870.74
531.169	17071.42
531.535	16967.46
531.901	17151.87
532.267	17204.07
532.632	17435.7
532.998	17479.31
533.364	17478.86
533.73	17656.71
534.095	17759.76
534.461	17732.64
534.826	17879.3
535.192	17994.78
535.557	18122.91
535.923	18176.92
536.288	18327.88
536.653	18348.22
537.019	18490.14
537.384	18527.2
537.749	18629.79
538.114	18691.94
538.479	18836.11
538.845	18817.58
539.21	18834.31
539.575	18919.05
539.94	19039.05
540.305	19259.83
540.67	19154.75
541.034	19340.28
541.399	19347.29
541.764	19416.89
542.129	19531.46
542.494	19616.89
542.858	19755.19
543.223	19866.6
543.587	19956.76
543.952	19973.03
544.316	20055.07
544.681	20082.41
545.045	20325.79
545.41	20382.74
545.774	20479.01
546.138	20571.44
546.503	20623.86
546.867	20683.98
547.231	20913.8
547.595	21011.2
547.959	21053.01
548.324	21081.71
548.688	21208.71
549.052	21309.5
549.416	21515.14
549.779	21603.95
550.143	21709.71
550.507	21870.84
550.871	22023.6
551.235	22025.86
551.599	22252.52
551.962	22373.2
552.326	22485.74
552.689	22646.64
553.053	22594.89
553.417	22693.64
553.78	23101.09
554.143	23116.45
554.507	23274.64
554.87	23476.22
555.234	23678.7
555.597	23635.99
555.96	23864.01
556.323	24110.78
556.686	24109.2
557.05	24461.05
557.413	24555.74
557.776	24634.15
558.139	24934.71
558.502	25151.88
558.865	25165.67
559.228	25518.65
559.59	25704.41
559.953	25676.39
560.316	26094
560.679	26163.83
561.041	26446.99
561.404	26731.95
561.767	26911.16
562.129	27103.92
562.492	27446.74
562.854	27481.76
563.217	27587.52
563.579	27759.5
563.941	28223.89
564.304	28363.55
564.666	28615.74
565.028	28758.57
565.39	29002.4
565.753	29374.82
566.115	29543.63
566.477	29818.42
566.839	30022.71
567.201	30374.34
567.563	30447.79
567.925	30832.18
568.287	30972.29
568.648	31091.39
569.01	31528.66
569.372	31847.98
569.734	31800.07
570.095	32153.05
570.457	32641.18
570.819	32772.25
571.18	32947.83
571.542	33340.14
571.903	33430.99
572.265	33783.97
572.626	33958.2
572.987	34185.77
573.349	34469.83
573.71	34899.2
574.071	35032.3
574.432	35103.48
574.794	35589.8
575.155	35689.91
575.516	35640.87
575.877	36163.12
576.238	36482.2
576.599	36612.37
576.96	36714.97
577.32	36959.25
577.681	37178.23
578.042	37458.22
578.403	37643.3
578.763	37822.73
579.124	38063.41
579.485	38458.88
579.845	38690.28
580.206	38741.58
580.566	38841.24
580.927	38934.57
581.287	39268.8
581.648	39352.19
582.008	39650.03
582.368	39806.41
582.728	39947.42
583.089	40001.66
583.449	40192.84
583.809	40414.08
584.169	40540.85
584.529	40649.1
584.889	41104.46
585.249	40939.71
585.609	41013.16
585.969	41323.43
586.329	41320.27
586.688	41523.43
587.048	41665.35
587.408	41743.76
587.768	41809.3
588.127	42134.71
588.487	42102.4
588.846	42444.31
589.206	42405.89
589.565	42431.2
589.925	42872.09
590.284	42763.85
590.643	43147.79
591.003	43111.18
591.362	43268.01
591.721	43330.61
592.08	43657.16
592.44	43823.71
592.799	43731.96
593.158	43820.09
593.517	44057.37
593.876	44150.93
594.235	44331.04
594.593	44519.51
594.952	44686.51
595.311	44568.77
595.67	44867.29
596.029	45212.6
596.387	45210.79
596.746	45299.6
597.104	45221.86
597.463	45443.55
597.822	45669.99
598.18	45742.98
598.538	45692.58
598.897	46076.08
599.255	45818.23
599.613	46568.04
599.972	46267.26
600.33	46462.73
600.688	46342.74
601.046	46883.96
601.404	46969.61
601.762	47113.34
602.12	47411.86
602.478	47419.54
602.836	47651.18
603.194	47584.29
603.552	47736.37
603.91	47615.02
604.268	47885.52
604.625	47852.08
604.983	47976.37
605.341	48030.38
605.698	48293.65
606.056	48487.31
606.413	48535.67
606.771	48716.69
607.128	48807.08
607.485	48738.15
607.843	49007.07
608.2	49252.94
608.557	49472.82
608.914	49286.61
609.272	49593.95
609.629	49683.67
609.986	49993.71
610.343	49899.93
610.7	50151.9
611.057	50195.06
611.414	50260.83
611.771	50381.95
612.127	50513.7
612.484	50483.64
612.841	50747.37
613.198	50710.31
613.554	50839.34
613.911	51095.83
614.267	51069.39
614.624	51146.68
614.98	51309.61
615.337	51412.89
615.693	51367.46
616.05	51400
616.406	51794.12
616.762	51621.47
617.118	51871.86
617.475	51921.12
617.831	52046.32
618.187	52131.51
618.543	52139.19
618.899	52323.37
619.255	52368.57
619.611	52407.21
619.967	52537.38
620.323	52498.05
620.678	52525.4
621.034	52560.88
621.39	52651.27
621.746	52722.68
622.101	53144.14
622.457	52899.85
622.812	53026.85
623.168	53084.71
623.523	53183.46
623.879	53290.35
624.234	53196.57
624.589	53387.07
624.945	53458.48
625.3	53522.66
625.655	53483.79
626.01	53566.73
626.365	53638.14
626.72	53648.76
627.075	53699.15
627.43	53755.87
627.785	53693.28
628.14	53792.71
628.495	53862.31
628.85	53804.24
629.205	53798.81
629.559	53971.69
629.914	53817.57
630.269	53998.58
630.623	53908.64
630.978	53889.88
631.332	54083.32
631.687	54185.24
632.041	54141.63
632.396	54178.69
632.75	54126.94
633.104	54195.86
633.459	54114.74
633.813	54216.65
634.167	54116.77
634.521	54140.95
634.875	54211.46
635.229	54243.77
635.583	54093.27
635.937	54212.81
636.291	54220.27
636.645	54312.92
636.999	54286.71
637.352	54315.41
637.706	54236.54
638.06	54380.04
638.413	54344.11
638.767	54279.7
639.121	54337.33
639.474	54297.33
639.828	54299.59
640.181	54345.24
640.534	54326.26
640.888	54328.06
641.241	54255.52
641.594	54362.19
641.947	54541.39
642.301	54519.7
642.654	54505.46
643.007	54536.87
643.36	54435.4
643.713	54344.33
644.066	54567.15
644.419	54409.42
644.771	54427.72
645.124	54244.22
645.477	54309.08
645.83	54114.51
646.182	53893.5
646.535	53704.58
646.888	53752.03
647.24	53504.81
647.593	53794.74
647.945	53713.16
648.298	53494.64
648.65	53570.12
649.002	53591.13
649.355	53753.84
649.707	53783.44
650.059	54094.62
650.411	54433.82
650.763	54476.76
651.115	54736.41
651.467	54643.31
651.819	54653.48
652.171	54567.38
652.523	54575.97
652.875	54736.87
653.227	54614.16
653.578	54796.75
653.93	54735.28
654.282	54655.51
654.633	54591.56
654.985	54607.38
655.337	54654.61
655.688	54734.83
656.039	54851.21
656.391	54673.82
656.742	54759.24
657.094	54813.25
657.445	54945.45
657.796	54908.84
658.147	54839.01
658.498	54800.82
658.849	54901.16
659.2	54764.89
659.551	54770.09
659.902	54891.21
660.253	54940.02
660.604	55004.43
660.955	54806.92
661.306	55005.79
661.656	54903.64
662.007	54990.87
662.358	55027.71
662.708	55073.81
663.059	55157.42
663.409	54976.18
663.76	55162.17
664.11	55239.45
664.461	55138.44
664.811	55182.73
665.161	55182.28
665.511	55209.85
665.862	55217.98
666.212	55346.34
666.562	55406.45
666.912	55250.98
667.262	55229.73
667.612	55321.03
667.962	55394.48
668.312	55351.99
668.662	55455.94
669.011	55447.36
669.361	55387.02
669.711	55406
670.06	55462.27
670.41	55469.5
670.76	55409.39
671.109	55478.77
671.459	55475.83
671.808	55511.53
672.157	55520.8
672.507	55408.49
672.856	55501.14
673.205	55636.05
673.554	55637.86
673.904	55567.35
674.253	55759.44
674.602	55649.16
674.951	55161.94
675.3	55181.83
675.649	55624.98
675.998	55589.72
676.346	55563.51
676.695	55759.44
677.044	55487.58
677.393	55650.29
677.741	55733.68
678.09	55702.26
678.438	55716.28
678.787	55747.46
679.135	55668.14
679.484	55543.4
679.832	55696.61
680.181	55624.3
680.529	55696.61
680.877	55631.98
681.225	55616.84
681.573	55747.01
681.922	55603.06
682.27	55528.48
682.618	55579.1
682.966	55543.85
683.314	55651.64
683.661	55593.34
684.009	55496.62
684.357	55420.24
684.705	55485.55
685.053	55470.18
685.4	55465.21
685.748	55304.76
686.095	55376.62
686.443	55213.24
686.79	55248.94
687.138	55330.3
687.485	55356.51
687.832	55263.63
688.18	55372.56
688.527	55191.77
688.874	55182.96
689.221	55180.7
689.568	55100.02
689.915	55067.25
690.262	55172.56
690.609	55029.97
690.956	54995.84
691.303	55055.95
691.65	55011.21
691.997	54909.74
692.344	54697.09
692.69	54759.01
693.037	54770.31
693.383	54609.19
693.73	54770.54
694.077	54555.63
694.423	54559.7
694.769	54441.28
695.116	54473.6
695.462	54431.79
695.808	54335.97
696.155	54493.26
696.501	54234.73
696.847	54251
697.193	54103.89
697.539	54348.4
697.885	54064.57
698.231	54108.41
698.577	54042.87
698.923	54012.14
699.269	53879.49
699.614	53801.75
699.96	53714.29
700.306	53765.37
700.651	53615.09
700.997	53610.57
701.342	53598.82
701.688	53566.95
702.033	53531.93
702.379	53403.12
702.724	53512.94
703.069	53547.97
703.415	53140.3
703.76	53199.28
704.105	53284.47
704.45	53171.94
704.795	52974.65
705.14	52952.96
705.485	53026.63
705.83	52972.17
706.175	52953.18
706.52	52879.06
706.865	52750.48
707.209	52691.27
707.554	52731.72
707.899	52767.2
708.243	52543.7
708.588	52702.57
708.932	52494.21
709.277	52498.73
709.621	52486.3
709.966	52330.38
710.31	52482.46
710.654	52196.37
710.998	52398.4
711.342	52363.37
711.687	52375.12
712.031	52202.92
712.375	52072.76
712.719	52328.79
713.063	52058.97
713.407	52227.55
713.75	52042.7
714.094	52121.79
714.438	51918.86
714.782	52035.02
715.125	51982.81
715.469	52084.96
715.812	51835.7
716.156	51716.38
716.499	51802.48
716.843	51880.44
717.186	51677.06
717.53	51852.87
717.873	51867.56
718.216	51831.18
718.559	51546.44
718.902	51475.93
719.246	51556.84
719.589	51455.6
719.932	51303.06
720.275	51340.8
720.617	51449.27
720.96	51304.19
721.303	51225.77
721.646	51260.57
721.989	51243.4
722.331	51353.23
722.674	51206.11
723.016	51323.62
723.359	51275.49
723.701	51386.9
724.044	51054.93
724.386	51039.56
724.729	51095.61
725.071	51010.41
725.413	50929.96
725.755	50919.34
726.097	50818.55
726.439	50706.69
726.782	50814.03
727.124	51158.88
727.465	50900.13
727.807	50828.49
728.149	50854.26
728.491	50671.44
728.833	50834.6
729.175	50666.01
729.516	50717.99
729.858	50637.76
730.199	50775.39
730.541	50668.27
730.882	50683.41
731.224	50762.51
731.565	50473.02
731.906	50623.75
732.248	50694.49
732.589	50429.63
732.93	50325.68
733.271	50489.97
733.612	50583.3
733.953	50429.41
734.294	50298.34
734.635	50240.49
734.976	50276.19
735.317	50273.93
735.658	50386.47
735.999	50301.05
736.339	50189.64
736.68	50371.78
737.021	50283.88
737.361	50086.59
737.702	50215.63
738.042	50174.5
738.383	50242.75
738.723	50324.33
739.063	50230.54
739.404	50264.44
739.744	50296.3
740.084	50232.35
740.424	50280.49
740.764	50041.85
741.104	50171.34
741.444	49896.77
741.784	49973.38
742.124	49972.7
742.464	49944.9
742.804	49848.63
743.143	49858.58
743.483	49894.73
743.823	49715.98
744.162	49824.9
744.502	49931.79
744.841	49691.35
745.181	49884.11
745.52	49737.9
745.86	49776.54
746.199	49732.25
746.538	49622.65
746.877	49687.28
747.216	49843.21
747.556	49516.89
747.895	49589.88
748.234	49434.18
748.573	49416.1
748.911	49376.33
749.25	49423.56
749.589	49256.33
749.928	49454.29
750.267	49582.88
750.605	49279.38
750.944	49344.69
751.283	49369.32
751.621	49346.27
751.96	49133.62
752.298	49215.2
752.636	49174.3
752.975	49010.24
753.313	48952.16
753.651	49228.54
753.989	48977.7
754.327	49029.9
754.666	48813.41
755.004	48811.82
755.342	48943.57
755.679	48852.05
756.017	48673.97
756.355	48890.69
756.693	48515.56
757.031	48647.08
757.368	48431.49
757.706	48232.18
758.044	48169.58
758.381	48310.82
758.719	48057.27
759.056	48154.21
759.394	48003.71
759.731	47895.69
760.068	47925.75
760.405	47789.93
760.743	47638.52
761.08	47742.93
761.417	47560.78
761.754	47582.48
762.091	47530.28
762.428	47374.12
762.765	47147.23
763.102	47382.03
763.438	47127.35
763.775	46979.56
764.112	47126.67
764.449	47198.53
764.785	46997.18
765.122	46831.76
765.458	46660.69
765.795	46580.92
766.131	46587.25
766.467	46359.46
766.804	46289.63
767.14	46194.72
767.476	46238.56
767.812	46107.26
768.148	46007.38
768.485	45988.17
768.821	45825.69
769.157	45824.78
769.492	45895.52
769.828	45721.74
770.164	45468.63
770.5	45357.9
770.836	45334.85
771.171	45267.51
771.507	45063.67
771.842	44727.64
772.178	44836.79
772.513	44766.96
772.849	44603.57
773.184	44483.35
773.519	44661.88
773.855	44433.86
774.19	44448.77
774.525	44380.08
774.86	44286.07
775.195	44269.34
775.53	44083.13
775.865	43859.64
776.2	43684.28
776.535	43346.2
776.87	43389.14
777.205	43323.61
777.539	43279.77
777.874	43372.64
778.209	43034.8
778.543	42906.89
778.878	42935.37
779.212	42761.14
779.547	42536.73
779.881	42742.15
780.215	42535.6
780.55	42561.14
780.884	42342.16
781.218	42228.72
781.552	42362.95
781.886	42291.09
782.22	42016.07
782.554	41823.99
782.888	41804.1
783.222	41589.19
783.556	41319.37
783.889	41426.93
784.223	41245.02
784.557	41157.79
784.89	41217
785.224	41004.8
785.557	40796.67
785.891	40832.37
786.224	40582.66
786.558	40818.14
786.891	40416.11
787.224	40383.8
787.557	40214.99
787.891	40214.08
788.224	40108.32
788.557	40047.31
788.89	39991.94
789.223	39819.97
789.556	39669.24
789.888	39601.44
790.221	39552.63
790.554	39242.58
790.887	39163.49
791.219	39173.89
791.552	39163.04
791.884	39016.15
792.217	39009.82
792.549	39014.79
792.882	38630.85
793.214	38564.86
793.546	38597.86
793.879	38480.57
794.211	38210.97
794.543	38530.96
794.875	38364.87
795.207	38414.81
795.539	38225.21
795.871	38160.35
796.203	37853.69
796.535	37732.79
796.867	37735.73
797.198	37760.36
797.53	37609.63
797.862	37566.02
798.193	37682.62
798.525	37160.15
798.856	37429.98
799.188	37036.31
799.519	37054.84
799.85	36782.76
800.182	37034.73
800.513	36987.73
800.844	36678.58
801.175	36843.1
801.506	36889.88
801.837	36714.06
802.168	36559.04
802.499	36486.27
802.83	36242.89
803.161	36373.96
803.491	36357.24
803.822	36218.48
804.153	36200.86
804.483	35754.77
804.814	35750.25
805.145	35871.37
805.475	35794.77
805.805	35713.19
806.136	35647.88
806.466	35724.71
806.796	35666.41
807.126	35361.78
807.457	35357.94
807.787	35419.86
808.117	35368.34
808.447	35279.52
808.777	35484.94
809.107	35268
809.436	35195.23
809.766	35118.62
810.096	35004.05
810.426	34908.23
810.755	34809.71
811.085	34724.96
811.414	34834.79
811.744	34760.67
812.073	34583.95
812.403	34594.8
812.732	34459.43
813.061	34528.36
813.39	34265.09
813.719	34198.42
814.049	34536.72
814.378	34422.6
814.707	34246.11
815.036	34282.71
815.365	34116.39
815.693	34005.21
816.022	33908.26
816.351	34064.64
816.68	33796.85
817.008	33951.42
817.337	33701.71
817.665	33790.3
817.994	33752.11
818.322	33634.6
818.651	33608.38
818.979	33435.28
819.307	33712.56
819.636	33650.19
819.964	33370.65
820.292	33572.9
820.62	33436.63
820.948	33467.82
821.276	33577.2
821.604	33483.64
821.932	33521.6
822.259	33542.62
822.587	33695.61
822.915	33649.28
823.243	33520.25
823.57	33470.53
823.898	33598.66
824.225	33543.75
824.553	33672.33
824.88	33623.3
825.207	33818.77
825.535	33763.86
825.862	33852.44
826.189	33819.22
826.516	34034.13
826.843	34085.21
827.17	34146.45
827.497	34161.36
827.824	34118.2
828.151	34201.59
828.478	34143.06
828.805	34202.49
829.131	34086.79
829.458	34187.35
829.785	34110.74
830.111	34169.27
830.438	34235.71
830.764	34164.07
831.09	34200.23
831.417	34037.07
831.743	34254.24
832.069	34249.72
832.395	34068.03
832.722	34247.91
833.048	34103.06
833.374	34227.35
833.7	34099.89
834.026	34075.04
834.351	34381.92
834.677	34413.33
835.003	34426.67
835.329	34466.44
835.654	34432.31
835.98	34248.82
836.306	34381.47
836.631	34394.12
836.956	34405.88
837.282	34561.13
837.607	34281.58
837.932	34220.57
838.258	34357.74
838.583	34388.93
838.908	34086.56
839.233	34260.57
839.558	34079.78
839.883	33957.07
840.208	33856.96
840.533	33782.39
840.858	34045.43
841.182	33988.26
841.507	34195.26
841.832	33932.89
842.156	33877.08
842.481	33753.24
842.805	33698.55
843.13	33759.34
843.454	33699.45
843.778	33701.94
844.103	33528.38
844.427	33568.61
844.751	33640.7
845.075	33540.81
845.399	33503.75
845.723	33342.17
846.047	33370.2
846.371	33057.21
846.695	33219.92
847.019	32965.69
847.343	32795.07
847.666	32494.06
847.99	32480.28
848.313	32471.24
848.637	32431.46
848.96	32402.76
849.284	32384.69
849.607	31944.02
849.931	32012.94
850.254	31836.68
850.577	31685.04
850.9	31542.45
851.223	31492.05
851.546	31573.63
851.869	31212.51
852.192	31557.36
852.515	31218.84
852.838	31085.06
853.161	31157.37
853.483	30971.39
853.806	30881.22
854.129	30945.18
854.451	30804.61
854.774	30871.05
855.096	30939.3
855.419	30788.57
855.741	30762.81
856.063	30656.6
856.385	30459.09
856.708	30384.51
857.03	30333.44
857.352	30282.37
857.674	30162.37
857.996	30198.98
858.318	30033.33
858.64	30069.49
858.961	30121.24
859.283	30021.58
859.605	29850.06
859.926	29922.38
860.248	29797.63
860.57	29860.23
860.891	29761.03
861.212	29708.82
861.534	29624.98
861.855	29424.09
862.176	29583.4
862.498	29641.93
862.819	29696.17
863.14	29625.66
863.461	29584.76
863.782	29449.17
864.103	29580.69
864.424	29487.13
864.745	29518.09
865.065	29346.8
865.386	29313.13
865.707	29373.46
866.027	29462.28
866.348	29439.23
866.668	29387.93
866.989	29282.39
867.309	29049.41
867.63	29092.34
867.95	28922.63
868.27	28954.04
868.59	29109.97
868.91	29135.73
869.23	29113.13
869.55	28954.04
869.87	29104.32
870.19	28931.89
870.51	29062.51
870.83	29129.86
871.15	28955.85
871.469	29018.45
871.789	29134.83
872.109	28991.55
872.428	28804.67
872.748	28900.03
873.067	28843.76
873.386	28933.02
873.706	28907.26
874.025	28840.37
874.344	28733.03
874.663	28766.25
874.982	28798.79
875.301	28695.29
875.62	28796.98
875.939	28833.37
876.258	28848.06
876.577	28538.01
876.896	28572.58
877.214	28533.94
877.533	28785.23
877.852	28742.52
878.17	28767.61
878.489	28712.24
878.807	28624.33
879.125	28651.9
879.444	28660.94
879.762	28495.75
880.08	28639.7
880.398	28406.03
880.716	28557.44
881.034	28583.43
881.352	28544.11
881.67	28349.09
881.988	28456.65
882.306	28348.86
882.624	28225.7
882.941	28155.42
883.259	28223.89
883.577	28216.66
883.894	28126.27
884.212	28055.31
884.529	28148.41
884.846	28137.57
885.164	28136.66
885.481	28066.83
885.798	28043.78
886.115	27842.88
886.432	27855.31
886.75	27773.06
887.067	27848.31
887.383	27721.76
887.7	27717.46
888.017	27537.13
888.334	27698.48
888.651	27618.71
888.967	27601.76
889.284	27455.55
889.6	27599.73
889.917	27363.12
890.233	27369
890.55	27267.08
890.866	27311.15
891.182	27147.76
891.498	27038.84
891.815	27137.37
892.131	26981.89
892.447	26893.98
892.763	26822.57
893.079	26825.06
893.395	26826.87
893.71	26830.48
894.026	26731.05
894.342	26526.53
894.657	26517.27
894.973	26645.4
895.289	26545.06
895.604	26559.08
895.92	26374.45
896.235	26183.94
896.55	26260.55
896.865	26117.28
897.181	26067.79
897.496	26042.71
897.811	25992.99
898.126	25987.34
898.441	25897.62
898.756	25805.2
899.071	25690.17
899.386	25793.45
899.7	25579.21
900.015	25395.04
900.33	25317.53
900.644	25276.85
900.959	25213.8
901.273	25338.77
901.588	25283.4
901.902	25132.67
902.216	25095.39
902.531	25119.57
902.845	25035.95
903.159	25043.86
903.473	24986.24
903.787	24811.55
904.101	24736.07
904.415	24792.57
904.729	24709.41
905.042	24674.15
905.356	24512.35
905.67	24282.07
905.984	24291.11
906.297	24142.42
906.611	24031.01
906.924	24017.9
907.237	23921.18
907.551	23781.07
907.864	23792.37
908.177	23758.02
908.491	23716.66
908.804	23536.78
909.117	23450.46
909.43	23446.39
909.743	23341.31
910.056	23354.41
910.368	23231.93
910.681	23092.05
910.994	23132.95
911.307	22978.15
911.619	22917.36
911.932	22786.75
912.244	22621.33
912.557	22685.73
912.869	22620.2
913.181	22664.04
913.494	22675.34
913.806	22518.96
914.118	22526.64
914.43	22381.33
914.742	22357.83
915.054	22254.78
915.366	22176.37
915.678	22057.05
915.99	21983.38
916.302	21796.94
916.613	21840.1
916.925	21675.59
917.236	21638.53
917.548	21520.56
917.859	21588.58
918.171	21472.2
918.482	21246.22
918.794	21112.67
919.105	21281.93
919.416	21070.86
919.727	21098.43
920.038	21042.38
920.349	20920.58
920.66	20747.93
920.971	20846.01
921.282	20801.49
921.593	20587.71
921.903	20608.05
922.214	20498.67
922.525	20417.32
922.835	20250.54
923.146	20132.13
923.456	20298.68
923.767	20235.85
924.077	20217.1
924.387	20114.27
924.697	20046.25
925.008	19904.11
925.318	19751.8
925.628	19784.34
925.938	19785.69
926.248	19695.3
926.558	19559.03
926.867	19649.65
927.177	19491.69
927.487	19461.86
927.796	19276.56
928.106	19326.72
928.416	19216.44
928.725	19107.07
929.034	19166.05
929.344	19011.03
929.653	18946.39
929.962	18817.58
930.271	18899.62
930.581	18662.33
930.89	18669.79
931.199	18564.48
931.508	18538.04
931.817	18613.52
932.125	18465.05
932.434	18420.53
932.743	18204.72
933.051	18109.81
933.36	18098.28
933.669	18095.8
933.977	18008.79
934.286	17959.75
934.594	17927.89
934.902	17760.44
935.21	17746.88
935.519	17731.06
935.827	17669.82
936.135	17602.02
936.443	17483.16
936.751	17424.63
937.059	17376.94
937.367	17208.81
937.674	17424.63
937.982	17214.24
938.29	17107.35
938.597	17107.57
938.905	16986.22
939.213	16905.32
939.52	16854.92
939.827	16959.55
940.135	16739.9
940.442	16644.99
940.749	16687.24
941.056	16680.47
941.363	16495.61
941.67	16466.23
941.977	16456.52
942.284	16400.7
942.591	16431.43
942.898	16301.72
943.205	16293.13
943.511	16116.86
943.818	16072.8
944.125	15966.59
944.431	15960.71
944.738	15895.18
945.044	15816.31
945.35	15718.23
945.657	15687.5
945.963	15631.23
946.269	15525.02
946.575	15490.67
946.881	15419.71
947.187	15409.09
947.493	15325.02
947.799	15302.87
948.105	15149.21
948.41	15095.65
948.716	15102.2
949.022	14979.49
949.327	14934.75
949.633	14866.73
949.938	14924.35
950.244	14909.44
950.549	14673.74
950.854	14650.24
951.16	14663.8
951.465	14550.13
951.77	14573.4
952.075	14579.73
952.38	14489.34
952.685	14475.78
952.99	14405.72
953.294	14318.04
953.599	14203.02
953.904	14214.99
954.209	14058.61
954.513	14132.74
954.818	14003.25
955.122	13923.93
955.426	13898.84
955.731	13797.38
956.035	13765.06
956.339	13707.21
956.643	13704.5
956.948	13635.8
957.252	13603.26
957.556	13505.86
957.86	13325.53
958.163	13379.31
958.467	13289.59
958.771	13273.78
959.075	13312.42
959.378	13205.98
959.682	13246.21
959.985	13180.67
960.289	13081.01
960.592	12944.74
960.896	12928.93
961.199	12911.52
961.502	12875.37
961.805	12757.18
962.108	12661.59
962.411	12670.63
962.714	12611.42
963.017	12630.18
963.32	12644.41
963.623	12514.47
963.926	12557.86
964.228	12355.16
964.531	12324.87
964.833	12342.95
965.136	12273.35
965.438	12273.35
965.741	12179.57
966.043	12121.26
966.345	11993.81
966.648	12073.58
966.95	12020.25
967.252	11893.02
967.554	11917.43
967.856	11807.6
968.158	11814.6
968.46	11848.73
968.761	11756.08
969.063	11743.42
969.365	11589.53
969.666	11607.6
969.968	11508.85
970.269	11449.87
970.571	11486.25
970.872	11373.71
971.174	11367.16
971.475	11302.98
971.776	11349.31
972.077	11304.56
972.378	11180.95
972.679	11109.54
972.98	11144.79
973.281	11038.13
973.582	10998.35
973.883	10962.42
974.183	10839.26
974.484	10880.84
974.785	10771.92
975.085	10808.3
975.386	10817.79
975.686	10783.22
975.986	10649.44
976.287	10630.45
976.587	10487.86
976.887	10505.03
977.187	10575.77
977.487	10528.08
977.787	10444.92
978.087	10380.07
978.387	10389.78
978.687	10417.13
978.987	10307.98
979.286	10214.19
979.586	10194.76
979.885	10153.41
980.185	10053.07
980.484	9942.11
980.784	9895.33
981.083	9918.84
981.382	9863.92
981.682	9814.21
981.981	9741.44
982.28	9759.29
982.579	9696.69
982.878	9746.86
983.177	9619.41
983.475	9597.71
983.774	9576.25
984.073	9565.4
984.372	9487.21
984.67	9466.42
984.969	9445.63
985.267	9426.87
985.566	9447.21
985.864	9328.34
986.162	9356.14
986.461	9275.69
986.759	9283.6
987.057	9122.02
987.355	9148.69
987.653	9085.41
987.951	9101.23
988.249	9081.57
988.547	8992.08
988.844	9017.84
989.142	8883.83
989.44	8860.78
989.737	8803.16
990.035	8812.88
990.332	8737.17
990.63	8674.35
990.927	8651.3
991.224	8570.62
991.521	8600.9
991.819	8551.41
992.116	8532.88
992.413	8470.96
992.71	8379.21
993.006	8369.27
993.303	8374.92
993.6	8268.71
993.897	8345.54
994.193	8293.34
994.49	8196.39
994.787	8201.14
995.083	8150.52
995.379	8123.85
995.676	8006.34
995.972	8049.28
996.268	7979
996.565	7999.34
996.861	7877.98
997.157	7819.46
997.453	7795.28
997.749	7830.08
998.044	7723.86
998.34	7698.78
998.636	7626.69
998.932	7619.01
999.227	7507.6
999.523	7537.43
999.818	7463.98
1000.114	7391.67
1000.409	7326.59
1000.704	7353.25
1001	7298.79
1001.295	7260.15
1001.59	7260.83
1001.885	7205.46
1002.18	7135.63
1002.475	7115.29
1002.77	7104.67
1003.065	7028.74
1003.359	7029.87
1003.654	6959.82
1003.949	6939.7
1004.243	6915.07
1004.538	6861.97
1004.832	6869.2
1005.127	6759.14
1005.421	6737.45
1005.715	6731.12
1006.009	6650.9
1006.304	6623.1
1006.598	6518.92
1006.892	6534.29
1007.186	6440.51
1007.48	6474.63
1007.773	6484.35
1008.067	6414.07
1008.361	6391.47
1008.655	6398.25
1008.948	6344.69
1009.242	6258.82
1009.535	6203
1009.829	6219.5
1010.122	6164.58
1010.415	6154.41
1010.708	6065.38
1011.001	6031.71
1011.295	6000.75
1011.588	5958.71
1011.881	5900.64
1012.173	5841.88
1012.466	5829.23
1012.759	5872.39
1013.052	5755.55
1013.344	5778.83
1013.637	5733.18
1013.93	5609.8
1014.222	5633.98
1014.514	5560.76
1014.807	5534.77
1015.099	5549.01
1015.391	5504.26
1015.683	5464.49
1015.976	5427.2
1016.268	5442.57
1016.56	5388.56
1016.851	5384.04
1017.143	5324.61
1017.435	5317.37
1017.727	5198.96
1018.018	5174.1
1018.31	5170.94
1018.602	5149.02
1018.893	5093.88
1019.185	5035.57
1019.476	4992.86
1019.767	5007.1
1020.058	4947.67
1020.35	4946.54
1020.641	4899.08
1020.932	4866.54
1021.223	4828.8
1021.514	4785.86
1021.804	4736.15
1022.095	4692.08
1022.386	4678.07
1022.677	4680.78
1022.967	4609.14
1023.258	4559.2
1023.548	4619.09
1023.839	4486.44
1024.129	4478.3
1024.419	4448.24
1024.709	4428.81
1025	4359.43
1025.29	4370.73
1025.58	4361.69
1025.87	4288.47
1026.16	4256.61
1026.449	4206.67
1026.739	4172.32
1027.029	4148.59
1027.319	4150.63
1027.608	4070.63
1027.898	4095.94
1028.187	4096.39
1028.477	4026.33
1028.766	3974.81
1029.055	3920.57
1029.344	3931.42
1029.634	3925.32
1029.923	3888.03
1030.212	3860.92
1030.501	3811.88
1030.79	3761.71
1031.078	3779.11
1031.367	3752.22
1031.656	3695.95
1031.945	3668.83
1032.233	3605.78
1032.522	3595.61
1032.81	3579.11
1033.099	3567.82
1033.387	3549.29
1033.675	3546.57
1033.963	3483.75
1034.251	3489.85
1034.54	3431.32
1034.828	3368.95
1035.116	3338.22
1035.403	3342.74
1035.691	3328.73
1035.979	3275.17
1036.267	3267.26
1036.554	3199.92
1036.842	3229.29
1037.129	3207.37
1037.417	3157.88
1037.704	3140.26
1037.992	3110.2
1038.279	3070.65
1038.566	3056.19
1038.853	3056.19
1039.14	3056.19
