Data from copper_heatsink_FLMS001491_063.txt Node
Date: Tue Feb 07 10:50:21 GMT 2017
User: dcchb
Spectrometer: FLMS00149
Trigger mode: 0
Integration Time (sec): 2.000000E-2
Scans to average: 10
Electric dark correction enabled: true
Nonlinearity correction enabled: false
Boxcar width: 0
XAxis mode: Wavelengths
Number of Pixels in Spectrum: 2048
>>>>>Begin Spectral Data<<<<<
341.393	-19.04
341.776	-19.04
342.16	-19.04
342.543	-63.56
342.927	-40.28
343.31	-60.17
343.693	-80.05
344.077	-61.52
344.46	-57
344.843	-43.22
345.226	-28.3
345.61	-41.86
345.993	-16.55
346.376	-4.12
346.759	18.93
347.142	14.63
347.525	36.33
347.908	50.79
348.291	78.59
348.674	78.59
349.057	114.97
349.44	137.57
349.823	136.89
350.206	154.29
350.588	180.96
350.971	193.84
351.354	216.43
351.737	224.34
352.119	251.69
352.502	253.27
352.884	261.41
353.267	272.03
353.65	295.53
354.032	321.29
354.414	299.37
354.797	308.18
355.179	341.18
355.562	315.19
355.944	326.71
356.326	326.71
356.709	331.69
357.091	347.5
357.473	358.13
357.855	331.23
358.238	345.47
358.62	355.41
359.002	350.44
359.384	354.96
359.766	350.67
360.148	352.7
360.53	312.03
360.912	346.6
361.294	320.16
361.676	326.04
362.057	314.51
362.439	316.32
362.821	326.71
363.203	329.2
363.584	326.04
363.966	345.02
364.348	341.86
364.729	322.42
365.111	321.29
365.493	324.68
365.874	319.03
366.256	339.6
366.637	311.8
367.019	316.09
367.4	306.38
367.781	309.31
368.163	314.96
368.544	317
368.925	302.08
369.306	351.8
369.688	319.71
370.069	349.54
370.45	319.26
370.831	319.94
371.212	309.99
371.593	315.42
371.974	302.76
372.355	316.77
372.736	326.94
373.117	333.27
373.498	312.25
373.879	324.68
374.26	300.5
374.641	318.58
375.021	299.6
375.402	319.03
375.783	317.68
376.163	322.65
376.544	326.26
376.925	313.61
377.305	338.69
377.686	309.09
378.066	328.3
378.447	329.2
378.827	359.93
379.208	329.43
379.588	326.71
379.968	338.01
380.349	335.08
380.729	337.34
381.109	342.53
381.489	314.06
381.87	350.89
382.25	330.56
382.63	338.01
383.01	333.72
383.39	337.11
383.77	333.72
384.15	344.12
384.53	340.5
384.91	339.14
385.29	345.02
385.67	338.92
386.049	362.65
386.429	351.12
386.809	342.31
387.189	357.45
387.568	358.35
387.948	329.88
388.328	334.85
388.707	355.19
389.087	370.1
389.466	360.84
389.846	360.61
390.225	376.66
390.605	375.53
390.984	368.07
391.363	364.91
391.743	364.68
392.122	361.52
392.501	367.62
392.881	361.52
393.26	372.14
393.639	354.96
394.018	381.4
394.397	349.54
394.776	373.72
395.155	352.93
395.534	361.52
395.913	376.2
396.292	391.35
396.671	373.04
397.05	394.74
397.429	382.08
397.808	385.92
398.186	379.82
398.565	389.09
398.944	385.02
399.323	381.4
399.701	395.64
400.08	382.08
400.458	391.35
400.837	400.16
401.215	397
401.594	410.33
401.972	404.68
402.351	398.35
402.729	412.36
403.107	420.27
403.486	383.89
403.864	391.8
404.242	410.33
404.62	414.17
404.999	414.4
405.377	386.15
405.755	405.36
406.133	406.71
406.511	407.84
406.889	408.97
407.267	415.07
407.645	441.97
408.023	414.85
408.401	431.12
408.779	425.02
409.156	435.86
409.534	439.93
409.912	445.36
410.29	429.54
410.667	444.9
411.045	446.03
411.422	455.98
411.8	444.45
412.178	445.13
412.555	421.4
412.933	439.93
413.31	459.37
413.687	453.26
414.065	456.88
414.442	452.14
414.819	457.56
415.197	455.3
415.574	446.94
415.951	464.11
416.328	462.53
416.705	457.33
417.082	475.41
417.46	465.02
417.837	462.76
418.214	454.85
418.591	470.21
418.967	467.95
419.344	471.34
419.721	474.51
420.098	481.51
420.475	485.13
420.852	501.17
421.228	505.01
421.605	499.37
421.982	519.25
422.358	493.94
422.735	492.36
423.111	491.23
423.488	513.83
423.864	480.83
424.241	507.95
424.617	503.21
424.994	522.19
425.37	505.01
425.746	509.31
426.123	521.74
426.499	530.55
426.875	520.16
427.251	537.33
427.627	540.95
428.003	550.89
428.379	527.16
428.756	519.25
429.132	552.47
429.507	541.17
429.883	550.44
430.259	553.83
430.635	568.06
431.011	559.48
431.387	569.65
431.763	581.4
432.138	584.33
432.514	593.6
432.89	589.31
433.265	578.01
433.641	580.72
434.016	592.02
434.392	585.01
434.767	572.58
435.143	609.42
435.518	598.8
435.894	601.74
436.269	611.23
436.644	625.01
437.02	594.05
437.395	596.09
437.77	600.83
438.145	645.12
438.52	622.53
438.895	604.67
439.271	665.91
439.646	681.73
440.021	654.84
440.395	662.3
440.77	661.4
441.145	648.06
441.52	673.6
441.895	651.68
442.27	645.58
442.645	653.49
443.019	682.19
443.394	656.2
443.769	666.59
444.143	643.99
444.518	689.87
444.892	683.09
445.267	685.8
445.641	669.3
446.016	696.87
446.39	692.13
446.764	701.85
447.139	704.11
447.513	721.05
447.887	696.65
448.262	710.66
448.636	714.28
449.01	705.24
449.384	717.44
449.758	726.93
450.132	734.84
450.506	721.28
450.88	722.18
451.254	727.16
451.628	761.51
452.002	755.4
452.376	775.52
452.75	766.48
453.123	726.7
453.497	772.8
453.871	754.27
454.244	781.84
454.618	799.24
454.992	790.66
455.365	776.65
455.739	813.26
456.112	814.39
456.486	796.76
456.859	817.78
457.232	829.53
457.606	826.36
457.979	826.36
458.352	853.71
458.725	865.46
459.099	856.87
459.472	861.62
459.845	875.17
460.218	883.08
460.591	895.06
460.964	899.58
461.337	910.65
461.71	907.26
462.083	927.6
462.456	909.98
462.829	932.35
463.201	918.79
463.574	918.79
463.947	947.94
464.32	965.79
464.692	958.56
465.065	970.99
465.438	985.23
465.81	1006.47
466.183	1024.32
466.555	1010.54
466.928	1028.17
467.3	1034.94
467.672	1043.98
468.045	1061.61
468.417	1088.95
468.789	1083.98
469.161	1098.45
469.534	1090.31
469.906	1128.28
470.278	1163.08
470.65	1128.5
471.022	1173.7
471.394	1163.3
471.766	1167.37
472.138	1180.03
472.51	1210.99
472.882	1232.23
473.253	1265.22
473.625	1234.49
473.997	1264.77
474.369	1281.94
474.74	1295.95
475.112	1326.69
475.484	1318.33
475.855	1342.51
476.227	1352
476.598	1356.29
476.97	1375.73
477.341	1420.92
477.713	1436.06
478.084	1429.28
478.455	1471.77
478.827	1490.98
479.198	1506.34
479.569	1515.84
479.94	1555.83
480.311	1554.03
480.682	1583.63
481.053	1634.7
481.424	1655.49
481.795	1653.46
482.166	1666.11
482.537	1686.45
482.908	1746.11
483.279	1752.89
483.65	1759.9
484.021	1772.78
484.391	1839.67
484.762	1817.52
485.133	1833.12
485.503	1823.62
485.874	1910.4
486.244	1941.59
486.615	1987.69
486.985	1991.3
487.356	2030.17
487.726	2038.76
488.097	2068.14
488.467	2070.85
488.837	2124.86
489.207	2155.37
489.578	2154.92
489.948	2186.1
490.318	2201.02
490.688	2196.95
491.058	2286.21
491.428	2297.96
491.798	2306.78
492.168	2377.96
492.538	2349.49
492.908	2351.97
493.278	2413.89
493.648	2431.97
494.017	2448.24
494.387	2480.1
494.757	2501.8
495.126	2512.19
495.496	2518.52
495.866	2555.13
496.235	2565.53
496.605	2608.46
496.974	2575.24
497.344	2647.78
497.713	2666.31
498.082	2638.52
498.452	2681.23
498.821	2718.74
499.19	2703.6
499.559	2743.37
499.928	2782.47
500.298	2807.33
500.667	2801.9
501.036	2825.41
501.405	2849.59
501.774	2869.02
502.143	2871.96
502.512	2917.83
502.88	2922.8
503.249	2932.3
503.618	2979.98
503.987	3008.45
504.356	2986.76
504.724	3053.65
505.093	2996.93
505.462	3073.54
505.83	3069.92
506.199	3106.08
506.567	3116.02
506.936	3144.49
507.304	3206.86
507.672	3230.59
508.041	3193.31
508.409	3200.31
508.777	3270.37
509.145	3282.8
509.514	3292.96
509.882	3286.64
510.25	3332.96
510.618	3358.73
510.986	3354.66
511.354	3435.79
511.722	3469.23
512.09	3513.52
512.458	3450.7
512.826	3510.13
513.193	3562.34
513.561	3570.25
513.929	3577.48
514.297	3612.96
514.664	3658.38
515.032	3684.59
515.4	3677.81
515.767	3718.72
516.135	3726.17
516.502	3748.09
516.869	3802.1
517.237	3807.08
517.604	3812.95
517.972	3877.58
518.339	3862.21
518.706	3865.6
519.073	3907.19
519.44	3927.52
519.808	3984.02
520.175	4005.71
520.542	4054.75
520.909	4109.21
521.276	4131.59
521.643	4119.61
522.009	4143.34
522.376	4235.09
522.743	4224.69
523.11	4256.78
523.477	4282.77
523.843	4303.11
524.21	4385.14
524.577	4428.3
524.943	4447.74
525.31	4425.82
525.676	4514.63
526.043	4589.43
526.409	4584.91
526.776	4620.84
527.142	4642.99
527.508	4700.38
527.874	4696.09
528.241	4735.86
528.607	4761.85
528.973	4775.19
529.339	4794.85
529.705	4904.67
530.071	4898.35
530.437	4941.51
530.803	4943.09
531.169	5008.85
531.535	4975.63
531.901	5033.94
532.267	5032.35
532.632	5105.12
532.998	5150.77
533.364	5094.72
533.73	5181.95
534.095	5212.46
534.461	5289.52
534.826	5303.98
535.192	5337.66
535.557	5356.19
535.923	5332.23
536.288	5379.24
536.653	5474.38
537.019	5421.04
537.384	5475.96
537.749	5527.26
538.114	5554.15
538.479	5542.4
538.845	5615.84
539.21	5591.21
539.575	5593.92
539.94	5638.89
540.305	5701.71
540.67	5753.46
541.034	5752.11
541.399	5829.17
541.764	5797.53
542.129	5860.58
542.494	5903.29
542.858	5861.26
543.223	5895.61
543.587	5979.45
543.952	5979.9
544.316	6029.39
544.681	6074.81
545.045	6075.26
545.41	6129.27
545.774	6141.02
546.138	6174.7
546.503	6234.13
546.867	6239.1
547.231	6296.95
547.595	6368.36
547.959	6341.25
548.324	6406.1
548.688	6437.51
549.052	6460.79
549.416	6512.09
549.779	6562.03
550.143	6583.05
550.507	6678.41
550.871	6685.19
551.235	6665.98
551.599	6771.29
551.962	6803.38
552.326	6827.56
552.689	6837.5
553.053	6893.55
553.417	6980.32
553.78	7105.29
554.143	7076.14
554.507	7057.61
554.87	7155.69
555.234	7255.8
555.597	7257.38
555.96	7401.56
556.323	7392.29
556.686	7446.3
557.05	7571.27
557.413	7574.43
557.776	7641.32
558.139	7690.59
558.502	7760.42
558.865	7854.2
559.228	7936.91
559.59	8006.51
559.953	8057.58
560.316	8159.73
560.679	8193.17
561.041	8284.92
561.404	8357.01
561.767	8406.5
562.129	8433.39
562.492	8589.77
562.854	8601.75
563.217	8643.78
563.579	8715.87
563.941	8796.32
564.304	8968.52
564.666	9044.9
565.028	9129.65
565.39	9158.8
565.753	9310.43
566.115	9443.09
566.477	9507.49
566.839	9610.31
567.201	9613.48
567.563	9693.25
567.925	9814.6
568.287	9923.07
568.648	9915.84
569.01	10068.15
569.372	10175.04
569.734	10124.2
570.095	10305.66
570.457	10372.78
570.819	10479.89
571.18	10485.54
571.542	10642.15
571.903	10698.87
572.265	10833.56
572.626	10924.18
572.987	10933.89
573.349	11027.68
573.71	11148.58
574.071	11218.63
574.432	11318.06
574.794	11414.33
575.155	11494.1
575.516	11492.75
575.877	11609.81
576.238	11724.16
576.599	11859.52
576.96	11893.64
577.32	11859.52
577.681	12115.11
578.042	12091.83
578.403	12119.85
578.763	12244.82
579.124	12311.26
579.485	12429.22
579.845	12534.3
580.206	12607.3
580.566	12569.78
580.927	12621.76
581.287	12730.46
581.648	12751.25
582.008	12821.08
582.368	12852.94
582.728	13002.77
583.089	12980.85
583.449	12982.65
583.809	13067.17
584.169	13091.35
584.529	13189.65
584.889	13363.89
585.249	13319.37
585.609	13311.68
585.969	13435.07
586.329	13499.93
586.688	13537.44
587.048	13600.94
587.408	13628.06
587.768	13656.99
588.127	13685.23
588.487	13647.27
588.846	13822.4
589.206	13761.84
589.565	13921.39
589.925	13935.62
590.284	13849.75
590.643	13994.15
591.003	14051.1
591.362	14114.15
591.721	14125.22
592.08	14227.37
592.44	14278.21
592.799	14295.16
593.158	14332.67
593.517	14365.89
593.876	14396.4
594.235	14356.18
594.593	14476.85
594.952	14535.83
595.311	14530.63
595.67	14626.45
596.029	14709.16
596.387	14669.39
596.746	14817.41
597.104	14775.6
597.463	14766.56
597.822	14942.83
598.18	14880.46
598.538	14970.62
598.897	15068.47
599.255	14929.04
599.613	15148.7
599.972	15041.58
600.33	15159.09
600.688	15228.7
601.046	15312.31
601.404	15373.78
601.762	15267.56
602.12	15463.72
602.478	15491.06
602.836	15505.07
603.194	15429.37
603.552	15467.33
603.91	15432.31
604.268	15569.93
604.625	15613.54
604.983	15752.98
605.341	15654.45
605.698	15835.46
606.056	15881.33
606.413	15957.94
606.771	16009.69
607.128	16019.41
607.485	15954.55
607.843	16101.22
608.2	16118.16
608.557	16165.62
608.914	16162
609.272	16246.52
609.629	16375.33
609.986	16447.19
610.343	16366.52
610.7	16601.09
611.057	16552.05
611.414	16554.99
611.771	16611.71
612.127	16643.35
612.484	16675.66
612.841	16724.93
613.198	16717.92
613.554	16759.05
613.911	16862.1
614.267	16843.79
614.624	16901.19
614.98	16909.33
615.337	17043.11
615.693	17108.65
616.05	17152.49
616.406	17199.27
616.762	17139.38
617.118	17227.29
617.475	17229.1
617.831	17278.81
618.187	17274.97
618.543	17307.96
618.899	17511.12
619.255	17442.42
619.611	17522.65
619.967	17572.59
620.323	17615.53
620.678	17505.02
621.034	17618.24
621.39	17687.61
621.746	17685.35
622.101	17771.68
622.457	17802.87
622.812	17764
623.168	17854.16
623.523	17903.88
623.879	17882.19
624.234	17780.72
624.589	17973.48
624.945	17883.32
625.3	18013.26
625.655	18013.93
626.01	17976.42
626.365	18035.63
626.72	17959.47
627.075	17989.53
627.43	18028.17
627.785	18010.54
628.14	18149.3
628.495	18123.08
628.85	18102.74
629.205	18192.01
629.559	18203.98
629.914	18151.33
630.269	18227.94
630.623	18137.55
630.978	18247.6
631.332	18314.49
631.687	18410.31
632.041	18302.29
632.396	18383.41
632.75	18287.82
633.104	18432.91
633.459	18260.71
633.813	18297.09
634.167	18253.02
634.521	18324.89
634.875	18321.95
635.229	18259.35
635.583	18293.47
635.937	18280.59
636.291	18348.16
636.645	18262.74
636.999	18264.32
637.352	18367.14
637.706	18322.17
638.06	18398.56
638.413	18362.62
638.767	18320.59
639.121	18399.01
639.474	18308.16
639.828	18300.25
640.181	18355.62
640.534	18427.26
640.888	18393.36
641.241	18258.9
641.594	18296.86
641.947	18417.76
642.301	18282.17
642.654	18401.04
643.007	18334.15
643.36	18366.47
643.713	18417.99
644.066	18500.25
644.419	18426.35
644.771	18220.71
645.124	17959.02
645.477	17863.88
645.83	17786.37
646.182	17819.36
646.535	17905.46
646.888	17993.37
647.24	17899.13
647.593	18065.23
647.945	18024.55
648.298	17952.01
648.65	17944.1
649.002	17913.37
649.355	17878.8
649.707	17805.35
650.059	17877.89
650.411	18117.43
650.763	18147.49
651.115	18432.45
651.467	18386.8
651.819	18384.09
652.171	18395.84
652.523	18344.32
652.875	18342.06
653.227	18256.19
653.578	18439.01
653.93	18363.08
654.282	18289.41
654.633	18274.94
654.985	18338.9
655.337	18344.77
655.688	18389.29
656.039	18403.75
656.391	18282.17
656.742	18349.97
657.094	18391.55
657.445	18472.9
657.796	18427.03
658.147	18410.53
658.498	18399.23
658.849	18389.29
659.2	18448.95
659.551	18265.68
659.902	18412.79
660.253	18351.78
660.604	18444.88
660.955	18399.69
661.306	18409.4
661.656	18438.33
662.007	18465.9
662.358	18531.21
662.708	18522.85
663.059	18541.38
663.409	18438.1
663.76	18613.24
664.11	18537.31
664.461	18637.42
664.811	18621.6
665.161	18523.52
665.511	18545.44
665.862	18623.41
666.212	18720.13
666.562	18662.96
666.912	18656.4
667.262	18577.08
667.612	18638.78
667.962	18664.99
668.312	18647.59
668.662	18718.32
669.011	18782.73
669.361	18654.82
669.711	18703.63
670.06	18809.84
670.41	18616.18
670.76	18641.49
671.109	18765.33
671.459	18723.74
671.808	18769.39
672.157	18711.99
672.507	18645.78
672.856	18632.22
673.205	18749.28
673.554	18705.67
673.904	18746.8
674.253	18802.84
674.602	18712.9
674.951	18479.46
675.3	18462.73
675.649	18771.2
675.998	18848.49
676.346	18873.8
676.695	18898.43
677.044	18667.25
677.393	18789.96
677.741	18891.42
678.09	18803.97
678.438	18802.16
678.787	18840.13
679.135	18917.19
679.484	18846.68
679.832	18828.6
680.181	18800.35
680.529	18766.46
680.877	18697.76
681.225	18792.22
681.573	18838.32
681.922	18651.2
682.27	18737.76
682.618	18799
682.966	18751.99
683.314	18750.41
683.661	18624.54
684.009	18601.94
684.357	18551.32
684.705	18579.57
685.053	18664.76
685.4	18667.93
685.748	18537.76
686.095	18530.76
686.443	18474.94
686.79	18491.21
687.138	18539.12
687.485	18540.02
687.832	18524.65
688.18	18496.63
688.527	18439.23
688.874	18437.65
689.221	18414.15
689.568	18364.43
689.915	18502.06
690.262	18333.7
690.609	18383.41
690.956	18263.64
691.303	18171.9
691.65	18126.25
691.997	18247.15
692.344	18175.28
692.69	18170.09
693.037	18135.74
693.383	18000.83
693.73	18078.56
694.077	17958.12
694.423	18128.05
694.769	17938
695.116	17944.56
695.462	17852.36
695.808	17773.26
696.155	17935.52
696.501	17814.62
696.847	17831.34
697.193	17749.53
697.539	17881.96
697.885	17677.9
698.231	17652.13
698.577	17750.89
698.923	17660.27
699.269	17544.11
699.614	17469.31
699.96	17491.91
700.306	17591.12
700.651	17457.11
700.997	17418.47
701.342	17405.14
701.688	17394.51
702.033	17248.76
702.379	17385.93
702.724	17279.72
703.069	17399.03
703.415	17178.25
703.76	17184.35
704.105	17161.53
704.45	17199.04
704.795	17064.81
705.14	17046.5
705.485	17059.83
705.83	17025.48
706.175	17009.89
706.52	16960.18
706.865	16916.79
707.209	16847.64
707.554	16886.28
707.899	16942.55
708.243	16811.93
708.588	16848.31
708.932	16639.05
709.277	16658.94
709.621	16679.28
709.966	16666.62
710.31	16735.1
710.654	16551.82
710.998	16658.94
711.342	16727.87
711.687	16544.14
712.031	16558.83
712.375	16438.38
712.719	16506.63
713.063	16513.18
713.407	16504.14
713.75	16472.05
714.094	16478.15
714.438	16369.68
714.782	16423.24
715.125	16383.69
715.469	16374.43
715.812	16280.87
716.156	16202.68
716.499	16293.3
716.843	16323.58
717.186	16222.12
717.53	16284.49
717.873	16171.72
718.216	16184.6
718.559	16093.76
718.902	16084.27
719.246	16170.59
719.589	16145.96
719.932	16157.26
720.275	16093.31
720.617	16049.92
720.96	16080.42
721.303	16093.98
721.646	16195.68
721.989	15968.34
722.331	16049.01
722.674	15916.59
723.016	15987.32
723.359	15972.18
723.701	15955.23
724.044	15907.77
724.386	15777.16
724.729	15913.42
725.071	15822.8
725.413	15856.93
725.755	15779.19
726.097	15861.45
726.439	15742.81
726.782	15774.67
727.124	15859.87
727.465	15760.89
727.807	15817.61
728.149	15827.32
728.491	15782.81
728.833	15836.82
729.175	15783.94
729.516	15695.12
729.858	15750.49
730.199	15736.93
730.541	15768.79
730.882	15776.48
731.224	15807.44
731.565	15633.66
731.906	15683.6
732.248	15733.32
732.589	15672.53
732.93	15557.95
733.271	15668.46
733.612	15699.87
733.953	15658.29
734.294	15528.8
734.635	15604.96
734.976	15637.27
735.317	15607.89
735.658	15575.81
735.999	15602.25
736.339	15551.17
736.68	15553.66
737.021	15512.08
737.361	15405.87
737.702	15520.21
738.042	15498.52
738.383	15374.45
738.723	15451.97
739.063	15516.15
739.404	15479.31
739.744	15445.64
740.084	15385.08
740.424	15504.85
740.764	15478.41
741.104	15426.43
741.444	15317.73
741.784	15348.01
742.124	15415.36
742.464	15412.87
742.804	15381.91
743.143	15388.47
743.483	15331.07
743.823	15279.09
744.162	15275.7
744.502	15358.64
744.841	15234.8
745.181	15299.65
745.52	15286.1
745.86	15219.88
746.199	15147.34
746.538	15186.21
746.877	15185.76
747.216	15188.47
747.556	15165.87
747.895	15174.23
748.234	15146.21
748.573	15145.31
748.911	15013.11
749.25	15083.84
749.589	15083.39
749.928	15099.21
750.267	15037.06
750.605	15080.22
750.944	15031.64
751.283	14923.84
751.621	14975.82
751.96	14815.15
752.298	14805.66
752.636	14864.86
752.975	14856.05
753.313	14787.58
753.651	14908.7
753.989	14825.54
754.327	14823.06
754.666	14804.75
755.004	14799.33
755.342	14795.49
755.679	14729.05
756.017	14717.75
756.355	14765.2
756.693	14698.09
757.031	14715.26
757.368	14654.02
757.706	14606.57
758.044	14653.34
758.381	14617.41
758.719	14550.07
759.056	14537.64
759.394	14402.95
759.731	14492.22
760.068	14346.68
760.405	14391.88
760.743	14442.73
761.08	14412.9
761.417	14321.37
761.754	14242.73
762.091	14296.74
762.428	14320.7
762.765	14191.89
763.102	14272.56
763.438	14263.07
763.775	14146.24
764.112	14184.43
764.449	14204.77
764.785	14114.6
765.122	14014.04
765.458	13962.29
765.795	13890.88
766.131	13974.94
766.467	13902.18
766.804	13816.53
767.14	13675.74
767.476	13794.38
767.812	13679.58
768.148	13765.01
768.485	13644.33
768.821	13584.45
769.157	13541.28
769.492	13511.23
769.828	13494.73
770.164	13480.27
770.5	13469.87
770.836	13468.52
771.171	13395.98
771.507	13329.08
771.842	13289.31
772.178	13296.09
772.513	13331.34
772.849	13250.67
773.184	13229.65
773.519	13263.32
773.855	13145.59
774.19	13064.91
774.525	13076.44
774.86	12984.91
775.195	12971.13
775.53	12916.67
775.865	12989.66
776.2	12871.47
776.535	12770
776.87	12788.76
777.205	12763.9
777.539	12709.89
777.874	12712.83
778.209	12562.1
778.543	12652.27
778.878	12544.25
779.212	12582.66
779.547	12488.88
779.881	12468.54
780.215	12376.12
780.55	12510.12
780.884	12472.84
781.218	12410.92
781.552	12307.42
781.886	12304.7
782.22	12273.52
782.554	12191.71
782.888	12023.13
783.222	12193.07
783.556	12094.54
783.889	12047.54
784.223	11915.11
784.557	11827.2
784.89	11965.96
785.224	11904.04
785.557	11875.79
785.891	11912.4
786.224	11965.96
786.558	11879.86
786.891	11753.31
787.224	11680.99
787.557	11669.47
787.891	11702.01
788.224	11622.24
788.557	11641.9
788.89	11694.1
789.223	11582.24
789.556	11539.3
789.888	11505.4
790.221	11484.61
790.554	11445.29
790.887	11443.03
791.219	11294.34
791.552	11336.82
791.884	11292.3
792.217	11276.48
792.549	11211.4
792.882	11204.62
793.214	11112.42
793.546	11207.11
793.879	11046.66
794.211	11002.82
794.543	11099.76
794.875	11045.53
795.207	11097.96
795.539	10975.7
795.871	11047.11
796.203	10985.42
796.535	10870.17
796.867	10864.06
797.198	10838.53
797.53	10814.35
797.862	10750.17
798.193	10783.16
798.525	10741.58
798.856	10730.28
799.188	10665.88
799.519	10654.58
799.85	10602.15
800.182	10574.35
800.513	10603.28
800.844	10498.2
801.175	10605.31
801.506	10588.14
801.837	10531.64
802.168	10526.22
802.499	10402.38
802.83	10424.98
803.161	10396.51
803.491	10417.07
803.822	10363.06
804.153	10278.32
804.483	10173.01
804.814	10228.38
805.145	10247.13
805.475	10190.86
805.805	10196.96
806.136	10093.46
806.466	10223.4
806.796	10102.73
807.126	10024.54
807.457	10091.88
807.787	10103.18
808.117	10039.68
808.447	10019.12
808.777	10015.05
809.107	9971.43
809.436	9935.73
809.766	9919
810.096	9953.35
810.426	9873.36
810.755	9943.18
811.085	9876.52
811.414	9924.65
811.744	9761.72
812.073	9844.43
812.403	9806.92
812.732	9749.29
813.061	9777.31
813.39	9709.29
813.719	9739.12
814.049	9794.49
814.378	9742.06
814.707	9733.25
815.036	9600.82
815.365	9688.28
815.693	9582.74
816.022	9569.18
816.351	9570.09
816.68	9448.73
817.008	9463.65
817.337	9442.63
817.665	9404.22
817.994	9447.38
818.322	9475.17
818.651	9390.43
818.979	9446.47
819.307	9406.48
819.636	9354.27
819.964	9310.43
820.292	9430.66
820.62	9486.93
820.948	9377.32
821.276	9415.52
821.604	9347.04
821.932	9382.97
822.259	9408.06
822.587	9370.32
822.915	9379.36
823.243	9341.39
823.57	9388.17
823.898	9351.11
824.225	9375.97
824.553	9389.75
824.88	9326.7
825.207	9407.83
825.535	9329.64
825.862	9432.92
826.189	9378.45
826.516	9420.03
826.843	9373.93
827.17	9379.81
827.497	9479.47
827.824	9328.96
828.151	9508.17
828.478	9463.2
828.805	9552.69
829.131	9438.34
829.458	9374.16
829.785	9408.96
830.111	9456.19
830.438	9485.8
830.764	9489.86
831.09	9528.28
831.417	9523.31
831.743	9560.37
832.069	9486.47
832.395	9353.82
832.722	9423.2
833.048	9392.01
833.374	9495.51
833.7	9312.92
834.026	9428.4
834.351	9505.46
834.677	9461.39
835.003	9444.67
835.329	9500.94
835.654	9470.2
835.98	9446.25
836.306	9460.49
836.631	9357.66
836.956	9420.49
837.282	9421.62
837.607	9326.93
837.932	9311.56
838.258	9396.76
838.583	9399.7
838.908	9339.58
839.233	9343.88
839.558	9359.02
839.883	9398.57
840.208	9282.64
840.533	9326.7
840.858	9388.4
841.182	9361.96
841.507	9334.61
841.832	9299.59
842.156	9302.52
842.481	9289.42
842.805	9168.97
843.13	9286.93
843.454	9227.72
843.778	9152.47
844.103	9231.57
844.427	9149.31
844.751	9177.33
845.075	9058.01
845.399	9148.86
845.723	9020.5
846.047	9096.88
846.371	9004.23
846.695	9030.44
847.019	8892.37
847.343	8974.62
847.666	8877.45
847.99	8831.35
848.313	8829.99
848.637	8773.95
848.96	8870.67
849.284	8779.83
849.607	8737.11
849.931	8730.34
850.254	8647.85
850.577	8598.59
850.9	8587.74
851.223	8630.23
851.546	8586.38
851.869	8472.72
852.192	8582.99
852.515	8530.11
852.838	8409.44
853.161	8503
853.483	8402.21
853.806	8378.71
854.129	8393.4
854.451	8365.83
854.774	8298.48
855.096	8280.18
855.419	8306.39
855.741	8326.28
856.063	8253.06
856.385	8224.59
856.708	8210.8
857.03	8195.89
857.352	8210.58
857.674	8136.23
857.996	8127.64
858.318	7994.54
858.64	8114.76
858.961	8095.55
859.283	8104.59
859.605	8010.13
859.926	8013.52
860.248	8066.4
860.57	8007.64
860.891	7993.63
861.212	7918.83
861.534	7886.74
861.855	7916.57
862.176	7943.24
862.498	7948.66
862.819	7951.82
863.14	7888.78
863.461	7929
863.782	7886.74
864.103	7906.63
864.424	7867.08
864.745	7816.01
865.065	7763.13
865.386	7775.78
865.707	7809.91
866.027	7831.38
866.348	7780.98
866.668	7825.27
866.989	7678.84
867.309	7721.77
867.63	7758.84
867.95	7813.3
868.27	7715.9
868.59	7665.73
868.91	7698.27
869.23	7723.36
869.55	7693.07
869.87	7682.68
870.19	7696.46
870.51	7677.48
870.83	7602.68
871.15	7614.21
871.469	7635.22
871.789	7666.63
872.109	7642.23
872.428	7654.21
872.748	7661.66
873.067	7586.86
873.386	7602.46
873.706	7605.39
874.025	7511.61
874.344	7522.23
874.663	7523.14
874.982	7534.21
875.301	7496.47
875.62	7535.34
875.939	7532.4
876.258	7527.43
876.577	7496.7
876.896	7487.66
877.214	7416.7
877.533	7446.53
877.852	7433.65
878.17	7440.43
878.489	7442.46
878.807	7445.62
879.125	7440.88
879.444	7427.32
879.762	7408.34
880.08	7444.27
880.398	7374.21
880.716	7408.11
881.034	7418.51
881.352	7386.87
881.67	7310.71
881.988	7294.89
882.306	7304.38
882.624	7338.73
882.941	7305.29
883.259	7264.39
883.577	7235.91
883.894	7233.43
884.212	7217.15
884.529	7244.72
884.846	7260.32
885.164	7245.85
885.481	7218.96
885.798	7235.91
886.115	7134.45
886.432	7134.67
886.75	7158.17
887.067	7155.91
887.383	7151.85
887.7	7090.83
888.017	7102.81
888.334	7122.24
888.651	7058.74
888.967	7072.3
889.284	7061.9
889.6	7012.41
889.917	6922.47
890.233	7004.05
890.55	6893.32
890.866	6979.42
891.182	6919.08
891.498	6896.49
891.815	6907.33
892.131	6882.47
892.447	6889.03
892.763	6903.94
893.079	6821.01
893.395	6866.66
893.71	6791.4
894.026	6792.99
894.342	6812.65
894.657	6759.77
894.973	6728.81
895.289	6772.19
895.604	6726.77
895.92	6696.26
896.235	6675.47
896.55	6688.58
896.865	6595.02
897.181	6600.67
897.496	6600.45
897.811	6610.17
898.126	6521.13
898.441	6458.3
898.756	6525.42
899.071	6490.39
899.386	6545.31
899.7	6482.03
900.015	6448.81
900.33	6419.66
900.644	6441.13
900.959	6470.96
901.273	6377.63
901.588	6328.14
901.902	6300.12
902.216	6268.25
902.531	6274.81
902.845	6258.54
903.159	6245.88
903.473	6215.83
903.787	6184.87
904.101	6183.28
904.415	6229.61
904.729	6132.66
905.042	6066.45
905.356	6118.2
905.67	6079.78
905.984	6069.16
906.297	6068.48
906.611	6006.79
906.924	6018.99
907.237	5998.2
907.551	5933.8
907.864	5929.51
908.177	5887.02
908.491	5861.71
908.804	5848.6
909.117	5778.1
909.43	5782.16
909.743	5789.85
910.056	5780.13
910.368	5739.45
910.681	5727.48
910.994	5711.88
911.307	5725.44
911.619	5634.6
911.932	5709.62
912.244	5648.61
912.557	5617.65
912.869	5692.68
913.181	5604.54
913.494	5603.86
913.806	5629.4
914.118	5616.97
914.43	5520.25
914.742	5533.58
915.054	5464.88
915.366	5454.26
915.678	5457.65
915.99	5451.78
916.302	5411.1
916.613	5376.75
916.925	5387.37
917.236	5374.72
917.548	5353.7
917.859	5316.64
918.171	5233.93
918.482	5236.42
918.794	5239.81
919.105	5249.75
919.416	5217.43
919.727	5146.93
920.038	5177.21
920.349	5122.07
920.66	5110.09
920.971	5125.68
921.282	5125.46
921.593	5016.53
921.903	5071.9
922.214	5031
922.525	5024.67
922.835	4996.2
923.146	4970.21
923.456	4965.91
923.767	4904.22
924.077	4906.48
924.387	4932.47
924.697	4896.99
925.008	4879.82
925.318	4832.81
925.628	4856.09
925.938	4805.01
926.248	4779.7
926.558	4782.64
926.867	4739.25
927.177	4795.52
927.487	4708.52
927.796	4660.84
928.106	4697.22
928.416	4677.11
928.725	4626.49
929.034	4649.99
929.344	4650.44
929.653	4601.4
929.962	4594.17
930.271	4546.94
930.581	4524.12
930.89	4602.53
931.199	4478.24
931.508	4479.15
931.817	4539.26
932.125	4506.49
932.434	4451.8
932.743	4408.42
933.051	4434.63
933.36	4366.38
933.669	4396.21
933.977	4388.75
934.286	4351.24
934.594	4353.28
934.902	4282.32
935.21	4303.56
935.519	4310.11
935.827	4293.16
936.135	4234.63
936.443	4213.17
936.751	4212.71
937.059	4207.06
937.367	4181.75
937.674	4165.26
937.982	4157.35
938.29	4112.38
938.597	4143.79
938.905	4087.07
939.213	4037.8
939.52	4086.62
939.827	4089.1
940.135	4064.7
940.442	4062.44
940.749	3999.39
941.056	4031.02
941.363	3994.19
941.67	3960.52
941.977	3928.88
942.284	3945.15
942.591	3925.94
942.898	3921.65
943.205	3897.69
943.511	3877.13
943.818	3833.29
944.125	3847.53
944.431	3789.45
944.738	3776.34
945.044	3753.97
945.35	3799.17
945.657	3751.26
945.963	3717.13
946.269	3723.24
946.575	3768.88
946.881	3706.51
947.187	3674.88
947.493	3654.08
947.799	3667.64
948.105	3632.62
948.41	3580.19
948.716	3633.07
949.022	3580.87
949.327	3556.46
949.633	3552.17
949.938	3539.51
950.244	3576.57
950.549	3553.75
950.854	3501.55
951.16	3510.59
951.465	3454.54
951.77	3481.66
952.075	3431.27
952.38	3507.65
952.685	3409.57
952.99	3452.73
953.294	3403.02
953.599	3360.31
953.904	3384.94
954.209	3345.17
954.513	3382.23
954.818	3360.31
955.122	3284.38
955.426	3312.85
955.731	3318.27
956.035	3247.77
956.339	3297.71
956.643	3264.94
956.948	3266.3
957.252	3204.38
957.556	3206.86
957.86	3230.37
958.163	3206.64
958.467	3204.15
958.771	3192.18
959.075	3106.3
959.378	3073.76
959.682	3113.99
959.985	3099.07
960.289	3069.47
960.592	3082.57
960.896	3086.64
961.199	3109.92
961.502	3083.25
961.805	3040.32
962.108	3017.27
962.411	3055
962.714	3011.16
963.017	3009.58
963.32	3014.78
963.623	2992.18
963.926	2956.25
964.228	2979.3
964.531	2930.04
964.833	2958.74
965.136	2895.01
965.438	2927.32
965.741	2891.39
966.043	2927.78
966.345	2904.5
966.648	2881.45
966.95	2878.06
967.252	2786.76
967.554	2831.96
967.856	2779.53
968.158	2789.47
968.46	2782.7
968.761	2744.96
969.063	2769.59
969.365	2729.36
969.666	2758.97
969.968	2736.37
970.269	2753.54
970.571	2718.74
970.872	2696.82
971.174	2708.12
971.475	2678.74
971.776	2707.22
972.077	2674
972.378	2655.47
972.679	2653.43
972.98	2649.82
973.281	2626.09
973.582	2652.3
973.883	2618.18
974.183	2615.02
974.484	2577.28
974.785	2583.15
975.085	2566.43
975.386	2515.58
975.686	2554.68
975.986	2534.79
976.287	2509.48
976.587	2521.46
976.887	2483.95
977.187	2471.97
977.487	2485.75
977.787	2458.18
978.087	2445.53
978.387	2415.93
978.687	2415.25
978.987	2413.44
979.286	2415.02
979.586	2410.73
979.885	2405.08
980.185	2378.64
980.484	2377.51
980.784	2335.25
981.083	2331.41
981.382	2394.46
981.682	2370.95
981.981	2344.74
982.28	2316.94
982.579	2297.06
982.878	2295.02
983.177	2281.47
983.475	2302.26
983.774	2276.27
984.073	2261.35
984.372	2248.7
984.67	2232.65
984.969	2224.07
985.267	2266.78
985.566	2190.39
985.864	2193.11
986.162	2192.65
986.461	2193.78
986.759	2174.35
987.057	2163.05
987.355	2127.35
987.653	2149.49
987.951	2152.66
988.249	2193.56
988.547	2124.63
988.844	2153.56
989.142	2140
989.44	2112.66
989.737	2125.99
990.035	2086.22
990.332	2099.32
990.63	2051.87
990.927	2052.32
991.224	2017.52
991.521	2026.56
991.819	2044.86
992.116	2026.56
992.413	1971.42
992.71	1974.35
993.006	2022.04
993.303	1987.69
993.6	1983.17
993.897	1987.91
994.193	1989.72
994.49	1963.51
994.787	1913.57
995.083	1922.38
995.379	1943.17
995.676	1951.98
995.972	1895.49
996.268	1886.67
996.565	1883.06
996.861	1873.79
997.157	1871.31
997.453	1860.46
997.749	1847.35
998.044	1853.23
998.34	1848.48
998.636	1820.23
998.932	1801.25
999.227	1807.13
999.523	1809.39
999.818	1808.03
1000.114	1759.45
1000.409	1773
1000.704	1739.56
1001	1750.86
1001.295	1708.37
1001.59	1714.93
1001.885	1773.68
1002.18	1716.28
1002.475	1717.86
1002.77	1683.74
1003.065	1656.4
1003.359	1691.42
1003.654	1683.29
1003.949	1671.99
1004.243	1650.97
1004.538	1686
1004.832	1656.85
1005.127	1603.29
1005.421	1635.83
1005.715	1643.74
1006.009	1620.01
1006.304	1622.73
1006.598	1580.01
1006.892	1585.89
1007.186	1571.88
1007.48	1582.05
1007.773	1537.76
1008.067	1561.48
1008.361	1546.57
1008.655	1517.19
1008.948	1529.39
1009.242	1526.46
1009.535	1508.15
1009.829	1520.81
1010.122	1479.9
1010.415	1482.39
1010.708	1454.37
1011.001	1499.79
1011.295	1466.57
1011.588	1475.61
1011.881	1445.1
1012.173	1432
1012.466	1447.36
1012.759	1419.79
1013.052	1410.75
1013.344	1416.86
1013.637	1412.34
1013.93	1409.62
1014.222	1410.53
1014.514	1377.76
1014.807	1380.25
1015.099	1368.04
1015.391	1381.83
1015.683	1347.7
1015.976	1325.33
1016.268	1338.44
1016.56	1348.38
1016.851	1322.62
1017.143	1299.57
1017.435	1276.07
1017.727	1271.1
1018.018	1299.12
1018.31	1239.91
1018.602	1250.08
1018.893	1250.08
1019.185	1264.32
1019.476	1243.07
1019.767	1241.04
1020.058	1215.28
1020.35	1230.19
1020.641	1187.03
1020.932	1213.02
1021.223	1196.97
1021.514	1206.92
1021.804	1209.18
1022.095	1182.51
1022.386	1171.89
1022.677	1163.08
1022.967	1156.52
1023.258	1137.31
1023.548	1160.82
1023.839	1149.97
1024.129	1141.83
1024.419	1124.21
1024.709	1118.33
1025	1108.61
1025.29	1106.81
1025.58	1086.69
1025.87	1073.36
1026.16	1065.9
1026.449	1074.27
1026.739	1044.89
1027.029	1082.4
1027.319	1046.02
1027.608	1047.15
1027.898	1029.75
1028.187	1031.33
1028.477	1031.55
1028.766	1007.37
1029.055	1012.57
1029.344	1008.73
1029.634	1015.06
1029.923	1003.53
1030.212	981.16
1030.501	987.26
1030.79	981.39
1031.078	986.81
1031.367	972.12
1031.656	954.49
1031.945	960.6
1032.233	940.26
1032.522	936.42
1032.81	950.43
1033.099	951.1
1033.387	927.38
1033.675	929.64
1033.963	929.86
1034.251	933.7
1034.54	901.16
1034.828	888.51
1035.116	902.07
1035.403	876.3
1035.691	878.11
1035.979	880.15
1036.267	884.67
1036.554	854.38
1036.842	853.25
1037.129	844.89
1037.417	846.93
1037.704	830.66
1037.992	835.18
1038.279	823.65
1038.566	836.53
1038.853	836.53
1039.14	836.53
