Data from copper_heatsink_FLMS001491_020.txt Node
Date: Tue Feb 07 10:49:19 GMT 2017
User: dcchb
Spectrometer: FLMS00149
Trigger mode: 0
Integration Time (sec): 2.000000E-2
Scans to average: 10
Electric dark correction enabled: true
Nonlinearity correction enabled: false
Boxcar width: 0
XAxis mode: Wavelengths
Number of Pixels in Spectrum: 2048
>>>>>Begin Spectral Data<<<<<
341.393	-8.04
341.776	-8.04
342.16	-8.04
342.543	-48.71
342.927	-79
343.31	-57.07
343.693	-64.98
344.077	-65.21
344.46	-60.01
344.843	-41.26
345.226	-47.58
345.61	-32.44
345.993	15.69
346.376	4.84
346.759	5.52
347.142	13.66
347.525	22.25
347.908	40.78
348.291	74.67
348.674	91.85
349.057	99.31
349.44	136.82
349.823	145.41
350.206	168.68
350.588	224.73
350.971	248.23
351.354	249.36
351.737	270.15
352.119	276.25
352.502	280.09
352.884	270.6
353.267	305.4
353.65	309.24
354.032	315.12
354.414	326.87
354.797	330.03
355.179	339.07
355.562	323.93
355.944	334.33
356.326	356.7
356.709	367.55
357.091	374.33
357.473	351.05
357.855	366.42
358.238	362.8
358.62	346.53
359.002	369.58
359.384	342.91
359.766	365.06
360.148	367.77
360.53	358.51
360.912	354.89
361.294	363.48
361.676	352.86
362.057	340.65
362.439	349.24
362.821	354.67
363.203	362.12
363.584	356.25
363.966	354.21
364.348	353.76
364.729	353.54
365.111	358.73
365.493	347.43
365.874	370.48
366.256	344.72
366.637	334.78
367.019	335.01
367.4	345.85
367.781	344.5
368.163	345.4
368.544	341.78
368.925	319.41
369.306	337.04
369.688	354.67
370.069	355.57
370.45	342.01
370.831	327.55
371.212	339.52
371.593	336.14
371.974	304.95
372.355	337.72
372.736	337.04
373.117	328.23
373.498	362.58
373.879	353.99
374.26	345.17
374.641	356.25
375.021	343.14
375.402	335.68
375.783	352.41
376.163	356.47
376.544	349.92
376.925	360.77
377.305	361.9
377.686	350.6
378.066	360.54
378.447	372.97
378.827	360.77
379.208	381.11
379.588	378.62
379.968	339.52
380.349	368.9
380.729	371.16
381.109	370.26
381.489	368.68
381.87	349.02
382.25	363.25
382.63	348.34
383.01	351.28
383.39	384.27
383.77	364.38
384.15	382.69
384.53	388.11
384.91	368.22
385.29	388.56
385.67	390.15
386.049	412.07
386.429	394.89
386.809	403.48
387.189	394.89
387.568	378.17
387.948	363.25
388.328	377.49
388.707	385.63
389.087	411.61
389.466	396.92
389.846	384.04
390.225	404.61
390.605	419.75
390.984	398.73
391.363	383.82
391.743	428.79
392.122	403.03
392.501	428.79
392.881	422.46
393.26	405.74
393.639	404.61
394.018	408
394.397	421.33
394.776	404.61
395.155	433.76
395.534	414.1
395.913	419.97
396.292	433.99
396.671	420.2
397.05	412.52
397.429	424.49
397.808	421.78
398.186	438.28
398.565	444.15
398.944	457.26
399.323	459.52
399.701	445.28
400.08	427.66
400.458	450.03
400.837	467.21
401.215	443.48
401.594	443.03
401.972	472.63
402.351	466.53
402.729	453.65
403.107	448.45
403.486	472.4
403.864	451.16
404.242	481.89
404.62	458.17
404.999	471.27
405.377	486.19
405.755	486.41
406.133	489.8
406.511	485.06
406.889	474.89
407.267	466.3
407.645	487.32
408.023	485.74
408.401	488.9
408.779	493.65
409.156	501.55
409.534	502.68
409.912	490.71
410.29	513.08
410.667	511.27
411.045	501.55
411.422	512.4
411.8	511.72
412.178	526.41
412.555	522.12
412.933	537.71
413.31	539.97
413.687	510.59
414.065	542.68
414.442	562.34
414.819	562.57
415.197	540.42
415.574	534.32
415.951	544.27
416.328	573.19
416.705	542.91
417.082	542.91
417.46	559.63
417.837	579.74
418.214	581.55
418.591	570.25
418.967	562.34
419.344	583.59
419.721	579.29
420.098	602.12
420.475	584.94
420.852	596.92
421.228	558.95
421.605	599.86
421.982	590.14
422.358	604.83
422.735	615
423.111	591.27
423.488	612.06
423.864	617.94
424.241	602.34
424.617	617.71
424.994	626.98
425.37	617.48
425.746	644.6
426.123	614.55
426.499	620.87
426.875	649.8
427.251	641.66
427.627	655.22
428.003	687.99
428.379	660.87
428.756	645.96
429.132	695.22
429.507	680.98
429.883	662.68
430.259	701.1
430.635	671.49
431.011	709.91
431.387	695.45
431.763	721.89
432.138	709.46
432.514	712.62
432.89	721.66
433.265	742.68
433.641	736.12
434.016	742.45
434.392	737.93
434.767	753.3
435.143	757.82
435.518	747.2
435.894	755.79
436.269	789
436.644	779.51
437.02	780.42
437.395	767.08
437.77	775.45
438.145	786.97
438.52	803.24
438.895	814.09
439.271	786.29
439.646	840.53
440.021	833.3
440.395	837.59
440.77	817.7
441.145	838.27
441.52	859.51
441.895	829
442.27	876.46
442.645	863.58
443.019	876.46
443.394	853.41
443.769	854.54
444.143	852.73
444.518	877.36
444.892	864.03
445.267	897.02
445.641	899.74
446.016	898.15
446.39	897.93
446.764	898.15
447.139	905.16
447.513	922.33
447.887	917.81
448.262	928.21
448.636	926.4
449.01	947.19
449.384	944.25
449.758	957.59
450.132	950.58
450.506	961.2
450.88	962.33
451.254	954.65
451.628	996.23
452.002	993.52
452.376	1000.52
452.75	1010.24
453.123	1004.37
453.497	1024.25
453.871	1026.74
454.244	1051.6
454.618	1031.03
454.992	1051.6
455.365	1058.83
455.739	1079.84
456.112	1100.41
456.486	1085.72
456.859	1106.96
457.232	1125.04
457.606	1129.33
457.979	1129.11
458.352	1156.9
458.725	1160.52
459.099	1171.82
459.472	1213.17
459.845	1184.02
460.218	1229.9
460.591	1208.88
460.964	1217.69
461.337	1258.37
461.71	1249.11
462.083	1258.14
462.456	1275.32
462.829	1282.33
463.201	1304.02
463.574	1303.57
463.947	1332.95
464.32	1337.01
464.692	1367.07
465.065	1378.59
465.438	1392.83
465.81	1419.04
466.183	1430.12
466.555	1431.25
466.928	1469.89
467.3	1455.65
467.672	1469.21
468.045	1537.69
468.417	1537.91
468.789	1527.97
469.161	1534.3
469.534	1585.14
469.906	1602.77
470.278	1596.67
470.65	1643.67
471.022	1666.27
471.394	1688.87
471.766	1692.94
472.138	1722.99
472.51	1761.41
472.882	1780.62
473.253	1827.4
473.625	1833.95
473.997	1838.24
474.369	1873.5
474.74	1867.62
475.112	1925.25
475.484	1990.33
475.855	2013.61
476.227	2012.7
476.598	2049.76
476.97	2081.85
477.341	2133.6
477.713	2167.05
478.084	2186.03
478.455	2256.76
478.827	2287.72
479.198	2311.22
479.569	2345.8
479.94	2391.9
480.311	2409.75
480.682	2473.93
481.053	2507.6
481.424	2532.01
481.795	2607.26
482.166	2577.43
482.537	2636.41
482.908	2724.77
483.279	2726.13
483.65	2807.93
484.021	2859.68
484.391	2892
484.762	2881.15
485.133	2972.68
485.503	2988.72
485.874	3052
486.244	3042.05
486.615	3139.68
486.985	3171.09
487.356	3222.61
487.726	3256.96
488.097	3335.38
488.467	3361.37
488.837	3454.7
489.207	3450.86
489.578	3497.63
489.948	3549.84
490.318	3615.6
490.688	3603.62
491.058	3724.75
491.428	3778.53
491.798	3792.77
492.168	3887.68
492.538	3894.69
492.908	3934.91
493.278	3962.93
493.648	3950.28
494.017	4082.25
494.387	4092.87
494.757	4111.63
495.126	4171.51
495.496	4199.99
495.866	4260.55
496.235	4325.18
496.605	4367.89
496.974	4398.85
497.344	4423.26
497.713	4450.38
498.082	4501
498.452	4548.91
498.821	4597.72
499.19	4643.14
499.559	4704.83
499.928	4750.93
500.298	4747.32
500.667	4762.01
501.036	4866.64
501.405	4877.03
501.774	4899.41
502.143	4956.35
502.512	4969.23
502.88	5039.06
503.249	5058.27
503.618	5061.21
503.987	5126.52
504.356	5126.74
504.724	5232.28
505.093	5300.3
505.462	5282.22
505.83	5333.07
506.199	5373.06
506.567	5467.07
506.936	5460.29
507.304	5521.54
507.672	5538.48
508.041	5618.03
508.409	5678.82
508.777	5665.71
509.145	5753.17
509.514	5747.29
509.882	5849.44
510.25	5901.19
510.618	5909.55
510.986	5971.47
511.354	6054.4
511.722	6109.54
512.09	6137.11
512.458	6175.98
512.826	6235.19
513.193	6277.22
513.561	6307.73
513.929	6345.69
514.297	6441.51
514.664	6493.04
515.032	6515.41
515.4	6572.81
515.767	6650.77
516.135	6645.8
516.502	6672.01
516.869	6764.89
517.237	6846.47
517.604	6834.95
517.972	6942.52
518.339	7041.5
518.706	7048.05
519.073	7088.27
519.44	7127.6
519.808	7212.79
520.175	7237.65
520.542	7386.57
520.909	7368.49
521.276	7423.18
521.643	7528.71
522.009	7657.98
522.376	7686
522.743	7763.96
523.11	7856.84
523.477	7916.95
523.843	7962.38
524.21	8054.35
524.577	8147.46
524.943	8133.9
525.31	8270.62
525.676	8364.85
526.043	8431.97
526.409	8520.78
526.776	8603.04
527.142	8650.49
527.508	8671.28
527.874	8758.96
528.241	8823.14
528.607	8896.14
528.973	8996.25
529.339	8992.18
529.705	9114.66
530.071	9236.69
530.437	9227.65
530.803	9352.4
531.169	9484.6
531.535	9466.52
531.901	9447.53
532.267	9561.88
532.632	9617.93
532.998	9768.2
533.364	9830.12
533.73	9814.98
534.095	9968.42
534.461	9991.93
534.826	10059.5
535.192	10125.26
535.557	10177.46
535.923	10291.81
536.288	10321.18
536.653	10452.48
537.019	10456.32
537.384	10493.38
537.749	10533.83
538.114	10631.68
538.479	10703.55
538.845	10765.92
539.21	10767.95
539.575	10857.44
539.94	10991.67
540.305	11018.11
540.67	11080.03
541.034	11151.67
541.399	11249.29
541.764	11350.31
542.129	11399.12
542.494	11420.82
542.858	11501.72
543.223	11553.69
543.587	11705.33
543.952	11693.8
544.316	11846.34
544.681	11846.34
545.045	11930.18
545.41	12001.59
545.774	12161.59
546.138	12226.67
546.503	12275.93
546.867	12352.99
547.231	12458.3
547.595	12547.34
547.959	12753.89
548.324	12740.33
548.688	12782.81
549.052	12900.1
549.416	13034.56
549.779	13058.29
550.143	13160.2
550.507	13305.74
550.871	13391.39
551.235	13543.25
551.599	13661.89
551.962	13720.87
552.326	13890.13
552.689	14074.31
553.053	13895.78
553.417	14105.26
553.78	14351.13
554.143	14269.1
554.507	14499.15
554.87	14631.35
555.234	14827.05
555.597	14776.43
555.96	15039.25
556.323	15129.64
556.686	15274.73
557.05	15475.62
557.413	15546.36
557.776	15644.66
558.139	15875.61
558.502	16047.59
558.865	16186.79
559.228	16302.72
559.59	16367.58
559.953	16587.69
560.316	16861.8
560.679	16958.97
561.041	17126.43
561.404	17296.37
561.767	17572.74
562.129	17614.1
562.492	17913.07
562.854	17938.61
563.217	18136.35
563.579	18279.62
563.941	18524.13
564.304	18743.79
564.666	18901.97
565.028	19029.88
565.39	19309.87
565.753	19471
566.115	19745.57
566.477	19915.51
566.839	20075.73
567.201	20257.19
567.563	20363.86
567.925	20616.05
568.287	20827.57
568.648	20882.94
569.01	21168.81
569.372	21451.96
569.734	21466.65
570.095	21788.45
570.457	21880.88
570.819	22120.87
571.18	22293.07
571.542	22456.01
571.903	22612.16
572.265	22872.27
572.626	22973.96
572.987	23210.34
573.349	23450.56
573.71	23604.9
574.071	23648.97
574.432	23993.59
574.794	24237.65
575.155	24299.12
575.516	24392.68
575.877	24502.28
576.238	24778.66
576.599	24865.21
576.96	25038.99
577.32	25163.05
577.681	25324.86
578.042	25429.49
578.403	25607.56
578.763	25815.69
579.124	25857.27
579.485	26117.15
579.845	26317.15
580.206	26302.91
580.566	26549.46
580.927	26518.05
581.287	26832.16
581.648	26878.94
582.008	27037.81
582.368	27073.51
582.728	27112.61
583.089	27191.93
583.449	27388.31
583.809	27372.71
584.169	27631.91
584.529	27570.67
584.889	27858.58
585.249	27755.98
585.609	27850.21
585.969	28037.78
586.329	27977.44
586.688	28134.05
587.048	28269.86
587.408	28370.65
587.768	28499.46
588.127	28469.86
588.487	28522.51
588.846	28780.13
589.206	28741.04
589.565	28792.56
589.925	28960.24
590.284	28972.9
590.643	29072.33
591.003	29136.51
591.362	29341.02
591.721	29163.4
592.08	29533.11
592.44	29505.09
592.799	29562.26
593.158	29646.1
593.517	29652.43
593.876	29769.03
594.235	29792.76
594.593	29845.64
594.952	30101.68
595.311	30091.06
595.67	30185.75
596.029	30327.21
596.387	30397.94
596.746	30435
597.104	30505.96
597.463	30500.31
597.822	30724.04
598.18	30599.97
598.538	30569.69
598.897	30969.23
599.255	30816.24
599.613	31128.55
599.972	31025.5
600.33	31309.56
600.688	31172.39
601.046	31385.04
601.404	31550.46
601.762	31540.29
602.12	31781.64
602.478	31767.63
602.836	31845.14
603.194	31734.41
603.552	31780.73
603.91	31821.18
604.268	32029.99
604.625	31994.51
604.983	32170.33
605.341	32159.48
605.698	32407.61
606.056	32471.11
606.413	32495.29
606.771	32581.62
607.128	32754.27
607.485	32602.41
607.843	32757.43
608.2	32957.2
608.557	33098.44
608.914	33079.68
609.272	33364.65
609.629	33353.35
609.986	33542.95
610.343	33458.88
610.7	33785.2
611.057	33639.21
611.414	33691.42
611.771	33813.45
612.127	33873.11
612.484	33937.74
612.841	34152.2
613.198	34090.73
613.554	34140.67
613.911	34243.04
614.267	34429.93
614.624	34516.71
614.98	34503.37
615.337	34633.76
615.693	34655.46
616.05	34832.18
616.406	35067.43
616.762	35000.31
617.118	34940.88
617.475	35094.77
617.831	35181.09
618.187	35345.38
618.543	35338.6
618.899	35509.67
619.255	35496.79
619.611	35497.24
619.967	35630.57
620.323	35663.79
620.678	35636.45
621.034	35704.24
621.39	35711.7
621.746	35784.02
622.101	36278.69
622.457	35997.8
622.812	36144.69
623.168	36218.81
623.523	36282.08
623.879	36394.85
624.234	36134.97
624.589	36427.16
624.945	36389.42
625.3	36680.49
625.655	36517.56
626.01	36550.55
626.365	36473.49
626.72	36676.65
627.075	36684.33
627.43	36634.62
627.785	36623.99
628.14	36684.11
628.495	36737.66
628.85	36789.64
629.205	36666.25
629.559	36833.71
629.914	36738.57
630.269	36835.29
630.623	36800.94
630.978	36783.09
631.332	36896.3
631.687	37028.96
632.041	36987.83
632.396	37051.78
632.75	37003.87
633.104	37045.9
633.459	36812.69
633.813	37028.05
634.167	36908.96
634.521	36998.45
634.875	37048.62
635.229	37092.68
635.583	36826.48
635.937	37000.03
636.291	36956.87
636.645	37001.84
636.999	36980.6
637.352	37059.69
637.706	36945.57
638.06	37105.56
638.413	36967.49
638.767	36791.22
639.121	36909.41
639.474	36851.33
639.828	36870.54
640.181	36914.38
640.534	37061.5
640.888	36961.16
641.241	36835.29
641.594	36846.36
641.947	37002.52
642.301	36832.58
642.654	36930.43
643.007	36986.47
643.36	37133.81
643.713	37038.45
644.066	37076.41
644.419	36804.55
644.771	36552.36
645.124	36090.22
645.477	36034.18
645.83	35793.73
646.182	35845.94
646.535	36014.29
646.888	36263.1
647.24	36119.83
647.593	36316.21
647.945	36274.4
648.298	36259.03
648.65	36113.73
649.002	36200.73
649.355	36278.92
649.707	36074.4
650.059	36234.63
650.411	36520.27
650.763	36570.66
651.115	37137.43
651.467	36934.72
651.819	37060.37
652.171	36915.51
652.523	36916.87
652.875	36909.41
653.227	36766.36
653.578	37122.96
653.93	36943.99
654.282	36842.07
654.633	36899.24
654.985	36934.72
655.337	37002.97
655.688	36967.71
656.039	37147.6
656.391	36786.02
656.742	36977.21
657.094	36885.46
657.445	37143.53
657.796	37046.36
658.147	37116.41
658.498	37098.33
658.849	37146.01
659.2	36988.05
659.551	36925
659.902	37219.91
660.253	37060.59
660.604	37159.8
660.955	37047.71
661.306	37098.78
661.656	37015.85
662.007	37067.37
662.358	37232.11
662.708	37125.22
663.059	37112.34
663.409	36995.51
663.76	37232.57
664.11	37346.01
664.461	37529.06
664.811	37517.3
665.161	37358.66
665.511	37139.01
665.862	37260.14
666.212	37300.81
666.562	37473.69
666.912	37378.1
667.262	37252.23
667.612	37349.4
667.962	37446.12
668.312	37351.66
668.662	37619.45
669.011	37549.17
669.361	37621.48
669.711	37657.64
670.06	37479.34
670.41	37515.04
670.76	37454.71
671.109	37567.7
671.459	37635.95
671.808	37458.1
672.157	37654.02
672.507	37529.96
672.856	37563.86
673.205	37672.78
673.554	37763.17
673.904	37602.73
674.253	37891.31
674.602	37848.6
674.951	37111.67
675.3	37113.25
675.649	37662.16
675.998	37719.79
676.346	37656.28
676.695	37956.61
677.044	37478.89
677.393	37695.15
677.741	37765.21
678.09	37686.57
678.438	37822.38
678.787	37732.67
679.135	37593.91
679.484	37524.31
679.832	37565.21
680.181	37424.43
680.529	37460.36
680.877	37491.77
681.225	37473.46
681.573	37740.58
681.922	37530.19
682.27	37494.71
682.618	37535.61
682.966	37181.27
683.314	37486.8
683.661	37273.47
684.009	37155.51
684.357	37077.32
684.705	37303.98
685.053	37290.42
685.4	37183.08
685.748	37086.36
686.095	37183.53
686.443	37071.21
686.79	37007.49
687.138	37106.69
687.485	36993.25
687.832	36950.54
688.18	37008.17
688.527	36891.56
688.874	36929.98
689.221	36755.29
689.568	36787.38
689.915	36623.32
690.262	36670.55
690.609	36555.97
690.956	36603.66
691.303	36582.64
691.65	36461.51
691.997	36490.89
692.344	36157.11
692.69	36266.49
693.037	36442.08
693.383	35967.74
693.73	36229.88
694.077	36067.63
694.423	36219.03
694.769	36001.41
695.116	35849.78
695.462	35940.85
695.808	35677.8
696.155	35848.65
696.501	35476
696.847	35620.63
697.193	35339.96
697.539	35491.82
697.885	35188.55
698.231	35203.24
698.577	35317.81
698.923	35270.81
699.269	35048.67
699.614	34943.59
699.96	34969.35
700.306	35044.38
700.651	35001.66
700.997	34867.88
701.342	34885.06
701.688	34765.96
702.033	34561.9
702.379	34774.55
702.724	34628.34
703.069	34748.34
703.415	34434
703.76	34468.57
704.105	34584.27
704.45	34338.41
704.795	34127.79
705.14	34130.27
705.485	34186.32
705.83	34039.2
706.175	34130.73
706.52	33957.62
706.865	33885.76
707.209	33833.79
707.554	33798.98
707.899	33885.08
708.243	33722.83
708.588	33743.17
708.932	33475.15
709.277	33571.87
709.621	33626.79
709.966	33477.86
710.31	33519.44
710.654	33284.42
710.998	33318.77
711.342	33436.73
711.687	33198.77
712.031	33242.39
712.375	33061.83
712.719	33129.4
713.063	33154.26
713.407	33265.21
713.75	32983.64
714.094	33239.45
714.438	33089.17
714.782	33083.07
715.125	32847.6
715.469	33018.21
715.812	32832.46
716.156	32696.41
716.499	32731.89
716.843	32883.3
717.186	32635.4
717.53	32802.4
717.873	32896.86
718.216	32800.37
718.559	32730.99
718.902	32520.37
719.246	32568.96
719.589	32557.89
719.932	32372.81
720.275	32490.32
720.617	32501.84
720.96	32368.97
721.303	32388.63
721.646	32400.38
721.989	32317.67
722.331	32373.03
722.674	32192.25
723.016	32308.85
723.359	32294.16
723.701	32382.75
724.044	32148.63
724.386	32045.13
724.729	32071.12
725.071	32116.32
725.413	32151.12
725.755	32120.38
726.097	31973.04
726.439	31917.45
726.782	31940.5
727.124	32006.04
727.465	31805.59
727.807	31851.46
728.149	31725.82
728.491	31726.5
728.833	31819.83
729.175	31664.13
729.516	31720.62
729.858	31640.17
730.199	31661.41
730.541	31571.02
730.882	31577.8
731.224	31639.27
731.565	31529.44
731.906	31623.22
732.248	31644.69
732.589	31581.87
732.93	31418.71
733.271	31546.39
733.612	31647.18
733.953	31573.51
734.294	31361.53
734.635	31517.46
734.976	31574.18
735.317	31426.62
735.658	31350.24
735.999	31500.29
736.339	31383.23
736.68	31445.37
737.021	31504.81
737.361	31384.36
737.702	31507.52
738.042	31341.65
738.383	31188.88
738.723	31325.38
739.063	31211.48
739.404	31211.71
739.744	31132.39
740.084	31180.3
740.424	31268.66
740.764	31102.33
741.104	31256.9
741.444	31110.02
741.784	31027.53
742.124	31094.87
742.464	30993.86
742.804	31026.18
743.143	30972.84
743.483	30942.79
743.823	30768.1
744.162	30918.83
744.502	30949.79
744.841	30780.08
745.181	30979.85
745.52	30854.88
745.86	30950.47
746.199	30849.91
746.538	30786.63
746.877	30934.65
747.216	30792.51
747.556	30870.25
747.895	30834.09
748.234	30759.29
748.573	30625.96
748.911	30613.08
749.25	30607.88
749.589	30513.42
749.928	30544.83
750.267	30558.84
750.605	30500.09
750.944	30591.38
751.283	30591.84
751.621	30490.37
751.96	30242.24
752.298	30268.46
752.636	30308.91
752.975	30073.43
753.313	29854.68
753.651	30270.26
753.989	30077.95
754.327	30095.13
754.666	29871.4
755.004	30068.91
755.342	30014.45
755.679	30002.7
756.017	29981.01
756.355	30055.35
756.693	29820.33
757.031	29739.43
757.368	29588.47
757.706	29636.61
758.044	29615.37
758.381	29709.15
758.719	29562.71
759.056	29689.04
759.394	29430.51
759.731	29250.63
760.068	29261.02
760.405	29308.48
760.743	29282.27
761.08	29271.87
761.417	29045.66
761.754	29003.18
762.091	29152.1
762.428	29035.27
762.765	28931.09
763.102	28938.77
763.438	28640.48
763.775	28787.82
764.112	28775.61
764.449	28786.46
764.785	28499.69
765.122	28498.56
765.458	28340.37
765.795	28312.57
766.131	28442.06
766.467	28196.87
766.804	28211.56
767.14	28216.08
767.476	28124.56
767.812	27978.12
768.148	28132.24
768.485	27908.52
768.821	27711.69
769.157	27762.76
769.492	27679.37
769.828	27619.26
770.164	27472.6
770.5	27522.54
770.836	27394.86
771.171	27278.93
771.507	27236.44
771.842	27019.95
772.178	27096.11
772.513	26962.1
772.849	26963.91
773.184	26925.04
773.519	26967.07
773.855	26794.65
774.19	26710.13
774.525	26663.35
774.86	26709.45
775.195	26595.78
775.53	26556.01
775.865	26451.83
776.2	26260.88
776.535	26142.01
776.87	26149.92
777.205	26013.65
777.539	25925.74
777.874	25899.98
778.209	25800.78
778.543	25755.13
778.878	25745.41
779.212	25734.79
779.547	25455.02
779.881	25638.29
780.215	25485.98
780.55	25436.94
780.884	25427.23
781.218	25363.27
781.552	25329.38
781.886	25170.96
782.22	25093.9
782.554	25060.68
782.888	24805.1
783.222	24696.85
783.556	24674.7
783.889	24763.29
784.223	24632.67
784.557	24487.59
784.89	24602.16
785.224	24446.46
785.557	24355.62
785.891	24268.16
786.224	24239.46
786.558	24229.52
786.891	24099.35
787.224	24149.07
787.557	23920.6
787.891	23960.15
788.224	24039.24
788.557	23920.6
788.89	23885.12
789.223	23984.55
789.556	23672.7
789.888	23629.99
790.221	23559.03
790.554	23512.47
790.887	23417.79
791.219	23326.27
791.552	23442.19
791.884	23312.93
792.217	23219.15
792.549	23183.67
792.882	23014.18
793.214	23061.64
793.546	23020.06
793.879	22892.6
794.211	22902.32
794.543	22887.63
794.875	22770.8
795.207	22829.78
795.539	22811.7
795.871	22804.92
796.203	22625.94
796.535	22452.84
796.867	22420.98
797.198	22312.96
797.53	22407.87
797.862	22195.9
798.193	22256.91
798.525	22142.79
798.856	22153.41
799.188	21943.93
799.519	21995
799.85	22014.89
800.182	22026.64
800.513	21978.5
800.844	21707.55
801.175	21903.7
801.506	21911.61
801.837	21766.31
802.168	21618.29
802.499	21699.19
802.83	21534
803.161	21459.2
803.491	21489.25
803.822	21506.43
804.153	21352.08
804.483	21297.84
804.814	21324.96
805.145	21314.34
805.475	21298.97
805.805	21053.33
806.136	21059.88
806.466	21126.55
806.796	21045.87
807.126	20909.15
807.457	20886.78
807.787	20915.93
808.117	20855.6
808.447	20724.98
808.777	20957.74
809.107	20850.62
809.436	20660.12
809.766	20698.76
810.096	20672.55
810.426	20731.31
810.755	20714.36
811.085	20656.73
811.414	20601.14
811.744	20412.9
812.073	20433.23
812.403	20365.89
812.732	20379.9
813.061	20215.16
813.39	20164.99
813.719	20225.78
814.049	20413.35
814.378	20310.75
814.707	20145.33
815.036	20190.08
815.365	20167.03
815.693	19952.12
816.022	19964.09
816.351	19988.73
816.68	19865.11
817.008	20019.91
817.337	19812.01
817.665	19788.28
817.994	19872.8
818.322	19932.23
818.651	19765
818.979	19671.45
819.307	19819.01
819.636	19710.99
819.964	19553.48
820.292	19852.91
820.62	19779.24
820.948	19748.28
821.276	19778.79
821.604	19690.2
821.932	19757.77
822.259	19818.33
822.587	19664.21
822.915	19716.42
823.243	19800.71
823.57	19676.19
823.898	19787.83
824.225	19753.93
824.553	19737.88
824.88	19755.06
825.207	19885.45
825.535	19667.38
825.862	19787.83
826.189	19756.64
826.516	19871.89
826.843	19931.1
827.17	19841.39
827.497	19948.05
827.824	19955.28
828.151	19965.68
828.478	19895.62
828.805	20065.56
829.131	19874.83
829.458	19934.26
829.785	19938.78
830.111	20005.67
830.438	20003.19
830.764	20087.03
831.09	20107.14
831.417	20030.98
831.743	20108.72
832.069	20078.89
832.395	19999.12
832.722	20065.11
833.048	20000.7
833.374	20065.56
833.7	20012
834.026	20109.85
834.351	20223.07
834.677	20187.82
835.003	20168.83
835.329	20120.7
835.654	20135.16
835.98	20014.04
836.306	20100.81
836.631	19988.05
836.956	20045
837.282	20008.84
837.607	20053.13
837.932	19957.54
838.258	20042.28
838.583	20042.28
838.908	19839.13
839.233	19941.95
839.558	19889.97
839.883	19722.74
840.208	19834.15
840.533	19836.41
840.858	19796.87
841.182	19860.14
841.507	19838.45
841.832	19605.91
842.156	19824.44
842.481	19696.08
842.805	19602.97
843.13	19579.92
843.454	19701.73
843.778	19627.83
844.103	19540.15
844.427	19635.97
844.751	19552.58
845.075	19483.2
845.399	19340.16
845.723	19381.28
846.047	19540.38
846.371	19270.55
846.695	19381.28
847.019	19270.33
847.343	19196.66
847.666	19185.81
847.99	18997.11
848.313	19101.29
848.637	18862.2
848.96	18858.59
849.284	18884.12
849.607	18717.35
849.931	18695.88
850.254	18578.59
850.577	18428.31
850.9	18367.07
851.223	18486.39
851.546	18286.85
851.869	18163.01
852.192	18309.22
852.515	18150.81
852.838	17996.91
853.161	18025.61
853.483	18001.43
853.806	17977.48
854.129	17888.67
854.451	17808.22
854.774	17730.93
855.096	17758.95
855.419	17786.3
855.741	17770.48
856.063	17567.77
856.385	17660.43
856.708	17624.72
857.03	17517.83
857.352	17595.12
857.674	17428.57
857.996	17498.62
858.318	17330.26
858.64	17353.31
858.961	17199.42
859.283	17353.31
859.605	17263.37
859.926	17307.89
860.248	17208.91
860.57	17245.07
860.891	17100.21
861.212	17137.73
861.534	17160.55
861.855	17047.56
862.176	17073.55
862.498	17049.82
862.819	17009.6
863.14	16961.46
863.461	16964.4
863.782	16869.03
864.103	16962.14
864.424	16868.58
864.745	16923.95
865.065	16845.08
865.386	16810.96
865.707	16841.46
866.027	16922.14
866.348	16934.34
866.668	16871.07
866.989	16817.74
867.309	16604.63
867.63	16740.22
867.95	16748.36
868.27	16643.5
868.59	16781.13
868.91	16717.63
869.23	16769.83
869.55	16608.93
869.87	16740.45
870.19	16681.24
870.51	16654.12
870.83	16648.25
871.15	16571.19
871.469	16648.7
871.789	16616.84
872.109	16626.1
872.428	16499.78
872.748	16593.79
873.067	16511.53
873.386	16565.54
873.706	16460.46
874.025	16493.68
874.344	16394.47
874.663	16544.97
874.982	16319.44
875.301	16428.14
875.62	16357.86
875.939	16388.37
876.258	16388.59
876.577	16397.41
876.896	16315.83
877.214	16243.29
877.533	16380.69
877.852	16234.25
878.17	16272.44
878.489	16189.5
878.807	16271.54
879.125	16186.11
879.444	16259.33
879.762	16256.85
880.08	16316.28
880.398	16150.41
880.716	16262.27
881.034	16146.34
881.352	16096.62
881.67	15990.19
881.988	16163.97
882.306	16145.44
882.624	16133.01
882.941	16121.48
883.259	16104.31
883.577	15980.47
883.894	15990.41
884.212	15927.14
884.529	15965.33
884.846	15858.89
885.164	15865.22
885.481	15878.55
885.798	15848.04
886.115	15780.02
886.432	15804.2
886.75	15746.35
887.067	15703.19
887.383	15672.46
887.7	15736.63
888.017	15634.94
888.334	15704.09
888.651	15647.6
888.967	15716.3
889.284	15549.52
889.6	15590.65
889.917	15408.51
890.233	15434.72
890.55	15412.35
890.866	15419.35
891.182	15344.78
891.498	15368.06
891.815	15334.84
892.131	15355.18
892.447	15220.49
892.763	15198.34
893.079	15176.42
893.395	15101.85
893.71	15136.42
894.026	15163.99
894.342	15067.5
894.657	14928.29
894.973	15018.46
895.289	15021.17
895.604	15006.71
895.92	14870.67
896.235	14757.22
896.55	14792.48
896.865	14789.31
897.181	14728.75
897.496	14663.89
897.811	14654.18
898.126	14620.73
898.441	14652.37
898.756	14585.03
899.071	14446.72
899.386	14427.97
899.7	14321.98
900.015	14227.3
900.33	14151.82
900.644	14218.48
900.959	14243.57
901.273	14166.05
901.588	14173.96
901.902	14057.58
902.216	14081.31
902.531	14065.49
902.845	14035.89
903.159	13914.76
903.473	13873.18
903.787	13889
904.101	13846.06
904.415	13801.54
904.729	13700.98
905.042	13692.39
905.356	13623.02
905.67	13636.35
905.984	13583.02
906.297	13592.74
906.611	13507.99
906.924	13477.94
907.237	13393.19
907.551	13344.83
907.864	13377.37
908.177	13305.74
908.491	13277.72
908.804	13195.91
909.117	13111.39
909.43	13036.14
909.743	12964.73
910.056	13047.67
910.368	12988.91
910.681	12946.65
910.994	12818.29
911.307	12806.77
911.619	12654.23
911.932	12818.74
912.244	12675.92
912.557	12609.48
912.869	12588.24
913.181	12476.61
913.494	12516.83
913.806	12335.37
914.118	12416.27
914.43	12344.18
914.742	12439.77
915.054	12290.17
915.366	12285.2
915.678	12170.4
915.99	12218.53
916.302	12114.36
916.613	12024.42
916.925	12161.59
917.236	12064.19
917.548	12005.66
917.859	11953
918.171	11881.37
918.482	11826.23
918.794	11812.67
919.105	11790.3
919.416	11730.41
919.727	11716.85
920.038	11655.39
920.349	11519.34
920.66	11484.77
920.971	11489.29
921.282	11390.99
921.593	11395.51
921.903	11406.35
922.214	11349.18
922.525	11239.13
922.835	11237.09
923.146	11177.21
923.456	11187.6
923.767	11049.75
924.077	11041.62
924.387	11026.48
924.697	10941.96
925.008	10955.52
925.318	10881.62
925.628	10900.83
925.938	10880.94
926.248	10751
926.558	10725.69
926.867	10734.51
927.177	10675.98
927.487	10587.62
927.796	10568.18
928.106	10511.46
928.416	10497.22
928.725	10541.06
929.034	10430.33
929.344	10416.55
929.653	10349.88
929.962	10325.93
930.271	10253.84
930.581	10202.99
930.89	10172.94
931.199	10091.81
931.508	10066.5
931.817	10111.7
932.125	10048.87
932.434	10005.71
932.743	9929.33
933.051	9915.32
933.36	9881.19
933.669	9786.51
933.977	9798.71
934.286	9794.87
934.594	9703.8
934.902	9678.49
935.21	9662.67
935.519	9659.05
935.827	9677.36
936.135	9615.44
936.443	9478.72
936.751	9487.76
937.059	9396.91
937.367	9385.61
937.674	9373.64
937.982	9301.78
938.29	9342.23
938.597	9290.02
938.905	9169.58
939.213	9175.68
939.52	9175.68
939.827	9163.93
940.135	9047.32
940.442	9014.55
940.749	9062.46
941.056	9129.35
941.363	8949.92
941.67	8923.71
941.977	8914.89
942.284	8845.97
942.591	8857.95
942.898	8729.59
943.205	8783.14
943.511	8644.17
943.818	8708.8
944.125	8643.94
944.431	8602.58
944.738	8579.53
945.044	8571.62
945.35	8531.85
945.657	8502.7
945.963	8443.94
946.269	8460.89
946.575	8363.04
946.881	8354.68
947.187	8371.18
947.493	8322.37
947.799	8225.19
948.105	8196.04
948.41	8123.28
948.716	8095.93
949.022	8092.99
949.327	8132.99
949.633	7976.39
949.938	8051.86
950.244	8000.79
950.549	7984.52
950.854	7882.83
951.16	7920.79
951.465	7893.68
951.77	7781.59
952.075	7816.62
952.38	7824.07
952.685	7825.2
952.99	7637.41
953.294	7735.94
953.599	7668.82
953.904	7642.16
954.209	7581.37
954.513	7604.64
954.818	7519.22
955.122	7499.79
955.426	7474.25
955.731	7403.29
956.035	7422.05
956.339	7403.07
956.643	7335.05
956.948	7267.03
957.252	7282.17
957.556	7273.13
957.86	7248.72
958.163	7224.77
958.467	7189.51
958.771	7159.01
959.075	7175.96
959.378	7116.07
959.682	7113.36
959.985	7039.46
960.289	7048.95
960.592	6931.67
960.896	6919.24
961.199	6946.81
961.502	6818.9
961.805	6865.68
962.108	6826.81
962.411	6766.7
962.714	6708.17
963.017	6763.54
963.32	6674.27
963.623	6736.64
963.926	6713.82
964.228	6688.28
964.531	6640.6
964.833	6638.57
965.136	6588.4
965.438	6522.19
965.741	6496.65
966.043	6467.05
966.345	6416.2
966.648	6474.05
966.95	6406.03
967.252	6333.49
967.554	6305.47
967.856	6303.21
968.158	6271.35
968.46	6280.39
968.761	6222.08
969.063	6179.6
969.365	6164.68
969.666	6201.07
969.968	6073.39
970.269	6118.36
970.571	6090.79
970.872	6028.87
971.174	6020.05
971.475	5980.28
971.776	6032.03
972.077	5954.74
972.378	5938.02
972.679	5974.86
972.98	5941.41
973.281	5856.67
973.582	5851.24
973.883	5869.32
974.183	5747.74
974.484	5780.51
974.785	5789.55
975.085	5708.2
975.386	5751.59
975.686	5730.57
975.986	5643.34
976.287	5663.9
976.587	5629.78
976.887	5647.63
977.187	5618.93
977.487	5591.59
977.787	5552.27
978.087	5515.21
978.387	5446.74
978.687	5469.11
978.987	5413.52
979.286	5375.1
979.586	5405.83
979.885	5404.25
980.185	5324.93
980.484	5324.93
980.784	5322.9
981.083	5303.69
981.382	5251.71
981.682	5220.53
981.981	5200.41
982.28	5131.04
982.579	5150.92
982.878	5100.53
983.177	5045.39
983.475	5135.11
983.774	5016.24
984.073	4962.91
984.372	5061.66
984.67	5030.7
984.969	4965.62
985.267	4976.69
985.566	4944.15
985.864	4902.34
986.162	4913.42
986.461	4868.9
986.759	4844.72
987.057	4790.03
987.355	4783.7
987.653	4777.83
987.951	4765.62
988.249	4742.35
988.547	4740.99
988.844	4752.97
989.142	4749.8
989.44	4709.13
989.737	4707.55
990.035	4671.16
990.332	4606.31
990.63	4566.98
990.927	4584.16
991.224	4541
991.521	4513.43
991.819	4461.9
992.116	4494.22
992.413	4479.08
992.71	4459.19
993.006	4467.55
993.303	4408.34
993.6	4445.18
993.897	4396.14
994.193	4409.02
994.49	4363.37
994.787	4324.28
995.083	4313.43
995.379	4298.74
995.676	4276.82
995.972	4262.36
996.268	4247.44
996.565	4203.38
996.861	4166.09
997.157	4152.31
997.453	4118.18
997.749	4135.36
998.044	4115.02
998.34	4068.47
998.636	4068.01
998.932	4012.65
999.227	3984.63
999.523	4015.36
999.818	3958.64
1000.114	3976.94
1000.409	3893.78
1000.704	3929.71
1001	3860.34
1001.295	3820.11
1001.59	3846.55
1001.885	3804.29
1002.18	3808.36
1002.475	3769.94
1002.77	3732.2
1003.065	3746.22
1003.359	3725.65
1003.654	3694.24
1003.949	3705.99
1004.243	3663.28
1004.538	3620.12
1004.832	3616.27
1005.127	3607.69
1005.421	3589.38
1005.715	3524.75
1006.009	3569.95
1006.304	3543.73
1006.598	3504.64
1006.892	3473.91
1007.186	3471.65
1007.48	3435.94
1007.773	3439.1
1008.067	3412.44
1008.361	3420.12
1008.655	3369.5
1008.948	3295.15
1009.242	3383.74
1009.535	3336.73
1009.829	3279.11
1010.122	3263.29
1010.415	3236.17
1010.708	3210.41
1011.001	3200.92
1011.295	3164.99
1011.588	3162.05
1011.881	3157.08
1012.173	3111.66
1012.466	3092.22
1012.759	3081.15
1013.052	3034.37
1013.344	3021.26
1013.637	3054.71
1013.93	3038.21
1014.222	2973.58
1014.514	2955.05
1014.807	2941.04
1015.099	2939.23
1015.391	2960.25
1015.683	2913.24
1015.976	2881.15
1016.268	2866.24
1016.56	2860.81
1016.851	2824.21
1017.143	2824.88
1017.435	2798.67
1017.727	2814.26
1018.018	2752.12
1018.31	2727.71
1018.602	2705.11
1018.893	2705.34
1019.185	2701.04
1019.476	2659.46
1019.767	2652.23
1020.058	2648.84
1020.35	2612.23
1020.641	2582.4
1020.932	2554.83
1021.223	2532.01
1021.514	2553.7
1021.804	2491.11
1022.095	2502.86
1022.386	2488.4
1022.677	2478.23
1022.967	2472.35
1023.258	2420.83
1023.548	2386.7
1023.839	2398.45
1024.129	2353.03
1024.419	2330.43
1024.709	2319.59
1025	2309.87
1025.29	2278.23
1025.58	2273.94
1025.87	2280.26
1026.16	2219.48
1026.449	2261.96
1026.739	2199.14
1027.029	2220.38
1027.319	2171.34
1027.608	2186.03
1027.898	2166.6
1028.187	2142.87
1028.477	2108.74
1028.766	2115.52
1029.055	2073.94
1029.344	2063.1
1029.634	2073.49
1029.923	2045.47
1030.212	2011.57
1030.501	2009.54
1030.79	2000.72
1031.078	1997.11
1031.367	1946.49
1031.656	1932.93
1031.945	1932.25
1032.233	1914.4
1032.522	1923.66
1032.81	1881.86
1033.099	1894.06
1033.387	1848.19
1033.675	1860.16
1033.963	1818.81
1034.251	1836.43
1034.54	1806.61
1034.828	1794.85
1035.116	1769.54
1035.403	1804.57
1035.691	1787.62
1035.979	1751.92
1036.267	1733.39
1036.554	1704.01
1036.842	1711.01
1037.129	1716.66
1037.417	1674.18
1037.704	1673.05
1037.992	1645.71
1038.279	1643.22
1038.566	1652.03
1038.853	1652.03
1039.14	1652.03
