Data from copper_heatsink_FLMS001491_073.txt Node
Date: Tue Feb 07 10:50:33 GMT 2017
User: dcchb
Spectrometer: FLMS00149
Trigger mode: 0
Integration Time (sec): 2.000000E-2
Scans to average: 10
Electric dark correction enabled: true
Nonlinearity correction enabled: false
Boxcar width: 0
XAxis mode: Wavelengths
Number of Pixels in Spectrum: 2048
>>>>>Begin Spectral Data<<<<<
341.393	3.97
341.776	3.97
342.16	3.97
342.543	-55.69
342.927	-76.48
343.31	-70.83
343.693	-73.54
344.077	-52.53
344.46	-66.76
344.843	-46.2
345.226	-50.94
345.61	-22.47
345.993	1.48
346.376	-7.1
346.759	1.26
347.142	31.31
347.525	34.7
347.908	53.91
348.291	77.64
348.674	91.2
349.057	98.88
349.44	122.84
349.823	137.98
350.206	177.52
350.588	225.21
350.971	253
351.354	256.39
351.737	256.17
352.119	273.57
352.502	299.55
352.884	324.86
353.267	305.2
353.65	299.33
354.032	309.05
354.414	337.75
354.797	362.38
355.179	367.58
355.562	353.34
355.944	346.78
356.326	376.61
356.709	373
357.091	379.1
357.473	397.86
357.855	366.45
358.238	372.09
358.62	373.22
359.002	375.71
359.384	373
359.766	382.04
360.148	386.11
360.53	394.24
360.912	375.71
361.294	381.36
361.676	353.79
362.057	381.59
362.439	378.65
362.821	365.09
363.203	388.82
363.584	348.59
363.966	355.37
364.348	351.76
364.729	337.97
365.111	380.68
365.493	360.8
365.874	374.13
366.256	374.81
366.637	332.32
367.019	339.55
367.4	377.97
367.781	358.76
368.163	363.96
368.544	363.28
368.925	367.35
369.306	352.43
369.688	354.02
370.069	346.33
370.45	357.86
370.831	349.27
371.212	364.64
371.593	372.77
371.974	364.41
372.355	377.97
372.736	373.68
373.117	368.93
373.498	371.87
373.879	382.26
374.26	367.8
374.641	339.78
375.021	379.55
375.402	367.12
375.783	377.74
376.163	401.47
376.544	375.48
376.925	386.11
377.305	371.42
377.686	391.53
378.066	378.42
378.447	393.34
378.827	377.29
379.208	397.86
379.588	382.94
379.968	391.76
380.349	396.95
380.729	398.31
381.109	379.1
381.489	389.95
381.87	392.89
382.25	418.87
382.63	410.06
383.01	407.57
383.39	429.72
383.77	392.43
384.15	415.71
384.53	396.5
384.91	419.55
385.29	423.62
385.67	419.55
386.049	419.55
386.429	421.58
386.809	422.26
387.189	425.88
387.568	445.09
387.948	455.93
388.328	448.7
388.707	436.95
389.087	448.25
389.466	436.5
389.846	457.97
390.225	431.08
390.605	445.54
390.984	453.45
391.363	470.17
391.743	445.54
392.122	464.07
392.501	474.01
392.881	464.3
393.26	478.98
393.639	478.76
394.018	478.53
394.397	475.82
394.776	488.7
395.155	485.76
395.534	506.1
395.913	491.64
396.292	482.37
396.671	525.31
397.05	516.5
397.429	471.75
397.808	512.88
398.186	512.66
398.565	502.03
398.944	507.46
399.323	522.83
399.701	537.97
400.08	544.52
400.458	521.24
400.837	519.89
401.215	522.6
401.594	542.26
401.972	544.75
402.351	545.65
402.729	548.14
403.107	563.05
403.486	563.95
403.864	577.06
404.242	543.84
404.62	564.18
404.999	599.43
405.377	582.94
405.755	587.23
406.133	592.65
406.511	602.6
406.889	582.94
407.267	591.52
407.645	623.84
408.023	606.21
408.401	634.91
408.779	596.72
409.156	615.03
409.534	641.47
409.912	647.34
410.29	647.57
410.667	646.66
411.045	647.57
411.422	674.01
411.8	666.78
412.178	683.72
412.555	697.96
412.933	688.92
413.31	689.37
413.687	712.88
414.065	685.08
414.442	717.17
414.819	727.34
415.197	725.98
415.574	722.37
415.951	723.95
416.328	742.71
416.705	775.47
417.082	752.88
417.46	765.3
417.837	770.28
418.214	787.23
418.591	795.36
418.967	771.18
419.344	787.45
419.721	810.5
420.098	791.07
420.475	817.96
420.852	828.81
421.228	820.67
421.605	823.16
421.982	839.65
422.358	838.52
422.735	867.9
423.111	850.05
423.488	898.63
423.864	902.7
424.241	884.62
424.617	894.34
424.994	903.61
425.37	910.16
425.746	901.12
426.123	945.19
426.499	946.32
426.875	941.57
427.251	933.66
427.627	965.53
428.003	975.92
428.379	975.24
428.756	983.6
429.132	1008.01
429.507	1030.61
429.883	1035.58
430.259	1059.76
430.635	1062.7
431.011	1075.13
431.387	1060.21
431.763	1098.63
432.138	1124.39
432.514	1138.63
432.89	1099.76
433.265	1137.05
433.641	1135.01
434.016	1174.11
434.392	1182.24
434.767	1180.89
435.143	1178.4
435.518	1209.59
435.894	1189.7
436.269	1195.8
436.644	1232.41
437.02	1230.6
437.395	1250.04
437.77	1278.29
438.145	1301.11
438.52	1306.31
438.895	1318.28
439.271	1330.71
439.646	1343.14
440.021	1355.12
440.395	1334.56
440.77	1355.57
441.145	1373.65
441.52	1407.32
441.895	1405.51
442.27	1409.36
442.645	1411.39
443.019	1417.04
443.394	1421.11
443.769	1454.55
444.143	1442.35
444.518	1479.41
444.892	1455.46
445.267	1469.47
445.641	1512.18
446.016	1511.5
446.39	1526.64
446.764	1530.48
447.139	1541.33
447.513	1527.32
447.887	1560.76
448.262	1586.07
448.636	1571.61
449.01	1598.73
449.384	1624.72
449.758	1641.89
450.132	1631.72
450.506	1616.58
450.88	1623.81
451.254	1664.26
451.628	1678.5
452.002	1649.35
452.376	1702.46
452.75	1731.38
453.123	1775.67
453.497	1751.72
453.871	1794.43
454.244	1826.75
454.618	1854.54
454.992	1859.97
455.365	1834.43
455.739	1922.79
456.112	1905.84
456.486	1949.23
456.859	1942.9
457.232	1992.17
457.606	1971.6
457.979	2032.16
458.352	2064.93
458.725	2083.46
459.099	2095.21
459.472	2150.81
459.845	2144.03
460.218	2199.84
460.591	2219.28
460.964	2179.73
461.337	2262.67
461.71	2290.91
462.083	2259.5
462.456	2318.94
462.829	2303.8
463.201	2351.93
463.574	2406.17
463.947	2417.46
464.32	2457.46
464.692	2495.2
465.065	2491.81
465.438	2581.53
465.81	2597.12
466.183	2632.37
466.555	2660.17
466.928	2685.25
467.3	2685.71
467.672	2770
468.045	2749.66
468.417	2804.12
468.789	2845.25
469.161	2885.7
469.534	2934.06
469.906	2948.75
470.278	2983.1
470.65	3028.75
471.022	3102.42
471.394	3123.21
471.766	3170.44
472.138	3230.78
472.51	3259.7
472.882	3316.88
473.253	3325.69
473.625	3416.99
473.997	3461.73
474.369	3471.45
474.74	3534.27
475.112	3597.55
475.484	3656.75
475.855	3688.39
476.227	3731.55
476.598	3820.37
476.97	3831.44
477.341	3932
477.713	4012.68
478.084	4035.5
478.455	4146.91
478.827	4124.31
479.198	4300.35
479.569	4275.95
479.94	4394.59
480.311	4446.79
480.682	4545.32
481.053	4632.1
481.424	4731.08
481.795	4764.52
482.166	4797.29
482.537	4914.35
482.908	5023.27
483.279	5038.19
483.65	5188.47
484.021	5197.96
484.391	5292.64
484.762	5345.75
485.133	5397.5
485.503	5512.3
485.874	5562.01
486.244	5608.12
486.615	5720.65
486.985	5858.73
487.356	5933.3
487.726	5960.65
488.097	6124.94
488.467	6131.27
488.837	6225.27
489.207	6347.08
489.578	6430.01
489.948	6533.97
490.318	6560.86
490.688	6682.44
491.058	6692.38
491.428	6872.94
491.798	6871.81
492.168	7044.01
492.538	7070.9
492.908	7134.18
493.278	7265.92
493.648	7287.85
494.017	7358.58
494.387	7449.2
494.757	7463.66
495.126	7629.76
495.496	7680.83
495.866	7686.48
496.235	7785.01
496.605	7874.04
496.974	7870.65
497.344	8028.84
497.713	8069.29
498.082	8135.73
498.452	8220.25
498.821	8303.64
499.19	8339.34
499.559	8380.47
499.928	8461.6
500.298	8584.53
500.667	8599
501.036	8680.58
501.405	8750.41
501.774	8789.27
502.143	8834.7
502.512	8906.56
502.88	8961.93
503.249	9006.67
503.618	9138.42
503.987	9178.42
504.356	9225.65
504.724	9288.92
505.093	9321.46
505.462	9400.56
505.83	9553.55
506.199	9546.54
506.567	9672.64
506.936	9663.15
507.304	9919.87
507.672	9944.72
508.041	9947.89
508.409	10051.39
508.777	10193.31
509.145	10219.97
509.514	10244.6
509.882	10351.72
510.25	10439.4
510.618	10514.2
510.986	10543.8
511.354	10685.5
511.722	10775.66
512.09	10878.71
512.458	10943.12
512.826	11040.51
513.193	11036.67
513.561	11231.24
513.929	11324.58
514.297	11362.31
514.664	11485.7
515.032	11531.12
515.4	11635.75
515.767	11722.98
516.135	11775.86
516.502	11801.62
516.869	11984.22
517.237	12075.06
517.604	12075.29
517.972	12379.01
518.339	12432.79
518.706	12365.45
519.073	12512.11
519.44	12600.02
519.808	12788.94
520.175	12899.45
520.542	13013.34
520.909	13077.52
521.276	13130.63
521.643	13343.96
522.009	13374.24
522.376	13628.24
522.743	13669.15
523.11	13712.99
523.477	13957.5
523.843	14016.71
524.21	14204.05
524.577	14363.37
524.943	14376.02
525.31	14482.68
525.676	14664.6
526.043	14741.89
526.409	14817.82
526.776	15098.71
527.142	15134.19
527.508	15286.73
527.874	15435.88
528.241	15496.44
528.607	15597.01
528.973	15863.21
529.339	15809.43
529.705	16084.68
530.071	16233.37
530.437	16391.79
530.803	16401.05
531.169	16571.44
531.535	16506.81
531.901	16703.64
532.267	16787.03
532.632	16993.8
532.998	17027.25
533.364	17176.62
533.73	17212.33
534.095	17409.39
534.461	17508.37
534.826	17670.17
535.192	17704.29
535.557	17878.53
535.923	18019.77
536.288	18045.75
536.653	18224.73
537.019	18281.23
537.384	18437.61
537.749	18485.29
538.114	18617.26
538.479	18660.88
538.845	18816.58
539.21	18894.77
539.575	19062.68
539.94	19110.13
540.305	19294.76
540.67	19340.18
541.034	19479.16
541.399	19512.61
541.764	19714.41
542.129	19784.92
542.494	19981.3
542.858	19958.7
543.223	20158.69
543.587	20389.87
543.952	20374.73
544.316	20565.01
544.681	20558.91
545.045	20724.1
545.41	20966.58
545.774	21060.82
546.138	21044.55
546.503	21295.61
546.867	21348.04
547.231	21743.06
547.595	21702.38
547.959	21865.31
548.324	21923.84
548.688	22052.2
549.052	22207.45
549.416	22390.72
549.779	22479.76
550.143	22639.53
550.507	22966.98
550.871	23161.1
551.235	23068.67
551.599	23484.03
551.962	23612.16
552.326	23754.3
552.689	24021.87
553.053	23932.38
553.417	24094.41
553.78	24608.29
554.143	24524.45
554.507	24792.92
554.87	25011.9
555.234	25289.41
555.597	25203.31
555.96	25533.47
556.323	25772.78
556.686	26034.02
557.05	26219.78
557.413	26416.83
557.776	26601.69
558.139	26920.32
558.502	27052.75
558.865	27236.93
559.228	27570.02
559.59	27906.06
559.953	28052.95
560.316	28460.17
560.679	28590.79
561.041	28953.49
561.404	29251.79
561.767	29597.09
562.129	29659.69
562.492	30231.65
562.854	30303.29
563.217	30325.21
563.579	30829.82
563.941	31132.64
564.304	31431.17
564.666	31763.13
565.028	31947.31
565.39	32328.09
565.753	32601.08
566.115	32923.78
566.477	33317.44
566.839	33501.17
567.201	33922.85
567.563	34183.41
567.925	34502.72
568.287	34882.83
568.648	35012.77
569.01	35504.28
569.372	35906.53
569.734	35830.15
570.095	36402.33
570.457	36630.35
570.819	37012.94
571.18	37210.9
571.542	37585.58
571.903	37687.5
572.265	38109.18
572.626	38483.41
572.987	38817.19
573.349	39058.08
573.71	39412.65
574.071	39557.51
574.432	40120.43
574.794	40482.23
575.155	40533.3
575.516	40646.06
575.877	41028.43
576.238	41367.85
576.599	41703.21
576.96	41888.07
577.32	42160.15
577.681	42486.24
578.042	42708.83
578.403	42923.74
578.763	43186.56
579.124	43533.22
579.485	43775.25
579.845	44089.36
580.206	44233.54
580.566	44437.38
580.927	44575.23
581.287	44883.01
581.648	44939.74
582.008	45225.83
582.368	45374.75
582.728	45561.87
583.089	45820.17
583.449	45948.52
583.809	46146.26
584.169	46420.6
584.529	46548.28
584.889	46939.68
585.249	46850.19
585.609	46972
585.969	47227.13
586.329	47282.5
586.688	47621.02
587.048	47633.45
587.408	47775.37
587.768	47731.3
588.127	47976.72
588.487	48042.48
588.846	48576.7
589.206	48196.6
589.565	48547.1
589.925	48853.08
590.284	48874.1
590.643	49054.2
591.003	49179.62
591.362	49503.91
591.721	49490.58
592.08	49526.06
592.44	49744.13
592.799	49932.83
593.158	49868.65
593.517	50060.28
593.876	50183.44
594.235	50281.74
594.593	50264.79
594.952	50456.43
595.311	50519.93
595.67	50649.87
596.029	50999.46
596.387	51101.83
596.746	51272.45
597.104	51234.49
597.463	51348.38
597.822	51588.83
598.18	51475.61
598.538	51574.59
598.897	51897.07
599.255	51735.72
599.613	52299.32
599.972	52087.8
600.33	52309.26
600.688	52252.31
601.046	52388.13
601.404	52737.27
601.762	52733.66
602.12	52911.05
602.478	53015.23
602.836	53105.85
603.194	53091.84
603.552	53264.94
603.91	53153.53
604.268	53477.14
604.625	53363.7
604.983	53604.37
605.341	53568.44
605.698	53828.99
606.056	53994.19
606.413	53988.31
606.771	54138.59
607.128	54274.41
607.485	54219.27
607.843	54351.01
608.2	54543.55
608.557	54785.35
608.914	54700.16
609.272	54918.68
609.629	54888.85
609.986	55190.77
610.343	55076.42
610.7	55427.82
611.057	55379.24
611.414	55440.48
611.771	55566.58
612.127	55687.7
612.484	55788.49
612.841	55905.1
613.198	55888.15
613.554	55901.93
613.911	56264.86
614.267	56248.37
614.624	56280
614.98	56382.6
615.337	56560.22
615.693	56611.29
616.05	56591.18
616.406	56804.06
616.762	56799.99
617.118	56886.09
617.475	57012.64
617.831	57056.25
618.187	57160.88
618.543	57220.77
618.899	57455.57
619.255	57364.04
619.611	57413.53
619.967	57529.46
620.323	57614.66
620.678	57619.18
621.034	57616.24
621.39	57749.34
621.746	57705.95
622.101	58007.87
622.457	57918.15
622.812	58053.74
623.168	58092.38
623.523	58160.63
623.879	58239.5
624.234	58159.05
624.589	58335.32
624.945	58433.39
625.3	58432.04
625.655	58471.58
626.01	58578.25
626.365	58583.45
626.72	58670.22
627.075	58718.13
627.43	58707.28
627.785	58779.6
628.14	58906.6
628.495	58921.74
628.85	58928.52
629.205	58862.08
629.559	59093.94
629.914	58961.29
630.269	59061.17
630.623	59055.3
630.978	59065.92
631.332	59224.78
631.687	59291.45
632.041	59168.29
632.396	59265.91
632.75	59241.73
633.104	59355.63
633.459	59256.87
633.813	59206.25
634.167	59338
634.521	59369.41
634.875	59476.08
635.229	59431.56
635.583	59340.71
635.937	59422.52
636.291	59470.65
636.645	59556.98
636.999	59477.43
637.352	59625.9
637.706	59516.3
638.06	59675.85
638.413	59653.7
638.767	59564.21
639.121	59719.91
639.474	59626.13
639.828	59697.99
640.181	59776.86
640.534	59723.08
640.888	59798.78
641.241	59665.68
641.594	59772.57
641.947	59840.14
642.301	59853.24
642.654	59877.2
643.007	59956.29
643.36	59925.33
643.713	59892.79
644.066	60016.18
644.419	59940.25
644.771	59876.97
645.124	59773.02
645.477	59845.11
645.83	59701.38
646.182	59548.39
646.535	59380.49
646.888	59480.15
647.24	59321.73
647.593	59489.86
647.945	59538.22
648.298	59448.06
648.65	59386.36
649.002	59394.5
649.355	59535.28
649.707	59619.35
650.059	59804.88
650.411	60099.34
650.763	60107.25
651.115	60438.76
651.467	60366.9
651.819	60424.75
652.171	60418.2
652.523	60389.73
652.875	60400.57
653.227	60323.06
653.578	60499.33
653.93	60542.04
654.282	60526.22
654.633	60478.99
654.985	60605.99
655.337	60614.8
655.688	60664.29
656.039	60805.76
656.391	60620.23
656.742	60664.52
657.094	60763.05
657.445	60828.36
657.796	60801.47
658.147	60788.81
658.498	60805.76
658.849	60918.3
659.2	60846.66
659.551	60825.65
659.902	60962.59
660.253	60948.58
660.604	61054.79
660.955	60983.38
661.306	61096.83
661.656	61058.63
662.007	61119.42
662.358	61107.45
662.708	61121.68
663.059	61188.8
663.409	61017.96
663.76	61308.57
664.11	61258.86
664.461	61292.98
664.811	61324.16
665.161	61355.35
665.511	61329.81
665.862	61394.45
666.212	61466.31
666.562	61548.79
666.912	61483.03
667.262	61545.85
667.612	61570.71
667.962	61587.66
668.312	61638.05
668.662	61818.84
669.011	61707.21
669.361	61741.33
669.711	61803.93
670.06	61798.73
670.41	61764.38
670.76	61754.89
671.109	61889.35
671.459	61888.67
671.808	61926.41
672.157	62054.99
672.507	61842.12
672.856	61906.3
673.205	61952.4
673.554	62074.43
673.904	62050.92
674.253	62182.9
674.602	62111.26
674.951	61798.05
675.3	61775.23
675.649	62142.67
675.998	62120.3
676.346	62126.63
676.695	62289.11
677.044	62119.62
677.393	62270.35
677.741	62325.72
678.09	62309.22
678.438	62272.39
678.787	62306.29
679.135	62387.87
679.484	62266.06
679.832	62446.85
680.181	62231.03
680.529	62377.7
680.877	62300.64
681.225	62343.12
681.573	62458.37
681.922	62325.49
682.27	62300.41
682.618	62341.54
682.966	62363.01
683.314	62453.17
683.661	62406.85
684.009	62389.9
684.357	62291.14
684.705	62325.72
685.053	62303.35
685.4	62418.6
685.748	62312.61
686.095	62445.94
686.443	62352.16
686.79	62353.52
687.138	62375.21
687.485	62436.23
687.832	62377.47
688.18	62414.08
688.527	62330.69
688.874	62356.23
689.221	62393.06
689.568	62259.51
689.915	62244.82
690.262	62271.03
690.609	62304.7
690.956	62269
691.303	62282.33
691.65	62104.71
691.997	62105.16
692.344	62051.38
692.69	62018.84
693.037	62123.01
693.383	61964.83
693.73	62040.53
694.077	61819.74
694.423	61917.6
694.769	61923.92
695.116	61973.41
695.462	61953.98
695.808	61879.4
696.155	62023.36
696.501	61855.9
696.847	61860.65
697.193	61764.83
697.539	61930.25
697.885	61803.93
698.231	61732.52
698.577	61797.37
698.923	61859.97
699.269	61677.15
699.614	61648.68
699.96	61586.53
700.306	61593.76
700.651	61519.41
700.997	61475.12
701.342	61469.92
701.688	61507.89
702.033	61485.06
702.379	61573.42
702.724	61501.56
703.069	61566.87
703.415	61392.86
703.76	61414.56
704.105	61454.56
704.45	61386.54
704.795	61295.46
705.14	61277.61
705.485	61304.73
705.83	61188.57
706.175	61290.04
706.52	61170.72
706.865	61177.28
707.209	61184.73
707.554	61102.93
707.899	61174.56
708.243	61045.53
708.588	61082.81
708.932	60996.72
709.277	61096.83
709.621	61055.02
709.966	60950.16
710.31	61039.2
710.654	60847.11
710.998	60986.09
711.342	60942.25
711.687	60969.82
712.031	60892.31
712.375	60865.42
712.719	60951.74
713.063	60866.55
713.407	60949.94
713.75	60845.53
714.094	60895.25
714.438	60713.33
714.782	60771.18
715.125	60743.16
715.469	60818.19
715.812	60737.74
716.156	60648.93
716.499	60678.76
716.843	60742.48
717.186	60613.67
717.53	60779.77
717.873	60755.59
718.216	60758.53
718.559	60636.72
718.902	60535.48
719.246	60606.9
719.589	60567.57
719.932	60576.39
720.275	60580.46
720.617	60606.22
720.96	60585.88
721.303	60592.66
721.646	60605.54
721.989	60458.65
722.331	60573
722.674	60447.8
723.016	60584.07
723.359	60522.6
723.701	60523.73
724.044	60405.32
724.386	60346.11
724.729	60490.06
725.071	60452.32
725.413	60483.28
725.755	60473.57
726.097	60388.14
726.439	60353.57
726.782	60405.32
727.124	60489.16
727.465	60453.68
727.807	60359.67
728.149	60353.79
728.491	60366.68
728.833	60444.87
729.175	60435.15
729.516	60364.19
729.858	60378.2
730.199	60477.41
730.541	60427.46
730.882	60426.56
731.224	60396.96
731.565	60268.37
731.906	60309.95
732.248	60372.33
732.589	60319.22
732.93	60283.74
733.271	60280.58
733.612	60395.15
733.953	60356.28
734.294	60346.34
734.635	60279.22
734.976	60384.53
735.317	60344.98
735.658	60285.1
735.999	60307.69
736.339	60314.47
736.68	60363.51
737.021	60356.05
737.361	60206.91
737.702	60370.07
738.042	60206.23
738.383	60137.08
738.723	60273.57
739.063	60236.96
739.404	60301.59
739.744	60304.08
740.084	60267.92
740.424	60333.23
740.764	60290.29
741.104	60346.79
741.444	60247.58
741.784	60164.42
742.124	60214.59
742.464	60210.52
742.804	60203.97
743.143	60159.22
743.483	60216.17
743.823	60086.23
744.162	60172.1
744.502	60190.86
744.841	60101.37
745.181	60180.69
745.52	60074.03
745.86	60291.88
746.199	60146.34
746.538	60147.47
746.877	60226.11
747.216	60221.82
747.556	60263.85
747.895	60197.19
748.234	60146.34
748.573	60091.65
748.911	60141.37
749.25	60180.69
749.589	59954.26
749.928	60131.65
750.267	60064.54
750.605	60126.46
750.944	60090.75
751.283	59950.64
751.621	60003.97
751.96	59865.45
752.298	59876.52
752.636	59991.09
752.975	59879.68
753.313	59808.27
753.651	59936.86
753.989	59747.71
754.327	59693.92
754.666	59628.16
755.004	59842.17
755.342	59785.9
755.679	59721.27
756.017	59630.88
756.355	59761.27
756.693	59676.07
757.031	59667.94
757.368	59574.15
757.706	59539.58
758.044	59426.14
758.381	59463.87
758.719	59410.32
759.056	59498.45
759.394	59472.01
759.731	59358.79
760.068	59378
760.405	59310.21
760.743	59300.94
761.08	59329.41
761.417	59085.35
761.754	59089.42
762.091	59033.38
762.428	58943.44
762.765	58850.11
763.102	59004
763.438	58931.46
763.775	58814.4
764.112	58897.79
764.449	58934.85
764.785	58795.64
765.122	58667.29
765.458	58596.33
765.795	58639.72
766.131	58653.27
766.467	58570.56
766.804	58470.23
767.14	58373.51
767.476	58422.55
767.812	58404.69
768.148	58402.43
768.485	58264.81
768.821	58138.26
769.157	58162.44
769.492	58135.32
769.828	58090.13
770.164	57877.93
770.5	57881.32
770.836	57866.63
771.171	57780.98
771.507	57772.85
771.842	57561.55
772.178	57615.79
772.513	57616.01
772.849	57524.26
773.184	57447.43
773.519	57524.26
773.855	57388.67
774.19	57249.92
774.525	57145.07
774.86	57133.09
775.195	57122.47
775.53	57147.33
775.865	56988.23
776.2	56876.37
776.535	56826.88
776.87	56819.88
777.205	56663.5
777.539	56574.46
777.874	56609.94
778.209	56345.31
778.543	56371.53
778.878	56281.81
779.212	56311.64
779.547	56164.07
779.881	56405.2
780.215	56168.14
780.55	56216.05
780.884	56100.12
781.218	56062.61
781.552	56144.87
781.886	55905.32
782.22	55812.44
782.554	55648.61
782.888	55496.75
783.222	55430.53
783.556	55385.79
783.889	55438.44
784.223	55248.84
784.557	55195.29
784.89	55291.78
785.224	55014.27
785.557	54911.9
785.891	54942.19
786.224	54808.86
786.558	54780.61
786.891	54643.89
787.224	54528.18
787.557	54533.38
787.891	54544.46
788.224	54548.98
788.557	54476.43
788.89	54421.75
789.223	54445.93
789.556	54207.52
789.888	54258.81
790.221	54151.25
790.554	53913.96
790.887	53983.79
791.219	53896.79
791.552	53871.03
791.884	53758.26
792.217	53677.81
792.549	53500.87
792.882	53395.56
793.214	53332.96
793.546	53343.36
793.879	53140.42
794.211	53062.01
794.543	53228.78
794.875	53205.28
795.207	53245.96
795.539	53075.57
795.871	53129.35
796.203	52896.82
796.535	52720.77
796.867	52694.56
797.198	52612.53
797.53	52685.52
797.862	52515.81
798.193	52504.96
798.525	52405.75
798.856	52380.44
799.188	51992.66
799.519	52016.39
799.85	51875.15
800.182	51995.6
800.513	52017.97
800.844	51647.13
801.175	51974.81
801.506	51864.98
801.837	51757.86
802.168	51724.42
802.499	51583.63
802.83	51332.34
803.161	51370.75
803.491	51464.08
803.822	51555.61
804.153	51295.28
804.483	50925.12
804.814	50912.91
805.145	50881.05
805.475	50815.29
805.805	50766.02
806.136	50899.13
806.466	50979.58
806.796	50834.5
807.126	50593.83
807.457	50526.71
807.787	50596.31
808.117	50429.99
808.447	50244.46
808.777	50531.68
809.107	50283.78
809.436	50111.13
809.766	50070.67
810.096	50016.89
810.426	49983.45
810.755	50064.8
811.085	49853.96
811.414	49894.63
811.744	49569.45
812.073	49664.13
812.403	49700.52
812.732	49499.16
813.061	49551.14
813.39	49468.88
813.719	49574.42
814.049	49802.21
814.378	49681.53
814.707	49385.27
815.036	49387.98
815.365	49199.74
815.693	48857.6
816.022	49129
816.351	49013.08
816.68	48829.8
817.008	49060.76
817.337	48635.68
817.665	48763.14
817.994	48761.1
818.322	48683.14
818.651	48521.34
818.979	48301.91
819.307	48529.7
819.636	48463.03
819.964	48245.64
820.292	48540.09
820.62	48428.68
820.948	48338.74
821.276	48427.78
821.604	48355.47
821.932	48429.14
822.259	48501.45
822.587	48479.53
822.915	48522.69
823.243	48709.13
823.57	48561.34
823.898	48821.89
824.225	48496.25
824.553	48674.78
824.88	48733.76
825.207	48705.51
825.535	48644.95
825.862	48780.99
826.189	48665.74
826.516	48861.22
826.843	49160.19
827.17	49023.92
827.497	49144.82
827.824	49127.2
828.151	49180.53
828.478	48971.49
828.805	49170.59
829.131	48858.28
829.458	48952.74
829.785	48793.87
830.111	49030.02
830.438	49219.62
830.764	49157.03
831.09	49279.06
831.417	48965.85
831.743	49188.21
832.069	49256.46
832.395	49070.25
832.722	49356.8
833.048	49272.5
833.374	49329.68
833.7	49162.68
834.026	49182.79
834.351	49390.92
834.677	49165.39
835.003	49115.45
835.329	49202.9
835.654	49165.84
835.98	49165.61
836.306	49214.43
836.631	49061.44
836.956	49113.41
837.282	49171.94
837.607	49060.08
837.932	49100.76
838.258	48985.28
838.583	48805.62
838.908	48711.84
839.233	48931.04
839.558	48761.1
839.883	48734.89
840.208	48757.26
840.533	48825.28
840.858	48749.13
841.182	48919.52
841.507	48675.01
841.832	48351.17
842.156	48470.04
842.481	48289.25
842.805	48292.42
843.13	48275.24
843.454	48217.62
843.778	48008.13
844.103	48052.2
844.427	48005.87
844.751	47946.66
845.075	47862.15
845.399	47818.3
845.723	47769.04
846.047	47877.29
846.371	47507.8
846.695	47691.08
847.019	47433.68
847.343	47331.31
847.666	47165.21
847.99	46975.62
848.313	46966.35
848.637	46501.5
848.96	46451.34
849.284	46436.42
849.607	46180.16
849.931	46061.51
850.254	45963.44
850.577	45783.78
850.9	45661.07
851.223	45549.21
851.546	45166.4
851.869	45192.84
852.192	45462.43
852.515	44997.14
852.838	44807.31
853.161	44989.68
853.483	44906.29
853.806	44715.34
854.129	44746.07
854.451	44648.9
854.774	44417.94
855.096	44203.71
855.419	44276.48
855.741	44198.74
856.063	43881.69
856.385	43860.22
856.708	43841.46
857.03	43748.13
857.352	43716.04
857.674	43521.02
857.996	43621.8
858.318	43245.09
858.64	43373.22
858.961	43168.94
859.283	43130.97
859.605	42850.53
859.926	43135.04
860.248	43099.33
860.57	42850.75
860.891	42873.58
861.212	42780.7
861.534	42692.34
861.855	42473.81
862.176	42597.2
862.498	42546.58
862.819	42575.96
863.14	42397.2
863.461	42432.68
863.782	42426.13
864.103	42396.75
864.424	42422.74
864.745	42493.25
865.065	42263.87
865.386	42304.33
865.707	42261.39
866.027	42378
866.348	42222.75
866.668	42060.04
866.989	41983.88
867.309	41825.69
867.63	41954.28
867.95	42022.98
868.27	41665.7
868.59	41853.94
868.91	41777.11
869.23	41734.4
869.55	41535.31
869.87	41846.48
870.19	41827.73
870.51	41620.5
870.83	41612.59
871.15	41333.05
871.469	41557.23
871.789	41717.9
872.109	41712.7
872.428	41229.1
872.748	41713.61
873.067	41432.71
873.386	41555.64
873.706	41312.04
874.025	41336.22
874.344	41092.83
874.663	41319.49
874.982	41292.6
875.301	41382.77
875.62	41292.83
875.939	41023
876.258	41211.92
876.577	40900.97
876.896	40969.9
877.214	40929.67
877.533	40999.73
877.852	41000.63
878.17	40883.57
878.489	40873.85
878.807	40831.82
879.125	40738.72
879.444	40792.95
879.762	40388.67
880.08	40529.23
880.398	40529.23
880.716	40581.66
881.034	40499.85
881.352	40347.77
881.67	40319.52
881.988	40520.64
882.306	40321.33
882.624	40105.06
882.941	40007.66
883.259	40014.67
883.577	39947.78
883.894	40079.07
884.212	40004.95
884.529	39932.64
884.846	39824.84
885.164	39779.65
885.481	39569.26
885.798	39512.31
886.115	39364.06
886.432	39427.56
886.75	39270.06
887.067	39196.84
887.383	39121.36
887.7	39110.29
888.017	39095.82
888.334	38945.54
888.651	39024.86
888.967	39019.44
889.284	38816.73
889.6	38692.9
889.917	38427.82
890.233	38441.15
890.55	38432.34
890.866	38482.05
891.182	38168.16
891.498	38036.64
891.815	38018.11
892.131	37945.34
892.447	37854.27
892.763	37700.83
893.079	37704.45
893.395	37634.39
893.71	37540.16
894.026	37264.91
894.342	37263.78
894.657	37072.15
894.973	37037.35
895.289	37033.96
895.604	37170.9
895.92	36825.15
896.235	36695.43
896.55	36744.02
896.865	36724.81
897.181	36754.19
897.496	36635.1
897.811	36543.57
898.126	36443.69
898.441	36303.35
898.756	36132.06
899.071	36048.22
899.386	36049.35
899.7	35707.89
900.015	35628.79
900.33	35494.34
900.644	35482.13
900.959	35325.3
901.273	35271.29
901.588	35248.01
901.902	35089.83
902.216	35163.04
902.531	34978.19
902.845	34861.13
903.159	34595.15
903.473	34539.33
903.787	34535.04
904.101	34246.23
904.415	34215.5
904.729	34049.63
905.042	33981.83
905.356	33855.73
905.67	33835.62
905.984	33720.14
906.297	33681.28
906.611	33503.88
906.924	33475.63
907.237	33326.48
907.551	33300.49
907.864	33154.96
908.177	33173.94
908.491	32853.73
908.804	32757.46
909.117	32627.07
909.43	32465.49
909.743	32282.89
910.056	32319.28
910.368	32182.56
910.681	32067.98
910.994	32135.1
911.307	31984.82
911.619	31707.54
911.932	31868.89
912.244	31649.69
912.557	31518.85
912.869	31195.01
913.181	31283.6
913.494	31220.32
913.806	31046.32
914.118	30847.45
914.43	30656.27
914.742	30634.8
915.054	30477.07
915.366	30362.72
915.678	30240.24
915.99	30213.8
916.302	30088.15
916.613	29912.79
916.925	29881.6
917.236	29936.29
917.548	29670.31
917.859	29729.51
918.171	29403.2
918.482	29438
918.794	29305.8
919.105	29378.34
919.416	29177.67
919.727	29081.17
920.038	28854.28
920.349	28769.54
920.66	28668.53
920.971	28658.13
921.282	28639.6
921.593	28347.86
921.903	28057.24
922.214	28124.13
922.525	28137.01
922.835	27984.02
923.146	27871.94
923.456	27777.02
923.767	27591.94
924.077	27617.25
924.387	27378.84
924.697	27452.51
925.008	27302.91
925.318	27204.16
925.628	27181.33
925.938	26975.46
926.248	26716.03
926.558	26690.72
926.867	26588.35
927.177	26513.1
927.487	26272.66
927.796	26069.72
928.106	26088.48
928.416	25973.68
928.725	26119.67
929.034	25744.08
929.344	25910.86
929.653	25880.8
929.962	25620.47
930.271	25491.43
930.581	25378.89
930.89	25269.97
931.199	25183.87
931.508	25103.65
931.817	25081.05
932.125	24993.82
932.434	24850.77
932.743	24528.75
933.051	24588.18
933.36	24521.52
933.669	24427.51
933.977	24262.77
934.286	24337.34
934.594	24135.09
934.902	23960.63
935.21	23924.02
935.519	23916.33
935.827	23921.08
936.135	23808.99
936.443	23618.04
936.751	23504.14
937.059	23508.44
937.367	23372.17
937.674	23406.07
937.982	23365.84
938.29	23233.64
938.597	23245.39
938.905	22885.85
939.213	22861.9
939.52	22617.16
939.827	22622.81
940.135	22461.46
940.442	22323.83
940.749	22308.92
941.056	22537.39
941.363	22152.09
941.67	22248.58
941.977	22070.06
942.284	22000.68
942.591	21840.91
942.898	21689.95
943.205	21646.34
943.511	21515.04
943.818	21439.34
944.125	21310.98
944.431	21339.45
944.738	21094.71
945.044	21188.27
945.35	21133.13
945.657	20979.24
945.963	20910.31
946.269	20674.16
946.575	20744.67
946.881	20499.7
947.187	20451.34
947.493	20445.24
947.799	20323.89
948.105	20245.7
948.41	20256.77
948.716	20146.72
949.022	19972.71
949.327	19901.75
949.633	19825.37
949.938	19709.21
950.244	19732.72
950.549	19501.99
950.854	19396
951.16	19478.03
951.465	19269.22
951.77	19324.36
952.075	19293.63
952.38	19148.1
952.685	19168.66
952.99	18990.36
953.294	18893.42
953.599	18848.45
953.904	18751.95
954.209	18719.18
954.513	18566.19
954.818	18567.1
955.122	18365.52
955.426	18409.36
955.731	18172.53
956.035	18156.94
956.339	18203.72
956.643	18119.2
956.948	17894.57
957.252	17883.95
957.556	17736.38
957.86	17701.36
958.163	17732.77
958.467	17624.52
958.771	17603.51
959.075	17547.91
959.378	17251.65
959.682	17274.48
959.985	17155.83
960.289	17036.52
960.592	16945.22
960.896	16946.12
961.199	16929.85
961.502	16921.04
961.805	16758.56
962.108	16781.38
962.411	16756.52
962.714	16645.57
963.017	16527.38
963.32	16585.68
963.623	16464.33
963.926	16353.14
964.228	16202.41
964.531	16167.84
964.833	16274.95
965.136	16051.68
965.438	16057.11
965.741	16051.46
966.043	16026.15
966.345	15999.03
966.648	15777.34
966.95	15675.42
967.252	15551.36
967.554	15649.66
967.856	15513.17
968.158	15327.63
968.46	15348.2
968.761	15394.52
969.063	15164.7
969.365	15125.83
969.666	15048.54
969.968	14979.85
970.269	14982.56
970.571	14848.55
970.872	14985.72
971.174	14720.87
971.475	14627.31
971.776	14627.99
972.077	14541.89
972.378	14538.05
972.679	14456.7
972.98	14402.01
973.281	14340.54
973.582	14133.77
973.883	14112.3
974.183	13953.66
974.484	14071.4
974.785	13930.83
975.085	13896.03
975.386	13865.07
975.686	13842.02
975.986	13677.28
976.287	13738.97
976.587	13564.74
976.887	13622.14
977.187	13535.59
977.487	13402.94
977.787	13346.89
978.087	13257.18
978.387	13153.23
978.687	13243.39
978.987	13121.59
979.286	12960.92
979.586	13028.94
979.885	12890.86
980.185	12886.12
980.484	12771.09
980.784	12747.59
981.083	12727.7
981.382	12636.63
981.682	12550.76
981.981	12634.82
982.28	12509.63
982.579	12456.52
982.878	12512.11
983.177	12412.91
983.475	12390.08
983.774	12305.11
984.073	12222.86
984.372	12136.08
984.67	12089.98
984.969	12060.83
985.267	12020.83
985.566	11911
985.864	11823.09
986.162	11893.15
986.461	11790.1
986.759	11756.65
987.057	11613.38
987.355	11584.68
987.653	11569.99
987.951	11514.85
988.249	11387.4
988.547	11346.72
988.844	11266.05
989.142	11266.27
989.44	11165.48
989.737	11131.81
990.035	11073.51
990.332	11040.97
990.63	11046.16
990.927	10951.03
991.224	10890.46
991.521	10840.07
991.819	10783.8
992.116	10725.95
992.413	10716.46
992.71	10616.35
993.006	10578.83
993.303	10491.83
993.6	10538.38
993.897	10416.58
994.193	10380.19
994.49	10307.88
994.787	10235.34
995.083	10210.71
995.379	10131.84
995.676	10115.34
995.972	10104.04
996.268	10041.67
996.565	9951.5
996.861	9924.84
997.157	9858.4
997.453	9771.4
997.749	9785.41
998.044	9659.31
998.34	9614.56
998.636	9506.54
998.932	9520.78
999.227	9439.43
999.523	9468.8
999.818	9396.26
1000.114	9269.04
1000.409	9222.26
1000.704	9198.3
1001	9214.57
1001.295	9203.73
1001.59	9174.8
1001.885	9105.42
1002.18	9041.25
1002.475	8909.5
1002.77	8881.7
1003.065	8794.02
1003.359	8877.63
1003.654	8755.6
1003.949	8622.73
1004.243	8611.88
1004.538	8589.73
1004.832	8507.7
1005.127	8455.72
1005.421	8453.24
1005.715	8359.68
1006.009	8308.61
1006.304	8321.72
1006.598	8184.09
1006.892	8228.61
1007.186	8120.37
1007.48	8050.99
1007.773	8030.42
1008.067	8007.83
1008.361	7900.94
1008.655	7793.37
1008.948	7811.22
1009.242	7727.16
1009.535	7661.62
1009.829	7648.29
1010.122	7552.7
1010.415	7513.83
1010.708	7482.64
1011.001	7461.4
1011.295	7407.84
1011.588	7340.5
1011.881	7276.09
1012.173	7273.61
1012.466	7251.91
1012.759	7120.62
1013.052	7076.1
1013.344	7065.03
1013.637	7046.72
1013.93	7044.01
1014.222	6948.19
1014.514	6888.31
1014.807	6874.3
1015.099	6778.71
1015.391	6767.63
1015.683	6799.5
1015.976	6679.73
1016.268	6619.61
1016.56	6588.65
1016.851	6538.94
1017.143	6512.05
1017.435	6464.36
1017.727	6445.61
1018.018	6351.15
1018.31	6317.93
1018.602	6293.07
1018.893	6284.93
1019.185	6149.34
1019.476	6035
1019.767	6064.15
1020.058	6063.24
1020.35	5943.7
1020.641	5987.31
1020.932	5828.67
1021.223	5857.6
1021.514	5765.17
1021.804	5709.13
1022.095	5712.07
1022.386	5653.99
1022.677	5618.51
1022.967	5580.55
1023.258	5582.35
1023.548	5528.34
1023.839	5498.51
1024.129	5492.86
1024.419	5391.4
1024.709	5377.84
1025	5305.75
1025.29	5278.63
1025.58	5207
1025.87	5131.52
1026.16	5190.05
1026.449	5159.77
1026.739	5098.52
1027.029	5057.85
1027.319	4986.44
1027.608	4979.88
1027.898	4945.08
1028.187	4907.57
1028.477	4873.9
1028.766	4824.63
1029.055	4723.62
1029.344	4717.97
1029.634	4677.97
1029.923	4665.32
1030.212	4611.08
1030.501	4611.31
1030.79	4581.93
1031.078	4487.92
1031.367	4443.17
1031.656	4451.08
1031.945	4391.65
1032.233	4407.24
1032.522	4302.61
1032.81	4241.37
1033.099	4265.55
1033.387	4245.89
1033.675	4211.99
1033.963	4145.55
1034.251	4090.42
1034.54	4113.47
1034.828	4055.16
1035.116	4041.6
1035.403	3981.27
1035.691	3953.7
1035.979	3944.43
1036.267	3913.47
1036.554	3858.1
1036.842	3848.16
1037.129	3811.55
1037.417	3769.07
1037.704	3722.29
1037.992	3701.72
1038.279	3690.65
1038.566	3615.85
1038.853	3615.85
1039.14	3615.85
