Data from copper_heatsink_FLMS001491_036.txt Node
Date: Tue Feb 07 10:49:50 GMT 2017
User: dcchb
Spectrometer: FLMS00149
Trigger mode: 0
Integration Time (sec): 2.000000E-2
Scans to average: 10
Electric dark correction enabled: true
Nonlinearity correction enabled: false
Boxcar width: 0
XAxis mode: Wavelengths
Number of Pixels in Spectrum: 2048
>>>>>Begin Spectral Data<<<<<
341.393	-40.22
341.776	-40.22
342.16	-40.22
342.543	-46.55
342.927	-55.59
343.31	-69.6
343.693	-71.64
344.077	-80.68
344.46	-49.72
344.843	-46.33
345.226	-34.35
345.61	-35.03
345.993	-21.02
346.376	-7.23
346.759	1.36
347.142	34.58
347.525	51.3
347.908	52.43
348.291	78.19
348.674	102.14
349.057	95.59
349.44	121.8
349.823	131.07
350.206	158.41
350.588	202.71
350.971	205.19
351.354	241.58
351.737	247.9
352.119	269.6
352.502	288.58
352.884	298.75
353.267	297.39
353.65	327
354.032	311.18
354.414	330.39
354.797	331.29
355.179	318.41
355.562	356.15
355.944	336.94
356.326	352.08
356.709	343.27
357.091	346.43
357.473	350.5
357.855	350.05
358.238	366.09
358.62	363.83
359.002	350.27
359.384	357.5
359.766	368.8
360.148	364.74
360.53	348.69
360.912	341.69
361.294	335.13
361.676	347.79
362.057	349.37
362.439	359.54
362.821	330.39
363.203	350.05
363.584	349.37
363.966	328.58
364.348	340.56
364.729	340.1
365.111	322.93
365.493	349.82
365.874	350.95
366.256	346.21
366.637	339.2
367.019	345.98
367.4	315.25
367.781	365.64
368.163	367.45
368.544	341.69
368.925	351.86
369.306	362.48
369.688	344.62
370.069	320.9
370.45	322.25
370.831	352.99
371.212	372.19
371.593	333.32
371.974	337.39
372.355	323.61
372.736	338.07
373.117	369.93
373.498	343.72
373.879	357.28
374.26	335.36
374.641	319.31
375.021	305.75
375.402	331.74
375.783	358.63
376.163	353.21
376.544	348.24
376.925	375.81
377.305	328.35
377.686	349.37
378.066	368.13
378.447	383.04
378.827	364.74
379.208	368.13
379.588	345.53
379.968	357.28
380.349	358.18
380.729	376.71
381.109	369.48
381.489	368.35
381.87	384.85
382.25	369.03
382.63	376.26
383.01	385.98
383.39	364.74
383.77	374.68
384.15	368.8
384.53	364.74
384.91	383.94
385.29	389.14
385.67	373.78
386.049	369.03
386.429	393.21
386.809	409.93
387.189	401.35
387.568	378.75
387.948	376.04
388.328	394.34
388.707	387.79
389.087	402.7
389.466	406.32
389.846	389.37
390.225	390.5
390.605	405.41
390.984	416.03
391.363	428.24
391.743	414.68
392.122	434.56
392.501	417.62
392.881	407.67
393.26	436.82
393.639	425.3
394.018	419.88
394.397	408.12
394.776	430.27
395.155	427.56
395.534	441.8
395.913	412.64
396.292	437.05
396.671	437.28
397.05	430.72
397.429	430.27
397.808	438.18
398.186	426.88
398.565	440.21
398.944	456.49
399.323	453.77
399.701	458.52
400.08	463.49
400.458	451.97
400.837	469.37
401.215	464.39
401.594	465.07
401.972	440.21
402.351	467.78
402.729	451.74
403.107	483.15
403.486	480.89
403.864	493.77
404.242	484.96
404.62	503.49
404.999	487.22
405.377	483.15
405.755	490.38
406.133	488.57
406.511	503.72
406.889	496.71
407.267	508.69
407.645	497.39
408.023	521.79
408.401	513.66
408.779	515.69
409.156	522.02
409.534	495.35
409.912	515.69
410.29	538.06
410.667	543.04
411.045	514.11
411.422	534.22
411.8	573.09
412.178	552.3
412.555	561.79
412.933	559.08
413.31	555.24
413.687	553.21
414.065	568.57
414.442	602.47
414.819	564.73
415.197	602.47
415.574	586.43
415.951	580.32
416.328	587.33
416.705	578.97
417.082	594.11
417.46	610.83
417.837	578.29
418.214	611.96
418.591	597.72
418.967	623.03
419.344	630.27
419.721	633.88
420.098	618.06
420.475	643.82
420.852	637.72
421.228	631.85
421.605	642.47
421.982	658.97
422.358	654.45
422.735	657.84
423.111	642.92
423.488	671.17
423.864	677.27
424.241	681.79
424.617	678.63
424.994	684.5
425.37	685.41
425.746	654.9
426.123	713.43
426.499	680.89
426.875	715.01
427.251	709.13
427.627	697.16
428.003	722.24
428.379	716.37
428.756	710.94
429.132	722.01
429.507	718.4
429.883	760.21
430.259	734.9
430.635	749.81
431.011	777.38
431.387	761.79
431.763	763.37
432.138	795.01
432.514	788.68
432.89	789.36
433.265	804.5
433.641	825.29
434.016	833.65
434.392	827.1
434.767	827.55
435.143	823.93
435.518	855.8
435.894	855.57
436.269	867.77
436.644	872.75
437.02	897.38
437.395	878.85
437.77	869.81
438.145	893.54
438.52	921.78
438.895	928.56
439.271	924.72
439.646	935.34
440.021	931.05
440.395	942.8
440.77	933.53
441.145	964.72
441.52	957.71
441.895	950.94
442.27	959.07
442.645	969.47
443.019	968.11
443.394	992.29
443.769	953.87
444.143	969.01
444.518	995.23
444.892	989.58
445.267	1005.4
445.641	1015.34
446.016	1041.1
446.39	1008.11
446.764	1028.67
447.139	1009.69
447.513	1039.52
447.887	1042.68
448.262	1032.52
448.636	1066.64
449.01	1067.99
449.384	1079.07
449.758	1057.6
450.132	1070.93
450.506	1109.8
450.88	1129.91
451.254	1074.32
451.628	1105.28
452.002	1117.94
452.376	1133.08
452.75	1118.84
453.123	1151.61
453.497	1162.23
453.871	1176.69
454.244	1195.9
454.618	1218.05
454.992	1226.86
455.365	1215.11
455.739	1235.9
456.112	1248.78
456.486	1229.57
456.859	1260.53
457.232	1285.84
457.606	1274.09
457.979	1312.96
458.352	1338.5
458.725	1313.41
459.099	1332.39
459.472	1362.45
459.845	1396.12
460.218	1409
460.591	1392.05
460.964	1426.86
461.337	1437.48
461.71	1442.45
462.083	1448.1
462.456	1467.08
462.829	1491.71
463.201	1494.2
463.574	1490.36
463.947	1533.29
464.32	1563.12
464.692	1580.52
465.065	1597.92
465.438	1621.2
465.81	1641.76
466.183	1660.52
466.555	1683.35
466.928	1685.83
467.3	1684.48
467.672	1698.49
468.045	1778.94
468.417	1742.1
468.789	1790.46
469.161	1784.81
469.534	1816
469.906	1823
470.278	1869.33
470.65	1914.3
471.022	1906.84
471.394	1950.68
471.766	1971.25
472.138	1962.89
472.51	2017.35
472.882	2060.74
473.253	2107.97
473.625	2119.04
473.997	2156.1
474.369	2164.24
474.74	2174.18
475.112	2238.81
475.484	2259.83
475.855	2321.52
476.227	2332.14
476.598	2396.55
476.97	2387.06
477.341	2431.57
477.713	2498.69
478.084	2478.13
478.455	2582.08
478.827	2577.79
479.198	2666.82
479.569	2698.69
479.94	2773.71
480.311	2771
480.682	2845.8
481.053	2896.65
481.424	2935.06
481.795	2909.3
482.166	3003.31
482.537	3037.89
482.908	3128.96
483.279	3117.66
483.65	3165.79
484.021	3313.36
484.391	3294.15
484.762	3346.58
485.133	3359.01
485.503	3415.5
485.874	3487.82
486.244	3511.55
486.615	3588.61
486.985	3625.67
487.356	3732.11
487.726	3739.56
488.097	3789.5
488.467	3811.65
488.837	3897.98
489.207	3932.55
489.578	3999.44
489.948	4043.06
490.318	4065.88
490.688	4147.01
491.058	4240.34
491.428	4290.51
491.798	4309.94
492.168	4384.07
492.538	4429.04
492.908	4486.66
493.278	4549.94
493.648	4544.29
494.017	4594
494.387	4658.18
494.757	4728.01
495.126	4796.26
495.496	4815.69
495.866	4892.53
496.235	4958.74
496.605	4999.19
496.974	5012.52
497.344	5061.79
497.713	5067.21
498.082	5137.49
498.452	5234.21
498.821	5314.44
499.19	5285.06
499.559	5328.67
499.928	5385.85
500.298	5419.97
500.667	5504.71
501.036	5525.73
501.405	5616.12
501.774	5635.11
502.143	5707.65
502.512	5655.22
502.88	5761.43
503.249	5758.27
503.618	5844.59
503.987	5838.49
504.356	5939.05
504.724	5954.65
505.093	6026.73
505.462	6062.67
505.83	6122.55
506.199	6123.91
506.567	6231.47
506.936	6276.9
507.304	6364.8
507.672	6409.77
508.041	6406.61
508.409	6513.5
508.777	6592.14
509.145	6649.54
509.514	6686.38
509.882	6732.25
510.25	6805.02
510.618	6852.02
510.986	6832.14
511.354	6937.22
511.722	7027.16
512.09	7122.3
512.458	7160.49
512.826	7168.85
513.193	7253.82
513.561	7273.71
513.929	7343.76
514.297	7480.48
514.664	7501.05
515.032	7579.69
515.4	7638.22
515.767	7687.71
516.135	7767.48
516.502	7743.07
516.869	7902.84
517.237	7954.82
517.604	7997.3
517.972	8134.02
518.339	8206.34
518.706	8190.75
519.073	8262.83
519.44	8384.64
519.808	8457.4
520.175	8441.36
520.542	8648.36
520.909	8642.26
521.276	8714.8
521.643	8803.61
522.009	8881.57
522.376	8966.77
522.743	9066.43
523.11	9164.05
523.477	9266.2
523.843	9289.7
524.21	9453.08
524.577	9520.2
524.943	9519.75
525.31	9706.64
525.676	9789.8
526.043	9852.17
526.409	9911.38
526.776	10018.27
527.142	10082.45
527.508	10122.9
527.874	10330.12
528.241	10308.88
528.607	10393.63
528.973	10542.55
529.339	10538.03
529.705	10681.08
530.071	10839.71
530.437	10899.37
530.803	10958.58
531.169	11071.8
531.535	11081.52
531.901	11145.02
532.267	11218.46
532.632	11293.26
532.998	11456.42
533.364	11454.16
533.73	11631.11
534.095	11711.1
534.461	11752.46
534.826	11832.23
535.192	11905.45
535.557	12041.72
535.923	12078.33
536.288	12123.07
536.653	12155.61
537.019	12268.6
537.384	12327.36
537.749	12370.75
538.114	12553.12
538.479	12563.96
538.845	12630.63
539.21	12657.97
539.575	12809.61
539.94	12890.28
540.305	12991.07
540.67	13043.95
541.034	13064.97
541.399	13195.81
541.764	13316.03
542.129	13303.83
542.494	13460.44
542.858	13479.42
543.223	13574.33
543.587	13711.73
543.952	13766.19
544.316	13845.74
544.681	13869.01
545.045	14030.37
545.41	14141.1
545.774	14156.92
546.138	14232.17
546.503	14314.88
546.867	14410.02
547.231	14565.94
547.595	14633.06
547.959	14827.41
548.324	14757.13
548.688	14825.6
549.052	14944.01
549.416	15044.58
549.779	15152.6
550.143	15328.18
550.507	15553.26
550.871	15608.86
551.235	15608.86
551.599	15805.23
551.962	15877.77
552.326	15994.38
552.689	16238.22
553.053	16169.29
553.417	16303.07
553.78	16562.28
554.143	16582.84
554.507	16804.3
554.87	16894.47
555.234	17158.64
555.597	17162.94
555.96	17326.78
556.323	17378.53
556.686	17541.23
557.05	17775.8
557.413	17963.37
557.776	18062.58
558.139	18247.2
558.502	18338.73
558.865	18545.73
559.228	18785.95
559.59	18960.63
559.953	18979.39
560.316	19290.79
560.679	19465.25
561.041	19806.03
561.404	19780.27
561.767	20117.44
562.129	20185.68
562.492	20493.47
562.854	20600.59
563.217	20686.01
563.579	20942.5
563.941	21090.29
564.304	21452.32
564.666	21676.72
565.028	21823.38
565.39	22156.71
565.753	22342.69
566.115	22715.79
566.477	22767.99
566.839	22890.7
567.201	23268.09
567.563	23433.06
567.925	23637.57
568.287	23845.7
568.648	24051.57
569.01	24264.22
569.372	24600.48
569.734	24595.51
570.095	25105.33
570.457	25102.16
570.819	25447.47
571.18	25559.55
571.542	25957.06
571.903	26154.11
572.265	26499.87
572.626	26670.26
572.987	26757.26
573.349	26959.97
573.71	27251.03
574.071	27478.37
574.432	27547.52
574.794	28119.26
575.155	28201.74
575.516	28380.04
575.877	28620.94
576.238	28931.22
576.599	29082.85
576.96	29141.15
577.32	29467.25
577.681	29616.17
578.042	29878.54
578.403	29996.95
578.763	30292.54
579.124	30462.02
579.485	30742.47
579.845	30994.67
580.206	31026.3
580.566	31198.28
580.927	31322.79
581.287	31563.92
581.648	31679.17
582.008	31933.85
582.368	32053.39
582.728	32371.58
583.089	32326.16
583.449	32504.91
583.809	32641.4
584.169	32953.26
584.529	32827.16
584.889	33303.08
585.249	33104.21
585.609	33210.88
585.969	33513.92
586.329	33550.76
586.688	33847.47
587.048	33932.67
587.408	34077.07
587.768	34210.4
588.127	34308.02
588.487	34337.4
588.846	34751.18
589.206	34646.55
589.565	34872.76
589.925	35126.31
590.284	35195.46
590.643	35347.32
591.003	35486.52
591.362	35621.66
591.721	35657.82
592.08	35781.88
592.44	35999.05
592.799	36083.57
593.158	36164.92
593.517	36188.88
593.876	36416.44
594.235	36548.19
594.593	36636.55
594.952	36845.36
595.311	36957.45
595.67	36988.86
596.029	37313.6
596.387	37269.98
596.746	37532.35
597.104	37542.97
597.463	37628.62
597.822	37934.37
598.18	37831.55
598.538	37944.76
598.897	38305.89
599.255	38043.75
599.613	38880.79
599.972	38596.73
600.33	38958.98
600.688	38778.64
601.046	39069.93
601.404	39217.05
601.762	39175.24
602.12	39581.33
602.478	39710.82
602.836	39698.39
603.194	39648
603.552	39872.17
603.91	39750.82
604.268	40098.15
604.625	40090.47
604.983	40397.36
605.341	40278.49
605.698	40564.13
606.056	40708.31
606.413	40712.83
606.771	41058.36
607.128	41188.3
607.485	41214.28
607.843	41154.4
608.2	41573.14
608.557	41856.98
608.914	41713.25
609.272	41934.26
609.629	42083.19
609.986	42258.1
610.343	42254.03
610.7	42647.24
611.057	42625.55
611.414	42733.34
611.771	42717.97
612.127	43078.64
612.484	43146.89
612.841	43452.64
613.198	43267.56
613.554	43512.53
613.911	43687.89
614.267	43698.29
614.624	43773.54
614.98	43985.28
615.337	44237.25
615.693	44230.48
616.05	44403.58
616.406	44832.27
616.762	44625.49
617.118	44704.81
617.475	44930.57
617.831	44909.78
618.187	45025.03
618.543	45186.16
618.899	45341.18
619.255	45427.28
619.611	45486.04
619.967	45648.74
620.323	45796.76
620.678	45791.56
621.034	45834.73
621.39	45940.04
621.746	45846.25
622.101	46378.44
622.457	46174.38
622.812	46292.57
623.168	46550.41
623.523	46476.52
623.879	46723.52
624.234	46399.91
624.589	46722.39
624.945	46708.6
625.3	46905.21
625.655	46720.13
626.01	46927.81
626.365	47006
626.72	47046.67
627.075	47034.7
627.43	47088.25
627.785	47100.91
628.14	47360.79
628.495	47356.49
628.85	47382.93
629.205	47412.54
629.559	47640.33
629.914	47438.75
630.269	47639.2
630.623	47497.73
630.978	47673.55
631.332	47787.44
631.687	47705.19
632.041	47685.98
632.396	47816.6
632.75	47785.86
633.104	47905.63
633.459	47765.07
633.813	47719.88
634.167	47857.72
634.521	47932.07
634.875	47867.89
635.229	48043.48
635.583	47822.02
635.937	47939.3
636.291	48001.68
636.645	47920.1
636.999	47969.13
637.352	48074.22
637.706	47990.83
638.06	48083.48
638.413	48052.3
638.767	48036.93
639.121	48230.6
639.474	47890.27
639.828	48031.05
640.181	48097.04
640.534	48210.94
640.888	48107.66
641.241	48118.96
641.594	48158.28
641.947	48237.83
642.301	48161.22
642.654	48305.4
643.007	48193.54
643.36	48280.99
643.713	48256.81
644.066	48395.79
644.419	48178.62
644.771	47928.23
645.124	47646.88
645.477	47570.95
645.83	47402.14
646.182	47416.38
646.535	47325.31
646.888	47514
647.24	47292.09
647.593	47632.19
647.945	47458.87
648.298	47398.75
648.65	47395.14
649.002	47247.35
649.355	47413.22
649.707	47382.26
650.059	47428.13
650.411	47958.74
650.763	48128.45
651.115	48639.63
651.467	48447.31
651.819	48458.16
652.171	48535
652.523	48403.7
652.875	48451.61
653.227	48379.07
653.578	48814.08
653.93	48562.79
654.282	48414.32
654.633	48502.91
654.985	48490.48
655.337	48575.9
655.688	48548.33
656.039	48735.44
656.391	48367.77
656.742	48655.9
657.094	48659.06
657.445	48810.69
657.796	48747.64
658.147	48867.42
658.498	48793.29
658.849	48844.59
659.2	48777.02
659.551	48791.71
659.902	48901.99
660.253	48681.43
660.604	49051.14
660.955	48816.8
661.306	49019.73
661.656	48902.67
662.007	48958.26
662.358	48848.66
662.708	48929.33
663.059	48946.28
663.409	48850.92
663.76	48969.11
664.11	49033.06
664.461	49086.17
664.811	49073.96
665.161	49003.46
665.511	49004.36
665.862	49056.34
666.212	49218.37
666.562	49113.51
666.912	49139.5
667.262	49116.67
667.612	49261.53
667.962	49244.58
668.312	49238.03
668.662	49553.73
669.011	49323.22
669.361	49463.78
669.711	49450.9
670.06	49332.26
670.41	49339.72
670.76	49318.25
671.109	49487.06
671.459	49506.04
671.808	49550.79
672.157	49568.19
672.507	49387.18
672.856	49461.07
673.205	49472.6
673.554	49638.47
673.904	49527.06
674.253	49668.98
674.602	49606.38
674.951	49095.21
675.3	48922.33
675.649	49588.53
675.998	49545.14
676.346	49513.05
676.695	49785.36
677.044	49352.15
677.393	49698.81
677.741	49798.46
678.09	49528.42
678.438	49546.95
678.787	49674.85
679.135	49734.74
679.484	49399.61
679.832	49521.18
680.181	49440.51
680.529	49592.14
680.877	49377.46
681.225	49413.84
681.573	49612.25
681.922	49389.66
682.27	49338.82
682.618	49409.55
682.966	49362.77
683.314	49540.17
683.661	49323.67
684.009	49173.4
684.357	49245.03
684.705	49061.76
685.053	49228.54
685.4	49138.14
685.748	49101.53
686.095	49128.2
686.443	48994.64
686.79	48992.38
687.138	49113.74
687.485	49182.44
687.832	49007.07
688.18	48993.06
688.527	48805.5
688.874	48810.02
689.221	48817.47
689.568	48638.72
689.915	48759.85
690.262	48546.75
690.609	48622.22
690.956	48434.21
691.303	48439.4
691.65	48301.1
691.997	48289.8
692.344	48155.8
692.69	48081.9
693.037	48224.04
693.383	47895.24
693.73	48024.5
694.077	47746.32
694.423	47911.28
694.769	47886.65
695.116	47784.28
695.462	47739.08
695.808	47581.57
696.155	47779.53
696.501	47596.94
696.847	47463.84
697.193	47154.01
697.539	47484.4
697.885	47244.86
698.231	47200.34
698.577	47165.54
698.923	47206.22
699.269	46934.59
699.614	46828.83
699.96	46807.13
700.306	46783.85
700.651	46709.96
700.997	46603.75
701.342	46627.47
701.688	46525.33
702.033	46394.94
702.379	46361.72
702.724	46326.92
703.069	46242.4
703.415	45835.63
703.76	45952.46
704.105	45826.37
704.45	45937.1
704.795	45700.95
705.14	45620.5
705.485	45486.49
705.83	45389.32
706.175	45505.47
706.52	45487.84
706.865	45493.49
707.209	45325.81
707.554	45335.76
707.899	45401.52
708.243	45183.44
708.588	45109.77
708.932	45010.79
709.277	44768.31
709.621	44888.31
709.966	44599.51
710.31	44747.75
710.654	44397.25
710.998	44531.71
711.342	44617.81
711.687	44637.24
712.031	44500.75
712.375	44375.56
712.719	44395.89
713.063	44378.95
713.407	44386.4
713.75	44252.17
714.094	44220.31
714.438	44309.57
714.782	44204.71
715.125	43924.95
715.469	44018.5
715.812	43885.4
716.156	43686.99
716.499	43692.64
716.843	43730.15
717.186	43428.01
717.53	43813.99
717.873	43813.76
718.216	43565.18
718.559	43559.08
718.902	43315.7
719.246	43338.07
719.589	43270.05
719.932	43266.21
720.275	43166.32
720.617	43226.66
720.96	43139.2
721.303	43230.5
721.646	43198.86
721.989	42894.69
722.331	43156.38
722.674	43082.48
723.016	42984.18
723.359	42979.89
723.701	43099.21
724.044	42699.89
724.386	42670.74
724.729	42885.2
725.071	42701.02
725.413	42791.19
725.755	42683.4
726.097	42557.98
726.439	42477.98
726.782	42469.62
727.124	42700.12
727.465	42299.23
727.807	42484.76
728.149	42489.28
728.491	42351.88
728.833	42514.14
729.175	42180.81
729.516	42120.47
729.858	42197.76
730.199	42074.15
730.541	42083.41
730.882	41904.66
731.224	42082.96
731.565	41833.02
731.906	41970.42
732.248	42079.12
732.589	41823.31
732.93	41669.19
733.271	41776.3
733.612	41861.72
733.953	41849.3
734.294	41649.98
734.635	41704.89
734.976	41612.69
735.317	41681.84
735.658	41559.36
735.999	41426.48
736.339	41301.06
736.68	41499.25
737.021	41256.32
737.361	41204.34
737.702	41301.06
738.042	41170.44
738.383	41139.94
738.723	41342.87
739.063	41231.46
739.404	41415.18
739.744	41219.48
740.084	41115.08
740.424	41175.19
740.764	41071.91
741.104	41146.04
741.444	40888.64
741.784	40803.67
742.124	40934.06
742.464	40810.45
742.804	40939.71
743.143	40835.99
743.483	40796.22
743.823	40605.26
744.162	40641.19
744.502	40830.79
744.841	40728.87
745.181	40789.66
745.52	40515.54
745.86	40615.66
746.199	40541.53
746.538	40560.74
746.877	40581.53
747.216	40525.94
747.556	40411.37
747.895	40444.59
748.234	40183.58
748.573	40179.06
748.911	40134.99
749.25	40087.31
749.589	39970.02
749.928	40055.44
750.267	40122.79
750.605	39928.89
750.944	39802.12
751.283	39774.32
751.621	39891.38
751.96	39658.84
752.298	39722.12
752.636	39911.94
752.975	39573.42
753.313	39336.14
753.651	39528.9
753.989	39337.72
754.327	39190.61
754.666	39068.13
755.004	39211.4
755.342	39158.29
755.679	39132.76
756.017	38995.13
756.355	39119.42
756.693	39029.03
757.031	38978.64
757.368	38851.86
757.706	38715.14
758.044	38635.37
758.381	38547.01
758.719	38526.44
759.056	38502.04
759.394	38344.75
759.731	38119.45
760.068	38000.13
760.405	37845.78
760.743	37914.48
761.08	38014.14
761.417	37780.93
761.754	37740.93
762.091	37687.82
762.428	37519.69
762.765	37359.7
763.102	37534.83
763.438	37325.35
763.775	37197.67
764.112	37215.52
764.449	37125.13
764.785	37064.34
765.122	36957.9
765.458	36815.08
765.795	36773.95
766.131	36588.64
766.467	36694.18
766.804	36423.68
767.14	36277.24
767.476	36274.07
767.812	36397.24
768.148	36266.39
768.485	36189.78
768.821	36082.89
769.157	35922.22
769.492	35869.79
769.828	35836.35
770.164	35459.18
770.5	35460.99
770.836	35383.48
771.171	35201.56
771.507	35042.47
771.842	34837.05
772.178	34832.53
772.513	34743.49
772.849	34691.52
773.184	34485.19
773.519	34621.91
773.855	34483.39
774.19	34488.58
774.525	34158.65
774.86	34214.47
775.195	34070.29
775.53	34055.6
775.865	33778.32
776.2	33652.22
776.535	33492.68
776.87	33533.13
777.205	33394.15
777.539	33242.29
777.874	33322.29
778.209	33052.69
778.543	33023.31
778.878	32791.45
779.212	32831.68
779.547	32600.05
779.881	32621.74
780.215	32289.77
780.55	32484.34
780.884	32481.86
781.218	32375.87
781.552	32290.9
781.886	32103.11
782.22	31834.19
782.554	31693.4
782.888	31520.53
783.222	31417.93
783.556	31393.07
783.889	31316.46
784.223	31111.27
784.557	31089.35
784.89	31232.63
785.224	31194.43
785.557	31046.19
785.891	30808
786.224	30984.27
786.558	30825.86
786.891	30588.35
787.224	30474.9
787.557	30309.71
787.891	30193.56
788.224	30109.26
788.557	30171.64
788.89	30063.39
789.223	29993.79
789.556	29694.36
789.888	29663.85
790.221	29555.38
790.554	29360.58
790.887	29486
791.219	29350.87
791.552	29270.87
791.884	29423.41
792.217	29213.02
792.549	29182.96
792.882	28990.65
793.214	28932.8
793.546	28887.38
793.879	28717.21
794.211	28701.17
794.543	28838.56
794.875	28584.11
795.207	28567.16
795.539	28453.94
795.871	28585.69
796.203	28113.16
796.535	28232.7
796.867	28147.51
797.198	28036.78
797.53	28015.08
797.862	27884.69
798.193	27795.65
798.525	27580.97
798.856	27701.19
799.188	27321.99
799.519	27371.03
799.85	27250.58
800.182	27360.86
800.513	27373.74
800.844	27045.62
801.175	27056.92
801.506	27115.9
801.837	26940.31
802.168	26847.43
802.499	26770.6
802.83	26714.78
803.161	26681.11
803.491	26670.71
803.822	26726.3
804.153	26623.25
804.483	26376.26
804.814	26358.85
805.145	26450.15
805.475	26258.07
805.805	26151.85
806.136	26096.94
806.466	26207.22
806.796	26166.77
807.126	25873.22
807.457	25806.33
807.787	25864.63
808.117	25727.01
808.447	25739.21
808.777	25838.19
809.107	25728.14
809.436	25545.77
809.766	25617.41
810.096	25453.79
810.426	25362.05
810.755	25404.98
811.085	25286.79
811.414	25210.18
811.744	25170.64
812.073	25139.23
812.403	25214.25
812.732	25058.1
813.061	25055.61
813.39	24814.04
813.719	24840.25
814.049	24985.56
814.378	24788.5
814.707	24664.66
815.036	24602.06
815.365	24654.49
815.693	24278.46
816.022	24343.09
816.351	24301.51
816.68	24062.64
817.008	24274.39
817.337	24117.78
817.665	24143.77
817.994	24255.18
818.322	24189.87
818.651	23996.21
818.979	23986.04
819.307	24019.93
819.636	23965.47
819.964	23750.79
820.292	24019.26
820.62	23913.27
820.948	23769.32
821.276	23948.75
821.604	23807.06
821.932	23941.74
822.259	23939.48
822.587	23730.22
822.915	23723.9
823.243	23878.24
823.57	23975.41
823.898	23899.26
824.225	23852.93
824.553	23686.38
824.88	23696.33
825.207	23768.64
825.535	23712.6
825.862	23831.46
826.189	23682.32
826.516	23965.02
826.843	23875.53
827.17	23817
827.497	23923.21
827.824	23963.89
828.151	24008.86
828.478	23979.93
828.805	24075.3
829.131	24033.04
829.458	23926.83
829.785	23920.28
830.111	24039.59
830.438	24061.51
830.764	24063.32
831.09	24024.68
831.417	23893.16
831.743	23992.36
832.069	24084.34
832.395	23921.4
832.722	23993.49
833.048	23956.43
833.374	23959.6
833.7	23901.07
834.026	23861.75
834.351	23922.53
834.677	23812.03
835.003	23886.6
835.329	23905.13
835.654	23915.53
835.98	23664.24
836.306	23612.71
836.631	23421.53
836.956	23708.3
837.282	23596.44
837.607	23551.92
837.932	23560.74
838.258	23561.41
838.583	23606.84
838.908	23377.01
839.233	23549.66
839.558	23386.73
839.883	23261.99
840.208	23380.63
840.533	23496.11
840.858	23460.85
841.182	23337.01
841.507	23305.15
841.832	23296.11
842.156	23301.53
842.481	23175.21
842.805	23104.93
843.13	23067.42
843.454	22970.7
843.778	22958.94
844.103	22896.35
844.427	22844.6
844.751	22740.87
845.075	22740.87
845.399	22844.82
845.723	22685.28
846.047	22590.37
846.371	22537.71
846.695	22387.21
847.019	22210.72
847.343	22222.24
847.666	22235.8
847.99	22078.52
848.313	22106.76
848.637	21787.68
848.96	21828.35
849.284	21755.59
849.607	21761.46
849.931	21583.61
850.254	21395.14
850.577	21334.35
850.9	21286.67
851.223	21301.36
851.546	21338.65
851.869	21172.55
852.192	21196.28
852.515	21005.78
852.838	20870.41
853.161	20845.55
853.483	20789.28
853.806	20587.26
854.129	20684.2
854.451	20645.33
854.774	20509.29
855.096	20600.81
855.419	20516.75
855.741	20467.48
856.063	20345.45
856.385	20364.66
856.708	20231.78
857.03	20233.37
857.352	20166.48
857.674	20100.26
857.996	19913.6
858.318	19889.87
858.64	19871.34
858.961	19757.45
859.283	19695.53
859.605	19706.37
859.926	19710.89
860.248	19748.63
860.57	19547.51
860.891	19615.53
861.212	19558.36
861.534	19461.41
861.855	19502.09
862.176	19512.48
862.498	19507.51
862.819	19394.52
863.14	19375.31
863.461	19403.56
863.782	19366.95
864.103	19337.8
864.424	19270.23
864.745	19281.3
865.065	19176.67
865.386	19252.38
865.707	19257.12
866.027	19241.75
866.348	19151.59
866.668	19175.99
866.989	19108.2
867.309	18994.53
867.63	18970.57
867.95	18958.15
868.27	18859.17
868.59	18887.41
868.91	18771.03
869.23	18703.01
869.55	18745.27
869.87	18772.84
870.19	18665.05
870.51	18763.35
870.83	18775.55
871.15	18581.21
871.469	18631.37
871.789	18619.4
872.109	18703.46
872.428	18616.69
872.748	18512.73
873.067	18527.87
873.386	18607.42
873.706	18599.06
874.025	18318.84
874.344	18298.95
874.663	18505.95
874.982	18580.75
875.301	18470.25
875.62	18305.06
875.939	18332.63
876.258	18357.71
876.577	18260.08
876.896	18318.61
877.214	18272.06
877.533	18178.96
877.852	18233.19
878.17	18097.38
878.489	18194.78
878.807	18232.97
879.125	18129.47
879.444	18097.38
879.762	18034.33
880.08	18089.24
880.398	18052.63
880.716	18019.41
881.034	17959.98
881.352	17848.8
881.67	17748.23
881.988	17704.62
882.306	17773.09
882.624	17693.32
882.941	17634.79
883.259	17642.02
883.577	17646.77
883.894	17547.11
884.212	17508.92
884.529	17462.82
884.846	17464.4
885.164	17423.04
885.481	17409.26
885.798	17482.7
886.115	17325.65
886.432	17361.58
886.75	17249.94
887.067	17251.52
887.383	17162.94
887.7	17109.61
888.017	17121.81
888.334	17112.77
888.651	17079.32
888.967	17128.14
889.284	17011.76
889.6	16914.58
889.917	16923.62
890.233	16837.52
890.55	16844.3
890.866	16849.27
891.182	16722.95
891.498	16720.46
891.815	16662.61
892.131	16536.97
892.447	16564.76
892.763	16590.52
893.079	16518.21
893.395	16449.06
893.71	16340.36
894.026	16418.1
894.342	16368.16
894.657	16277.31
894.973	16252.23
895.289	16269.85
895.604	16236.86
895.92	16108.5
896.235	15918.9
896.55	15967.26
896.865	15935.63
897.181	15910.77
897.496	15863.76
897.811	15761.62
898.126	15751.68
898.441	15718.91
898.756	15676.42
899.071	15635.52
899.386	15641.85
899.7	15445.24
900.015	15451.57
900.33	15361.86
900.644	15300.61
900.959	15345.81
901.273	15204.57
901.588	15056.55
901.902	15182.43
902.216	15129.32
902.531	15090.45
902.845	15109.66
903.159	14990.57
903.473	14958.93
903.787	14780.85
904.101	14742.66
904.415	14737.24
904.729	14641.87
905.042	14643.68
905.356	14683.68
905.67	14565.72
905.984	14460.64
906.297	14468.55
906.611	14319.85
906.924	14351.71
907.237	14273.3
907.551	14325.05
907.864	14214.32
908.177	14183.58
908.491	14110.82
908.804	14126.86
909.117	13980.42
909.43	13961.67
909.743	13945.85
910.056	13929.58
910.368	13807.09
910.681	13776.13
910.994	13619.3
911.307	13590.38
911.619	13603.48
911.932	13571.17
912.244	13452.98
912.557	13430.83
912.869	13374.56
913.181	13456.37
913.494	13283.27
913.806	13321.68
914.118	13277.84
914.43	13178.18
914.742	13073.55
915.054	13071.97
915.366	12998.53
915.678	12907.01
915.99	12896.61
916.302	12819.55
916.613	12748.82
916.925	12657.07
917.236	12650.97
917.548	12597.41
917.859	12623.62
918.171	12522.83
918.482	12497.3
918.794	12397.64
919.105	12407.81
919.416	12334.59
919.727	12279.9
920.038	12134.6
920.349	12071.77
920.66	12095.5
920.971	12119
921.282	12164.43
921.593	11987.93
921.903	11951.1
922.214	11957.43
922.525	11843.53
922.835	11809.86
923.146	11701.39
923.456	11691.44
923.767	11612.35
924.077	11649.86
924.387	11624.55
924.697	11570.32
925.008	11548.85
925.318	11457.1
925.628	11424.33
925.938	11400.15
926.248	11270.21
926.558	11218.46
926.867	11236.09
927.177	11088.75
927.487	11115.64
927.796	11020.05
928.106	11069.09
928.416	11020.73
928.725	10952.25
929.034	10886.04
929.344	10995.19
929.653	10871.8
929.962	10667.97
930.271	10696.89
930.581	10656.44
930.89	10633.84
931.199	10518.59
931.508	10508.2
931.817	10495.32
932.125	10404.92
932.434	10340.52
932.743	10336
933.051	10319.05
933.36	10342.55
933.669	10237.02
933.977	10205.61
934.286	10138.26
934.594	10140.75
934.902	10048.78
935.21	10025.05
935.519	10022.79
935.827	9945.05
936.135	9899.63
936.443	9820.76
936.751	9745.05
937.059	9765.17
937.367	9719.74
937.674	9712.06
937.982	9681.78
938.29	9644.94
938.597	9628.45
938.905	9483.37
939.213	9445.18
939.52	9468.9
939.827	9434.78
940.135	9397.94
940.442	9323.14
940.749	9241.79
941.056	9291.51
941.363	9089.93
941.67	9164.96
941.977	9107.33
942.284	9062.81
942.591	9085.18
942.898	8959.99
943.205	8983.27
943.511	8917.96
943.818	8896.26
944.125	8790.05
944.431	8751.86
944.738	8756.15
945.044	8776.49
945.35	8709.83
945.657	8642.94
945.963	8603.62
946.269	8581.02
946.575	8625.08
946.881	8543.73
947.187	8467.8
947.493	8497.86
947.799	8435.26
948.105	8383.51
948.41	8377.18
948.716	8294.7
949.022	8235.72
949.327	8204.3
949.633	8175.6
949.938	8115.04
950.244	8175.6
950.549	8146.23
950.854	7991.43
951.16	8070.97
951.465	8000.69
951.77	8023.29
952.075	7921.6
952.38	7916.4
952.685	7847.7
952.99	7713.7
953.294	7801.15
953.599	7737.42
953.904	7736.52
954.209	7644.32
954.513	7649.97
954.818	7627.6
955.122	7629.18
955.426	7503.98
955.731	7501.72
956.035	7442.29
956.339	7453.59
956.643	7437.09
956.948	7393.48
957.252	7332.69
957.556	7374.95
957.86	7370.88
958.163	7361.61
958.467	7315.74
958.771	7184.22
959.075	7233.03
959.378	7228.06
959.682	7216.99
959.985	7110.77
960.289	7068.29
960.592	7021.06
960.896	6991.91
961.199	6980.38
961.502	6976.54
961.805	6932.93
962.108	6846.83
962.411	6836.2
962.714	6803.66
963.017	6789.65
963.32	6759.14
963.623	6747.39
963.926	6669.43
964.228	6697.9
964.531	6677.34
964.833	6652.93
965.136	6610
965.438	6551.24
965.741	6507.17
966.043	6511.92
966.345	6473.28
966.648	6422.66
966.95	6397.35
967.252	6375.2
967.554	6338.82
967.856	6308.76
968.158	6278.93
968.46	6283
968.761	6240.06
969.063	6257.69
969.365	6242.1
969.666	6184.47
969.968	6088.65
970.269	6098.14
970.571	6134.98
970.872	6078.26
971.174	6032.84
971.475	5957.13
971.776	6021.31
972.077	5985.38
972.378	5935.89
972.679	5968.2
972.98	5946.74
973.281	5936.57
973.582	5882.56
973.883	5837.59
974.183	5803.01
974.484	5800.07
974.785	5786.51
975.085	5733.41
975.386	5707.42
975.686	5676.69
975.986	5658.38
976.287	5666.29
976.587	5603.02
976.887	5583.36
977.187	5591.49
977.487	5462.91
977.787	5492.51
978.087	5361.44
978.387	5404.15
978.687	5420.42
978.987	5390.14
979.286	5433.76
979.586	5398.05
979.885	5328
980.185	5298.62
980.484	5247.55
980.784	5228.56
981.083	5235.79
981.382	5205.74
981.682	5200.32
981.981	5193.54
982.28	5112.18
982.579	5081.9
982.878	5075.57
983.177	5064.27
983.475	5035.8
983.774	5003.03
984.073	4992.41
984.372	4977.95
984.67	4982.47
984.969	4950.38
985.267	4926.65
985.566	4898.63
985.864	4845.75
986.162	4833.55
986.461	4781.12
986.759	4784.51
987.057	4771.4
987.355	4739.76
987.653	4771.4
987.951	4721.46
988.249	4714.68
988.547	4670.39
988.844	4628.58
989.142	4641.23
989.44	4598.75
989.737	4547.23
990.035	4526.89
990.332	4531.63
990.63	4514.23
990.927	4461.8
991.224	4492.31
991.521	4492.09
991.819	4390.17
992.116	4382.94
992.413	4338.64
992.71	4309.04
993.006	4289.15
993.303	4269.49
993.6	4286.67
993.897	4247.35
994.193	4265.2
994.49	4258.65
994.787	4219.78
995.083	4181.81
995.379	4154.24
995.676	4139.33
995.972	4141.59
996.268	4121.02
996.565	4061.81
996.861	4084.64
997.157	4044.64
997.453	4020.23
997.749	4005.77
998.044	3993.12
998.34	3998.76
998.636	3960.12
998.932	3909.28
999.227	3927.35
999.523	3919.22
999.818	3873.34
1000.114	3853.23
1000.409	3775.04
1000.704	3832.44
1001	3785.21
1001.295	3774.82
1001.59	3761.93
1001.885	3711.99
1002.18	3696.17
1002.475	3705.21
1002.77	3652.11
1003.065	3613.24
1003.359	3605.78
1003.654	3583.63
1003.949	3539.34
1004.243	3522.85
1004.538	3534.37
1004.832	3539.12
1005.127	3454.37
1005.421	3446.92
1005.715	3448.04
1006.009	3439.68
1006.304	3416.18
1006.598	3382.51
1006.892	3391.55
1007.186	3324.43
1007.48	3328.05
1007.773	3304.55
1008.067	3251.89
1008.361	3233.36
1008.655	3255.51
1008.948	3181.16
1009.242	3159.01
1009.535	3172.12
1009.829	3195.4
1010.122	3138.22
1010.415	3113.36
1010.708	3085.34
1011.001	3081.05
1011.295	3048.73
1011.588	3064.55
1011.881	3041.95
1012.173	3031.11
1012.466	3003.08
1012.759	2958.11
1013.052	2968.51
1013.344	2933.03
1013.637	2937.78
1013.93	2867.5
1014.222	2855.74
1014.514	2897.32
1014.807	2831.34
1015.099	2845.8
1015.391	2823.65
1015.683	2799.25
1015.976	2766.71
1016.268	2784.79
1016.56	2743.43
1016.851	2714.5
1017.143	2709.76
1017.435	2665.01
1017.727	2694.17
1018.018	2651.68
1018.31	2626.15
1018.602	2615.52
1018.893	2566.26
1019.185	2577.33
1019.476	2519.48
1019.767	2544.57
1020.058	2506.15
1020.35	2479.71
1020.641	2446.94
1020.932	2443.55
1021.223	2442.42
1021.514	2437.9
1021.804	2395.87
1022.095	2361.97
1022.386	2371.46
1022.677	2344.35
1022.967	2346.83
1023.258	2321.07
1023.548	2304.12
1023.839	2301.63
1024.129	2259.38
1024.419	2247.4
1024.709	2217.34
1025	2265.7
1025.29	2215.08
1025.58	2203.33
1025.87	2169.66
1026.16	2154.52
1026.449	2167.85
1026.739	2112.49
1027.029	2140.51
1027.319	2090.57
1027.608	2091.02
1027.898	2082.21
1028.187	2065.71
1028.477	2048.76
1028.766	2061.41
1029.055	2007.18
1029.344	1972.15
1029.634	1957.24
1029.923	1978.71
1030.212	1934.41
1030.501	1926.05
1030.79	1924.7
1031.078	1895.32
1031.367	1870.23
1031.656	1872.72
1031.945	1852.61
1032.233	1848.76
1032.522	1823.23
1032.81	1809.44
1033.099	1795.88
1033.387	1813.29
1033.675	1852.15
1033.963	1766.06
1034.251	1783.46
1034.54	1697.13
1034.828	1724.93
1035.116	1712.95
1035.403	1724.47
1035.691	1689.22
1035.979	1678.83
1036.267	1670.46
1036.554	1670.24
1036.842	1646.06
1037.129	1617.36
1037.417	1593.86
1037.704	1588.88
1037.992	1572.39
1038.279	1590.24
1038.566	1536
1038.853	1536
1039.14	1536
