Data from copper_heatsink_FLMS001491_011.txt Node
Date: Tue Feb 07 10:49:17 GMT 2017
User: dcchb
Spectrometer: FLMS00149
Trigger mode: 0
Integration Time (sec): 2.000000E-2
Scans to average: 10
Electric dark correction enabled: true
Nonlinearity correction enabled: false
Boxcar width: 0
XAxis mode: Wavelengths
Number of Pixels in Spectrum: 2048
>>>>>Begin Spectral Data<<<<<
341.393	-9.69
341.776	-9.69
342.16	-9.69
342.543	-65.73
342.927	-66.41
343.31	-64.83
343.693	-54.89
344.077	-75.22
344.46	-40.65
344.843	-51.95
345.226	-57.82
345.61	-39.52
345.993	-8.79
346.376	-0.42
346.759	9.29
347.142	14.27
347.525	36.19
347.908	45.68
348.291	78.22
348.674	88.84
349.057	121.61
349.44	123.87
349.823	133.36
350.206	178.1
350.588	209.51
350.971	244.09
351.354	246.8
351.737	248.84
352.119	272.11
352.502	264.2
352.884	286.35
353.267	308.95
353.65	318.44
354.032	336.52
354.414	335.16
354.797	321.38
355.179	323.64
355.562	352.11
355.944	349.85
356.326	330.64
356.709	370.87
357.091	336.06
357.473	343.07
357.855	367.93
358.238	349.17
358.62	356.63
359.002	381.26
359.384	362.05
359.766	348.95
360.148	357.53
360.53	370.64
360.912	330.64
361.294	366.12
361.676	337.42
362.057	349.85
362.439	341.71
362.821	347.59
363.203	339.23
363.584	352.79
363.966	362.28
364.348	361.6
364.729	334.71
365.111	344.65
365.493	352.79
365.874	354.6
366.256	328.83
366.637	335.39
367.019	345.33
367.4	338.78
367.781	344.2
368.163	345.33
368.544	338.78
368.925	328.61
369.306	333.8
369.688	355.73
370.069	337.87
370.45	336.97
370.831	364.76
371.212	356.4
371.593	357.31
371.974	345.56
372.355	355.95
372.736	345.1
373.117	370.64
373.498	333.13
373.879	330.19
374.26	337.19
374.641	342.17
375.021	339.23
375.402	346.01
375.783	361.15
376.163	357.76
376.544	354.37
376.925	348.95
377.305	360.47
377.686	346.46
378.066	353.69
378.447	355.95
378.827	352.11
379.208	367.93
379.588	378.78
379.968	330.87
380.349	360.02
380.729	359.34
381.109	356.18
381.489	371.77
381.87	383.97
382.25	382.84
382.63	382.39
383.01	361.6
383.39	386.46
383.77	388.94
384.15	398.66
384.53	391.88
384.91	374.93
385.29	381.04
385.67	377.42
386.049	368.61
386.429	374.03
386.809	364.76
387.189	359.11
387.568	388.04
387.948	407.02
388.328	403.63
388.707	390.75
389.087	400.47
389.466	409.51
389.846	380.13
390.225	388.49
390.605	406.35
390.984	395.72
391.363	410.19
391.743	400.02
392.122	422.39
392.501	411.77
392.881	421.71
393.26	428.04
393.639	422.62
394.018	404.54
394.397	435.27
394.776	420.58
395.155	428.04
395.534	420.81
395.913	434.37
396.292	471.65
396.671	427.81
397.05	420.36
397.429	440.92
397.808	422.16
398.186	445.44
398.565	431.43
398.944	432.56
399.323	440.47
399.701	433.92
400.08	441.6
400.458	434.82
400.837	454.93
401.215	442.95
401.594	434.59
401.972	447.47
402.351	438.89
402.729	441.15
403.107	447.25
403.486	482.28
403.864	454.25
404.242	434.14
404.62	459.45
404.999	467.59
405.377	486.34
405.755	457.87
406.133	471.2
406.511	500.58
406.889	478.66
407.267	481.37
407.645	510.3
408.023	499.68
408.401	493.12
408.779	498.32
409.156	487.02
409.534	502.61
409.912	491.09
410.29	525.44
410.667	504.87
411.045	518.66
411.422	492.9
411.8	495.83
412.178	492.67
412.555	528.38
412.933	521.37
413.31	529.51
413.687	519.56
414.065	520.47
414.442	523.4
414.819	551.2
415.197	527.92
415.574	553.46
415.951	562.95
416.328	547.58
416.705	557.75
417.082	563.86
417.46	559.56
417.837	560.01
418.214	542.39
418.591	564.08
418.967	543.29
419.344	577.64
419.721	573.12
420.098	577.64
420.475	585.1
420.852	574.7
421.228	587.36
421.605	590.52
421.982	595.49
422.358	601.14
422.735	609.96
423.111	583.97
423.488	615.83
423.864	612.67
424.241	602.95
424.617	621.25
424.994	620.35
425.37	614.25
425.746	628.03
426.123	654.47
426.499	631.2
426.875	657.19
427.251	656.28
427.627	659.9
428.003	654.47
428.379	657.19
428.756	663.74
429.132	670.07
429.507	676.85
429.883	658.54
430.259	682.5
430.635	674.13
431.011	682.95
431.387	712.1
431.763	717.98
432.138	710.97
432.514	723.17
432.89	699.22
433.265	740.8
433.641	743.06
434.016	731.31
434.392	737.86
434.767	747.35
435.143	750.52
435.518	756.17
435.894	764.08
436.269	770.63
436.644	779.22
437.02	764.53
437.395	761.82
437.77	788.93
438.145	815.15
438.52	790.74
438.895	807.69
439.271	805.88
439.646	804.3
440.021	819.89
440.395	801.82
440.77	832.77
441.145	849.05
441.52	817.18
441.895	828.48
442.27	836.62
442.645	860.8
443.019	864.41
443.394	834.13
443.769	868.48
444.143	878.65
444.518	860.34
444.892	898.99
445.267	874.13
445.641	896.95
446.016	905.99
446.39	890.4
446.764	908.93
447.139	907.35
447.513	912.77
447.887	889.95
448.262	909.83
448.636	921.13
449.01	922.94
449.384	924.98
449.758	949.61
450.132	939.44
450.506	923.17
450.88	952.09
451.254	977.4
451.628	971.53
452.002	966.78
452.376	986.89
452.75	985.77
453.123	982.38
453.497	993.9
453.871	1006.56
454.244	1032.54
454.618	1044.07
454.992	1046.1
455.365	1056.27
455.739	1068.7
456.112	1091.98
456.486	1075.48
456.859	1095.37
457.232	1098.76
457.606	1090.4
457.979	1132.65
458.352	1120.68
458.725	1164.74
459.099	1169.49
459.472	1189.6
459.845	1215.82
460.218	1178.98
460.591	1200
460.964	1217.4
461.337	1261.24
461.71	1248.58
462.083	1275.47
462.456	1260.56
462.829	1293.1
463.201	1293.33
463.574	1282.93
463.947	1327.68
464.32	1330.84
464.692	1370.16
465.065	1391.18
465.438	1388.47
465.81	1400.22
466.183	1397.73
466.555	1464.17
466.928	1460.1
467.3	1455.58
467.672	1501.23
468.045	1515.02
468.417	1502.81
468.789	1504.62
469.161	1563.6
469.534	1588.69
469.906	1611.06
470.278	1617.84
470.65	1639.08
471.022	1647.22
471.394	1678.85
471.766	1724.95
472.138	1723.6
472.51	1776.7
472.882	1790.72
473.253	1789.59
473.625	1837.04
473.997	1838.4
474.369	1885.4
474.74	1902.13
475.112	1931.95
475.484	1965.17
475.855	1984.16
476.227	2044.49
476.598	2083.82
476.97	2101.44
477.341	2091.05
477.713	2206.52
478.084	2142.12
478.455	2236.35
478.827	2233.87
479.198	2319.52
479.569	2326.75
479.94	2405.39
480.311	2396.35
480.682	2469.79
481.053	2508.21
481.424	2561.32
481.795	2579.62
482.166	2586.4
482.537	2627.3
482.908	2739.39
483.279	2765.61
483.65	2765.83
484.021	2837.24
484.391	2890.35
484.762	2879.27
485.133	2967.86
485.503	2994.75
485.874	3060.96
486.244	3075.2
486.615	3144.58
486.985	3177.12
487.356	3267.96
487.726	3260.06
488.097	3334.86
488.467	3336.44
488.837	3415.31
489.207	3475.42
489.578	3503.66
489.948	3560.16
490.318	3648.75
490.688	3625.7
491.058	3703.66
491.428	3736.65
491.798	3769.19
492.168	3871.34
492.538	3895.97
492.908	3951.56
493.278	3986.82
493.648	4027.94
494.017	4072.24
494.387	4113.59
494.757	4152.91
495.126	4174.38
495.496	4210.76
495.866	4277.2
496.235	4347.03
496.605	4368.05
496.974	4418.67
497.344	4434.71
497.713	4453.7
498.082	4553.81
498.452	4576.41
498.821	4587.48
499.19	4624.77
499.559	4668.15
499.928	4744.99
500.298	4813.01
500.667	4808.72
501.036	4788.38
501.405	4874.7
501.774	4864.08
502.143	4960.8
502.512	4954.7
502.88	5026.56
503.249	5048.48
503.618	5055.71
503.987	5120.8
504.356	5187.69
504.724	5206.22
505.093	5273.56
505.462	5276.27
505.83	5327.12
506.199	5398.3
506.567	5491.18
506.936	5483.27
507.304	5507.68
507.672	5537.51
508.041	5617.28
508.409	5634
508.777	5697.96
509.145	5776.15
509.514	5770.05
509.882	5865.41
510.25	5872.19
510.618	5906.31
510.986	5942.24
511.354	6012.98
511.722	6100.88
512.09	6147.89
512.458	6116.93
512.826	6184.72
513.193	6219.07
513.561	6254.33
513.929	6333.65
514.297	6435.57
514.664	6467.88
515.032	6492.74
515.4	6626.75
515.767	6670.36
516.135	6748.55
516.502	6635.56
516.869	6813.41
517.237	6836.23
517.604	6897.93
517.972	7017.02
518.339	7034.65
518.706	7026.96
519.073	7065.15
519.44	7157.58
519.808	7227.18
520.175	7252.27
520.542	7361.19
520.909	7405.26
521.276	7496.55
521.643	7562.77
522.009	7597.34
522.376	7701.97
522.743	7728.86
523.11	7838.92
523.477	7932.93
523.843	8000.72
524.21	8036.43
524.577	8181.28
524.943	8212.47
525.31	8246.59
525.676	8348.96
526.043	8405.91
526.409	8469.86
526.776	8565.45
527.142	8618.33
527.508	8698.1
527.874	8703.98
528.241	8840.47
528.607	8868.72
528.973	8975.16
529.339	9053.58
529.705	9115.72
530.071	9212.89
530.437	9264.19
530.803	9405.2
531.169	9424.19
531.535	9428.93
531.901	9468.48
532.267	9573.56
532.632	9690.39
532.998	9690.39
533.364	9874.57
533.73	9902.59
534.095	9954.57
534.461	10019.2
534.826	10047.67
535.192	10109.59
535.557	10265.52
535.923	10233.21
536.288	10293.32
536.653	10460.54
537.019	10456.25
537.384	10493.99
537.749	10610.6
538.114	10634.32
538.479	10713.42
538.845	10800.87
539.21	10819.86
539.575	10904.83
539.94	10854.88
540.305	11055.33
540.67	11057.59
541.034	11250.81
541.399	11300.52
541.764	11290.35
542.129	11360.86
542.494	11507.52
542.858	11594.75
543.223	11584.81
543.587	11723.56
543.952	11674.07
544.316	11841.3
544.681	11822.32
545.045	11935.31
545.41	11997.9
545.774	12161.06
546.138	12245.13
546.503	12388.63
546.867	12355.86
547.231	12547.27
547.595	12634.5
547.959	12593.37
548.324	12693.93
548.688	12748.62
549.052	12938.45
549.416	13044.88
549.779	13181.15
550.143	13213.01
550.507	13380.92
550.871	13480.13
551.235	13464.76
551.599	13603.74
551.962	13775.26
552.326	13921.7
552.689	14008.93
553.053	14018.19
553.417	14185.64
553.78	14346.09
554.143	14421.12
554.507	14507.9
554.87	14684.39
555.234	14866.76
555.597	14865.63
555.96	14964.38
556.323	15170.02
556.686	15218.39
557.05	15466.06
557.413	15574.08
557.776	15722.1
558.139	15915.77
558.502	16053.17
558.865	16123.22
559.228	16271.69
559.59	16412.25
559.953	16575.86
560.316	16911.67
560.679	16971.56
561.041	17033.48
561.404	17429.63
561.767	17511.43
562.129	17677.53
562.492	17882.5
562.854	17982.15
563.217	18185.76
563.579	18249.72
563.941	18624.85
564.304	18691.97
564.666	18975.57
565.028	19165.63
565.39	19247.88
565.753	19466.86
566.115	19707.98
566.477	19833.18
566.839	20031.82
567.201	20278.59
567.563	20418.25
567.925	20598.13
568.287	20728.97
568.648	20952.02
569.01	21096.65
569.372	21499.12
569.734	21609.18
570.095	21792.45
570.457	22056.4
570.819	22123.51
571.18	22293.45
571.542	22611.64
571.903	22658.42
572.265	22874.46
572.626	23038.97
572.987	23267.44
573.349	23457.04
573.71	23598.05
574.071	23810.48
574.432	24002.11
574.794	24266.51
575.155	24357.58
575.516	24439.84
575.877	24534.07
576.238	24780.17
576.599	25004.57
576.96	25060.61
577.32	25216.09
577.681	25410.43
578.042	25614.95
578.403	25589.86
578.763	25722.74
579.124	26017.2
579.485	26209.73
579.845	26311.43
580.206	26363.85
580.566	26490.41
580.927	26629.16
581.287	26825.54
581.648	26830.06
582.008	27108.69
582.368	27069.15
582.728	27196.15
583.089	27374
583.449	27314.34
583.809	27565.41
584.169	27536.93
584.529	27593.65
584.889	27888.56
585.249	27817.38
585.609	27831.61
585.969	28079.97
586.329	28189.12
586.688	28190.02
587.048	28389.34
587.408	28270.7
587.768	28485.83
588.127	28526.28
588.487	28580.07
588.846	28863.9
589.206	28684.7
589.565	28832.49
589.925	28962.43
590.284	29012.15
590.643	29102.54
591.003	29158.13
591.362	29358.58
591.721	29454.17
592.08	29415.07
592.44	29596.99
592.799	29584.79
593.158	29583.66
593.517	29714.73
593.876	29975.51
594.235	29830.43
594.593	30013.25
594.952	30113.81
595.311	30168.5
595.67	30159.46
596.029	30420.47
596.387	30447.82
596.746	30642.61
597.104	30570.75
597.463	30486.23
597.822	30676.74
598.18	30693.23
598.538	30714.93
598.897	31100.23
599.255	30844.64
599.613	31307.23
599.972	31086.89
600.33	31331.41
600.688	31357.85
601.046	31431.52
601.404	31579.99
601.762	31594.45
602.12	31717.61
602.478	31831.28
602.836	31901.56
603.194	31709.03
603.552	31918.06
603.91	31862.92
604.268	32090.48
604.625	32057.04
604.983	32233.98
605.341	32155.11
605.698	32460.87
606.056	32506.29
606.413	32563.24
606.771	32579.51
607.128	32767.08
607.485	32735.21
607.843	32831.93
608.2	33147.18
608.557	33183.34
608.914	33142.43
609.272	33365.48
609.629	33366.16
609.986	33609.09
610.343	33440.05
610.7	33784.22
611.057	33670.1
611.414	33839.59
611.771	33846.14
612.127	34001.39
612.484	33964.11
612.841	34174.5
613.198	34096.31
613.554	34243.42
613.911	34394.38
614.267	34442.51
614.624	34491.55
614.98	34531.1
615.337	34675.05
615.693	34792.56
616.05	34960.01
616.406	35060.58
616.762	35075.26
617.118	35063.06
617.475	35076.85
617.831	35314.13
618.187	35195.94
618.543	35275.94
618.899	35609.94
619.255	35531.3
619.611	35517.29
619.967	35682.25
620.323	35952.76
620.678	35679.77
621.034	35616.27
621.39	35713.89
621.746	35826.66
622.101	36422.57
622.457	36021.68
622.812	36174.67
623.168	36276.81
623.523	36442.46
623.879	36381.44
624.234	36310.03
624.589	36433.65
624.945	36497.6
625.3	36647.2
625.655	36501.89
626.01	36757.03
626.365	36757.71
626.72	36619.86
627.075	36704.15
627.43	36699.63
627.785	36751.6
628.14	36967.42
628.495	36950.7
628.85	36865.05
629.205	36712.51
629.559	37057.13
629.914	36759.29
630.269	36870.47
630.623	36842.9
630.978	36811.04
631.332	36964.48
631.687	37144.59
632.041	37004.03
632.396	37170.35
632.75	36922.45
633.104	37144.36
633.459	36996.57
633.813	36912.05
634.167	36932.16
634.521	37108.66
634.875	37092.39
635.229	37000.41
635.583	36915.44
635.937	36994.08
636.291	36999.96
636.645	36958.15
636.999	36936.46
637.352	37112.05
637.706	36811.72
638.06	37215.55
638.413	37075.21
638.767	36882.9
639.121	37037.25
639.474	36998.6
639.828	37059.84
640.181	37032.05
640.534	37009.45
640.888	36960.19
641.241	36744.15
641.594	36962.22
641.947	37008.55
642.301	36836.57
642.654	36988.43
643.007	37006.06
643.36	37169.45
643.713	37079.96
644.066	37220.74
644.419	36868.44
644.771	36589.57
645.124	36103.49
645.477	36211.05
645.83	35935.58
646.182	35861.01
646.535	36054.45
646.888	36267.32
647.24	36108.23
647.593	36300.32
647.945	36451.27
648.298	36263.93
648.65	36288.11
649.002	36184.84
649.355	36294.44
649.707	36124.28
650.059	36233.43
650.411	36635.9
650.763	36649.23
651.115	37152.27
651.467	37060.52
651.819	37087.41
652.171	37131.26
652.523	36997.47
652.875	36919.28
653.227	36873.86
653.578	37002.45
653.93	36978.26
654.282	36937.59
654.633	36958.6
654.985	37214.87
655.337	37155.66
655.688	37015.1
656.039	37171.71
656.391	36886.74
656.742	37010.81
657.094	37110.24
657.445	37089.9
657.796	37213.29
658.147	37175.77
658.498	37136.9
658.849	37189.56
659.2	37242.21
659.551	37093.52
659.902	37283.34
660.253	37050.58
660.604	37293.06
660.955	36982.78
661.306	37136.23
661.656	37110.24
662.007	37213.06
662.358	37279.05
662.708	37220.07
663.059	37119.73
663.409	37036.34
663.76	37431.13
664.11	37368.99
664.461	37557.23
664.811	37366.73
665.161	37485.37
665.511	37174.64
665.862	37307.07
666.212	37589.55
666.562	37595.65
666.912	37564.24
667.262	37464.81
667.612	37465.94
667.962	37601.75
668.312	37477.69
668.662	37750
669.011	37512.04
669.361	37688.3
669.711	37564.46
670.06	37554.75
670.41	37468.42
670.76	37514.75
671.109	37804.68
671.459	37783.44
671.808	37566.72
672.157	37681.98
672.507	37594.75
672.856	37521.08
673.205	37760.17
673.554	37747.28
673.904	37644.91
674.253	37977.56
674.602	37708.87
674.951	37213.97
675.3	37238.82
675.649	37818.24
675.998	37733.95
676.346	37768.3
676.695	37936.88
677.044	37735.53
677.393	37722.65
677.741	37852.37
678.09	37822.54
678.438	37695.31
678.787	37717.45
679.135	37755.87
679.484	37552.49
679.832	37677
680.181	37506.16
680.529	37704.8
680.877	37515.88
681.225	37548.65
681.573	37722.88
681.922	37568.76
682.27	37501.87
682.618	37680.17
682.966	37605.14
683.314	37533.96
683.661	37421.19
684.009	37177.58
684.357	37267.52
684.705	37356.56
685.053	37274.08
685.4	37132.61
685.748	37077.7
686.095	37121.99
686.443	37098.04
686.79	37062.78
687.138	37078.38
687.485	37007.19
687.832	37098.49
688.18	37153.85
688.527	36957.93
688.874	36973.97
689.221	36828.44
689.568	36656.24
689.915	36657.82
690.262	36754.99
690.609	36747.31
690.956	36709.57
691.303	36706.86
691.65	36402.69
691.997	36561.55
692.344	36240.43
692.69	36283.14
693.037	36377.15
693.383	36092.64
693.73	36310.71
694.077	35999.31
694.423	36244.05
694.769	36072.53
695.116	36007.22
695.462	36043.37
695.808	35762.7
696.155	35820.1
696.501	35550.96
696.847	35708.92
697.193	35397.74
697.539	35473.67
697.885	35322.26
698.231	35201.14
698.577	35343.51
698.923	35286.11
699.269	35043.85
699.614	35034.36
699.96	34995.72
700.306	35111.2
700.651	35147.58
700.997	35111.87
701.342	34871.43
701.688	34865.55
702.033	34774.71
702.379	34742.17
702.724	34586.01
703.069	34817.64
703.415	34385.79
703.76	34461.5
704.105	34590.53
704.45	34359.35
704.795	34210.43
705.14	34179.02
705.485	34167.94
705.83	34158.23
706.175	34187.6
706.52	33946.25
706.865	33955.75
707.209	33908.29
707.554	33792.81
707.899	33935.86
708.243	33829.42
708.588	33795.75
708.932	33623.32
709.277	33615.87
709.621	33688.63
709.966	33383.11
710.31	33656.77
710.654	33222.66
710.998	33397.34
711.342	33408.64
711.687	33202.55
712.031	33260.85
712.375	33136.11
712.719	33189.44
713.063	33247.29
713.407	33409.09
713.75	33182.43
714.094	33224.24
714.438	33109.21
714.782	33171.13
715.125	32998.71
715.469	33060.4
715.812	32893.85
716.156	32712.16
716.499	32734.31
716.843	32887.98
717.186	32740.41
717.53	32919.61
717.873	32940.41
718.216	32876.9
718.559	32788.09
718.902	32562.34
719.246	32652.05
719.589	32617.48
719.932	32450.25
720.275	32463.81
720.617	32423.13
720.96	32419.51
721.303	32492.51
721.646	32327.31
721.989	32262.91
722.331	32434.88
722.674	32326.41
723.016	32235.56
723.359	32262.91
723.701	32337.71
724.044	32199.18
724.386	32016.81
724.729	32262.91
725.071	32184.94
725.413	32056.13
725.755	32118.51
726.097	31941.34
726.439	31729.59
726.782	31759.42
727.124	32092.52
727.465	31946.31
727.807	31916.25
728.149	31723.94
728.491	31741.57
728.833	31889.13
729.175	31749.7
729.516	31732.75
729.858	31761.23
730.199	31708.57
730.541	31612.08
730.882	31639.2
731.224	31809.81
731.565	31530.72
731.906	31680.33
732.248	31665.86
732.589	31526.2
732.93	31462.25
733.271	31579.99
733.612	31568.46
733.953	31608.01
734.294	31496.38
734.635	31626.54
734.976	31566.43
735.317	31445.98
735.658	31513.55
735.999	31464.06
736.339	31484.4
736.68	31606.43
737.021	31399.65
737.361	31435.59
737.702	31396.72
738.042	31376.83
738.383	31161.69
738.723	31329.37
739.063	31216.83
739.404	31222.71
739.744	31263.16
740.084	31229.04
740.424	31207.57
740.764	31158.08
741.104	31323.72
741.444	31179.55
741.784	31062.71
742.124	31240.56
742.464	31091.19
742.804	30987.91
743.143	31016.16
743.483	30897.52
743.823	30862.49
744.162	30920.12
744.502	30983.39
744.841	30855.26
745.181	30882.83
745.52	30897.52
745.86	31116.95
746.199	30847.58
746.538	30767.13
746.877	30899.1
747.216	30967.58
747.556	30858.88
747.895	30831.99
748.234	30701.82
748.573	30770.07
748.911	30753.57
749.25	30652.33
749.589	30603.52
749.928	30611.43
750.267	30719.45
750.605	30586.57
750.944	30586.12
751.283	30470.87
751.621	30524.2
751.96	30325.11
752.298	30279.01
752.636	30355.16
752.975	30217.54
753.313	30114.94
753.651	30287.14
753.989	30069.97
754.327	30222.96
754.666	30022.97
755.004	30017.32
755.342	30182.51
755.679	30053.02
756.017	29881.05
756.355	29980.48
756.693	29897.32
757.031	29829.53
757.368	29694.39
757.706	29649.19
758.044	29679.93
758.381	29656.2
758.719	29756.53
759.056	29726.7
759.394	29553.38
759.731	29356.77
760.068	29244.46
760.405	29256.21
760.743	29318.58
761.08	29407.39
761.417	29213.5
761.754	29076.33
762.091	29136.66
762.428	29057.12
762.765	28937.35
763.102	29019.15
763.438	28917.01
763.775	28772.61
764.112	28815.32
764.449	28724.7
764.785	28667.75
765.122	28538.03
765.458	28400.64
765.795	28350.24
766.131	28436.57
766.467	28304.59
766.804	28328.55
767.14	28159.97
767.476	28157.93
767.812	28120.19
768.148	28154.54
768.485	27867.54
768.821	27701.22
769.157	27749.81
769.492	27702.8
769.828	27697.38
770.164	27522.69
770.5	27410.83
770.836	27447.89
771.171	27356.37
771.507	27286.54
771.842	27097.85
772.178	27037.06
772.513	27091.07
772.849	27047
773.184	26908.93
773.519	26993.89
773.855	26911.19
774.19	26757.74
774.525	26690.85
774.86	26684.3
775.195	26641.14
775.53	26540.35
775.865	26346.68
776.2	26244.76
776.535	26243.18
776.87	26219.23
777.205	26161.37
777.539	25882.51
777.874	26059
778.209	25775.17
778.543	25868.27
778.878	25648.62
779.212	25733.81
779.547	25588.73
779.881	25671.9
780.215	25432.81
780.55	25483.43
780.884	25405.46
781.218	25327.05
781.552	25443.65
781.886	25148.07
782.22	25182.64
782.554	25187.61
782.888	24974.29
783.222	24795.31
783.556	24829.66
783.889	24886.83
784.223	24731.13
784.557	24672.15
784.89	24629.89
785.224	24443.91
785.557	24379.73
785.891	24330.46
786.224	24229.45
786.558	24355.77
786.891	24043.92
787.224	23958.95
787.557	24010.7
787.891	24146.29
788.224	24047.98
788.557	23923.47
788.89	23883.69
789.223	23953.52
789.556	23804.83
789.888	23782.68
790.221	23570.26
790.554	23488.22
790.887	23636.47
791.219	23353.31
791.552	23349.92
791.884	23268.79
792.217	23219.98
792.549	23239.42
792.882	23084.62
793.214	23032.87
793.546	23070.83
793.879	22941.35
794.211	22837.85
794.543	22821.35
794.875	22759.88
795.207	22886.43
795.539	22789.94
795.871	22816.15
796.203	22606.44
796.535	22507.01
796.867	22436.73
797.198	22375.71
797.53	22375.03
797.862	22204.87
798.193	22412.32
798.525	22199.67
798.856	22245.32
799.188	22009.17
799.519	22077.19
799.85	21920.13
800.182	22018.21
800.513	21982.28
800.844	21784.31
801.175	21851.21
801.506	21893.92
801.837	21713.81
802.168	21735.28
802.499	21628.16
802.83	21568.5
803.161	21548.16
803.491	21542.74
803.822	21516.75
804.153	21450.54
804.483	21376.42
804.814	21331.9
805.145	21366.25
805.475	21259.58
805.805	21156.08
806.136	21186.59
806.466	21195.86
806.796	21187.27
807.126	20911.79
807.457	20964.45
807.787	21004.67
808.117	20949.76
808.447	20787.05
808.777	20874.73
809.107	20847.39
809.436	20790.22
809.766	20795.41
810.096	20697.11
810.426	20660.28
810.755	20738.47
811.085	20635.64
811.414	20577.57
811.744	20403.56
812.073	20416.67
812.403	20425.93
812.732	20381.64
813.061	20374.63
813.39	20333.28
813.719	20237.24
814.049	20365.59
814.378	20250.34
814.707	20223.68
815.036	20222.32
815.365	20219.16
815.693	19914.76
816.022	20083.79
816.351	20038.6
816.68	19957.92
817.008	20016.9
817.337	19903.46
817.665	19890.8
817.994	20013.51
818.322	19886.51
818.651	19829.11
818.979	19797.93
819.307	19859.62
819.636	19700.53
819.964	19647.2
820.292	19803.35
820.62	19836.34
820.948	19724.03
821.276	19897.81
821.604	19726.29
821.932	19784.37
822.259	19759.06
822.587	19743.69
822.915	19796.8
823.243	19889
823.57	19900.3
823.898	19810.81
824.225	19813.74
824.553	19831.82
824.88	19809.9
825.207	19966.28
825.535	19804.93
825.862	19867.3
826.189	19794.31
826.516	19831.15
826.843	20002.89
827.17	19931.48
827.497	19969.9
827.824	20052.61
828.151	20004.02
828.478	19955.21
828.805	20113.62
829.131	19925.15
829.458	19938.49
829.785	19985.27
830.111	19918.37
830.438	20041.76
830.764	20031.37
831.09	20098.48
831.417	19990.24
831.743	20147.52
832.069	20049.67
832.395	20006.51
832.722	20189.55
833.048	20004.02
833.374	20063.91
833.7	20032.04
834.026	20168.54
834.351	20175.09
834.677	20164.02
835.003	20221.42
835.329	20191.36
835.654	20148.43
835.98	20092.16
836.306	20135.77
836.631	20066.85
836.956	20070.46
837.282	20121.99
837.607	20020.07
837.932	19957.92
838.258	19985.27
838.583	20050.57
838.908	19859.85
839.233	19950.24
839.558	19886.51
839.883	19853.97
840.208	19797.02
840.533	19802.9
840.858	19983.46
841.182	19812.39
841.507	19841.31
841.832	19707.08
842.156	19687.19
842.481	19709.79
842.805	19739.4
843.13	19725.61
843.454	19634.31
843.778	19704.59
844.103	19656.46
844.427	19578.04
844.751	19540.53
845.075	19660.53
845.399	19302.35
845.723	19357.03
846.047	19449.46
846.371	19272.06
846.695	19286.75
847.019	19196.81
847.343	19173.76
847.666	19034.1
847.99	19049.7
848.313	19094.67
848.637	18878.63
848.96	18894.67
849.284	18885.86
849.607	18734.9
849.931	18635.24
850.254	18588.01
850.577	18516.6
850.9	18321.81
851.223	18434.35
851.546	18387.12
851.869	18294.69
852.192	18363.39
852.515	18044.3
852.838	18048.37
853.161	18092.21
853.483	18022.15
853.806	17898.09
854.129	17992.78
854.451	17856.51
854.774	17842.27
855.096	17755.27
855.419	17712.1
855.741	17748.26
856.063	17675.04
856.385	17676.4
856.708	17756.85
857.03	17597.31
857.352	17621.71
857.674	17564.31
857.996	17561.83
858.318	17438.67
858.64	17448.38
858.961	17310.76
859.283	17266.01
859.605	17199.8
859.926	17303.53
860.248	17163.87
860.57	17149.86
860.891	17202.97
861.212	17239.35
861.534	17194.38
861.855	17115.74
862.176	17064.21
862.498	17105.34
862.819	17061.27
863.14	16920.49
863.461	16990.32
863.782	16952.8
864.103	16955.06
864.424	16978.11
864.745	16937.89
865.065	16846.36
865.386	16782.41
865.707	16978.79
866.027	16944.44
866.348	16860.15
866.668	16910.32
866.989	16790.55
867.309	16622.87
867.63	16742.41
867.95	16802.98
868.27	16625.58
868.59	16809.3
868.91	16781.96
869.23	16704.9
869.55	16697.89
869.87	16718.01
870.19	16604.79
870.51	16598.24
870.83	16755.29
871.15	16553.94
871.469	16672.13
871.789	16733.6
872.109	16624.45
872.428	16569.08
872.748	16692.24
873.067	16543.32
873.386	16556.43
873.706	16545.36
874.025	16483.89
874.344	16446.15
874.663	16439.14
874.982	16472.59
875.301	16494.06
875.62	16395.08
875.939	16367.73
876.258	16433.27
876.577	16370.45
876.896	16369.54
877.214	16289.09
877.533	16370.9
877.852	16212.71
878.17	16307.62
878.489	16177.46
878.807	16293.84
879.125	16246.83
879.444	16266.27
879.762	16295.42
880.08	16305.81
880.398	16215.2
880.716	16189.89
881.034	16188.76
881.352	16147.85
881.67	16067.4
881.988	16193.05
882.306	16132.94
882.624	16041.87
882.941	16065.59
883.259	16098.81
883.577	15931.59
883.894	15995.09
884.212	15877.58
884.529	15854.98
884.846	15858.14
885.164	15868.99
885.481	15831.93
885.798	15895.43
886.115	15774.75
886.432	15882.32
886.75	15731.82
887.067	15799.16
887.383	15632.16
887.7	15758.03
888.017	15663.35
888.334	15742.44
888.651	15709.45
888.967	15656.34
889.284	15471.26
889.6	15534.76
889.917	15359.62
890.233	15484.59
890.55	15484.82
890.866	15364.14
891.182	15476.91
891.498	15326.86
891.815	15279.63
892.131	15289.12
892.447	15290.47
892.763	15217.48
893.079	15199.85
893.395	15257.25
893.71	15155.79
894.026	15173.41
894.342	15095
894.657	15064.04
894.973	15012.74
895.289	15030.14
895.604	15029.92
895.92	14889.81
896.235	14854.78
896.55	14836.02
896.865	14756.93
897.181	14780.43
897.496	14799.87
897.811	14663.15
898.126	14706.99
898.441	14688.23
898.756	14565.52
899.071	14525.52
899.386	14455.47
899.7	14390.38
900.015	14291.4
900.33	14240.78
900.644	14202.82
900.959	14228.58
901.273	14193.55
901.588	14285.3
901.902	14120.56
902.216	14117.85
902.531	14009.83
902.845	14076.95
903.159	13897.52
903.473	13944.52
903.787	13805.31
904.101	13849.83
904.415	13827.91
904.729	13679.89
905.042	13627.47
905.356	13738.42
905.67	13702.27
905.984	13699.33
906.297	13635.38
906.611	13442.16
906.924	13442.84
907.237	13454.14
907.551	13394.03
907.864	13359.68
908.177	13362.61
908.491	13293.46
908.804	13224.09
909.117	13062.06
909.43	13086.46
909.743	13084.66
910.056	13010.53
910.368	12967.6
910.681	12907.26
910.994	12891.21
911.307	12750.88
911.619	12722.63
911.932	12701.16
912.244	12667.27
912.557	12637.66
912.869	12603.54
913.181	12566.03
913.494	12541.39
913.806	12392.7
914.118	12432.24
914.43	12461.4
914.742	12431.79
915.054	12300.04
915.366	12306.82
915.678	12212.14
915.99	12180.95
916.302	12143.89
916.613	12035.64
916.925	12157.9
917.236	12025.47
917.548	11916.33
917.859	11981.18
918.171	11878.36
918.482	11801.98
918.794	11813.73
919.105	11870.45
919.416	11668.87
919.727	11662.55
920.038	11642.66
920.349	11546.84
920.66	11548.43
920.971	11491.7
921.282	11399.05
921.593	11345.94
921.903	11368.54
922.214	11366.51
922.525	11328.09
922.835	11252.39
923.146	11185.5
923.456	11182.79
923.767	11024.82
924.077	11034.31
924.387	11018.5
924.697	11035.22
925.008	10923.81
925.318	10788.9
925.628	10877.26
925.938	10848.33
926.248	10729.01
926.558	10754.32
926.867	10748.22
927.177	10704.83
927.487	10618.28
927.796	10545.29
928.106	10604.04
928.416	10527.66
928.725	10512.97
929.034	10410.6
929.344	10424.84
929.653	10423.26
929.962	10375.12
930.271	10241.79
930.581	10232.75
930.89	10171.74
931.199	10162.25
931.508	10122.25
931.817	10093.55
932.125	10048.58
932.434	10054.23
932.743	9935.13
933.051	9904.63
933.36	9969.03
933.669	9864.85
933.977	9781.69
934.286	9877.28
934.594	9808.58
934.902	9762.03
935.21	9692.65
935.519	9663.28
935.827	9627.35
936.135	9586.44
936.443	9547.57
936.751	9529.95
937.059	9434.81
937.367	9392.55
937.674	9414.47
937.982	9358.88
938.29	9341.93
938.597	9314.13
938.905	9261.93
939.213	9296.28
939.52	9134.48
939.827	9171.99
940.135	9033.24
940.442	9071.2
940.749	9126.12
941.056	9024.42
941.363	8965.44
941.67	8989.85
941.977	9007.02
942.284	8890.42
942.591	8894.26
942.898	8807.03
943.205	8798.89
943.511	8768.84
943.818	8720.02
944.125	8572.01
944.431	8669.86
944.738	8699.91
945.044	8628.5
945.35	8532.23
945.657	8489.52
945.963	8427.83
946.269	8451.11
946.575	8410.2
946.881	8357.77
947.187	8360.94
947.493	8227.83
947.799	8295.18
948.105	8186.48
948.41	8167.27
948.716	8174.5
949.022	8123.2
949.327	8114.39
949.633	8049.76
949.938	8046.6
950.244	8055.18
950.549	7995.07
950.854	7927.05
951.16	7899.03
951.465	7823.78
951.77	7848.41
952.075	7751.91
952.38	7821.97
952.685	7763.89
952.99	7735.64
953.294	7743.78
953.599	7696.55
953.904	7646.61
954.209	7621.75
954.513	7548.53
954.818	7564.12
955.122	7494.07
955.426	7499.04
955.731	7428.53
956.035	7469.21
956.339	7353.06
956.643	7356.9
956.948	7295.2
957.252	7217.47
957.556	7251.14
957.86	7271.93
958.163	7206.62
958.467	7164.13
958.771	7191.03
959.075	7160.52
959.378	7045.27
959.682	7093.63
959.985	7080.07
960.289	7018.6
960.592	6948.09
960.896	6986.96
961.199	6942.9
961.502	6879.62
961.805	6836.68
962.108	6785.61
962.411	6848.21
962.714	6760.98
963.017	6739.74
963.32	6782.9
963.623	6682.34
963.926	6721.66
964.228	6680.53
964.531	6675.78
964.833	6624.03
965.136	6574.54
965.438	6497.48
965.741	6526.86
966.043	6459.07
966.345	6458.84
966.648	6413.87
966.95	6424.27
967.252	6397.15
967.554	6346.08
967.856	6299.75
968.158	6232.41
968.46	6222.46
968.761	6255.23
969.063	6217.94
969.365	6235.57
969.666	6169.13
969.968	6078.29
970.269	6149.02
970.571	6077.61
970.872	6075.57
971.174	6037.16
971.475	5963.71
971.776	6043.94
972.077	5950.38
972.378	5963.26
972.679	5946.76
972.98	5935.01
973.281	5854.34
973.582	5901.79
973.883	5867.22
974.183	5838.07
974.484	5802.14
974.785	5741.57
975.085	5729.37
975.386	5746.54
975.686	5703.83
975.986	5695.7
976.287	5713.1
976.587	5672.2
976.887	5632.2
977.187	5661.57
977.487	5612.99
977.787	5558.53
978.087	5473.33
978.387	5539.32
978.687	5454.8
978.987	5434.01
979.286	5389.27
979.586	5390.62
979.885	5332.77
980.185	5353.79
980.484	5304.75
980.784	5324.18
981.083	5299.55
981.382	5281.7
981.682	5242.15
981.981	5209.38
982.28	5152.21
982.579	5145.43
982.878	5108.14
983.177	5129.38
983.475	5121.48
983.774	5065.21
984.073	5030.86
984.372	4990.18
984.67	4969.16
984.969	4999.22
985.267	4996.73
985.566	4956.28
985.864	4937.3
986.162	4915.61
986.461	4832.9
986.759	4877.41
987.057	4757.87
987.355	4781.82
987.653	4823.4
987.951	4749.73
988.249	4775.72
988.547	4770.3
988.844	4728.72
989.142	4734.37
989.44	4700.02
989.737	4656.85
990.035	4686.91
990.332	4637.65
990.63	4584.31
990.927	4552.9
991.224	4501.83
991.521	4575.28
991.819	4475.16
992.116	4521.72
992.413	4500.7
992.71	4426.8
993.006	4465
993.303	4443.98
993.6	4461.83
993.897	4421.15
994.193	4401.49
994.49	4400.82
994.787	4364.89
995.083	4295.28
995.379	4265.9
995.676	4313.81
995.972	4256.87
996.268	4231.33
996.565	4179.35
996.861	4202.4
997.157	4180.94
997.453	4122.18
997.749	4109.52
998.044	4072.69
998.34	4077.21
998.636	4069.07
998.932	4064.1
999.227	3976.87
999.523	3982.07
999.818	3979.81
1000.114	3902.98
1000.409	3898.68
1000.704	3902.75
1001	3834.5
1001.295	3800.38
1001.59	3800.15
1001.885	3820.72
1002.18	3804.67
1002.475	3814.17
1002.77	3791.34
1003.065	3724.45
1003.359	3756.54
1003.654	3649.42
1003.949	3690.1
1004.243	3649.88
1004.538	3636.32
1004.832	3657.11
1005.127	3634.96
1005.421	3623.89
1005.715	3534.4
1006.009	3573.95
1006.304	3559.93
1006.598	3473.61
1006.892	3526.04
1007.186	3415.31
1007.48	3434.74
1007.773	3408.98
1008.067	3407.85
1008.361	3369.66
1008.655	3347.96
1008.948	3333.73
1009.242	3335.08
1009.535	3333.95
1009.829	3303.67
1010.122	3281.3
1010.415	3298.47
1010.708	3232.94
1011.001	3214.41
1011.295	3160.17
1011.588	3166.5
1011.881	3141.41
1012.173	3122.88
1012.466	3107.74
1012.759	3097.57
1013.052	3063.68
1013.344	3075.65
1013.637	3050.34
1013.93	3023.23
1014.222	3006.5
1014.514	2976.9
1014.807	2993.85
1015.099	2968.54
1015.391	2977.58
1015.683	2910.91
1015.976	2924.25
1016.268	2873.85
1016.56	2813.97
1016.851	2840.86
1017.143	2813.74
1017.435	2789.56
1017.727	2790.92
1018.018	2748.43
1018.31	2751.82
1018.602	2749.11
1018.893	2681.54
1019.185	2643.12
1019.476	2657.13
1019.767	2586.17
1020.058	2618.04
1020.35	2608.55
1020.641	2561.77
1020.932	2576.91
1021.223	2514.76
1021.514	2556.8
1021.804	2496.46
1022.095	2472.96
1022.386	2484.03
1022.677	2491.04
1022.967	2451.72
1023.258	2427.76
1023.548	2413.52
1023.839	2404.03
1024.129	2376.69
1024.419	2365.39
1024.709	2325.62
1025	2289.91
1025.29	2286.07
1025.58	2254.66
1025.87	2269.12
1026.16	2216.92
1026.449	2220.76
1026.739	2205.39
1027.029	2216.92
1027.319	2178.95
1027.608	2159.29
1027.898	2151.38
1028.187	2145.96
1028.477	2110.03
1028.766	2155.45
1029.055	2052.86
1029.344	2072.74
1029.634	2009.69
1029.923	2044.95
1030.212	2031.39
1030.501	2019.86
1030.79	1989.81
1031.078	1968.56
1031.367	1965.63
1031.656	1958.62
1031.945	1928.57
1032.233	1927.21
1032.522	1906.87
1032.81	1891.5
1033.099	1901.45
1033.387	1879.75
1033.675	1852.41
1033.963	1845.86
1034.251	1857.61
1034.54	1815.12
1034.828	1802.92
1035.116	1778.96
1035.403	1772.19
1035.691	1780.55
1035.979	1732.64
1036.267	1748
1036.554	1719.98
1036.842	1735.35
1037.129	1688.57
1037.417	1673.66
1037.704	1646.99
1037.992	1657.39
1038.279	1628.69
1038.566	1638.4
1038.853	1638.4
1039.14	1638.4
