Data from copper_heatsink_FLMS001491_002.txt Node
Date: Tue Feb 07 10:49:03 GMT 2017
User: dcchb
Spectrometer: FLMS00149
Trigger mode: 0
Integration Time (sec): 2.000000E-2
Scans to average: 10
Electric dark correction enabled: true
Nonlinearity correction enabled: false
Boxcar width: 0
XAxis mode: Wavelengths
Number of Pixels in Spectrum: 2048
>>>>>Begin Spectral Data<<<<<
341.393	-3.4
341.776	-3.4
342.16	-3.4
342.543	-61.71
342.927	-72.78
343.31	-57.87
343.693	-58.09
344.077	-76.4
344.46	-47.47
344.843	-61.71
345.226	-34.59
345.61	-28.04
345.993	-7.92
346.376	-5.44
346.759	-4.53
347.142	27.33
347.525	44.28
347.908	49.93
348.291	58.97
348.674	97.38
349.057	104.16
349.44	113.2
349.823	152.3
350.206	178.74
350.588	236.82
350.971	242.47
351.354	269.13
351.737	275.46
352.119	303.93
352.502	308.45
352.884	289.02
353.267	316.59
353.65	330.82
354.032	334.21
354.414	350.03
354.797	335.8
355.179	370.37
355.562	357.72
355.944	343.71
356.326	379.18
356.709	381.22
357.091	382.35
357.473	371.73
357.855	383.93
358.238	380.09
358.62	389.81
359.002	393.65
359.384	419.41
359.766	355.91
360.148	388.68
360.53	390.26
360.912	384.38
361.294	394.33
361.676	384.83
362.057	391.84
362.439	394.33
362.821	377.6
363.203	377.15
363.584	374.44
363.966	372.63
364.348	363.82
364.729	351.62
365.111	362.24
365.493	371.05
365.874	376.47
366.256	364.5
366.637	381.22
367.019	379.41
367.4	372.41
367.781	336.02
368.163	386.19
368.544	365.85
368.925	380.99
369.306	358.17
369.688	382.35
370.069	357.72
370.45	371.05
370.831	373.99
371.212	388.45
371.593	373.76
371.974	391.16
372.355	373.99
372.736	374.67
373.117	385.96
373.498	386.64
373.879	370.82
374.26	375.8
374.641	373.99
375.021	372.86
375.402	362.91
375.783	390.48
376.163	396.13
376.544	381.22
376.925	390.03
377.305	404.95
377.686	397.04
378.066	415.34
378.447	404.95
378.827	416.25
379.208	416.7
379.588	415.57
379.968	424.16
380.349	428.68
380.729	419.18
381.109	402.91
381.489	420.77
381.87	445.4
382.25	437.94
382.63	423.93
383.01	417.83
383.39	422.12
383.77	434.78
384.15	442.01
384.53	449.69
384.91	433.87
385.29	449.47
385.67	450.14
386.049	444.49
386.429	463.02
386.809	435.91
387.189	470.93
387.568	450.82
387.948	444.72
388.328	474.1
388.707	489.01
389.087	449.92
389.466	464.83
389.846	473.65
390.225	471.16
390.605	470.93
390.984	506.87
391.363	486.53
391.743	459.41
392.122	486.53
392.501	496.24
392.881	512.29
393.26	518.16
393.639	495.34
394.018	508.22
394.397	522.01
394.776	515.45
395.155	511.61
395.534	506.19
395.913	519.52
396.292	523.81
396.671	520.42
397.05	521.55
397.429	504.38
397.808	535.11
398.186	532.18
398.565	530.37
398.944	539.63
399.323	550.93
399.701	535.79
400.08	533.31
400.458	570.59
400.837	569.91
401.215	563.36
401.594	582.8
401.972	570.14
402.351	577.82
402.729	593.87
403.107	548.67
403.486	572.63
403.864	595
404.242	575.11
404.62	594.09
404.999	601.1
405.377	605.62
405.755	603.59
406.133	586.64
406.511	608.33
406.889	618.73
407.267	615.34
407.645	640.87
408.023	635.68
408.401	642.45
408.779	630.03
409.156	618.73
409.534	635.9
409.912	652.85
410.29	666.18
410.667	676.35
411.045	650.82
411.422	680.19
411.8	703.7
412.178	688.33
412.555	702.79
412.933	707.76
413.31	703.7
413.687	687.88
414.065	726.97
414.442	737.82
414.819	740.08
415.197	754.32
415.574	776.01
415.951	755.45
416.328	762.9
416.705	774.43
417.082	778.5
417.46	743.02
417.837	788.67
418.214	800.87
418.591	787.99
418.967	790.47
419.344	808.1
419.721	791.6
420.098	780.08
420.475	831.38
420.852	833.18
421.228	818.27
421.605	804.71
421.982	827.76
422.358	847.42
422.735	884.03
423.111	850.58
423.488	853.75
423.864	856.01
424.241	900.53
424.617	878.83
424.994	862.79
425.37	886.06
425.746	888.32
426.123	910.7
426.499	925.61
426.875	921.54
427.251	925.84
427.627	958.38
428.003	966.97
428.379	942.56
428.756	951.83
429.132	958.83
429.507	1007.87
429.883	1002.22
430.259	989.56
430.635	984.37
431.011	1020.07
431.387	1038.6
431.763	1033.86
432.138	1045.16
432.514	1070.69
432.89	1091.48
433.265	1103.01
433.641	1087.64
434.016	1112.95
434.392	1119.73
434.767	1123.12
435.143	1129
435.518	1159.73
435.894	1141.2
436.269	1142.55
436.644	1156.34
437.02	1190.46
437.395	1192.95
437.77	1183.23
438.145	1220.74
438.52	1222.33
438.895	1230.01
439.271	1223.46
439.646	1252.38
440.021	1256.9
440.395	1279.5
440.77	1256.22
441.145	1272.72
441.52	1275.21
441.895	1276.79
442.27	1295.32
442.645	1289.67
443.019	1295.77
443.394	1303
443.769	1320.63
444.143	1353.85
444.518	1314.53
444.892	1327.41
445.267	1375.54
445.641	1367.63
446.016	1379.38
446.39	1377.35
446.764	1366.5
447.139	1354.53
447.513	1394.98
447.887	1373.96
448.262	1402.89
448.636	1403.56
449.01	1470.68
449.384	1448.76
449.758	1460.29
450.132	1458.93
450.506	1455.09
450.88	1490.79
451.254	1531.02
451.628	1511.58
452.002	1533.5
452.376	1558.36
452.75	1538.93
453.123	1579.83
453.497	1573.5
453.871	1573.73
454.244	1599.27
454.618	1643.11
454.992	1628.42
455.365	1616.44
455.739	1675.65
456.112	1702.54
456.486	1722.65
456.859	1753.84
457.232	1765.14
457.606	1707.96
457.979	1779.83
458.352	1767.85
458.725	1808.07
459.099	1849.88
459.472	1868.86
459.845	1896.21
460.218	1891.91
460.591	1907.28
460.964	1902.76
461.337	1956.09
461.71	1956.54
462.083	2012.81
462.456	1974.85
462.829	1989.76
463.201	2058.01
463.574	2045.81
463.947	2089.2
464.32	2158.35
464.692	2099.59
465.065	2160.16
465.438	2194.28
465.81	2183.43
466.183	2237.67
466.555	2262.75
466.928	2262.53
467.3	2290.32
467.672	2341.17
468.045	2379.81
468.417	2368.96
468.789	2386.14
469.161	2389.53
469.534	2439.47
469.906	2498.68
470.278	2515.17
470.65	2546.36
471.022	2581.16
471.394	2630.65
471.766	2654.15
472.138	2668.16
472.51	2686.24
472.882	2731.44
473.253	2759.91
473.625	2809.86
473.997	2894.83
474.369	2893.47
474.74	2930.08
475.112	2961.94
475.484	3035.84
475.855	3061.6
476.227	3086.46
476.598	3153.58
476.97	3205.33
477.341	3223.86
477.713	3326.23
478.084	3336.62
478.455	3399.9
478.827	3453.91
479.198	3485.09
479.569	3514.92
479.94	3607.12
480.311	3622.04
480.682	3756.5
481.053	3783.62
481.424	3792.2
481.795	3885.53
482.166	3884.63
482.537	3998.07
482.908	4070.61
483.279	4105.64
483.65	4176.37
484.021	4224.73
484.391	4251.17
484.762	4318.06
485.133	4351.74
485.503	4429.02
485.874	4520.32
486.244	4528.68
486.615	4591.5
486.985	4647.55
487.356	4718.51
487.726	4786.75
488.097	4862.46
488.467	4856.13
488.837	5000.98
489.207	5051.6
489.578	5037.59
489.948	5146.07
490.318	5231.03
490.688	5223.35
491.058	5334.08
491.428	5392.61
491.798	5429
492.168	5534.98
492.538	5591.48
492.908	5635.09
493.278	5662.89
493.648	5688.42
494.017	5770.23
494.387	5805.93
494.757	5880.96
495.126	5910.79
495.496	5915.99
495.866	6012.71
496.235	6090.22
496.605	6108.75
496.974	6110.79
497.344	6232.14
497.713	6223.55
498.082	6364.79
498.452	6343.1
498.821	6360.27
499.19	6408.18
499.559	6507.84
499.928	6561.85
500.298	6543.99
500.667	6626.03
501.036	6652.69
501.405	6672.13
501.774	6672.35
502.143	6789.64
502.512	6760.03
502.88	6872.8
503.249	6926.58
503.618	6945.79
503.987	6948.05
504.356	7014.26
504.724	7074.6
505.093	7149.85
505.462	7171.1
505.83	7183.75
506.199	7228.04
506.567	7358.89
506.936	7335.39
507.304	7492.9
507.672	7457.87
508.041	7515.04
508.409	7639.11
508.777	7657.64
509.145	7697.64
509.514	7763.4
509.882	7827.58
510.25	7818.31
510.618	7889.95
510.986	7919.78
511.354	8007.68
511.722	8026.67
512.09	8138.53
512.458	8169.04
512.826	8311.86
513.193	8280.9
513.561	8317.28
513.929	8407
514.297	8431.63
514.664	8539.42
515.032	8648.8
515.4	8742.13
515.767	8744.84
516.135	8814.22
516.502	8764.95
516.869	8973.99
517.237	8953.65
517.604	9035
517.972	9006.53
518.339	9203.13
518.706	9203.13
519.073	9273.19
519.44	9343.24
519.808	9450.58
520.175	9434.99
520.542	9597.7
520.909	9650.13
521.276	9709.34
521.643	9780.29
522.009	9907.52
522.376	9954.98
522.743	10058.03
523.11	10166.27
523.477	10204.24
523.843	10313.39
524.21	10381.86
524.577	10522.2
524.943	10591.57
525.31	10586.37
525.676	10760.38
526.043	10804.45
526.409	10947.27
526.776	11067.49
527.142	11168.28
527.508	11149.3
527.874	11312.68
528.241	11317.88
528.607	11377.54
528.973	11471.32
529.339	11541.6
529.705	11720.13
530.071	11783.63
530.437	11817.98
530.803	11986.56
531.169	12055.71
531.535	12037.18
531.901	12184.3
532.267	12153.56
532.632	12337.74
532.998	12337.29
533.364	12504.52
533.73	12540.9
534.095	12614.12
534.461	12715.58
534.826	12782.93
535.192	12809.37
535.557	12997.38
535.923	12985.41
536.288	13018.17
536.653	13228.79
537.019	13241.45
537.384	13257.72
537.749	13411.38
538.114	13409.58
538.479	13438.28
538.845	13637.59
539.21	13625.62
539.575	13706.52
539.94	13871.26
540.305	13893.86
540.67	13909.9
541.034	14022.67
541.399	14235.09
541.764	14226.05
542.129	14278.93
542.494	14405.71
542.858	14442.09
543.223	14558.93
543.587	14648.64
543.952	14635.76
544.316	14854.06
544.681	14789.43
545.045	14977.67
545.41	15093.6
545.774	15166.37
546.138	15298.34
546.503	15328.4
546.867	15367.72
547.231	15646.35
547.595	15694.94
547.959	15725.45
548.324	15880.7
548.688	15911.66
549.052	16014.71
549.416	16140.8
549.779	16267.13
550.143	16303.06
550.507	16555.93
550.871	16649.72
551.235	16675.71
551.599	16920.22
551.962	16940.56
552.326	17096.26
552.689	17270.04
553.053	17276.37
553.417	17306.88
553.78	17704.61
554.143	17707.09
554.507	17918.61
554.87	17906.86
555.234	18273.63
555.597	18192.73
555.96	18432.5
556.323	18579.38
556.686	18764.69
557.05	19013.05
557.413	19144.79
557.776	19324.68
558.139	19426.59
558.502	19556.53
558.865	19798.79
559.228	20002.17
559.59	20161.49
559.953	20353.35
560.316	20631.76
560.679	20804.64
561.041	21054.12
561.404	21133.67
561.767	21485.07
562.129	21586.54
562.492	22012.51
562.854	22084.83
563.217	22180.65
563.579	22469.9
563.941	22671.71
564.304	22934.52
564.666	23230.56
565.028	23448.41
565.39	23517.79
565.753	23875.74
566.115	24231.89
566.477	24375.62
566.839	24723.63
567.201	24953
567.563	25083.17
567.925	25483.38
568.287	25647.9
568.648	25895.58
569.01	26148.9
569.372	26455.34
569.734	26494.66
570.095	26994.3
570.457	27257.57
570.819	27448.53
571.18	27633.61
571.542	27995.86
571.903	28221.16
572.265	28581.16
572.626	28784.09
572.987	29066.79
573.349	29304.98
573.71	29626.78
574.071	29883.95
574.432	30020.67
574.794	30514.66
575.155	30551.95
575.516	30766.63
575.877	31017.7
576.238	31274.64
576.599	31623.11
576.96	31841.41
577.32	32016.77
577.681	32231.45
578.042	32485.46
578.403	32804.77
578.763	32935.62
579.124	33125.44
579.485	33451.31
579.845	33745.09
580.206	33926.33
580.566	34129.03
580.927	34328.8
581.287	34596.59
581.648	34634.1
582.008	34995.45
582.368	34995.68
582.728	35467.53
583.089	35479.5
583.449	35674.08
583.809	35951.36
584.169	36084.23
584.529	36054.41
584.889	36633.6
585.249	36509.99
585.609	36598.12
585.969	37001.72
586.329	37140.25
586.688	37274.71
587.048	37565.78
587.408	37501.82
587.768	37858.2
588.127	37983.85
588.487	38143.62
588.846	38527.79
589.206	38392.42
589.565	38657.95
589.925	38851.62
590.284	38916.7
590.643	38956.48
591.003	39426.97
591.362	39731.6
591.721	39819.5
592.08	39999.61
592.44	40116.9
592.799	40287.29
593.158	40349.43
593.517	40535.64
593.876	40563.89
594.235	40775.41
594.593	40880.04
594.952	41265.57
595.311	41228.96
595.67	41586.01
596.029	41753.69
596.387	41962.05
596.746	42120.46
597.104	41903.74
597.463	42355.71
597.822	42617.17
598.18	42574.46
598.538	42605.87
598.897	43160.66
599.255	42792.31
599.613	43681.55
599.972	43417.38
600.33	43682.45
600.688	43701.66
601.046	43923.12
601.404	44208.99
601.762	44119.73
602.12	44462.09
602.478	44684.69
602.836	44761.29
603.194	44750.9
603.552	44868.18
603.91	44898.92
604.268	45302.07
604.625	45359.7
604.983	45686.69
605.341	45612.57
605.698	45834.94
606.056	46266.11
606.413	46222.05
606.771	46510.4
607.128	46694.13
607.485	46645.77
607.843	46770.51
608.2	47017.51
608.557	47277.39
608.914	47206.65
609.272	47580.43
609.629	47824.94
609.986	48051.15
610.343	47819.75
610.7	48297.92
611.057	48289.56
611.414	48320.3
611.771	48500.41
612.127	48743.56
612.484	48874.63
612.841	49040.28
613.198	48947.63
613.554	49007.96
613.911	49458.8
614.267	49491.57
614.624	49516.42
614.98	49790.54
615.337	50136.97
615.693	50153.7
616.05	50203.41
616.406	50525.66
616.762	50356.85
617.118	50455.61
617.475	50594.36
617.831	50678.88
618.187	50861.47
618.543	50959.55
618.899	51136.27
619.255	51157.51
619.611	51287
619.967	51452.19
620.323	51649.7
620.678	51536.26
621.034	51589.14
621.39	51757.04
621.746	51802.24
622.101	52210.14
622.457	52025.06
622.812	52167.43
623.168	52352.73
623.523	52371.72
623.879	52643.57
624.234	52363.58
624.589	52630.47
624.945	52675.44
625.3	52830.01
625.655	52811.7
626.01	52929.89
626.365	53002.66
626.72	53012.15
627.075	53076.33
627.43	53164.24
627.785	53127.85
628.14	53239.04
628.495	53389.32
628.85	53353.39
629.205	53249.66
629.559	53450.78
629.914	53397.23
630.269	53565.36
630.623	53497.11
630.978	53562.87
631.332	53742.53
631.687	53864.33
632.041	53772.36
632.396	53923.99
632.75	53770.32
633.104	53955.86
633.459	53780.94
633.813	53909.3
634.167	53945.91
634.521	53933.03
634.875	54097.32
635.229	54086.25
635.583	53955.4
635.937	54096.42
636.291	54077.89
636.645	54213.48
636.999	54164.44
637.352	54243.76
637.706	54203.98
638.06	54291.44
638.413	54318.56
638.767	54273.36
639.121	54351.33
639.474	54340.7
639.828	54378.22
640.181	54493.02
640.534	54568.27
640.888	54473.81
641.241	54307.71
641.594	54503.86
641.947	54614.82
642.301	54518.33
642.654	54630.64
643.007	54671.99
643.36	54762.84
643.713	54656.4
644.066	54862.72
644.419	54595.39
644.771	54337.99
645.124	54100.94
645.477	54105
645.83	54011.9
646.182	54014.38
646.535	54190.2
646.888	54372.34
647.24	54238.33
647.593	54436.75
647.945	54407.59
648.298	54378.67
648.65	54411.66
649.002	54481.94
649.355	54449.18
649.707	54385.22
650.059	54567.36
650.411	54807.58
650.763	54895.27
651.115	55199.66
651.467	55217.29
651.819	55140
652.171	55232.88
652.523	55213
652.875	55155.6
653.227	55139.1
653.578	55327.8
653.93	55382.03
654.282	55201.7
654.633	55251.41
654.985	55474.69
655.337	55505.42
655.688	55580.67
656.039	55616.6
656.391	55354.91
656.742	55460.67
657.094	55450.51
657.445	55734.57
657.796	55628.13
658.147	55607.79
658.498	55697.96
658.849	55757.84
659.2	55810.5
659.551	55730.5
659.902	55810.95
660.253	55710.16
660.604	55870.16
660.955	55700.22
661.306	55923.26
661.656	55871.74
662.007	55903.6
662.358	56037.61
662.708	55970.27
663.059	56012.3
663.409	55878.74
663.76	56037.61
664.11	56151.05
664.461	56273.76
664.811	56242.12
665.161	56146.98
665.511	56169.81
665.862	56278.96
666.212	56406.86
666.562	56435.34
666.912	56497.48
667.262	56352.63
667.612	56358.73
667.962	56419.07
668.312	56449.8
668.662	56560.98
669.011	56534.09
669.361	56621.77
669.711	56529.8
670.06	56578.16
670.41	56551.49
670.76	56624.49
671.109	56712.62
671.459	56665.39
671.808	56673.52
672.157	56836.68
672.507	56680.53
672.856	56690.7
673.205	56777.02
673.554	56858.15
673.904	56798.27
674.253	56843.69
674.602	56783.13
674.951	56462.91
675.3	56408.9
675.649	56877.59
675.998	56909
676.346	56947.64
676.695	57097.69
677.044	56919.62
677.393	56974.08
677.741	57004.59
678.09	56916.46
678.438	56935.44
678.787	56988.32
679.135	57096.56
679.484	56907.87
679.832	56998.26
680.181	56805.27
680.529	56984.93
680.877	56852.5
681.225	56913.97
681.573	57122.33
681.922	57001.88
682.27	56922.1
682.618	56984.02
682.966	56941.99
683.314	57073.97
683.661	56991.71
684.009	56891.37
684.357	56891.82
684.705	56872.61
685.053	56918.26
685.4	56890.92
685.748	56913.52
686.095	56891.15
686.443	56913.52
686.79	56815.67
687.138	56866.06
687.485	56813.63
687.832	56785.84
688.18	56821.54
688.527	56778.61
688.874	56876.68
689.221	56733.18
689.568	56703.13
689.915	56645.5
690.262	56554.66
690.609	56581.55
690.956	56543.36
691.303	56558.27
691.65	56522.12
691.997	56466.07
692.344	56458.61
692.69	56385.85
693.037	56460.65
693.383	56243.93
693.73	56426.75
694.077	56318.73
694.423	56357.37
694.769	56279.64
695.116	56222.46
695.462	56131.17
695.808	56149.02
696.155	56194.21
696.501	56029.47
696.847	56039.19
697.193	55823.83
697.539	55976.37
697.885	55742.93
698.231	55712.65
698.577	55797.61
698.923	55826.99
699.269	55757.16
699.614	55678.3
699.96	55617.51
700.306	55615.25
700.651	55573.44
700.997	55515.59
701.342	55518.98
701.688	55486.66
702.033	55380
702.379	55505.42
702.724	55436.95
703.069	55546.55
703.415	55268.36
703.76	55287.12
704.105	55265.65
704.45	55158.54
704.795	55033.12
705.14	55017.75
705.485	55077.41
705.83	55050.97
706.175	55096.84
706.52	55070.4
706.865	54916.96
707.209	54901.82
707.554	54805.32
707.899	54909.95
708.243	54900.92
708.588	54850.07
708.932	54726.91
709.277	54737.3
709.621	54773.91
709.966	54594.48
710.31	54738.21
710.654	54507.03
710.998	54543.64
711.342	54510.64
711.687	54522.39
712.031	54417.31
712.375	54374.83
712.719	54390.87
713.063	54386.35
713.407	54408.95
713.75	54221.61
714.094	54360.14
714.438	54237.66
714.782	54265.23
715.125	54146.36
715.469	54238.56
715.812	53961.73
716.156	54083.76
716.499	54102.74
716.843	54113.14
717.186	54019.36
717.53	54210.76
717.873	54173.7
718.216	54054.16
718.559	53895.52
718.902	53801.51
719.246	53994.27
719.589	53822.75
719.932	53825.01
720.275	53802.19
720.617	53703.88
720.96	53776.65
721.303	53845.8
721.646	53790.89
721.989	53548.63
722.331	53758.57
722.674	53743.43
723.016	53610.1
723.359	53600.38
723.701	53747.27
724.044	53542.98
724.386	53364.68
724.729	53625.24
725.071	53587.96
725.413	53552.7
725.755	53516.54
726.097	53466.15
726.439	53228.87
726.782	53311.13
727.124	53468.64
727.465	53380.5
727.807	53338.47
728.149	53328.98
728.491	53184.35
728.833	53335.08
729.175	53214.41
729.516	53285.36
729.858	53106.61
730.199	53226.83
730.541	53197.91
730.882	53078.14
731.224	53282.65
731.565	53196.33
731.906	53182.77
732.248	53266.16
732.589	53125.82
732.93	53013.51
733.271	53062.09
733.612	53106.84
733.953	53106.39
734.294	53074.3
734.635	53094.64
734.976	53120.85
735.317	52944.58
735.658	53026.16
735.999	52975.99
736.339	52994.75
736.68	53095.54
737.021	53020.06
737.361	52846.51
737.702	53052.6
738.042	52888.54
738.383	52854.87
738.723	52932.83
739.063	52760.18
739.404	52861.87
739.744	52828.43
740.084	52665.95
740.424	52741.65
740.764	52661.65
741.104	52707.07
741.444	52630.92
741.784	52601.31
742.124	52655.55
742.464	52646.96
742.804	52536.23
743.143	52474.99
743.483	52573.52
743.823	52458.49
744.162	52379.63
744.502	52510.24
744.841	52386.18
745.181	52525.38
745.52	52396.12
745.86	52533.29
746.199	52464.37
746.538	52366.74
746.877	52361.09
747.216	52492.84
747.556	52428.44
747.895	52418.27
748.234	52270.93
748.573	52275.9
748.911	52260.98
749.25	52236.8
749.589	52188.67
749.928	52249.91
750.267	52298.95
750.605	52138.28
750.944	52066.87
751.283	52065.28
751.621	52092.4
751.96	51853.76
752.298	51810.37
752.636	51851.73
752.975	51706.65
753.313	51486.99
753.651	51748.46
753.989	51630.94
754.327	51586.65
754.666	51504.85
755.004	51579.65
755.342	51545.3
755.679	51441.12
756.017	51314.79
756.355	51432.98
756.693	51286.77
757.031	51418.97
757.368	51231.63
757.706	51145.31
758.044	51113.22
758.381	51116.61
758.719	50941.7
759.056	50944.64
759.394	50755.26
759.731	50642.95
760.068	50639.11
760.405	50525.66
760.743	50490.86
761.08	50593.01
761.417	50418.55
761.754	50409.96
762.091	50261.49
762.428	50296.06
762.765	50138.33
763.102	50339.68
763.438	50059.46
763.775	49846.36
764.112	49812.01
764.449	49953.47
764.785	49625.8
765.122	49558.68
765.458	49393.49
765.795	49482.07
766.131	49507.38
766.467	49377.44
766.804	49272.36
767.14	49171.8
767.476	49258.58
767.812	49014.97
768.148	49207.28
768.485	48869.89
768.821	48716.67
769.157	48658.37
769.492	48538.37
769.828	48396.23
770.164	48136.35
770.5	48252.95
770.836	48383.35
771.171	47995.33
771.507	48071.49
771.842	47793.98
772.178	47631.05
772.513	47623.14
772.849	47486.87
773.184	47339.08
773.519	47297.27
773.855	47252.08
774.19	47082.82
774.525	47063.16
774.86	46869.49
775.195	46731.41
775.53	46596.73
775.865	46638.53
776.2	46380.91
776.535	46068.38
776.87	46121.26
777.205	46034.71
777.539	45829.97
777.874	45931.89
778.209	45610.54
778.543	45511.33
778.878	45469.98
779.212	45411.9
779.547	45269.08
779.881	45546.13
780.215	45140.95
780.55	45005.13
780.884	44833.38
781.218	44922.65
781.552	44979.37
781.886	44578.02
782.22	44373.06
782.554	44340.06
782.888	44128.32
783.222	44076.34
783.556	43811.26
783.889	43660.53
784.223	43389.58
784.557	43475.68
784.89	43639.52
785.224	43377.6
785.557	43217.83
785.891	43192.3
786.224	43022.36
786.558	43074.11
786.891	42696.94
787.224	42576.49
787.557	42545.76
787.891	42424.86
788.224	42416.72
788.557	42456.5
788.89	42269.83
789.223	42143.74
789.556	41889.73
789.888	41933.35
790.221	41902.39
790.554	41446.58
790.887	41388.05
791.219	41358.67
791.552	41309.63
791.884	41177.66
792.217	41007.27
792.549	40904.22
792.882	40649.76
793.214	40722.98
793.546	40851.57
793.879	40486.38
794.211	40347.63
794.543	40555.76
794.875	40374.29
795.207	40257.23
795.539	40232.15
795.871	40146.73
796.203	39827.41
796.535	39569.34
796.867	39592.39
797.198	39501.32
797.53	39566.18
797.862	39428.55
798.193	39509.91
798.525	39070.37
798.856	39263.81
799.188	38826.54
799.519	38803.49
799.85	38737.72
800.182	38685.3
800.513	38721.45
800.844	38346.1
801.175	38552.64
801.506	38467.22
801.837	38130.06
802.168	38112.66
802.499	38117.18
802.83	37919.21
803.161	37905.43
803.491	38028.59
803.822	37833.57
804.153	37834.02
804.483	37545.67
804.814	37320.36
805.145	37449.85
805.475	37322.17
805.805	37122.4
806.136	37234.26
806.466	37155.39
806.796	37104.1
807.126	36848.51
807.457	36978
807.787	36821.62
808.117	36733.03
808.447	36635.86
808.777	36638.57
809.107	36547.05
809.436	36468.63
809.766	36360.61
810.096	36165.36
810.426	36063.67
810.755	36258.69
811.085	36108.41
811.414	35933.73
811.744	35726.05
812.073	35695.77
812.403	35763.34
812.732	35616.22
813.061	35477.25
813.39	35355.67
813.719	35362.45
814.049	35595.43
814.378	35534.87
814.707	35345.5
815.036	35237.7
815.365	35009.23
815.693	34712.97
816.022	34804.72
816.351	34723.59
816.68	34640.2
817.008	34703.48
817.337	34544.16
817.665	34493.32
817.994	34594.33
818.322	34662.8
818.651	34453.77
818.979	34329.93
819.307	34452.19
819.636	34302.59
819.964	34140.78
820.292	34274.34
820.62	34212.65
820.948	34288.35
821.276	34300.1
821.604	34305.98
821.932	34298.75
822.259	34331.29
822.587	34242.48
822.915	34214.68
823.243	34396.6
823.57	34263.72
823.898	34412.41
824.225	34241.57
824.553	34246.54
824.88	34268.69
825.207	34291.06
825.535	34160.9
825.862	34197.96
826.189	33997.51
826.516	34449.93
826.843	34455.58
827.17	34344.39
827.497	34388.69
827.824	34376.71
828.151	34517.04
828.478	34408.8
828.805	34558.63
829.131	34384.84
829.458	34340.55
829.785	34113.89
830.111	34388.46
830.438	34493.54
830.764	34332.87
831.09	34333.55
831.417	34168.8
831.743	34367.22
832.069	34343.72
832.395	34236.37
832.722	34440.21
833.048	34274.79
833.374	34588
833.7	34277.05
834.026	34219.88
834.351	34300.55
834.677	34418.97
835.003	34595.69
835.329	34355.92
835.654	34412.19
835.98	34137.85
836.306	34356.14
836.631	34104.63
836.956	34292.19
837.282	34425.07
837.607	34167.68
837.932	34130.61
838.258	34117.96
838.583	34056.94
838.908	33966.32
839.233	33988.7
839.558	33948.02
839.883	33719.33
840.208	33700.34
840.533	33647.24
840.858	33657.18
841.182	33711.64
841.507	33579.89
841.832	33552.78
842.156	33508.26
842.481	33426.45
842.805	33548.71
843.13	33495.38
843.454	33468.03
843.778	33316.62
844.103	33411.08
844.427	33234.82
844.751	33350.97
845.075	32992.56
845.399	32794.6
845.723	32869.4
846.047	32903.98
846.371	32557.55
846.695	32731.1
847.019	32367.04
847.343	32273.71
847.666	32027.62
847.99	32020.39
848.313	32013.83
848.637	31869.66
848.96	31807.74
849.284	31836.21
849.607	31412.04
849.931	31364.36
850.254	31133.18
850.577	31014.99
850.9	30910.36
851.223	30925.73
851.546	30934.99
851.869	30675.56
852.192	30772.74
852.515	30463.14
852.838	30340.43
853.161	30429.24
853.483	30250.49
853.806	30162.58
854.129	30181.57
854.451	30059.53
854.774	29874.91
855.096	29819.99
855.419	29800.11
855.741	29703.16
856.063	29390.85
856.385	29476.05
856.708	29450.51
857.03	29353.56
857.352	29412.55
857.674	29219.56
857.996	29119.22
858.318	28951.77
858.64	29061.59
858.961	29015.27
859.283	28975.04
859.605	28721.72
859.926	28796.06
860.248	28632.23
860.57	28523.53
860.891	28554.26
861.212	28411.22
861.534	28401.95
861.855	28269.98
862.176	28295.51
862.498	28322.18
862.819	28288.73
863.14	28010.55
863.461	28024.33
863.782	28227.72
864.103	28105.01
864.424	27977.56
864.745	28164.9
865.065	27853.26
865.386	27789.54
865.707	27824.79
866.027	27956.09
866.348	27994.28
866.668	28004
866.989	27668.18
867.309	27622.76
867.63	27734.85
867.95	27624.34
868.27	27608.07
868.59	27554.29
868.91	27651.46
869.23	27641.52
869.55	27502.54
869.87	27638.58
870.19	27427.06
870.51	27335.54
870.83	27206.73
871.15	27244.69
871.469	27248.99
871.789	27349.55
872.109	27276.78
872.428	27122.21
872.748	27208.31
873.067	27056
873.386	27154.75
873.706	27106.62
874.025	26884.02
874.344	26999.73
874.663	27048.31
874.982	26900.75
875.301	26777.59
875.62	26712.05
875.939	26652.17
876.258	26793.18
876.577	26496.92
876.896	26615.78
877.214	26656.01
877.533	26653.3
877.852	26395.22
878.17	26392.96
878.489	26504.15
878.807	26580.76
879.125	26435.22
879.444	26554.32
879.762	26410.14
880.08	26500.98
880.398	26239.07
880.716	26410.36
881.034	26279.52
881.352	26155.91
881.67	26076.81
881.988	26231.84
882.306	26066.19
882.624	26117.49
882.941	26064.16
883.259	25924.73
883.577	25934.45
883.894	25790.95
884.212	25752.53
884.529	25794.34
884.846	25736.03
885.164	25724.73
885.481	25562.48
885.798	25625.53
886.115	25357.06
886.432	25479.32
886.75	25293.33
887.067	25412.65
887.383	25210.17
887.7	25277.97
888.017	25092.43
888.334	25097.41
888.651	25076.16
888.967	25067.35
889.284	25009.95
889.6	24967.24
889.917	24667.59
890.233	24910.74
890.55	24529.28
890.866	24602.73
891.182	24636.85
891.498	24553.69
891.815	24474.37
892.131	24466.69
892.447	24290.19
892.763	24127.71
893.079	24103.76
893.395	24207.94
893.71	24139.69
894.026	24114.38
894.342	24013.82
894.657	24007.26
894.973	23786.93
895.289	23835.74
895.604	23658.12
895.92	23454.28
896.235	23461.52
896.55	23427.39
896.865	23366.6
897.181	23352.14
897.496	23405.25
897.811	23149.21
898.126	23090.23
898.441	23011.58
898.756	22979.49
899.071	22754.19
899.386	22755.32
899.7	22547.87
900.015	22566.4
900.33	22324.6
900.644	22476.23
900.959	22465.84
901.273	22435.1
901.588	22331.83
901.902	22155.34
902.216	22199.85
902.531	22137.71
902.845	22119.4
903.159	21944.49
903.473	21831.28
903.787	21804.38
904.101	21668.34
904.415	21694.56
904.729	21577.95
905.042	21599.87
905.356	21399.88
905.67	21365.3
905.984	21324.62
906.297	21272.87
906.611	21193.78
906.924	21189.49
907.237	21076.27
907.551	20999.21
907.864	20952.2
908.177	20772.77
908.491	20653
908.804	20545.66
909.117	20502.95
909.43	20399.9
909.743	20279.23
910.056	20302.5
910.368	20243.75
910.681	20003.3
910.994	20053.47
911.307	19942.06
911.619	19882.63
911.932	19836.3
912.244	19821.61
912.557	19612.13
912.869	19467.72
913.181	19465.91
913.494	19394.73
913.806	19129.2
914.118	19327.61
914.43	19189.09
914.742	19121.52
915.054	18989.77
915.366	18971.92
915.678	18833.84
915.99	18792.03
916.302	18555.2
916.613	18536.45
916.925	18636.78
917.236	18599.72
917.548	18440.18
917.859	18524.02
918.171	18265.72
918.482	18186.85
918.794	18202.45
919.105	18107.98
919.416	17983.69
919.727	17977.37
920.038	17922
920.349	17736.69
920.66	17731.27
920.971	17594.33
921.282	17535.57
921.593	17364.73
921.903	17365.4
922.214	17354.11
922.525	17331.96
922.835	17254.22
923.146	17129.25
923.456	17090.84
923.767	16987.56
924.077	16949.14
924.387	16689.94
924.697	16611.53
925.008	16596.84
925.318	16655.82
925.628	16561.36
925.938	16559.32
926.248	16415.37
926.558	16311.65
926.867	16334.02
927.177	16330.4
927.487	16182.61
927.796	16042.73
928.106	16045.44
928.416	15971.32
928.725	15922.73
929.034	15827.82
929.344	15891.09
929.653	15790.53
929.962	15696.75
930.271	15643.87
930.581	15481.39
930.89	15386.25
931.199	15314.16
931.508	15174.95
931.817	15156.65
932.125	15138.57
932.434	15069.65
932.743	14870.33
933.051	14990.55
933.36	14899.03
933.669	14826.71
933.977	14808.41
934.286	14815.87
934.594	14724.12
934.902	14596.66
935.21	14490
935.519	14515.76
935.827	14404.13
936.135	14345.37
936.443	14097.24
936.751	14146.28
937.059	14172.49
937.367	14097.47
937.674	14116.9
937.982	13986.51
938.29	13847.53
938.597	13858.38
938.905	13719.85
939.213	13674.43
939.52	13574.32
939.827	13611.38
940.135	13519.63
940.442	13548.1
940.749	13444.83
941.056	13485.51
941.363	13333.19
941.67	13274.21
941.977	13255
942.284	13260.88
942.591	13132.52
942.898	13064.28
943.205	13034.9
943.511	12869.25
943.818	12861.57
944.125	12721.91
944.431	12690.5
944.738	12806.88
945.044	12698.18
945.35	12610.95
945.657	12533.67
945.963	12437.4
946.269	12327.35
946.575	12337.51
946.881	12263.62
947.187	12258.87
947.493	12203.96
947.799	12141.14
948.105	12060.69
948.41	12004.19
948.716	12013.46
949.022	11944.76
949.327	11889.84
949.633	11833.12
949.938	11820.92
950.244	11819.79
950.549	11638.1
950.854	11535.05
951.16	11529.17
951.465	11389.74
951.77	11413.02
952.075	11336.41
952.38	11330.31
952.685	11315.62
952.99	11176.19
953.294	11197.21
953.599	11163.08
953.904	11071.79
954.209	11018.45
954.513	10914.28
954.818	10843.09
955.122	10853.71
955.426	10910.43
955.731	10790.21
956.035	10720.38
956.339	10714.51
956.643	10653.49
956.948	10597
957.252	10570.1
957.556	10551.57
957.86	10446.49
958.163	10482.42
958.467	10396.32
958.771	10397
959.075	10287.17
959.378	10272.71
959.682	10206.72
959.985	10162.88
960.289	10173.28
960.592	10028.87
960.896	10030
961.199	10032.72
961.502	9943.45
961.805	9856
962.108	9805.83
962.411	9801.54
962.714	9703.01
963.017	9706.4
963.32	9737.13
963.623	9662.78
963.926	9652.16
964.228	9586.63
964.531	9558.83
964.833	9598.15
965.136	9474.09
965.438	9412.62
965.741	9381.66
966.043	9330.81
966.345	9185.06
966.648	9231.61
966.95	9237.48
967.252	9115.68
967.554	9080.2
967.856	9009.24
968.158	9006.08
968.46	8985.74
968.761	8943.25
969.063	8874.1
969.365	8832.3
969.666	8774.22
969.968	8717.5
970.269	8656.71
970.571	8675.24
970.872	8703.26
971.174	8623.26
971.475	8567.44
971.776	8500.78
972.077	8486.09
972.378	8440.22
972.679	8412.19
972.98	8361.8
973.281	8332.65
973.582	8278.19
973.883	8353.66
974.183	8212.43
974.484	8251.75
974.785	8174.23
975.085	8077.74
975.386	8102.15
975.686	8070.06
975.986	7957.74
976.287	7941.7
976.587	7934.24
976.887	7894.47
977.187	7828.71
977.487	7836.16
977.787	7800.68
978.087	7783.74
978.387	7705.32
978.687	7697.41
978.987	7636.85
979.286	7531.77
979.586	7604.53
979.885	7511.88
980.185	7497.64
980.484	7429.17
980.784	7408.38
981.083	7387.36
981.382	7324.31
981.682	7326.12
981.981	7223.98
982.28	7211.1
982.579	7153.24
982.878	7222.17
983.177	7094.04
983.475	7189.18
983.774	7019.69
984.073	6978.56
984.372	6988.28
984.67	6948.96
984.969	6959.35
985.267	6905.57
985.566	6880.03
985.864	6799.13
986.162	6819.69
986.461	6746.02
986.759	6719.36
987.057	6657.66
987.355	6612.02
987.653	6577.21
987.951	6604.33
988.249	6528.85
988.547	6563.43
988.844	6554.39
989.142	6492.47
989.44	6449.31
989.737	6470.55
990.035	6434.17
990.332	6344.9
990.63	6394.85
990.927	6325.24
991.224	6313.04
991.521	6246.6
991.819	6226.49
992.116	6237.56
992.413	6139.03
992.71	6142.42
993.006	6035.08
993.303	6058.13
993.6	6006.16
993.897	5992.6
994.193	5970.45
994.49	6009.09
994.787	5901.07
995.083	5851.13
995.379	5908.53
995.676	5803.68
995.972	5822.21
996.268	5823.11
996.565	5699.95
996.861	5716.67
997.157	5722.77
997.453	5618.6
997.749	5570.46
998.044	5543.57
998.34	5591.7
998.636	5496.56
998.932	5453.18
999.227	5474.87
999.523	5406.62
999.818	5399.84
1000.114	5363.91
1000.409	5304.93
1000.704	5288.66
1001	5242.33
1001.295	5179.51
1001.59	5165.27
1001.885	5149.68
1002.18	5129.79
1002.475	5150.81
1002.77	5022.45
1003.065	5063.81
1003.359	5005.05
1003.654	4996.24
1003.949	4956.47
1004.243	4889.35
1004.538	4932.29
1004.832	4862.23
1005.127	4857.71
1005.421	4802.8
1005.715	4786.75
1006.009	4744.49
1006.304	4746.3
1006.598	4651.61
1006.892	4628.79
1007.186	4609.36
1007.48	4625.17
1007.773	4576.59
1008.067	4555.57
1008.361	4490.49
1008.655	4492.3
1008.948	4518.06
1009.242	4405.75
1009.535	4391.06
1009.829	4412.07
1010.122	4334.56
1010.415	4337.95
1010.708	4294.34
1011.001	4265.64
1011.295	4209.59
1011.588	4224.73
1011.881	4185.19
1012.173	4131.63
1012.466	4130.95
1012.759	4109.48
1013.052	4101.8
1013.344	4048.92
1013.637	4033.55
1013.93	3986.32
1014.222	3965.53
1014.514	3970.28
1014.807	3910.17
1015.099	3926.21
1015.391	3868.13
1015.683	3826.78
1015.976	3802.15
1016.268	3781.58
1016.56	3728.25
1016.851	3719.21
1017.143	3702.94
1017.435	3660.91
1017.727	3621.36
1018.018	3633.56
1018.31	3608.7
1018.602	3572.77
1018.893	3502.72
1019.185	3533
1019.476	3455.49
1019.767	3435.38
1020.058	3432.89
1020.35	3363.97
1020.641	3344.98
1020.932	3344.76
1021.223	3286.23
1021.514	3283.29
1021.804	3254.36
1022.095	3274.48
1022.386	3222.5
1022.677	3239.67
1022.967	3182.95
1023.258	3165.55
1023.548	3133.69
1023.839	3087.59
1024.129	3068.83
1024.419	3035.84
1024.709	3039
1025	2998.78
1025.29	2979.79
1025.58	2941.38
1025.87	2917.88
1026.16	2901.83
1026.449	2924.65
1026.739	2862.28
1027.029	2873.81
1027.319	2815.05
1027.608	2827.71
1027.898	2772.79
1028.187	2774.83
1028.477	2716.98
1028.766	2733.93
1029.055	2680.59
1029.344	2662.06
1029.634	2636.53
1029.923	2662.06
1030.212	2621.16
1030.501	2572.35
1030.79	2573.03
1031.078	2547.72
1031.367	2524.44
1031.656	2485.57
1031.945	2472.46
1032.233	2453.03
1032.522	2474.05
1032.81	2451.22
1033.099	2408.28
1033.387	2373.03
1033.675	2350.66
1033.963	2350.66
1034.251	2337.55
1034.54	2293.48
1034.828	2281.28
1035.116	2284.45
1035.403	2269.76
1035.691	2262.98
1035.979	2231.34
1036.267	2213.49
1036.554	2174.84
1036.842	2152.02
1037.129	2151.57
1037.417	2116.09
1037.704	2129.87
1037.992	2115.64
1038.279	2082.19
1038.566	2024.11
1038.853	2024.11
1039.14	2024.11
