Data from copper_heatsink_FLMS001491_050.txt Node
Date: Tue Feb 07 10:50:02 GMT 2017
User: dcchb
Spectrometer: FLMS00149
Trigger mode: 0
Integration Time (sec): 2.000000E-2
Scans to average: 10
Electric dark correction enabled: true
Nonlinearity correction enabled: false
Boxcar width: 0
XAxis mode: Wavelengths
Number of Pixels in Spectrum: 2048
>>>>>Begin Spectral Data<<<<<
341.393	-10.37
341.776	-10.37
342.16	-10.37
342.543	-69.57
342.927	-61.89
343.31	-89.46
343.693	-73.64
344.077	-47.2
344.46	-40.65
344.843	-63.92
345.226	-55.56
345.61	-14.43
345.993	-9.91
346.376	-26.64
346.759	16.52
347.142	45.45
347.525	48.61
347.908	47.94
348.291	61.27
348.674	80.93
349.057	120.7
349.44	119.35
349.823	131.1
350.206	184.43
350.588	194.83
350.971	247.48
351.354	244.54
351.737	273.47
352.119	261.94
352.502	282.51
352.884	318.44
353.267	306.46
353.65	318.21
354.032	336.52
354.414	329.51
354.797	332.9
355.179	343.52
355.562	361.6
355.944	348.49
356.326	349.85
356.709	359.57
357.091	346.23
357.473	355.5
357.855	353.01
358.238	379.91
358.62	382.17
359.002	361.37
359.384	376.06
359.766	351.88
360.148	367.7
360.53	366.35
360.912	358.21
361.294	355.73
361.676	378.78
362.057	366.35
362.439	376.74
362.821	345.1
363.203	374.71
363.584	353.92
363.966	355.5
364.348	345.33
364.729	337.87
365.111	337.65
365.493	367.25
365.874	333.13
366.256	359.79
366.637	351.21
367.019	345.1
367.4	341.71
367.781	351.21
368.163	344.2
368.544	352.79
368.925	355.73
369.306	367.25
369.688	354.37
370.069	346.69
370.45	341.94
370.831	346.69
371.212	352.11
371.593	359.79
371.974	372.45
372.355	344.65
372.736	345.1
373.117	362.96
373.498	357.53
373.879	365.67
374.26	342.62
374.641	364.09
375.021	357.08
375.402	359.79
375.783	371.77
376.163	383.07
376.544	382.17
376.925	367.93
377.305	356.86
377.686	359.57
378.066	364.31
378.447	398.44
378.827	374.93
379.208	388.49
379.588	355.95
379.968	355.27
380.349	355.5
380.729	387.81
381.109	389.62
381.489	407.93
381.87	380.13
382.25	380.58
382.63	381.26
383.01	399.11
383.39	407.93
383.77	379.91
384.15	391.66
384.53	396.4
384.91	388.27
385.29	396.85
385.67	400.7
386.049	381.71
386.429	417.87
386.809	419.68
387.189	444.54
387.568	418.1
387.948	418.32
388.328	426.23
388.707	429.62
389.087	411.77
389.466	421.03
389.846	434.14
390.225	426.01
390.605	430.07
390.984	434.14
391.363	435.05
391.743	422.16
392.122	428.72
392.501	444.31
392.881	434.82
393.26	444.76
393.639	472.78
394.018	448.38
394.397	467.81
394.776	462.39
395.155	432.79
395.534	465.78
395.913	459.23
396.292	444.54
396.671	482.73
397.05	452.9
397.429	459.68
397.808	449.73
398.186	455.38
398.565	457.87
398.944	447.7
399.323	495.61
399.701	468.49
400.08	482.73
400.458	473.91
400.837	493.57
401.215	478.43
401.594	510.75
401.972	504.2
402.351	517.3
402.729	518.21
403.107	502.39
403.486	527.47
403.864	479.11
404.242	515.95
404.62	521.37
404.999	520.69
405.377	529.05
405.755	530.64
406.133	546.68
406.511	507.13
406.889	526.34
407.267	532.9
407.645	546.23
408.023	532.9
408.401	576.74
408.779	546.23
409.156	563.18
409.534	561.37
409.912	555.95
410.29	577.19
410.667	589.17
411.045	594.36
411.422	596.4
411.8	588.94
412.178	599.79
412.555	614.02
412.933	606.57
413.31	623.97
413.687	629.84
414.065	604.31
414.442	610.18
414.819	629.62
415.197	640.92
415.574	629.62
415.951	648.15
416.328	626
416.705	649.28
417.082	654.25
417.46	674.59
417.837	660.12
418.214	667.58
418.591	670.97
418.967	650.41
419.344	672.33
419.721	689.73
420.098	675.72
420.475	686.34
420.852	700.35
421.228	685.43
421.605	710.97
421.982	712.55
422.358	694.93
422.735	687.47
423.111	734.92
423.488	760.01
423.864	730.18
424.241	763.62
424.617	730.63
424.994	774.7
425.37	758.88
425.746	766.11
426.123	770.86
426.499	761.59
426.875	800.23
427.251	791.87
427.627	789.16
428.003	800.46
428.379	823.74
428.756	821.93
429.132	820.35
429.507	846.11
429.883	847.01
430.259	835.49
430.635	878.42
431.011	887.91
431.387	896.73
431.763	875.71
432.138	915.71
432.514	886.78
432.89	920.91
433.265	940.12
433.641	932.43
434.016	927.46
434.392	950.51
434.767	963.84
435.143	944.64
435.518	996.16
435.894	997.29
436.269	1018.76
436.644	1025.09
437.02	1021.47
437.395	1025.76
437.77	1016.05
438.145	1045.42
438.52	1016.95
438.895	1040.9
439.271	1087.01
439.646	1065.76
440.021	1089.04
440.395	1085.65
440.77	1087.68
441.145	1096.72
441.52	1111.64
441.895	1117.06
442.27	1084.75
442.645	1131.52
443.019	1128.13
443.394	1131.07
443.769	1146.44
444.143	1158.19
444.518	1167.23
444.892	1163.61
445.267	1181.47
445.641	1195.03
446.016	1185.31
446.39	1215.59
446.764	1235.7
447.139	1210.17
447.513	1211.97
447.887	1201.58
448.262	1224.85
448.636	1236.38
449.01	1259.66
449.384	1258.98
449.758	1258.3
450.132	1284.29
450.506	1320.22
450.88	1290.16
451.254	1312.08
451.628	1321.58
452.002	1333.1
452.376	1348.24
452.75	1353.44
453.123	1362.93
453.497	1382.59
453.871	1364.51
454.244	1424.85
454.618	1405.64
454.992	1410.84
455.365	1414
455.739	1468.69
456.112	1468.01
456.486	1496.49
456.859	1519.31
457.232	1547.11
457.606	1551.63
457.979	1543.49
458.352	1614.45
458.725	1593.21
459.099	1638.4
459.472	1619.42
459.845	1645.86
460.218	1671.17
460.591	1671.17
460.964	1672.75
461.337	1710.04
461.71	1712.3
462.083	1755.01
462.456	1764.28
462.829	1785.97
463.201	1806.53
463.574	1809.92
463.947	1870.71
464.32	1881.11
464.692	1886.08
465.065	1899.41
465.438	1900.77
465.81	1970.82
466.183	1966.08
466.555	2034.55
466.928	2022.35
467.3	2025.06
467.672	2016.92
468.045	2109.35
468.417	2113.87
468.789	2139.63
469.161	2142.8
469.534	2185.51
469.906	2222.12
470.278	2243.36
470.65	2302.57
471.022	2330.59
471.394	2376.24
471.766	2374.88
472.138	2424.37
472.51	2440.42
472.882	2487.19
473.253	2491.26
473.625	2569
473.997	2580.3
474.369	2620.07
474.74	2620.75
475.112	2680.86
475.484	2748.43
475.855	2791.59
476.227	2809.45
476.598	2868.65
476.97	2900.29
477.341	2996.33
477.713	3030.46
478.084	3031.81
478.455	3155.2
478.827	3142.77
479.198	3236.33
479.569	3220.06
479.94	3322.2
480.311	3397
480.682	3422.09
481.053	3497.34
481.424	3541.4
481.795	3627.96
482.166	3638.58
482.537	3714.96
482.908	3770.78
483.279	3838.12
483.65	3905.69
484.021	3959.92
484.391	3979.58
484.762	4101.39
485.133	4065.91
485.503	4178
485.874	4253.25
486.244	4260.03
486.615	4333.47
486.985	4442.85
487.356	4510.64
487.726	4606.46
488.097	4714.25
488.467	4673.35
488.837	4752.22
489.207	4863.18
489.578	4916.51
489.948	4973.91
490.318	5086.9
490.688	5088.48
491.058	5146.79
491.428	5305.65
491.798	5303.62
492.168	5424.97
492.538	5464.97
492.908	5535.48
493.278	5599.43
493.648	5622.25
494.017	5751.97
494.387	5747.22
494.757	5851.4
495.126	5905.41
495.496	5935.24
495.866	5984.73
496.235	6033.32
496.605	6101.79
496.974	6199.64
497.344	6247.1
497.713	6331.39
498.082	6365.96
498.452	6383.82
498.821	6479.86
499.19	6495.22
499.559	6629.68
499.928	6665.39
500.298	6683.69
500.667	6811.15
501.036	6832.62
501.405	6885.04
501.774	6994.87
502.143	7021.54
502.512	7139.95
502.88	7177.92
503.249	7171.82
503.618	7254.3
503.987	7287.75
504.356	7336.11
504.724	7418.59
505.093	7445.26
505.462	7518.7
505.83	7641.64
506.199	7679.6
506.567	7775.64
506.936	7817.22
507.304	7962.98
507.672	8006.37
508.041	8053.6
508.409	8184.9
508.777	8223.54
509.145	8332.69
509.514	8313.48
509.882	8421.5
510.25	8450.65
510.618	8564.55
510.986	8579.01
511.354	8760.93
511.722	8831.21
512.09	8872.34
512.458	8919.57
512.826	8991.88
513.193	9051.09
513.561	9151.2
513.929	9302.38
514.297	9339.9
514.664	9494.92
515.032	9526.11
515.4	9600.91
515.767	9621.02
516.135	9778.08
516.502	9751.86
516.869	9912.54
517.237	10001.57
517.604	9977.17
517.972	10235.92
518.339	10256.26
518.706	10276.37
519.073	10338.29
519.44	10524.05
519.808	10627.77
520.175	10668.9
520.542	10845.17
520.909	10938.05
521.276	11028.89
521.643	11118.83
522.009	11245.61
522.376	11322.89
522.743	11447.41
523.11	11627.52
523.477	11729.89
523.843	11787.51
524.21	11907.51
524.577	12059.6
524.943	12198.35
525.31	12242.42
525.676	12380.27
526.043	12530.77
526.409	12599.02
526.776	12723.54
527.142	12825
527.508	12918.56
527.874	13101.15
528.241	13161.72
528.607	13304.09
528.973	13408.94
529.339	13406.23
529.705	13684.64
530.071	13714.47
530.437	13790.4
530.803	13938.87
531.169	14064.07
531.535	14127.11
531.901	14184.06
532.267	14317.39
532.632	14438.07
532.998	14529.14
533.364	14672.41
533.73	14775.68
534.095	14939.75
534.461	15002.35
534.826	15091.61
535.192	15187.65
535.557	15374.31
535.923	15431.03
536.288	15577.25
536.653	15635.1
537.019	15663.12
537.384	15807.75
537.749	15923
538.114	16071.7
538.479	16083
538.845	16236.89
539.21	16278.47
539.575	16399.37
539.94	16419.94
540.305	16618.35
540.67	16684.11
541.034	16793.71
541.399	16877.78
541.764	16989.64
542.129	17036.42
542.494	17230.08
542.858	17403.19
543.223	17473.92
543.587	17654.03
543.952	17646.8
544.316	17768.37
544.681	17909.84
545.045	18070.51
545.41	18162.49
545.774	18298.53
546.138	18295.37
546.503	18505.53
546.867	18562.7
547.231	18817.61
547.595	18851.28
547.959	19029.36
548.324	19163.14
548.688	19268.45
549.052	19489.01
549.416	19637.7
549.779	19607.42
550.143	19736.68
550.507	20001.31
550.871	20245.6
551.235	20208.54
551.599	20505.48
551.962	20610.79
552.326	20805.81
552.689	21021.62
553.053	20990.66
553.417	21171.67
553.78	21493.47
554.143	21528.5
554.507	21754.71
554.87	21977.76
555.234	22276.96
555.597	22274.47
555.96	22471.75
556.323	22752.88
556.686	22911.74
557.05	23159.87
557.413	23216.37
557.776	23343.37
558.139	23721.21
558.502	23945.16
558.865	24007.76
559.228	24372.95
559.59	24567.52
559.953	24808.64
560.316	25232.36
560.679	25314.39
561.041	25739.92
561.404	25923.41
561.767	26261.26
562.129	26406.34
562.492	26760.68
562.854	26773.11
563.217	27145.3
563.579	27473.88
563.941	27745.51
564.304	27998.16
564.666	28263.92
565.028	28423.69
565.39	28756.79
565.753	28947.29
566.115	29294.85
566.477	29644.45
566.839	29903.65
567.201	30328.5
567.563	30554.93
567.925	30946.79
568.287	31276.95
568.648	31381.8
569.01	31752.87
569.372	32075.8
569.734	32237.6
570.095	32796.91
570.457	32960.07
570.819	33308.98
571.18	33507.17
571.542	33854.28
571.903	34120.71
572.265	34454.04
572.626	34769.96
572.987	35037.3
573.349	35149.84
573.71	35723.16
574.071	35999.53
574.432	36228
574.794	36591.38
575.155	36778.5
575.516	36916.12
575.877	37498.93
576.238	37645.14
576.599	37802.42
576.96	38224.11
577.32	38173.94
577.681	38716.75
578.042	39018.89
578.403	39238.77
578.763	39420.91
579.124	39724.18
579.485	40021.12
579.845	40289.82
580.206	40361.23
580.566	40815.9
580.927	40848.45
581.287	41273.97
581.648	41311.71
582.008	41829.21
582.368	41763.9
582.728	42089.09
583.089	42245.25
583.449	42452.25
583.809	42574.5
584.169	42900.14
584.529	42954.61
584.889	43415.38
585.249	43347.36
585.609	43461.26
585.969	43842.49
586.329	43803.4
586.688	44168.58
587.048	44133.11
587.408	44235.48
587.768	44479.76
588.127	44623.04
588.487	44765.86
588.846	45331.49
589.206	45144.6
589.565	45392.51
589.925	45691.26
590.284	45641.54
590.643	45832.72
591.003	46032.26
591.362	46273.39
591.721	46360.17
592.08	46516.55
592.44	46784.33
592.799	46972.8
593.158	47180.71
593.517	47246.02
593.876	47387.48
594.235	47386.58
594.593	47674.93
594.952	47753.12
595.311	47888.71
595.67	47953.57
596.029	48312.2
596.387	48433.56
596.746	48599.43
597.104	48609.6
597.463	48625.64
597.822	48951.28
598.18	49024.28
598.538	49082.81
598.897	49362.35
599.255	49116.7
599.613	49837.59
599.972	49680.98
600.33	50026.74
600.688	49825.16
601.046	50187.64
601.404	50307.86
601.762	50381.53
602.12	50694.74
602.478	50680.96
602.836	50792.59
603.194	50856.77
603.552	51021.96
603.91	51075.07
604.268	51290.88
604.625	51240.49
604.983	51488.62
605.341	51449.75
605.698	51771.32
606.056	51971.09
606.413	51910.08
606.771	52207.47
607.128	52174.93
607.485	52174.25
607.843	52393.45
608.2	52653.56
608.557	52833.44
608.914	52768.13
609.272	53027.56
609.629	53150.04
609.986	53277.05
610.343	53118.63
610.7	53507.77
611.057	53416.48
611.414	53636.58
611.771	53745.28
612.127	53965.61
612.484	53984.15
612.841	54108.21
613.198	54125.16
613.554	54242.22
613.911	54477.24
614.267	54548.65
614.624	54512.27
614.98	54643.34
615.337	54854.18
615.693	54945.93
616.05	54959.71
616.406	55166.94
616.762	55118.35
617.118	55228.41
617.475	55269.08
617.831	55472.24
618.187	55483.77
618.543	55600.83
618.899	55733.7
619.255	55765.12
619.611	55825.45
619.967	55944.55
620.323	56121.26
620.678	56111.77
621.034	56026.35
621.39	56152
621.746	56189.29
622.101	56530.75
622.457	56293.24
622.812	56488.49
623.168	56657.3
623.523	56706.33
623.879	56772.55
624.234	56695.71
624.589	56833.79
624.945	56944.07
625.3	56931.64
625.655	56936.16
626.01	57094.35
626.365	57201.01
626.72	57158.75
627.075	57049.83
627.43	57220.44
627.785	57245.08
628.14	57295.47
628.495	57483.71
628.85	57436.03
629.205	57309.48
629.559	57609.81
629.914	57507.44
630.269	57546.09
630.623	57568.91
630.978	57600.1
631.332	57701.79
631.687	57819.52
632.041	57713.54
632.396	57845.06
632.75	57756.25
633.104	57914.66
633.459	57855.68
633.813	57839.86
634.167	57937.26
634.521	57884.61
634.875	57969.13
635.229	58010.48
635.583	57863.14
635.937	57961.89
636.291	57936.13
636.645	58064.49
636.999	57999.63
637.352	58111.27
637.706	57972.97
638.06	58125.05
638.413	58088.44
638.767	58104.04
639.121	58186.07
639.474	58106.97
639.828	58142.91
640.181	58239.17
640.534	58254.99
640.888	58257.71
641.241	58163.02
641.594	58347.65
641.947	58392.39
642.301	58319.17
642.654	58381.09
643.007	58388.32
643.36	58385.39
643.713	58386.06
644.066	58503.35
644.419	58446.4
644.771	58441.43
645.124	58370.02
645.477	58279.63
645.83	58121.44
646.182	57948.34
646.535	57842.35
646.888	57916.02
647.24	57776.36
647.593	58030.82
647.945	57920.31
648.298	57866.98
648.65	57766.42
649.002	57830.37
649.355	57962.12
649.707	57966.64
650.059	58239.85
650.411	58531.6
650.763	58633.74
651.115	58898.37
651.467	58876.45
651.819	58818.37
652.171	58824.92
652.523	58786.73
652.875	58894.07
653.227	58798.71
653.578	58973.62
653.93	58875.09
654.282	58907.86
654.633	58822.89
654.985	58922.77
655.337	58905.82
655.688	58974.3
656.039	59112.6
656.391	58929.78
656.742	59016.56
657.094	59048.42
657.445	59160.28
657.796	59111.02
658.147	59127.74
658.498	59106.95
658.849	59193.73
659.2	59178.81
659.551	59083.67
659.902	59270.79
660.253	59254.52
660.604	59261.75
660.955	59149.43
661.306	59320.5
661.656	59261.52
662.007	59365.7
662.358	59365.25
662.708	59419.03
663.059	59446.6
663.409	59237.11
663.76	59459.03
664.11	59464.45
664.461	59486.83
664.811	59541.29
665.161	59447.28
665.511	59463.55
665.862	59558.69
666.212	59727.05
666.562	59740.6
666.912	59694.05
667.262	59711.9
667.612	59753.49
667.962	59829.87
668.312	59705.8
668.662	59939.7
669.011	59980.15
669.361	59895.85
669.711	59915.29
670.06	59984.21
670.41	59946.47
670.76	59953.03
671.109	60019.24
671.459	59993.03
671.808	59901.28
672.157	60093.36
672.507	59900.6
672.856	59988.28
673.205	60087.04
673.554	60160.25
673.904	60108.96
674.253	60246.81
674.602	60141.27
674.951	59825.8
675.3	59727.27
675.649	60129.97
675.998	60180.59
676.346	60237.77
676.695	60284.54
677.044	60122.74
677.393	60222.85
677.741	60214.72
678.09	60185.34
678.438	60179.69
678.787	60292.23
679.135	60308.72
679.484	60102.4
679.832	60236.41
680.181	60113.25
680.529	60287.71
680.877	60237.31
681.225	60235.73
681.573	60353.02
681.922	60157.99
682.27	60210.65
682.618	60293.13
682.966	60197.32
683.314	60274.38
683.661	60202.51
684.009	60167.49
684.357	60165
684.705	60226.92
685.053	60282.51
685.4	60159.35
685.748	60100.59
686.095	60129.07
686.443	60022.4
686.79	60069.18
687.138	60155.51
687.485	60159.35
687.832	60039.58
688.18	60059.24
688.527	59981.95
688.874	59972.91
689.221	59872.8
689.568	59873.71
689.915	59913.48
690.262	59943.76
690.609	59869.87
690.956	59808.85
691.303	59778.8
691.65	59652.02
691.997	59730.66
692.344	59629.42
692.69	59665.8
693.037	59725.46
693.383	59541.51
693.73	59686.14
694.077	59488.86
694.423	59485.02
694.769	59438.47
695.116	59393.04
695.462	59371.12
695.808	59352.82
696.155	59493.15
696.501	59305.59
696.847	59258.13
697.193	59226.04
697.539	59281.63
697.885	59153.05
698.231	59007.74
698.577	59043
698.923	59095.65
699.269	58969.1
699.614	58890.01
699.96	58853.62
700.306	58940.85
700.651	58826.5
700.997	58739.27
701.342	58822.66
701.688	58754.19
702.033	58702.44
702.379	58754.42
702.724	58759.39
703.069	58728.65
703.415	58422.45
703.76	58536.34
704.105	58502.67
704.45	58558.94
704.795	58354.43
705.14	58353.52
705.485	58401.66
705.83	58121.66
706.175	58272.62
706.52	58170.93
706.865	58189.23
707.209	58201.44
707.554	58114.66
707.899	58167.54
708.243	58115.56
708.588	58102.68
708.932	57889.58
709.277	57889.35
709.621	57967.32
709.966	57789.47
710.31	57951.5
710.654	57645.74
710.998	57732.75
711.342	57749.47
711.687	57755.12
712.031	57695.46
712.375	57542.02
712.719	57557.61
713.063	57599.64
713.407	57713.09
713.75	57533.66
714.094	57502.25
714.438	57455.69
714.782	57537.95
715.125	57403.26
715.469	57565.29
715.812	57414.79
716.156	57321.46
716.499	57326.2
716.843	57350.38
717.186	57217.51
717.53	57387.9
717.873	57378.41
718.216	57325.53
718.559	57254.12
718.902	57125.53
719.246	57225.42
719.589	57099.54
719.932	56990.39
720.275	56986.78
720.617	57037.85
720.96	56988.36
721.303	56963.28
721.646	56905.2
721.989	56878.98
722.331	56954.01
722.674	56945.2
723.016	56958.98
723.359	56905.65
723.701	56929.83
724.044	56879.21
724.386	56808.93
724.729	56885.54
725.071	56764.19
725.413	56805.09
725.755	56752.21
726.097	56688.48
726.439	56628.14
726.782	56631.76
727.124	56772.09
727.465	56598.09
727.807	56631.99
728.149	56579.78
728.491	56551.31
728.833	56591.76
729.175	56474.48
729.516	56494.59
729.858	56468.15
730.199	56610.07
730.541	56554.7
730.882	56471.99
731.224	56532.55
731.565	56342.5
731.906	56420.47
732.248	56463.4
732.589	56364.65
732.93	56192.45
733.271	56217.53
733.612	56191.55
733.953	56271.54
734.294	56195.16
734.635	56152.9
734.976	56216.4
735.317	56134.6
735.658	56165.78
735.999	56161.72
736.339	56065.67
736.68	56121.72
737.021	55999.01
737.361	56031.55
737.702	56097.31
738.042	56021.38
738.383	55956.98
738.723	56078.1
739.063	55896.86
739.404	56061.61
739.744	55935.96
740.084	55930.08
740.424	55921.72
740.764	55896.19
741.104	55998.78
741.444	55837.43
741.784	55773.93
742.124	55885.11
742.464	55855.96
742.804	55889.41
743.143	55610.77
743.483	55640.83
743.823	55498.23
744.162	55657.77
744.502	55631.79
744.841	55596.76
745.181	55683.31
745.52	55601.73
745.86	55728.96
746.199	55663.65
746.538	55703.42
746.877	55676.76
747.216	55724.66
747.556	55550.21
747.895	55617.1
748.234	55474.95
748.573	55407.61
748.911	55360.83
749.25	55376.2
749.589	55196.77
749.928	55272.93
750.267	55324.22
750.605	55173.94
750.944	55215.07
751.283	55188.63
751.621	55149.99
751.96	55015.3
752.298	55025.7
752.636	55155.19
752.975	54977.11
753.313	54943.67
753.651	55045.81
753.989	54871.13
754.327	54873.16
754.666	54735.54
755.004	54724.24
755.342	54763.56
755.679	54698.7
756.017	54549.1
756.355	54609.44
756.693	54536.45
757.031	54662.09
757.368	54354.76
757.706	54417.35
758.044	54333.97
758.381	54311.14
758.719	54275.44
759.056	54241.54
759.394	54158.38
759.731	54064.6
760.068	54046.06
760.405	53859.4
760.743	53730.59
761.08	53895.79
761.417	53566.98
761.754	53634.1
762.091	53641.1
762.428	53575.34
762.765	53449.47
763.102	53417.38
763.438	53395.69
763.775	53116.6
764.112	53248.12
764.449	53149.14
764.785	52997.05
765.122	52798.64
765.458	52824.63
765.795	52770.62
766.131	52764.06
766.467	52678.42
766.804	52609.49
767.14	52307.35
767.476	52441.14
767.812	52490.85
768.148	52479.78
768.485	52269.39
768.821	52013.8
769.157	52063.74
769.492	51969.28
769.828	52026.68
770.164	51802.06
770.5	51655.39
770.836	51579.24
771.171	51416.98
771.507	51384.44
771.842	51170.21
772.178	51238.91
772.513	51232.13
772.849	51104
773.184	50921.4
773.519	51023.77
773.855	50957.33
774.19	50872.36
774.525	50739.49
774.86	50661.07
775.195	50446.16
775.53	50363.9
775.865	50244.36
776.2	49976.57
776.535	50036.68
776.87	50053.63
777.205	49810.7
777.539	49617.48
777.874	49750.13
778.209	49357.15
778.543	49353.53
778.878	49140.43
779.212	49085.07
779.547	48944.05
779.881	49085.97
780.215	48722.81
780.55	48921.23
780.884	48595.13
781.218	48694.34
781.552	48618.86
781.886	48422.48
782.22	48304.75
782.554	48164.86
782.888	47891.88
783.222	47729.62
783.556	47622.5
783.889	47605.78
784.223	47269.97
784.557	47298.9
784.89	47416.18
785.224	47193.36
785.557	46965.57
785.891	47019.13
786.224	46799.93
786.558	46801.28
786.891	46422.08
787.224	46333.27
787.557	46258.25
787.891	46122.66
788.224	46306.83
788.557	46133.73
788.89	46008.54
789.223	46090.34
789.556	45703.46
789.888	45644.03
790.221	45476.12
790.554	45304.15
790.887	45353.64
791.219	45159.29
791.552	44977.6
791.884	44969.92
792.217	44894.67
792.549	44607.22
792.882	44321.12
793.214	44285.87
793.546	44379.88
793.879	44209.04
794.211	43970.17
794.543	44030.51
794.875	43941.02
795.207	43963.17
795.539	43630.97
795.871	43608.37
796.203	43443.86
796.535	43434.14
796.867	43220.36
797.198	43221.49
797.53	43051.33
797.862	42789.41
798.193	42911.89
798.525	42809.98
798.856	42841.84
799.188	42480.49
799.519	42373.6
799.85	42174.74
800.182	42226.71
800.513	42210.67
800.844	41856.33
801.175	41864.46
801.506	41905.82
801.837	41735.2
802.168	41411.14
802.499	41449.79
802.83	41299.96
803.161	41198.72
803.491	41214.54
803.822	41197.14
804.153	41038.95
804.483	40852.97
804.814	40652.29
805.145	40804.38
805.475	40930.25
805.805	40668.11
806.136	40557.38
806.466	40569.36
806.796	40439.19
807.126	40368.46
807.457	40268.35
807.787	40220.44
808.117	40061.35
808.447	39867.45
808.777	40127.79
809.107	39897.06
809.436	39860
809.766	39573.9
810.096	39526.9
810.426	39313.12
810.755	39487.8
811.085	39327.81
811.414	39250.97
811.744	38794.26
812.073	38929.17
812.403	39025.22
812.732	38609.41
813.061	38714.26
813.39	38557.66
813.719	38621.84
814.049	38732.12
814.378	38613.93
814.707	38398.34
815.036	38294.39
815.365	38236.76
815.693	37918.35
816.022	38169.65
816.351	37943.44
816.68	37725.59
817.008	37948.41
817.337	37630.45
817.665	37662.99
817.994	37777.11
818.322	37556.1
818.651	37317.01
818.979	37226.62
819.307	37494.86
819.636	37381.64
819.964	37096.23
820.292	37213.97
820.62	37166.51
820.948	37039.51
821.276	37072.5
821.604	36987.53
821.932	37086.06
822.259	37073.4
822.587	37143.91
822.915	37079.05
823.243	37312.27
823.57	37271.59
823.898	37284.92
824.225	37007.42
824.553	37148.43
824.88	37193.63
825.207	37337.13
825.535	37295.32
825.862	37429.1
826.189	37351.59
826.516	37509.55
826.843	37493.51
827.17	37460.29
827.497	37407.86
827.824	37517.46
828.151	37476.11
828.478	37474.07
828.805	37770.56
829.131	37599.27
829.458	37508.87
829.785	37245.83
830.111	37227.52
830.438	37429.1
830.764	37487.86
831.09	37371.7
831.417	37267.75
831.743	37420.97
832.069	37314.08
832.395	37244.25
832.722	37338.48
833.048	37233.17
833.374	37488.53
833.7	37212.38
834.026	37221.65
834.351	37411.02
834.677	37197.47
835.003	37426.61
835.329	37238.6
835.654	37263.23
835.98	37067.3
836.306	37161.54
836.631	36943.46
836.956	36977.81
837.282	37021.43
837.607	36847.42
837.932	36923.8
838.258	37000.41
838.583	37097.13
838.908	36758.16
839.233	36937.36
839.558	36793.86
839.883	36717.25
840.208	36730.59
840.533	36618.27
840.858	36684.04
841.182	36615.11
841.507	36766.52
841.832	36475.68
842.156	36465.06
842.481	36349.35
842.805	36258.96
843.13	36191.84
843.454	36075.46
843.778	35966.09
844.103	35944.17
844.427	35979.42
844.751	35883.83
845.075	35755.47
845.399	35673.67
845.723	35496.04
846.047	35698.52
846.371	35457.18
846.695	35505.76
847.019	35116.39
847.343	34767.93
847.666	34711.88
847.99	34640.47
848.313	34638.67
848.637	34440.93
848.96	34416.52
849.284	34399.35
849.607	34171.11
849.931	34086.82
850.254	33840.49
850.577	33579.03
850.9	33449.32
851.223	33697
851.546	33200.96
851.869	33158.7
852.192	33312.6
852.515	33007.07
852.838	33029.89
853.161	32982.44
853.483	32748.77
853.806	32641.88
854.129	32609.11
854.451	32526.86
854.774	32374.32
855.096	32293.19
855.419	32236.69
855.741	32297.03
856.063	31983.82
856.385	31985.63
856.708	31811.85
857.03	31746.54
857.352	31849.13
857.674	31766.2
857.996	31562.59
858.318	31475.36
858.64	31478.07
858.961	31383.38
859.283	31271.52
859.605	31078.76
859.926	31353.1
860.248	31100.68
860.57	30932.55
860.891	31121.02
861.212	30910.63
861.534	30938.65
861.855	30864.08
862.176	30932.77
862.498	30780.01
862.819	30875.37
863.14	30677.19
863.461	30445.78
863.782	30373.01
864.103	30478.1
864.424	30365.56
864.745	30562.61
865.065	30351.09
865.386	30338.89
865.707	30232.91
866.027	30128.05
866.348	30172.57
866.668	30161.04
866.989	30202.85
867.309	29872.01
867.63	29962.18
867.95	29992.01
868.27	29880.82
868.59	29883.08
868.91	29835.63
869.23	29906.36
869.55	29712.92
869.87	29883.76
870.19	29692.35
870.51	29713.6
870.83	29769.64
871.15	29640.83
871.469	29583.43
871.789	29730.77
872.109	29591.34
872.428	29371.23
872.748	29480.84
873.067	29324.91
873.386	29425.47
873.706	29348.64
874.025	29435.64
874.344	29257.79
874.663	29301.63
874.982	29092.6
875.301	29152.71
875.62	29045.37
875.939	29091.47
876.258	29110.68
876.577	28924.47
876.896	29041.07
877.214	28953.84
877.533	29066.83
877.852	29069.55
878.17	28926.5
878.489	28943.67
878.807	28779.16
879.125	28824.58
879.444	28834.07
879.762	28680.63
880.08	28670.91
880.398	28437.02
880.716	28580.97
881.034	28451.48
881.352	28508.88
881.67	28225.05
881.988	28444.7
882.306	28455.33
882.624	28411.71
882.941	28320.19
883.259	28141.44
883.577	28058.5
883.894	28080.65
884.212	28055.56
884.529	27975.56
884.846	28031.61
885.164	27846.08
885.481	27790.03
885.798	27865.51
886.115	27680.2
886.432	27659.87
886.75	27571.05
887.067	27656.48
887.383	27541.9
887.7	27482.7
888.017	27248.13
888.334	27390.27
888.651	27230.5
888.967	27369.48
889.284	27181.69
889.6	26969.49
889.917	26853.11
890.233	26934.46
890.55	26714.81
890.866	26803.62
891.182	26768.82
891.498	26569.27
891.815	26509.16
892.131	26525.88
892.447	26490.63
892.763	26368.6
893.079	26346.23
893.395	26226.01
893.71	26186.91
894.026	26238.43
894.342	26013.58
894.657	25815.39
894.973	25976.75
895.289	25784.21
895.604	25924.09
895.92	25556.87
896.235	25623.31
896.55	25734.04
896.865	25618.79
897.181	25461.73
897.496	25485.46
897.811	25325.01
898.126	25248.18
898.441	25195.98
898.756	25160.95
899.071	25075.08
899.386	25149.88
899.7	24799.15
900.015	24768.64
900.33	24544.92
900.644	24614.75
900.959	24550.34
901.273	24305.15
901.588	24347.64
901.902	24193.06
902.216	24286.85
902.531	24100.64
902.845	24042.56
903.159	24011.83
903.473	23725.51
903.787	23692.74
904.101	23711.04
904.415	23796.24
904.729	23592.4
905.042	23563.25
905.356	23468.79
905.67	23426.53
905.984	23378.17
906.297	23299.53
906.611	23125.75
906.924	23014.79
907.237	22943.61
907.551	22923.04
907.864	22850.73
908.177	22771.41
908.491	22759.88
908.804	22532.77
909.117	22525.54
909.43	22436.5
909.743	22349.5
910.056	22252.55
910.368	22186.79
910.681	22091.88
910.994	22037.87
911.307	21896.4
911.619	21765.56
911.932	21812.11
912.244	21613.47
912.557	21625.45
912.869	21451.67
913.181	21376.19
913.494	21293.48
913.806	21034.73
914.118	21066.14
914.43	20974.39
914.742	21024.33
915.054	21026.59
915.366	20878.35
915.678	20741.63
915.99	20678.13
916.302	20421.19
916.613	20510.22
916.925	20454.86
917.236	20403.56
917.548	20234.3
917.859	20378.93
918.171	20270.68
918.482	20128.99
918.794	19995.89
919.105	20061.2
919.416	19899.84
919.727	19766.74
920.038	19703.69
920.349	19590.02
920.66	19566.52
920.971	19601.09
921.282	19531.49
921.593	19285.62
921.903	19068.91
922.214	19108.68
922.525	19103.71
922.835	19007.66
923.146	18875.01
923.456	18872.07
923.767	18730.16
924.077	18802.47
924.387	18677.5
924.697	18654.68
925.008	18638.86
925.318	18465.76
925.628	18417.17
925.938	18310.06
926.248	18085.65
926.558	18073.45
926.867	18006.11
927.177	17957.97
927.487	17883.17
927.796	17719.11
928.106	17756.85
928.416	17672.78
928.725	17635.27
929.034	17486.57
929.344	17595.05
929.653	17501.49
929.962	17323.19
930.271	17276.86
930.581	17202.97
930.89	17216.3
931.199	17038.68
931.508	16989.19
931.817	17042.97
932.125	16876.87
932.434	16764.79
932.743	16626.03
933.051	16749.64
933.36	16699.7
933.669	16506.26
933.977	16318.7
934.286	16436.43
934.594	16391.24
934.902	16292.71
935.21	16207.96
935.519	16217.91
935.827	16210
936.135	16068.08
936.443	15982.66
936.751	15902.43
937.059	15924.36
937.367	15670.58
937.674	15832.38
937.982	15646.4
938.29	15539.28
938.597	15467.19
938.905	15362.11
939.213	15241.66
939.52	15241.21
939.827	15275.11
940.135	15064.72
940.442	15006.87
940.749	15071.27
941.056	15050.03
941.363	14941.1
941.67	14878.28
941.977	14863.37
942.284	14741.79
942.591	14630.83
942.898	14546.99
943.205	14465.64
943.511	14421.8
943.818	14378.63
944.125	14376.6
944.431	14292.31
944.738	14247.11
945.044	14186.77
945.35	14083.95
945.657	14009.38
945.963	14019.09
946.269	13921.7
946.575	14009.6
946.881	13828.82
947.187	13777.75
947.493	13752.66
947.799	13670.63
948.105	13617.75
948.41	13541.14
948.716	13489.62
949.022	13434.03
949.327	13466.79
949.633	13324.65
949.938	13320.58
950.244	13339.34
950.549	13206.01
950.854	13104.99
951.16	13045.56
951.465	12886.7
951.77	12942.74
952.075	12840.59
952.38	12901.16
952.685	12716.76
952.99	12592.47
953.294	12661.39
953.599	12565.8
953.904	12526.7
954.209	12460.27
954.513	12345.24
954.818	12303.21
955.122	12333.94
955.426	12215.75
955.731	12163.78
956.035	12075.64
956.339	12054.63
956.643	12145.02
956.948	12023.89
957.252	11979.83
957.556	11844.91
957.86	11768.08
958.163	11822.09
958.467	11737.35
958.771	11675.2
959.075	11611.7
959.378	11554.75
959.682	11572.38
959.985	11488.09
960.289	11397.92
960.592	11300.07
960.896	11389.33
961.199	11253.29
961.502	11310.47
961.805	11261.65
962.108	11121.09
962.411	11108.44
962.714	11051.94
963.017	11079.96
963.32	11064.14
963.623	10956.58
963.926	10878.39
964.228	10740.76
964.531	10773.76
964.833	10812.63
965.136	10616.47
965.438	10639.75
965.741	10520.43
966.043	10512.07
966.345	10385.29
966.648	10428.68
966.95	10351.17
967.252	10370.83
967.554	10292.19
967.856	10300.1
968.158	10192.53
968.46	10083.83
968.761	10148.01
969.063	10045.64
969.365	10045.19
969.666	10028.92
969.968	9854.46
970.269	9835.48
970.571	9753.22
970.872	9832.09
971.174	9702.37
971.475	9699.66
971.776	9639.77
972.077	9617.85
972.378	9607.91
972.679	9557.52
972.98	9588.25
973.281	9497.41
973.582	9420.12
973.883	9366.34
974.183	9352.32
974.484	9322.04
974.785	9287.02
975.085	9275.94
975.386	9205.21
975.686	9160.24
975.986	9125.66
976.287	9074.59
976.587	8952.79
976.887	8976.74
977.187	8990.75
977.487	8973.35
977.787	8798.89
978.087	8843.19
978.387	8850.87
978.687	8811.32
978.987	8694.71
979.286	8673.92
979.586	8567.49
979.885	8537.66
980.185	8570.42
980.484	8497.21
980.784	8500.82
981.083	8416.3
981.382	8414.72
981.682	8417.21
981.981	8400.26
982.28	8284.56
982.579	8201.39
982.878	8247.72
983.177	8150.55
983.475	8256.53
983.774	8093.37
984.073	8046.82
984.372	8003.43
984.67	8014.73
984.969	7968.86
985.267	7952.36
985.566	7864.68
985.864	7838.47
986.162	7885.47
986.461	7774.74
986.759	7722.09
987.057	7670.79
987.355	7607.06
987.653	7632.14
987.951	7552.82
988.249	7558.02
988.547	7503.56
988.844	7470.79
989.142	7482.32
989.44	7356.22
989.737	7340.85
990.035	7384.01
990.332	7229.22
990.63	7229.67
990.927	7186.96
991.224	7166.17
991.521	7160.52
991.819	7119.16
992.116	7086.17
992.413	7105.83
992.71	7065.38
993.006	7005.27
993.303	6969.79
993.6	6893.18
993.897	6957.81
994.193	6878.72
994.49	6834.42
994.787	6823.8
995.083	6713.07
995.379	6732.96
995.676	6694.54
995.972	6651.38
996.268	6616.8
996.565	6531.38
996.861	6541.1
997.157	6487.32
997.453	6451.16
997.749	6422.01
998.044	6379.75
998.34	6316.02
998.636	6305.63
998.932	6367.54
999.227	6305.63
999.523	6256.81
999.818	6238.28
1000.114	6185.85
1000.409	6070.6
1000.704	6123.26
1001	6080.09
1001.295	6044.16
1001.59	6042.36
1001.885	5989.93
1002.18	5932.75
1002.475	5936.6
1002.77	5834.68
1003.065	5828.35
1003.359	5791.29
1003.654	5776.15
1003.949	5704.74
1004.243	5735.92
1004.538	5671.52
1004.832	5683.27
1005.127	5626.55
1005.421	5631.74
1005.715	5587.9
1006.009	5516.04
1006.304	5424.74
1006.598	5442.82
1006.892	5413.9
1007.186	5336.39
1007.48	5375.93
1007.773	5327.8
1008.067	5246.22
1008.361	5185.43
1008.655	5180.01
1008.948	5161.7
1009.242	5102.72
1009.535	5088.93
1009.829	5076.96
1010.122	5057.07
1010.415	4971.2
1010.708	4994.7
1011.001	4929.62
1011.295	4915.61
1011.588	4888.26
1011.881	4839
1012.173	4850.75
1012.466	4792.67
1012.759	4754.48
1013.052	4697.98
1013.344	4681.26
1013.637	4658.89
1013.93	4611.21
1014.222	4592
1014.514	4621.83
1014.807	4533.24
1015.099	4488.72
1015.391	4500.47
1015.683	4451.21
1015.976	4448.27
1016.268	4362.4
1016.56	4393.36
1016.851	4344.32
1017.143	4307.49
1017.435	4274.94
1017.727	4228.39
1018.018	4223.65
1018.31	4201.05
1018.602	4184.33
1018.893	4137.77
1019.185	4060.26
1019.476	4073.82
1019.767	4012.13
1020.058	3985.46
1020.35	3944.56
1020.641	3932.58
1020.932	3900.72
1021.223	3938
1021.514	3853.49
1021.804	3828.63
1022.095	3787.5
1022.386	3795.63
1022.677	3756.77
1022.967	3714.96
1023.258	3676.09
1023.548	3665.47
1023.839	3641.74
1024.129	3621.18
1024.419	3579.14
1024.709	3555.19
1025	3512.7
1025.29	3530.56
1025.58	3472.48
1025.87	3453.5
1026.16	3393.61
1026.449	3396.55
1026.739	3384.12
1027.029	3385.48
1027.319	3307.51
1027.608	3321.97
1027.898	3348.41
1028.187	3274.97
1028.477	3209.21
1028.766	3208.31
1029.055	3179.38
1029.344	3157.46
1029.634	3154.75
1029.923	3103
1030.212	3084.01
1030.501	3036.33
1030.79	3055.09
1031.078	3016.9
1031.367	2981.42
1031.656	2973.96
1031.945	2969.67
1032.233	2914.98
1032.522	2918.14
1032.81	2853.51
1033.099	2875.88
1033.387	2826.85
1033.675	2785.72
1033.963	2807.19
1034.251	2801.99
1034.54	2740.97
1034.828	2705.04
1035.116	2691.26
1035.403	2698.26
1035.691	2649
1035.979	2644.03
1036.267	2623.46
1036.554	2638.6
1036.842	2594.99
1037.129	2578.27
1037.417	2512.05
1037.704	2504.37
1037.992	2471.38
1038.279	2470.02
1038.566	2415.11
1038.853	2415.11
1039.14	2415.11
