Data from copper_heatsink_FLMS001491_006.txt Node
Date: Tue Feb 07 10:49:04 GMT 2017
User: dcchb
Spectrometer: FLMS00149
Trigger mode: 0
Integration Time (sec): 2.000000E-2
Scans to average: 10
Electric dark correction enabled: true
Nonlinearity correction enabled: false
Boxcar width: 0
XAxis mode: Wavelengths
Number of Pixels in Spectrum: 2048
>>>>>Begin Spectral Data<<<<<
341.393	-3.46
341.776	-3.46
342.16	-3.46
342.543	-63.8
342.927	-66.06
343.31	-69
343.693	-47.75
344.077	-51.59
344.46	-60.41
344.843	-48.2
345.226	-54.31
345.61	-30.13
345.993	-17.25
346.376	-5.04
346.759	5.13
347.142	31.12
347.525	35.18
347.908	59.59
348.291	82.41
348.674	70.66
349.057	99.59
349.44	119.47
349.823	127.84
350.206	154.05
350.588	250.54
350.971	241.28
351.354	265.91
351.737	275.4
352.119	271.56
352.502	305.68
352.884	324.21
353.267	303.42
353.65	333.25
354.032	317.89
354.414	337.1
354.797	344.1
355.179	363.99
355.562	384.33
355.944	367.15
356.326	366.93
356.709	374.61
357.091	373.25
357.473	398.56
357.855	388.39
358.238	389.52
358.62	364.67
359.002	392.01
359.384	400.6
359.766	380.94
360.148	399.69
360.53	375.29
360.912	383.87
361.294	381.61
361.676	366.93
362.057	394.27
362.439	362.63
362.821	370.09
363.203	388.39
363.584	375.29
363.966	368.28
364.348	373.93
364.729	360.15
365.111	357.43
365.493	389.07
365.874	368.51
366.256	377.32
366.637	370.77
367.019	359.92
367.4	371.22
367.781	356.53
368.163	370.32
368.544	360.37
368.925	390.2
369.306	369.19
369.688	388.85
370.069	387.26
370.45	361.73
370.831	379.35
371.212	350.88
371.593	360.82
371.974	372.12
372.355	385.23
372.736	380.71
373.117	396.76
373.498	410.54
373.879	368.73
374.26	391.78
374.641	365.34
375.021	386.36
375.402	373.48
375.783	390.43
376.163	388.62
376.544	416.87
376.925	394.72
377.305	377.32
377.686	422.07
378.066	391.11
378.447	399.92
378.827	401.27
379.208	400.14
379.588	399.92
379.968	386.13
380.349	411.9
380.729	395.63
381.109	410.09
381.489	434.27
381.87	430.43
382.25	408.96
382.63	430.88
383.01	429.97
383.39	444.89
383.77	422.97
384.15	430.2
384.53	432.23
384.91	445.79
385.29	434.72
385.67	437.66
386.049	460.93
386.429	435.85
386.809	449.86
387.189	466.58
387.568	452.57
387.948	459.35
388.328	439.69
388.707	467.94
389.087	469.52
389.466	461.16
389.846	469.97
390.225	456.64
390.605	467.26
390.984	479.46
391.363	492.35
391.743	474.04
392.122	484.89
392.501	522.4
392.881	506.81
393.26	492.57
393.639	513.14
394.018	503.19
394.397	502.06
394.776	532.34
395.155	514.49
395.534	518.33
395.913	511.78
396.292	496.87
396.671	522.85
397.05	519.01
397.429	540.03
397.808	544.55
398.186	541.84
398.565	528.73
398.944	529.18
399.323	536.64
399.701	536.64
400.08	549.75
400.458	553.36
400.837	533.7
401.215	547.71
401.594	574.15
401.972	567.6
402.351	551.1
402.729	581.38
403.107	577.54
403.486	575.06
403.864	585
404.242	595.62
404.62	578.22
404.999	571.44
405.377	580.93
405.755	597.43
406.133	615.28
406.511	610.08
406.889	649.63
407.267	625.68
407.645	611.44
408.023	623.64
408.401	634.94
408.779	644.21
409.156	655.28
409.534	640.36
409.912	643.75
410.29	665
410.667	667.48
411.045	682.17
411.422	666.35
411.8	669.52
412.178	688.05
412.555	705.22
412.933	726.01
413.31	706.58
413.687	703.19
414.065	726.69
414.442	736.41
414.819	719.46
415.197	761.49
415.574	743.64
415.951	744.09
416.328	742.06
416.705	766.01
417.082	765.56
417.46	765.33
417.837	771.21
418.214	784.32
418.591	787.25
418.967	789.29
419.344	773.47
419.721	794.71
420.098	804.43
420.475	818.66
420.852	790.19
421.228	801.49
421.605	824.99
421.982	825.22
422.358	817.99
422.735	828.16
423.111	850.3
423.488	833.58
423.864	858.89
424.241	878.1
424.617	891.43
424.994	893.47
425.37	900.24
425.746	891.21
426.123	884.43
426.499	891.66
426.875	914.71
427.251	944.76
427.627	917.19
428.003	937.76
428.379	971.66
428.756	935.72
429.132	983.63
429.507	983.86
429.883	988.15
430.259	990.64
430.635	990.64
431.011	1033.35
431.387	1038.55
431.763	1045.33
432.138	1034.7
432.514	1061.6
432.89	1065.89
433.265	1105.44
433.641	1084.87
434.016	1098.21
434.392	1129.62
434.767	1147.24
435.143	1128.26
435.518	1149.73
435.894	1136.17
436.269	1130.52
436.644	1160.12
437.02	1196.51
437.395	1174.59
437.77	1203.74
438.145	1199.67
438.52	1236.51
438.895	1186.11
439.271	1229.95
439.646	1252.55
440.021	1241.7
440.395	1247.58
440.77	1265.66
441.145	1293
441.52	1295.71
441.895	1273.57
442.27	1315.6
442.645	1295.71
443.019	1306.79
443.394	1288.03
443.769	1319.22
444.143	1310.18
444.518	1323.51
444.892	1363.74
445.267	1354.92
445.641	1370.29
446.016	1385.66
446.39	1388.14
446.764	1372.77
447.139	1378.2
447.513	1373.23
447.887	1416.84
448.262	1409.38
448.636	1403.96
449.01	1430.63
449.384	1443.96
449.758	1471.53
450.132	1465.2
450.506	1461.81
450.88	1497.97
451.254	1486.9
451.628	1475.37
452.002	1496.16
452.376	1542.04
452.75	1531.64
453.123	1531.19
453.497	1576.16
453.871	1588.14
454.244	1620.23
454.618	1627.01
454.992	1613.9
455.365	1634.69
455.739	1651.19
456.112	1698.87
456.486	1688.7
456.859	1678.76
457.232	1762.59
457.606	1770.73
457.979	1776.61
458.352	1769.83
458.725	1834.91
459.099	1823.61
459.472	1897.05
459.845	1860.45
460.218	1879.88
460.591	1934.57
460.964	1904.51
461.337	1938.86
461.71	1951.97
462.083	1963.04
462.456	1976.15
462.829	2007.11
463.201	2057.95
463.574	2057.05
463.947	2101.12
464.32	2117.61
464.692	2147.22
465.065	2122.13
465.438	2171.4
465.81	2194.67
466.183	2238.06
466.555	2273.99
466.928	2292.07
467.3	2294.33
467.672	2281
468.045	2348.79
468.417	2373.2
468.789	2363.94
469.161	2428.34
469.534	2459.98
469.906	2502.46
470.278	2526.42
470.65	2554.89
471.022	2581.33
471.394	2593.53
471.766	2634.21
472.138	2651.84
472.51	2693.87
472.882	2755.56
473.253	2750.59
473.625	2819.06
473.997	2893.19
474.369	2883.02
474.74	2936.58
475.112	2954.43
475.484	2978.83
475.855	3016.8
476.227	3093.18
476.598	3183.57
476.97	3149.68
477.341	3259.28
477.713	3323.91
478.084	3311.93
478.455	3401.65
478.827	3448.65
479.198	3524.81
479.569	3554.19
479.94	3596.67
480.311	3621.76
480.682	3704.92
481.053	3787.85
481.424	3846.16
481.795	3879.83
482.166	3950.11
482.537	3984.68
482.908	4026.72
483.279	4098.35
483.65	4156.88
484.021	4226.26
484.391	4280.72
484.762	4338.12
485.133	4367.95
485.503	4375.41
485.874	4530.43
486.244	4540.6
486.615	4611.11
486.985	4661.28
487.356	4724.55
487.726	4781.72
488.097	4878.45
488.467	4894.26
488.837	4957.09
489.207	5041.83
489.578	5136.07
489.948	5153.92
490.318	5231.66
490.688	5220.13
491.058	5321.15
491.428	5358.21
491.798	5441.37
492.168	5503.51
492.538	5543.29
492.908	5595.04
493.278	5625.09
493.648	5740.34
494.017	5799.1
494.387	5786.22
494.757	5848.36
495.126	5945.54
495.496	5965.2
495.866	6020.56
496.235	6040.45
496.605	6155.7
496.974	6103.5
497.344	6190.5
497.713	6210.16
498.082	6348.24
498.452	6338.07
498.821	6355.24
499.19	6428.01
499.559	6455.13
499.928	6491.96
500.298	6538.51
500.667	6658.74
501.036	6620.09
501.405	6671.17
501.774	6683.82
502.143	6739.64
502.512	6809.24
502.88	6860.09
503.249	6883.14
503.618	6991.16
503.987	6950.03
504.356	7046.3
504.724	7133.3
505.093	7184.37
505.462	7178.27
505.83	7227.76
506.199	7342.56
506.567	7303.24
506.936	7331.49
507.304	7398.6
507.672	7490.13
508.041	7514.76
508.409	7643.12
508.777	7628.66
509.145	7748.43
509.514	7761.08
509.882	7825.71
510.25	7824.36
510.618	7951.36
510.986	7961.53
511.354	8004.24
511.722	8099.6
512.09	8119.72
512.458	8137.34
512.826	8291.69
513.193	8317.45
513.561	8341.18
513.929	8375.08
514.297	8493.04
514.664	8587.27
515.032	8640.15
515.4	8646.26
515.767	8707.95
516.135	8746.82
516.502	8767.83
516.869	8940.26
517.237	8933.71
517.604	8957.66
517.972	9143.87
518.339	9141.61
518.706	9198.56
519.073	9274.26
519.44	9342.28
519.808	9395.61
520.175	9463.41
520.542	9591.09
520.909	9634.25
521.276	9722.61
521.643	9791.08
522.009	9899.78
522.376	9978.88
522.743	9997.41
523.11	10156.95
523.477	10285.99
523.843	10323.95
524.21	10408.92
524.577	10535.47
524.943	10620.44
525.31	10654.56
525.676	10751.96
526.043	10847.55
526.409	10886.2
526.776	11028.11
527.142	11068.11
527.508	11158.28
527.874	11252.74
528.241	11313.53
528.607	11343.36
528.973	11529.8
529.339	11564.82
529.705	11633.07
530.071	11720.75
530.437	11866.51
530.803	11976.56
531.169	12002.1
531.535	11998.71
531.901	12093.17
532.267	12150.12
532.632	12266.5
532.998	12363.22
533.364	12471.47
533.73	12506.49
534.095	12752.14
534.461	12742.65
534.826	12760.05
535.192	12840.5
535.557	12959.36
535.923	13019.02
536.288	13089.08
536.653	13147.15
537.019	13208.4
537.384	13291.56
537.749	13343.08
538.114	13492
538.479	13523.64
538.845	13561.83
539.21	13641.15
539.575	13679.12
539.94	13782.84
540.305	13934.48
540.67	14016.74
541.034	14048.37
541.399	14184.19
541.764	14247.92
542.129	14290.18
542.494	14347.8
542.858	14466.67
543.223	14569.49
543.587	14644.52
543.952	14714.34
544.316	14799.77
544.681	14767.9
545.045	14953.89
545.41	15093.54
545.774	15127.22
546.138	15289.02
546.503	15353.2
546.867	15380.54
547.231	15515.23
547.595	15653.53
547.959	15756.13
548.324	15756.58
548.688	15842.45
549.052	16031.6
549.416	16165.83
549.779	16210.58
550.143	16304.81
550.507	16525.82
550.871	16552.04
551.235	16613.05
551.599	16923.33
551.962	16938.47
552.326	17066.15
552.689	17307.27
553.053	17200.16
553.417	17378.68
553.78	17741.16
554.143	17637.43
554.507	17851.21
554.87	18006.24
555.234	18262.05
555.597	18210.98
555.96	18431.31
556.323	18691.64
556.686	18805.54
557.05	18971.63
557.413	19036.27
557.776	19324.17
558.139	19437.16
558.502	19560.09
558.865	19761.67
559.228	19958.95
559.59	20165.73
559.953	20317.36
560.316	20672.38
560.679	20766.84
561.041	21028.3
561.404	21245.02
561.767	21454.05
562.129	21588.97
562.492	21870.99
562.854	21998.9
563.217	22258.1
563.579	22482.28
563.941	22668.71
564.304	22930.85
564.666	23184.86
565.028	23401.35
565.39	23663.94
565.753	23911.17
566.115	24087.21
566.477	24399.51
566.839	24711.82
567.201	24975.54
567.563	25123.56
567.925	25427.96
568.287	25613.72
568.648	25774.39
569.01	26038.79
569.372	26416.18
569.734	26534.82
570.095	26908.15
570.457	27159.67
570.819	27486.66
571.18	27690.05
571.542	28080.1
571.903	28103.82
572.265	28527.99
572.626	28769.34
572.987	29071.03
573.349	29339.5
573.71	29564.12
574.071	29722.54
574.432	30046.6
574.794	30550.99
575.155	30607.49
575.516	30760.93
575.877	31030.98
576.238	31334.47
576.599	31590.74
576.96	31793.44
577.32	31896.49
577.681	32242.7
578.042	32427.1
578.403	32872.06
578.763	32920.42
579.124	33143.69
579.485	33466.62
579.845	33745.48
580.206	33855.99
580.566	34057.11
580.927	34326.94
581.287	34603.31
581.648	34713.59
582.008	34960.82
582.368	35017.77
582.728	35150.19
583.089	35314.48
583.449	35654.13
583.809	35806.67
584.169	35943.39
584.529	36162.82
584.889	36603.94
585.249	36545.86
585.609	36563.49
585.969	37084.38
586.329	37099.97
586.688	37377.48
587.048	37393.75
587.408	37614.31
587.768	37794.19
588.127	37860.4
588.487	38054.52
588.846	38459.03
589.206	38482.08
589.565	38458.13
589.925	38891.11
590.284	38919.36
590.643	39175.62
591.003	39353.47
591.362	39631.2
591.721	39598.44
592.08	39908.48
592.44	40185.09
592.799	40147.35
593.158	40217.85
593.517	40406.1
593.876	40434.8
594.235	40628.24
594.593	40954.11
594.952	41050.15
595.311	41223.93
595.67	41477.48
596.029	41845.16
596.387	41924.48
596.746	42071.37
597.104	42062.1
597.463	42140.97
597.822	42548.64
598.18	42618.92
598.538	42839.48
598.897	43087.84
599.255	42750.22
599.613	43493.93
599.972	43412.35
600.33	43686.92
600.688	43550.87
601.046	43920.58
601.404	44188.37
601.762	44257.52
602.12	44441.92
602.478	44656.83
602.836	44871.07
603.194	44696.83
603.552	44791.29
603.91	45024.96
604.268	45322.35
604.625	45398.28
604.983	45519.86
605.341	45522.12
605.698	45913.98
606.056	46166.63
606.413	46311.93
606.771	46545.82
607.128	46640.06
607.485	46552.15
607.843	46705.82
608.2	47120.05
608.557	47324.56
608.914	47170.21
609.272	47608.62
609.629	47759.13
609.986	47939.91
610.343	47796.64
610.7	48179.45
611.057	48348.26
611.414	48436.17
611.771	48483.17
612.127	48692.21
612.484	48783.96
612.841	48952.54
613.198	48922.71
613.554	48920.45
613.911	49359.31
614.267	49358.18
614.624	49552.75
614.98	49742.35
615.337	49935.34
615.693	50046.3
616.05	50203.58
616.406	50386.63
616.762	50226.86
617.118	50447.64
617.475	50542.78
617.831	50726.96
618.187	50828.2
618.543	51050.56
618.899	51204.01
619.255	51203.78
619.611	51246.72
619.967	51402.19
620.323	51622.53
620.678	51536.65
621.034	51575.3
621.39	51757.89
621.746	51752.47
622.101	52220.93
622.457	51941.39
622.812	52112.01
623.168	52286.24
623.523	52424.54
623.879	52535.5
624.234	52425.22
624.589	52604.2
624.945	52593.57
625.3	52724.42
625.655	52818.88
626.01	52889.61
626.365	52946.33
626.72	53014.13
627.075	53051.42
627.43	53203.28
627.785	53151.07
628.14	53265.42
628.495	53354.01
628.85	53347.91
629.205	53193.11
629.559	53450.28
629.914	53429.48
630.269	53527.34
630.623	53466.09
630.978	53510.84
631.332	53639.87
631.687	53819.31
632.041	53740.44
632.396	53781.11
632.75	53827.67
633.104	53850.94
633.459	53819.31
633.813	53867.21
634.167	53895.69
634.521	53975.69
634.875	54059.75
635.229	54090.26
635.583	53962.13
635.937	54090.71
636.291	54096.13
636.645	54131.39
636.999	54097.26
637.352	54270.37
637.706	54102.46
638.06	54271.95
638.413	54252.74
638.767	54263.59
639.121	54323.7
639.474	54305.39
639.828	54405.96
640.181	54471.72
640.534	54497.93
640.888	54410.25
641.241	54322.12
641.594	54410.25
641.947	54581.32
642.301	54465.62
642.654	54517.14
643.007	54605.05
643.36	54745.83
643.713	54668.77
644.066	54897.69
644.419	54623.13
644.771	54249.35
645.124	54065.4
645.477	54134.33
645.83	53931.62
646.182	53972.97
646.535	54090.71
646.888	54228.11
647.24	54191.95
647.593	54484.6
647.945	54437.37
648.298	54342.68
648.65	54417.93
649.002	54399.18
649.355	54435.33
649.707	54373.19
650.059	54416.58
650.411	54836.45
650.763	54851.82
651.115	55176.56
651.467	55193.51
651.819	55194.41
652.171	55185.82
652.523	55238.48
652.875	55180.4
653.227	55080.52
653.578	55377.23
653.93	55276.67
654.282	55217.01
654.633	55298.59
654.985	55392.37
655.337	55433.95
655.688	55468.53
656.039	55538.81
656.391	55355.31
656.742	55433.05
657.094	55549.43
657.445	55702.65
657.796	55626.49
658.147	55568.19
658.498	55599.15
658.849	55746.26
659.2	55684.57
659.551	55701.29
659.902	55835.75
660.253	55733.15
660.604	55760.95
660.955	55737.45
661.306	55837.33
661.656	55881.17
662.007	55967.95
662.358	55888.86
662.708	55979.7
663.059	55919.14
663.409	55840.04
663.76	56030.77
664.11	56078.68
664.461	56174.27
664.811	56165.68
665.161	56120.04
665.511	56139.24
665.862	56172.92
666.212	56318.22
666.562	56356.19
666.912	56350.99
667.262	56288.39
667.612	56381.05
667.962	56435.96
668.312	56418.11
668.662	56483.42
669.011	56463.08
669.361	56530.65
669.711	56537.88
670.06	56522.96
670.41	56574.49
670.76	56591.21
671.109	56708.27
671.459	56643.19
671.808	56651.77
672.157	56713.01
672.507	56633.47
672.856	56612.68
673.205	56669.17
673.554	56770.19
673.904	56691.32
674.253	56850.19
674.602	56776.52
674.951	56449.74
675.3	56386.92
675.649	56870.07
675.998	56874.14
676.346	56930.86
676.695	57049.95
677.044	56820.81
677.393	56973.35
677.741	56961.6
678.09	56899
678.438	56785.1
678.787	57001.14
679.135	56951.43
679.484	56892.22
679.832	56982.39
680.181	56768.15
680.529	56931.77
680.877	56866
681.225	56920.47
681.573	57112.78
681.922	56957.53
682.27	56944.65
682.618	56975.15
682.966	56942.84
683.314	57069.39
683.661	56923.86
684.009	56870.3
684.357	56874.59
684.705	56866.91
685.053	56917.98
685.4	56998.2
685.748	56882.28
686.095	56889.73
686.443	56922.27
686.79	56787.81
687.138	56773.8
687.485	56887.93
687.832	56792.56
688.18	56796.18
688.527	56772.22
688.874	56820.81
689.221	56752.34
689.568	56634.82
689.915	56625.79
690.262	56599.57
690.609	56550.31
690.956	56606.12
691.303	56632.11
691.65	56479.35
691.997	56540.14
692.344	56453.36
692.69	56379.92
693.037	56449.97
693.383	56237.77
693.73	56389.86
694.077	56316.87
694.423	56390.09
694.769	56239.81
695.116	56221.5
695.462	56157.55
695.808	56068.06
696.155	56159.58
696.501	55978.57
696.847	56005.46
697.193	55798.01
697.539	55948.74
697.885	55726.15
698.231	55720.27
698.577	55745.36
698.923	55754.62
699.269	55689.54
699.614	55588.3
699.96	55605.25
700.306	55600.05
700.651	55567.73
700.997	55555.76
701.342	55514.63
701.688	55475.08
702.033	55397.57
702.379	55396.21
702.724	55360.51
703.069	55500.39
703.415	55181.98
703.76	55183.34
704.105	55263.34
704.45	55135.65
704.795	54983.12
705.14	55049.1
705.485	55056.33
705.83	54949.67
706.175	55015.66
706.52	55000.29
706.865	54814.53
707.209	54889.79
707.554	54815.21
707.899	54937.02
708.243	54855.89
708.588	54745.16
708.932	54657.25
709.277	54704.71
709.621	54749.45
709.966	54581.77
710.31	54652.96
710.654	54404.83
710.998	54495.45
711.342	54542
711.687	54470.36
712.031	54384.49
712.375	54370.25
712.719	54475.56
713.063	54312.63
713.407	54408.22
713.75	54327.31
714.094	54306.52
714.438	54198.05
714.782	54290.93
715.125	54078.51
715.469	54225.17
715.812	54090.48
716.156	54014.55
716.499	54083.25
716.843	54103.37
717.186	53972.3
717.53	54162.8
717.873	54084.38
718.216	53945.63
718.559	53948.57
718.902	53819.08
719.246	53986.98
719.589	53841.68
719.932	53742.02
720.275	53705.18
720.617	53782.7
720.96	53739.31
721.303	53823.37
721.646	53760.32
721.989	53591.06
722.331	53796.03
722.674	53655.02
723.016	53622.7
723.359	53576.83
723.701	53697.5
724.044	53470.39
724.386	53396.94
724.729	53628.8
725.071	53454.12
725.413	53554
725.755	53591.06
726.097	53394.46
726.439	53258.87
726.782	53338.19
727.124	53476.04
727.465	53312.88
727.807	53350.39
728.149	53289.83
728.491	53249.83
728.833	53295.25
729.175	53227
729.516	53181.58
729.858	53117.63
730.199	53210.51
730.541	53225.87
730.882	53193.78
731.224	53328.47
731.565	53055.48
731.906	53231.75
732.248	53304.97
732.589	53128.7
732.93	53053.45
733.271	53071.08
733.612	53044.18
733.953	53051.42
734.294	52991.53
734.635	52985.2
734.976	53136.16
735.317	52899.1
735.658	52961.93
735.999	52940.01
736.339	52975.03
736.68	53088.48
737.021	52962.83
737.361	52837.18
737.702	53109.95
738.042	52896.84
738.383	52800.35
738.723	52825.43
739.063	52806.9
739.404	52873.79
739.744	52828.14
740.084	52719.67
740.424	52818.43
740.764	52701.82
741.104	52727.36
741.444	52635.38
741.784	52638.32
742.124	52709.96
742.464	52514.25
742.804	52540.92
743.143	52471.32
743.483	52429.96
743.823	52397.87
744.162	52390.19
744.502	52452.79
744.841	52417.31
745.181	52553.58
745.52	52405.11
745.86	52516.51
746.199	52354.71
746.538	52229.74
746.877	52390.87
747.216	52542.5
747.556	52430.87
747.895	52388.61
748.234	52242.17
748.573	52249.18
748.911	52201.72
749.25	52216.86
749.589	52080.82
749.928	52190.42
750.267	52309.97
750.605	52176.86
750.944	52046.02
751.283	51973.7
751.621	52020.26
751.96	51769.42
752.298	51745.24
752.636	51765.35
752.975	51707.95
753.313	51651
753.651	51719.47
753.989	51554.51
754.327	51483.55
754.666	51416.43
755.004	51467.28
755.342	51504.79
755.679	51500.04
756.017	51292.37
756.355	51454.4
756.693	51330.78
757.031	51347.73
757.368	51176.66
757.706	51161.75
758.044	50968.98
758.381	51012.83
758.719	50896.44
759.056	50927.4
759.394	50788.88
759.731	50652.16
760.068	50656.45
760.405	50406.97
760.743	50533.74
761.08	50574.42
761.417	50338.94
761.754	50441.99
762.091	50192.06
762.428	50148.89
762.765	50096.47
763.102	50203.13
763.438	50029.12
763.775	49804.27
764.112	49867.54
764.449	49925.4
764.785	49628
765.122	49508.01
765.458	49439.31
765.795	49436.82
766.131	49506.65
766.467	49343.94
766.804	49182.37
767.14	49247.9
767.476	49145.76
767.812	49019.43
768.148	49111.18
768.485	48814.92
768.821	48636.39
769.157	48615.83
769.492	48496.96
769.828	48291.54
770.164	48031.66
770.5	48120.25
770.836	48172
771.171	48035.73
771.507	47969.29
771.842	47572.46
772.178	47685.68
772.513	47606.36
772.849	47463.09
773.184	47166.37
773.519	47098.58
773.855	47170.89
774.19	47007.73
774.525	46918.92
774.86	46916.21
775.195	46841.64
775.53	46668.98
775.865	46429.22
776.2	46318.71
776.535	46087.98
776.87	46154.65
777.205	45907.2
777.539	45705.85
777.874	45863.13
778.209	45649.35
778.543	45589.47
778.878	45284.39
779.212	45410.26
779.547	45255.69
779.881	45452.97
780.215	45093.21
780.55	45095.92
780.884	44904.96
781.218	44861.12
781.552	44946.32
781.886	44505.43
782.22	44453.45
782.554	44314.24
782.888	44152.67
783.222	44095.49
783.556	43824.99
783.889	43621.38
784.223	43553.13
784.557	43360.6
784.89	43476.3
785.224	43263.65
785.557	43078.12
785.891	42942.53
786.224	42973.26
786.558	42901.17
786.891	42554.74
787.224	42593.84
787.557	42411.92
787.891	42541.18
788.224	42486.95
788.557	42402.43
788.89	42305.03
789.223	42222.32
789.556	42001.76
789.888	41820.3
790.221	41855.55
790.554	41441.78
790.887	41371.95
791.219	41338.5
791.552	41306.64
791.884	41220.99
792.217	41037.27
792.549	40919.08
792.882	40715.02
793.214	40697.39
793.546	40864.39
793.879	40545.3
794.211	40340.79
794.543	40503.72
794.875	40234.35
795.207	40398.64
795.539	40164.3
795.871	40083.17
796.203	39738.09
796.535	39625.1
796.867	39559.57
797.198	39442.06
797.53	39558.66
797.862	39342.85
798.193	39350.08
798.525	39157.54
798.856	39214.94
799.188	38762.07
799.519	38752.36
799.85	38723.88
800.182	38708.06
800.513	38686.14
800.844	38321.41
801.175	38526.83
801.506	38396.43
801.837	38132.94
802.168	37949.89
802.499	37968.42
802.83	37920.06
803.161	37924.81
803.491	37991.7
803.822	37853.17
804.153	37733.63
804.483	37586.06
804.814	37464.48
805.145	37343.58
805.475	37317.82
805.805	37185.84
806.136	37168.44
806.466	37027.43
806.796	37036.24
807.126	36942.69
807.457	36857.72
807.787	36858.17
808.117	36647.55
808.447	36657.72
808.777	36664.5
809.107	36457.5
809.436	36271.07
809.766	36344.06
810.096	36308.35
810.426	36151.75
810.755	36245.3
811.085	36054.8
811.414	36010.96
811.744	35647.81
812.073	35709.05
812.403	35575.72
812.732	35486.45
813.061	35590.86
813.39	35337.31
813.719	35259.57
814.049	35618.65
814.378	35481.48
814.707	35246.46
815.036	35172.11
815.365	35143.19
815.693	34741.16
816.022	34740.71
816.351	34633.14
816.68	34538.68
817.008	34764.89
817.337	34415.07
817.665	34483.77
817.994	34573.48
818.322	34628.85
818.651	34457.33
818.979	34268.63
819.307	34460.27
819.636	34392.02
819.964	34146.15
820.292	34243.1
820.62	34089.88
820.948	34062.54
821.276	34361.06
821.604	34162.87
821.932	34471.57
822.259	34364
822.587	34158.13
822.915	34160.61
823.243	34357.9
823.57	34237.67
823.898	34317.9
824.225	34211.46
824.553	34139.6
824.88	34139.6
825.207	34246.26
825.535	34122.65
825.862	34088.52
826.189	34130.11
826.516	34336.88
826.843	34479.47
827.17	34291.68
827.497	34304.56
827.824	34446.93
828.151	34485.58
828.478	34334.17
828.805	34517.89
829.131	34319.25
829.458	34389.08
829.785	34165.81
830.111	34279.03
830.438	34504.78
830.764	34216.2
831.09	34444.9
831.417	34143.89
831.743	34322.42
832.069	34358.8
832.395	34251.91
832.722	34376.43
833.048	34314.28
833.374	34378.91
833.7	34285.81
834.026	34294.85
834.351	34354.73
834.677	34342.53
835.003	34394.73
835.329	34453.94
835.654	34321.74
835.98	34212.59
836.306	34235.64
836.631	34065.47
836.956	34265.92
837.282	34342.3
837.607	34180.95
837.932	34145.47
838.258	34121.74
838.583	33926.27
838.908	33809.44
839.233	33940.28
839.558	33874.07
839.883	33822.32
840.208	33689.44
840.533	33668.87
840.858	33653.73
841.182	33639.04
841.507	33555.66
841.832	33506.84
842.156	33437.92
842.481	33406.51
842.805	33398.6
843.13	33446.96
843.454	33415.32
843.778	33321.31
844.103	33334.87
844.427	33178.04
844.751	33244.7
845.075	32969.46
845.399	32920.42
845.723	32733.98
846.047	32842.46
846.371	32484.05
846.695	32566.3
847.019	32403.6
847.343	32279.98
847.666	32027.79
847.99	32048.58
848.313	32174
848.637	31867.57
848.96	31845.19
849.284	31757.51
849.607	31381.48
849.931	31311.2
850.254	31110.75
850.577	31016.06
850.9	30937.65
851.223	31037.08
851.546	30687.71
851.869	30510.31
852.192	30654.04
852.515	30317.55
852.838	30307.61
853.161	30353.26
853.483	30270.77
853.806	30204.11
854.129	30091.57
854.451	30044.34
854.774	29890.67
855.096	29889.76
855.419	29760.05
855.741	29698.58
856.063	29497.68
856.385	29488.87
856.708	29392.15
857.03	29292.72
857.352	29295.66
857.674	29229.44
857.996	29216.34
858.318	28879.85
858.64	29036
858.961	28863.8
859.283	28904.48
859.605	28715.78
859.926	28835.33
860.248	28723.24
860.57	28570.48
860.891	28619.06
861.212	28422.01
861.534	28290.48
861.855	28439.41
862.176	28387.88
862.498	28430.59
862.819	28184.73
863.14	28177.72
863.461	28097.95
863.782	27889.14
864.103	28151.96
864.424	27913.32
864.745	28050.04
865.065	27935.24
865.386	27950.61
865.707	27827.22
866.027	27909.93
866.348	27831.51
866.668	27816.6
866.989	27720.1
867.309	27535.25
867.63	27558.53
867.95	27510.17
868.27	27637.17
868.59	27557.17
868.91	27600.56
869.23	27490.73
869.55	27420.9
869.87	27480.34
870.19	27435.37
870.51	27352.2
870.83	27401.02
871.15	27255.48
871.469	27328.48
871.789	27324.18
872.109	27233.56
872.428	27066.34
872.748	27170.97
873.067	27034.47
873.386	27147.24
873.706	26985.43
874.025	26833.8
874.344	26873.8
874.663	26970.29
874.982	26779.34
875.301	26805.1
875.62	26738.89
875.939	26615.05
876.258	26689.62
876.577	26466.58
876.896	26641.26
877.214	26612.56
877.533	26476.75
877.852	26495.05
878.17	26454.6
878.489	26562.39
878.807	26508.38
879.125	26369.41
879.444	26543.19
879.762	26374.15
880.08	26473.36
880.398	26384.09
880.716	26339.12
881.034	26197.88
881.352	26244.89
881.67	26097.77
881.988	26205.34
882.306	26153.59
882.624	26157.21
882.941	26064.33
883.259	26071.56
883.577	25886.71
883.894	25788.86
884.212	25818.46
884.529	25713.15
884.846	25597.45
885.164	25580.73
885.481	25553.61
885.798	25586.6
886.115	25300.96
886.432	25366.49
886.75	25379.83
887.067	25239.27
887.383	25118.59
887.7	25278.81
888.017	25132.83
888.334	25098.7
888.651	25070.68
888.967	25056.9
889.284	25059.84
889.6	24785.72
889.917	24703.69
890.233	24745.95
890.55	24563.35
890.866	24561.09
891.182	24478.16
891.498	24534.65
891.815	24331.04
892.131	24441.55
892.447	24286.52
892.763	24239.07
893.079	24085.85
893.395	24077.71
893.71	24207.2
894.026	24132.63
894.342	23965.4
894.657	24000.2
894.973	23795.46
895.289	23839.53
895.604	23600.66
895.92	23558.41
896.235	23478.41
896.55	23463.72
896.865	23345.3
897.181	23400.9
897.496	23294.46
897.811	23183.95
898.126	23059.21
898.441	23023.05
898.756	22946.44
899.071	22775.6
899.386	22680.69
899.7	22557.08
900.015	22382.84
900.33	22380.13
900.644	22434.59
900.959	22615.83
901.273	22398.89
901.588	22322.73
901.902	22214.71
902.216	22086.58
902.531	22057.88
902.845	22016.53
903.159	21929.07
903.473	21868.96
903.787	21713.71
904.101	21641.85
904.415	21667.61
904.729	21642.52
905.042	21523.21
905.356	21410.44
905.67	21457.44
905.984	21240.5
906.297	21233.72
906.611	21124.8
906.924	21137.23
907.237	20975.42
907.551	20996.21
907.864	20854.07
908.177	20792.15
908.491	20667.86
908.804	20587.41
909.117	20597.13
909.43	20391.03
909.743	20195.1
910.056	20245.72
910.368	20096.8
910.681	20088.21
910.994	20038.72
911.307	19833.08
911.619	19758.05
911.932	19809.58
912.244	19741.11
912.557	19660.43
912.869	19471.96
913.181	19390.83
913.494	19444.62
913.806	19174.11
914.118	19197.62
914.43	19094.12
914.742	19152.87
915.054	19085.08
915.366	18956.72
915.678	18826.78
915.99	18697.74
916.302	18558.09
916.613	18632.43
916.925	18619.1
917.236	18537.52
917.548	18436.05
917.859	18431.76
918.171	18301.82
918.482	18224.53
918.794	18152.9
919.105	18111.09
919.416	17990.64
919.727	18010.53
920.038	18001.49
920.349	17825.45
920.66	17739.35
920.971	17627.04
921.282	17523.54
921.593	17404.44
921.903	17352.92
922.214	17321.28
922.525	17332.81
922.835	17205.58
923.146	17069.99
923.456	17095.75
923.767	16886.94
924.077	16875.42
924.387	16696.44
924.697	16732.14
925.008	16553.17
925.318	16616.67
925.628	16562.88
925.938	16594.07
926.248	16367.86
926.558	16350.01
926.867	16304.13
927.177	16174.42
927.487	16111.37
927.796	15969.68
928.106	15988.44
928.416	15898.49
928.725	15968.32
929.034	15748.22
929.344	15837.71
929.653	15800.42
929.962	15615.11
930.271	15609.01
930.581	15538.28
930.89	15471.61
931.199	15286.31
931.508	15126.31
931.817	15218.74
932.125	15127.67
932.434	15023.72
932.743	14926.09
933.051	14874.11
933.36	14890.16
933.669	14762.48
933.977	14796.6
934.286	14863.04
934.594	14708.92
934.902	14594.35
935.21	14497.85
935.519	14535.82
935.827	14394.58
936.135	14321.81
936.443	14084.08
936.751	14190.29
937.059	14138.99
937.367	14049.96
937.674	13990.97
937.982	13950.97
938.29	13868.04
938.597	13855.38
938.905	13627.37
939.213	13650.42
939.52	13654.26
939.827	13623.3
940.135	13485.68
940.442	13560.93
940.749	13483.87
941.056	13444.32
941.363	13268.28
941.67	13230.32
941.977	13215.18
942.284	13186.7
942.591	13136.08
942.898	13068.96
943.205	13044.56
943.511	12882.98
943.818	12797.78
944.125	12735.87
944.431	12642.99
944.738	12705.81
945.044	12734.51
945.35	12616.32
945.657	12502.88
945.963	12457.91
946.269	12328.42
946.575	12390.79
946.881	12208.42
947.187	12269.44
947.493	12252.26
947.799	12172.26
948.105	12070.57
948.41	11908.54
948.716	12036
949.022	11933.17
949.327	11928.66
949.633	11899.28
949.938	11803.91
950.244	11754.87
950.549	11583.13
950.854	11555.11
951.16	11602.56
951.465	11376.81
951.77	11308.78
952.075	11366.64
952.38	11305.62
952.685	11342.68
952.99	11212.52
953.294	11184.95
953.599	11125.29
953.904	11158.51
954.209	11004.39
954.513	10956.7
954.818	10893.88
955.122	10890.49
955.426	10894.56
955.731	10751.96
956.035	10765.3
956.339	10640.1
956.643	10679.65
956.948	10630.16
957.252	10437.17
957.556	10527.56
957.86	10464.06
958.163	10410.05
958.467	10470.84
958.771	10419.32
959.075	10267.68
959.378	10255.7
959.682	10252.99
959.985	10217.74
960.289	10128.7
960.592	10110.85
960.896	10075.14
961.199	9960.12
961.502	9954.02
961.805	9884.19
962.108	9792.21
962.411	9761.71
962.714	9726
963.017	9735.94
963.32	9682.16
963.623	9698.43
963.926	9675.38
964.228	9539.57
964.531	9547.7
964.833	9585.89
965.136	9466.8
965.438	9416.86
965.741	9338.67
966.043	9340.47
966.345	9194.04
966.648	9182.06
966.95	9221.16
967.252	9112.91
967.554	9071.78
967.856	9049.86
968.158	8981.16
968.46	8923.99
968.761	8921.73
969.063	8886.02
969.365	8837.44
969.666	8756.76
969.968	8760.6
970.269	8691.45
970.571	8692.36
970.872	8695.75
971.174	8614.39
971.475	8568.97
971.776	8536.88
972.077	8466.6
972.378	8438.35
972.679	8429.54
972.98	8416.66
973.281	8305.25
973.582	8307.73
973.883	8274.97
974.183	8260.73
974.484	8138.7
974.785	8173.73
975.085	8090.79
975.386	8145.25
975.686	8035.42
975.986	8005.14
976.287	7947.07
976.587	7951.81
976.887	7955.2
977.187	7828.88
977.487	7851.02
977.787	7771.48
978.087	7736.45
978.387	7745.71
978.687	7697.58
978.987	7599.96
979.286	7573.97
979.586	7592.5
979.885	7519.28
980.185	7438.38
980.484	7439.28
980.784	7401.32
981.083	7400.19
981.382	7409.68
981.682	7368.55
981.981	7284.71
982.28	7270.47
982.579	7161.32
982.878	7158.16
983.177	7124.49
983.475	7124.71
983.774	6995.9
984.073	6988.45
984.372	6948
984.67	6953.87
984.969	6941.44
985.267	6914.55
985.566	6848.34
985.864	6871.84
986.162	6797.04
986.461	6723.37
986.759	6699.64
987.057	6714.56
987.355	6579.42
987.653	6611.73
987.951	6556.14
988.249	6563.82
988.547	6507.78
988.844	6525.18
989.142	6481.57
989.44	6486.31
989.737	6465.52
990.035	6387.78
990.332	6390.5
990.63	6339.42
990.927	6332.19
991.224	6270.72
991.521	6218.75
991.819	6188.92
992.116	6236.15
992.413	6162.71
992.71	6112.54
993.006	6086.1
993.303	6095.81
993.6	6026.89
993.897	5971.3
994.193	6012.43
994.49	5980.79
994.787	5923.39
995.083	5913.67
995.379	5844.75
995.676	5806.56
995.972	5797.74
996.268	5798.42
996.565	5686.56
996.861	5666.45
997.157	5654.7
997.453	5605.88
997.749	5608.14
998.044	5517.75
998.34	5602.72
998.636	5535.15
998.932	5474.36
999.227	5455.83
999.523	5408.83
999.818	5427.81
1000.114	5323.63
1000.409	5310.3
1000.704	5314.59
1001	5230.3
1001.295	5214.93
1001.59	5170.41
1001.885	5132.22
1002.18	5152.34
1002.475	5069.17
1002.77	5046.12
1003.065	5039.8
1003.359	4991.44
1003.654	5004.77
1003.949	4972.91
1004.243	4922.06
1004.538	4896.75
1004.832	4822.18
1005.127	4821.95
1005.421	4716.42
1005.715	4713.25
1006.009	4738.79
1006.304	4713.25
1006.598	4659.24
1006.892	4663.99
1007.186	4621.73
1007.48	4632.12
1007.773	4583.99
1008.067	4552.8
1008.361	4492.24
1008.655	4464.9
1008.948	4476.87
1009.242	4447.72
1009.535	4424.9
1009.829	4374.73
1010.122	4337.44
1010.415	4335.41
1010.708	4265.13
1011.001	4247.73
1011.295	4263.77
1011.588	4199.59
1011.881	4133.83
1012.173	4132.93
1012.466	4188.07
1012.759	4121.18
1013.052	4088.41
1013.344	4047.28
1013.637	4027.39
1013.93	3967.51
1014.222	3984.68
1014.514	3944.23
1014.807	3935.19
1015.099	3927.51
1015.391	3852.26
1015.683	3835.31
1015.976	3822.65
1016.268	3800.28
1016.56	3753.73
1016.851	3773.16
1017.143	3710.57
1017.435	3697.01
1017.727	3609.33
1018.018	3643.45
1018.31	3558.93
1018.602	3574.98
1018.893	3538.82
1019.185	3474.41
1019.476	3460.63
1019.767	3469.67
1020.058	3406.39
1020.35	3330.46
1020.641	3353.06
1020.932	3330.69
1021.223	3303.8
1021.514	3304.7
1021.804	3263.12
1022.095	3294.53
1022.386	3210.47
1022.677	3200.07
1022.967	3189.9
1023.258	3151.03
1023.548	3151.48
1023.839	3095.89
1024.129	3078.27
1024.419	3077.81
1024.709	3040.3
1025	2972.28
1025.29	2991.94
1025.58	2978.16
1025.87	2944.71
1026.16	2949.23
1026.449	2932.28
1026.739	2833.53
1027.029	2838.05
1027.319	2851.83
1027.608	2781.55
1027.898	2771.61
1028.187	2737.48
1028.477	2726.64
1028.766	2718.5
1029.055	2686.86
1029.344	2658.39
1029.634	2653.42
1029.923	2604.15
1030.212	2638.73
1030.501	2603.48
1030.79	2557.83
1031.078	2534.78
1031.367	2517.38
1031.656	2480.99
1031.945	2445.51
1032.233	2462.01
1032.522	2431.5
1032.81	2399.41
1033.099	2397.38
1033.387	2371.62
1033.675	2376.59
1033.963	2373.88
1034.251	2363.03
1034.54	2291.62
1034.828	2296.37
1035.116	2258.85
1035.403	2269.93
1035.691	2259.53
1035.979	2223.37
1036.267	2217.5
1036.554	2185.63
1036.842	2167.1
1037.129	2180.66
1037.417	2151.96
1037.704	2147.67
1037.992	2133.43
1038.279	2082.59
1038.566	2029.71
1038.853	2029.71
1039.14	2029.71
