Data from copper_heatsink_FLMS001491_081.txt Node
Date: Tue Feb 07 10:50:41 GMT 2017
User: dcchb
Spectrometer: FLMS00149
Trigger mode: 0
Integration Time (sec): 2.000000E-2
Scans to average: 10
Electric dark correction enabled: true
Nonlinearity correction enabled: false
Boxcar width: 0
XAxis mode: Wavelengths
Number of Pixels in Spectrum: 2048
>>>>>Begin Spectral Data<<<<<
341.393	7.61
341.776	7.61
342.16	7.61
342.543	-70.35
342.927	-69
343.31	-55.66
343.693	-54.08
344.077	-62.44
344.46	-65.38
344.843	-58.37
345.226	-43.46
345.61	-42.78
345.993	-31.26
346.376	-7.3
346.759	11.23
347.142	49.65
347.525	24.11
347.908	65.01
348.291	72.24
348.674	80.61
349.057	117.89
349.44	113.6
349.823	166.48
350.206	174.39
350.588	203.54
350.971	235.86
351.354	216.19
351.737	261.39
352.119	255.06
352.502	273.37
352.884	284.22
353.267	295.51
353.65	322.41
354.032	315.18
354.414	303.88
354.797	322.41
355.179	331.22
355.562	342.29
355.944	339.81
356.326	339.13
356.709	358.11
357.091	375.29
357.473	347.72
357.855	392.69
358.238	356.76
358.62	362.63
359.002	354.5
359.384	371.9
359.766	361.05
360.148	346.36
360.53	358.34
360.912	365.57
361.294	353.37
361.676	357.89
362.057	353.37
362.439	369.64
362.821	347.04
363.203	333.25
363.584	352.46
363.966	348.17
364.348	357.43
364.729	348.39
365.111	347.26
365.493	357.43
365.874	338.23
366.256	339.36
366.637	324.21
367.019	343.65
367.4	327.6
367.781	350.2
368.163	339.36
368.544	353.14
368.925	335.06
369.306	351.33
369.688	331.22
370.069	320.15
370.45	341.84
370.831	328.73
371.212	333.25
371.593	353.82
371.974	374.38
372.355	347.49
372.736	330.32
373.117	343.2
373.498	338.23
373.879	353.14
374.26	335.74
374.641	323.99
375.021	325.34
375.402	349.98
375.783	364.89
376.163	353.82
376.544	356.53
376.925	353.37
377.305	378.22
377.686	366.02
378.066	350.65
378.447	356.76
378.827	368.96
379.208	368.28
379.588	378.45
379.968	370.09
380.349	371.67
380.729	391.33
381.109	369.41
381.489	368.06
381.87	387.72
382.25	374.61
382.63	386.81
383.01	381.39
383.39	371.9
383.77	403.53
384.15	382.29
384.53	378
384.91	389.07
385.29	395.4
385.67	388.85
386.049	401.5
386.429	375.74
386.809	389.52
387.189	439.69
387.568	419.58
387.948	420.94
388.328	392.24
388.707	412.12
389.087	417.55
389.466	416.19
389.846	421.84
390.225	434.49
390.605	419.35
390.984	446.47
391.363	420.94
391.743	434.04
392.122	439.01
392.501	424.1
392.881	432.91
393.26	451.67
393.639	424.1
394.018	443.08
394.397	446.02
394.776	450.09
395.155	461.39
395.534	456.87
395.913	449.41
396.292	439.69
396.671	464.78
397.05	468.17
397.429	450.99
397.808	462.52
398.186	478.11
398.565	457.32
398.944	467.49
399.323	473.14
399.701	487.37
400.08	470.43
400.458	508.84
400.837	486.02
401.215	466.36
401.594	487.83
401.972	509.97
402.351	521.95
402.729	503.87
403.107	509.29
403.486	487.6
403.864	503.19
404.242	502.52
404.62	514.04
404.999	522.85
405.377	517.88
405.755	524.89
406.133	535.73
406.511	544.77
406.889	535.28
407.267	539.35
407.645	542.06
408.023	548.62
408.401	534.15
408.779	546.13
409.156	567.37
409.534	561.95
409.912	577.09
410.29	581.83
410.667	548.39
411.045	575.28
411.422	592.91
411.8	608.5
412.178	601.95
412.555	603.08
412.933	613.7
413.31	620.93
413.687	604.89
414.065	614.83
414.442	619.57
414.819	638.1
415.197	641.95
415.574	661.83
415.951	631.55
416.328	631.78
416.705	655.73
417.082	658.67
417.46	672.45
417.837	660.7
418.214	661.15
418.591	685.79
418.967	689.85
419.344	686.69
419.721	680.59
420.098	688.05
420.475	687.59
420.852	696.86
421.228	705.45
421.605	716.07
421.982	709.74
422.358	737.99
422.735	724.2
423.111	718.55
423.488	741.38
423.864	754.26
424.241	742.96
424.617	756.07
424.994	760.14
425.37	737.76
425.746	756.75
426.123	761.27
426.499	766.91
426.875	752
427.251	762.4
427.627	795.84
428.003	784.99
428.379	816.86
428.756	815.5
429.132	834.48
429.507	824.77
429.883	827.25
430.259	845.56
430.635	867.93
431.011	849.85
431.387	850.53
431.763	888.49
432.138	892.11
432.514	863.86
432.89	888.95
433.265	915.84
433.641	926.46
434.016	921.49
434.392	928.27
434.767	959.9
435.143	942.28
435.518	951.77
435.894	939.79
436.269	993.58
436.644	982.5
437.02	999.68
437.395	1013.69
437.77	987.93
438.145	1031.54
438.52	1009.17
438.895	1058.43
439.271	1035.16
439.646	1042.39
440.021	1044.42
440.395	1072.9
440.77	1052.11
441.145	1065.89
441.52	1081.03
441.895	1080.13
442.27	1103.4
442.645	1066.57
443.019	1109.73
443.394	1095.72
443.769	1135.04
444.143	1145.21
444.518	1139.79
444.892	1136.4
445.267	1129.39
445.641	1124.42
446.016	1149.05
446.39	1158.77
446.764	1175.72
447.139	1154.93
447.513	1169.39
447.887	1203.97
448.262	1164.42
448.636	1191.31
449.01	1200.8
449.384	1206.23
449.758	1241.25
450.132	1254.81
450.506	1245.77
450.88	1238.99
451.254	1288.03
451.628	1287.81
452.002	1250.52
452.376	1271.76
452.75	1284.42
453.123	1302.27
453.497	1314.02
453.871	1336.62
454.244	1351.98
454.618	1363.28
454.992	1410.97
455.365	1414.81
455.739	1397.41
456.112	1422.26
456.486	1429.27
456.859	1466.11
457.232	1462.72
457.606	1481.02
457.979	1510.4
458.352	1517.18
458.725	1505.43
459.099	1529.61
459.472	1562.37
459.845	1557.63
460.218	1570.96
460.591	1608.7
460.964	1583.16
461.337	1666.33
461.71	1689.38
462.083	1687.57
462.456	1714.46
462.829	1734.8
463.201	1748.58
463.574	1749.71
463.947	1794.23
464.32	1791.29
464.692	1808.92
465.065	1810.28
465.438	1857.51
465.81	1876.49
466.183	1891.63
466.555	1922.14
466.928	1922.82
467.3	1943.38
467.672	1921.91
468.045	1989.93
468.417	1989.93
468.789	2002.59
469.161	2066.32
469.534	2076.94
469.906	2125.98
470.278	2134.34
470.65	2168.91
471.022	2183.37
471.394	2224.73
471.766	2245.07
472.138	2294.56
472.51	2338.4
472.882	2352.18
473.253	2404.84
473.625	2407.55
473.997	2442.8
474.369	2490.94
474.74	2503.14
475.112	2528.22
475.484	2574.32
475.855	2614.1
476.227	2620.88
476.598	2708.33
476.97	2732.96
477.341	2801.44
477.713	2847.31
478.084	2833.08
478.455	2902.9
478.827	2900.19
479.198	2998.04
479.569	3016.12
479.94	3094.09
480.311	3128.21
480.682	3177.25
481.053	3244.36
481.424	3332.5
481.795	3351.03
482.166	3376.11
482.537	3435.32
482.908	3480.52
483.279	3498.82
483.65	3607.07
484.021	3654.52
484.391	3713.96
484.762	3767.97
485.133	3784.01
485.503	3827.63
485.874	3937.9
486.244	3974.51
486.615	4001.63
486.985	4079.6
487.356	4121.63
487.726	4184.23
488.097	4243.66
488.467	4280.72
488.837	4374.05
489.207	4359.59
489.578	4424.45
489.948	4525.01
490.318	4551.67
490.688	4576.98
491.058	4675.96
491.428	4703.53
491.798	4770.65
492.168	4872.34
492.538	4840.71
492.908	4936.07
493.278	4996.41
493.648	5012.68
494.017	5023.3
494.387	5131.09
494.757	5170.64
495.126	5248.6
495.496	5251.32
495.866	5331.99
496.235	5369.51
496.605	5432.33
496.974	5435.94
497.344	5514.81
497.713	5554.36
498.082	5590.52
498.452	5641.59
498.821	5659.44
499.19	5717.07
499.559	5746.9
499.928	5828.93
500.298	5849.27
500.667	5927.46
501.036	5900.57
501.405	5995.25
501.774	5931.07
502.143	6016.72
502.512	6039.77
502.88	6140.33
503.249	6234.79
503.618	6221.01
503.987	6238.18
504.356	6311.18
504.724	6333.77
505.093	6384.62
505.462	6461.68
505.83	6479.53
506.199	6547.33
506.567	6621.22
506.936	6674.56
507.304	6665.29
507.672	6781.45
508.041	6761.56
508.409	6858.51
508.777	6928.11
509.145	6954.77
509.514	6961.78
509.882	7090.14
510.25	7100.08
510.618	7130.59
510.986	7211.27
511.354	7277.48
511.722	7312.96
512.09	7383.24
512.458	7391.6
512.826	7609.22
513.193	7439.06
513.561	7594.98
513.929	7708.2
514.297	7721.53
514.664	7779.84
515.032	7832.94
515.4	7950.68
515.767	7961.75
516.135	8033.16
516.502	8022.77
516.869	8105.48
517.237	8196.32
517.604	8197.68
517.972	8246.94
518.339	8367.17
518.706	8427.28
519.073	8424.79
519.44	8535.75
519.808	8658.23
520.175	8704.79
520.542	8781.62
520.909	8844.44
521.276	8914.95
521.643	9003.31
522.009	9040.37
522.376	9181.38
522.743	9214.38
523.11	9288.05
523.477	9443.97
523.843	9455.95
524.21	9636.96
524.577	9691.43
524.943	9700.69
525.31	9714.25
525.676	9849.84
526.043	9950.18
526.409	10069.04
526.776	10189.27
527.142	10185.88
527.508	10261.13
527.874	10366.89
528.241	10442.59
528.607	10521.46
528.973	10640.78
529.339	10667.45
529.705	10781.57
530.071	10867.89
530.437	10984.05
530.803	11011.84
531.169	11093.2
531.535	11194.89
531.901	11186.08
532.267	11272.63
532.632	11362.79
532.998	11450.02
533.364	11532.51
533.73	11582.45
534.095	11672.62
534.461	11850.69
534.826	11817.25
535.192	11959.39
535.557	11971.37
535.923	12013.4
536.288	12136.79
536.653	12169.33
537.019	12207.29
537.384	12337.23
537.749	12341.75
538.114	12465.59
538.479	12562.76
538.845	12598.02
539.21	12588.52
539.575	12715.08
539.94	12792.36
540.305	12991.9
540.67	12927.95
541.034	12982.86
541.399	13103.99
541.764	13174.5
542.129	13223.08
542.494	13358.9
542.858	13506.92
543.223	13460.37
543.587	13626.01
543.952	13649.51
544.316	13710.3
544.681	13721.83
545.045	13841.6
545.41	13965.66
545.774	14018.54
546.138	14172.21
546.503	14192.32
546.867	14230.74
547.231	14324.3
547.595	14490.62
547.959	14499.21
548.324	14605.2
548.688	14723.84
549.052	14904.4
549.416	15006.31
549.779	15069.36
550.143	15083.37
550.507	15305.52
550.871	15362.24
551.235	15413.08
551.599	15589.8
551.962	15668.67
552.326	15793.64
552.689	15864.15
553.053	16039.06
553.417	16021.43
553.78	16281.54
554.143	16300.97
554.507	16479.5
554.87	16562.21
555.234	16837.9
555.597	16804.23
555.96	16987.73
556.323	17115.86
556.686	17203.77
557.05	17440.37
557.413	17518.56
557.776	17745
558.139	17956.29
558.502	18011.89
558.865	18127.59
559.228	18281.93
559.59	18452.1
559.953	18549.72
560.316	18952.43
560.679	18956.95
561.041	19179.99
561.404	19451.85
561.767	19692.52
562.129	19677.15
562.492	19962.34
562.854	20101.77
563.217	20181.32
563.579	20359.62
563.941	20719.38
564.304	20830.79
564.666	20970.45
565.028	21217
565.39	21448.18
565.753	21567.72
566.115	21820.37
566.477	21974.94
566.839	22179.69
567.201	22468.94
567.563	22561.82
567.925	22849.27
568.287	22974.69
568.648	23077.06
569.01	23324.97
569.372	23656.93
569.734	23678.85
570.095	24056.47
570.457	24288.56
570.819	24444.03
571.18	24625.27
571.542	24791.37
571.903	24964.24
572.265	25312.03
572.626	25476.77
572.987	25671.8
573.349	25926.25
573.71	26091.45
574.071	26236.75
574.432	26525.79
574.794	26668.83
575.155	26908.37
575.516	26873.35
575.877	27354.24
576.238	27269.95
576.599	27670.84
576.96	27628.58
577.32	27741.57
577.681	28086.87
578.042	28212.52
578.403	28394.66
578.763	28565.28
579.124	28763.01
579.485	28949.68
579.845	29136.11
580.206	29176.11
580.566	29295.88
580.927	29420.17
581.287	29687.06
581.648	29624.24
582.008	30038.69
582.368	30011.8
582.728	30252.69
583.089	30215.86
583.449	30331.11
583.809	30550.09
584.169	30715.73
584.529	30910.3
584.889	31199.34
585.249	31081.6
585.609	31163.4
585.969	31452.44
586.329	31350.29
586.688	31660.11
587.048	31579.89
587.408	31661.24
587.768	31802.71
588.127	31901.24
588.487	31969.03
588.846	32211.96
589.206	32110.72
589.565	32229.14
589.925	32529.7
590.284	32423.03
590.643	32668.9
591.003	32736.02
591.362	33079.74
591.721	33055.11
592.08	33110.7
592.44	33135.33
592.799	33275.89
593.158	33228.89
593.517	33410.35
593.876	33468.2
594.235	33655.09
594.593	33742.54
594.952	33954.52
595.311	33961.75
595.67	34131.91
596.029	34388.4
596.387	34365.35
596.746	34557.21
597.104	34371
597.463	34415.3
597.822	34708.4
598.18	34884.66
598.538	34759.02
598.897	35076.97
599.255	34802.86
599.613	35499.56
599.972	35432.44
600.33	35417.08
600.688	35409.62
601.046	35754.92
601.404	35847.12
601.762	35975.93
602.12	36260.44
602.478	36218.41
602.836	36318.3
603.194	36203.72
603.552	36351.06
603.91	36235.59
604.268	36661.34
604.625	36616.14
604.983	36693.2
605.341	36623.6
605.698	36998.73
606.056	37175.45
606.413	37111.72
606.771	37346.74
607.128	37419.74
607.485	37532.95
607.843	37523.46
608.2	37898.82
608.557	37980.63
608.914	37992.6
609.272	38270.56
609.629	38407.28
609.986	38411.12
610.343	38358.24
610.7	38633.49
611.057	38736.54
611.414	38677.78
611.771	38842.07
612.127	39102.18
612.484	39163.65
612.841	39200.25
613.198	39257.2
613.554	39320.48
613.911	39625.78
614.267	39624.88
614.624	39760.92
614.98	39846.57
615.337	40205.65
615.693	40130.17
616.05	40109.38
616.406	40449.94
616.762	40514.8
617.118	40585.98
617.475	40604.74
617.831	40697.39
618.187	40890.83
618.543	40916.82
618.899	41096.93
619.255	41080.66
619.611	41094.89
619.967	41340.54
620.323	41585.05
620.678	41522
621.034	41423.25
621.39	41557.93
621.746	41583.92
622.101	42167.41
622.457	41811.71
622.812	41946.85
623.168	42159.05
623.523	42122.44
623.879	42300.74
624.234	42048.99
624.589	42279.27
624.945	42415.99
625.3	42561.97
625.655	42394.97
626.01	42597.23
626.365	42680.39
626.72	42541.41
627.075	42514.29
627.43	42823.44
627.785	42571.24
628.14	42757.9
628.495	42996.54
628.85	42883.1
629.205	42823.44
629.559	43099.14
629.914	42992.25
630.269	43113.37
630.623	43078.8
630.978	43142.3
631.332	43417.09
631.687	43322.86
632.041	43228.17
632.396	43255.06
632.75	43149.76
633.104	43308.85
633.459	43208.06
633.813	43303.88
634.167	43307.49
634.521	43332.8
634.875	43308.17
635.229	43405.79
635.583	43297.55
635.937	43462.97
636.291	43459.8
636.645	43361.28
636.999	43473.81
637.352	43462.06
637.706	43485.34
638.06	43479.46
638.413	43557.88
638.767	43578.67
639.121	43521.27
639.474	43419.13
639.828	43479.24
640.181	43557.65
640.534	43715.16
640.888	43530.99
641.241	43411.44
641.594	43485.11
641.947	43688.95
642.301	43674.49
642.654	43597.88
643.007	43628.16
643.36	43707.03
643.713	43742.96
644.066	43988.83
644.419	43617.09
644.771	43470.2
645.124	43159.25
645.477	43060.49
645.83	42887.39
646.182	42841.97
646.535	42797.45
646.888	42881.97
647.24	42699.6
647.593	42973.94
647.945	42771.69
648.298	42574.4
648.65	42482.43
649.002	42487.85
649.355	42742.08
649.707	42858.01
650.059	43036.76
650.411	43583.87
650.763	43614.6
651.115	44102.95
651.467	43976.85
651.819	44018.43
652.171	43889.62
652.523	43811.21
652.875	43941.37
653.227	43915.61
653.578	44067.02
653.93	44183.4
654.282	43940.69
654.633	43852.56
654.985	44044.2
655.337	43990.64
655.688	44190.63
656.039	44305.43
656.391	43892.56
656.742	44121.03
657.094	44248.94
657.445	44450.06
657.796	44219.78
658.147	44256.39
658.498	44248.94
658.849	44400.8
659.2	44222.95
659.551	44389.72
659.902	44534.13
660.253	44414.13
660.604	44532.54
660.955	44393.34
661.306	44545.42
661.656	44471.98
662.007	44709.71
662.358	44647.79
662.708	44692.31
663.059	44618.87
663.409	44506.1
663.76	44754.23
664.11	44956.71
664.461	44857.28
664.811	44827.9
665.161	44894.57
665.511	44836.26
665.862	44867.45
666.212	45024.96
666.562	45069.48
666.912	45091.4
667.262	45054.56
667.612	45108.12
667.962	45103.15
668.312	45126.65
668.662	45317.16
669.011	45154
669.361	45231.96
669.711	45170.95
670.06	45211.85
670.41	45111.51
670.76	45355.35
671.109	45489.81
671.459	45381.11
671.808	45408
672.157	45536.13
672.507	45283.48
672.856	45212.75
673.205	45426.08
673.554	45496.59
673.904	45361
674.253	45657.71
674.602	45633.53
674.951	45065.41
675.3	44916.26
675.649	45544.72
675.998	45648.45
676.346	45666.53
676.695	45967.53
677.044	45492.29
677.393	45619.07
677.741	45661.78
678.09	45815.67
678.438	45654.1
678.787	45857.93
679.135	45810.7
679.484	45558.05
679.832	45782.23
680.181	45707.88
680.529	45784.71
680.877	45606.87
681.225	45700.42
681.573	46027.42
681.922	45699.52
682.27	45701.1
682.618	45566.87
682.966	45517.83
683.314	45751.04
683.661	45652.74
684.009	45481.9
684.357	45599.18
684.705	45473.08
685.053	45533.42
685.4	45507.89
685.748	45304.05
686.095	45471.73
686.443	45376.59
686.79	45297.04
687.138	45348.79
687.485	45422.46
687.832	45152.64
688.18	45395.8
688.527	45057.95
688.874	45283.71
689.221	45202.58
689.568	45080.1
689.915	44899.54
690.262	44958.07
690.609	44992.42
690.956	44865.64
691.303	44897.05
691.65	44848.47
691.997	44936.83
692.344	44636.5
692.69	44642.15
693.037	44841.91
693.383	44513.34
693.73	44537.52
694.077	44268.14
694.423	44454.81
694.769	44410.74
695.116	44219.33
695.462	44338.65
695.808	44229.95
696.155	44319.67
696.501	44053.69
696.847	44071.54
697.193	43672.68
697.539	43871.54
697.885	43729.18
698.231	43592.23
698.577	43669.06
698.923	43471.55
699.269	43301.39
699.614	43305.91
699.96	43429.75
700.306	43348.39
700.651	43248.74
700.997	43212.8
701.342	43062.3
701.688	43051.45
702.033	42944.79
702.379	43035.63
702.724	42932.36
703.069	42984.79
703.415	42917.44
703.76	42754.29
704.105	42738.69
704.45	42822.76
704.795	42584.12
705.14	42637.68
705.485	42599.94
705.83	42383.67
706.175	42483.11
706.52	42625.48
706.865	42384.8
707.209	42233.4
707.554	42276.33
707.899	42285.6
708.243	42126.73
708.588	42038.37
708.932	41929.45
709.277	41811.71
709.621	42070.46
709.966	41796.12
710.31	42011.48
710.654	41605.16
710.998	41723.13
711.342	41752.28
711.687	41771.94
712.031	41641.32
712.375	41532.4
712.719	41796.34
713.063	41624.82
713.407	41668.44
713.75	41400.65
714.094	41522.45
714.438	41373.76
714.782	41393.64
715.125	41187.1
715.469	41559.51
715.812	41334.21
716.156	41162.24
716.499	41237.04
716.843	41403.36
717.186	41005.18
717.53	41247.43
717.873	41215.34
718.216	41200.2
718.559	41000.43
718.902	40885.63
719.246	41018.29
719.589	40892.64
719.932	40910.94
720.275	40787.33
720.617	40827.33
720.96	40741.23
721.303	40894.22
721.646	40936.25
721.989	40755.69
722.331	40873.88
722.674	40808.57
723.016	40835.69
723.359	40881.11
723.701	40986.2
724.044	40625.3
724.386	40481.35
724.729	40563.38
725.071	40588.01
725.413	40549.15
725.755	40462.14
726.097	40340.11
726.439	40170.62
726.782	40250.62
727.124	40579.65
727.465	40427.57
727.807	40377.4
728.149	40227.57
728.491	40232.09
728.833	40094.24
729.175	40118.42
729.516	40164.07
729.858	40194.35
730.199	40192.77
730.541	40088.14
730.882	40025.77
731.224	40250.4
731.565	40024.64
731.906	40109.61
732.248	40105.54
732.589	39997.52
732.93	39910.97
733.271	40092.21
733.612	40019.67
733.953	40101.02
734.294	39953.46
734.635	39901.48
734.976	39931.53
735.317	39710.07
735.658	39832.33
735.999	39860.58
736.339	39640.47
736.68	39981.25
737.021	39833.46
737.361	39608.83
737.702	39849.73
738.042	39586.46
738.383	39668.72
738.723	39803.18
739.063	39846.57
739.404	39762.05
739.744	39767.47
740.084	39485.67
740.424	39690.64
740.764	39496.74
741.104	39667.81
741.444	39513.92
741.784	39462.62
742.124	39602.96
742.464	39553.47
742.804	39564.09
743.143	39513.69
743.483	39501.04
743.823	39406.58
744.162	39419.46
744.502	39349.63
744.841	39289.97
745.181	39493.35
745.52	39326.8
745.86	39470.98
746.199	39276.41
746.538	39377.88
746.877	39447.48
747.216	39266.02
747.556	39120.26
747.895	39321.16
748.234	39004.33
748.573	39120.48
748.911	39138.56
749.25	39370.65
749.589	39116.19
749.928	39350.76
750.267	39236.41
750.605	39063.76
750.944	39038.68
751.283	39030.32
751.621	39042.07
751.96	38847.5
752.298	38913.48
752.636	38740.61
752.975	38667.39
753.313	38521.4
753.651	38733.15
753.989	38440.73
754.327	38525.7
754.666	38475.98
755.004	38430.78
755.342	38488.86
755.679	38522.08
756.017	38135.88
756.355	38411.8
756.693	38290.9
757.031	38280.5
757.368	37999.38
757.706	37983.34
758.044	37904.24
758.381	38033.73
758.719	37884.36
759.056	37916.45
759.394	37814.75
759.731	37610.24
760.068	37686.85
760.405	37651.82
760.743	37578.6
761.08	37715.55
761.417	37524.37
761.754	37325.5
762.091	37226.3
762.428	37215.9
762.765	37168.67
763.102	37349.68
763.438	37057.49
763.775	37025.85
764.112	37104.94
764.449	37111.04
764.785	36943.14
765.122	36738.85
765.458	36584.73
765.795	36577.27
766.131	36448.46
766.467	36241.01
766.804	36356.49
767.14	36219.99
767.476	36373.89
767.812	36054.57
768.148	36136.15
768.485	35889.16
768.821	35793.11
769.157	35618.65
769.492	35486.91
769.828	35653.68
770.164	35281.94
770.5	35303.18
770.836	35269.96
771.171	35038.78
771.507	35084.66
771.842	34767.83
772.178	34996.3
772.513	34961.5
772.849	34805.34
773.184	34697.77
773.519	34597.44
773.855	34469.98
774.19	34545.46
774.525	34319.03
774.86	34345.92
775.195	34235.19
775.53	34196.09
775.865	34062.31
776.2	33828.19
776.535	33689.21
776.87	33670.68
777.205	33552.49
777.539	33469.11
777.874	33509.56
778.209	33184.37
778.543	33364.7
778.878	33151.6
779.212	33117.93
779.547	32938.95
779.881	33038.61
780.215	32816.47
780.55	32906.18
780.884	32760.65
781.218	32643.36
781.552	32712.52
781.886	32591.84
782.22	32273.88
782.554	32383.71
782.888	31913.44
783.222	31948.47
783.556	31889.26
783.889	31845.42
784.223	31714.8
784.557	31649.04
784.89	31766.55
785.224	31511.87
785.557	31393.91
785.891	31392.78
786.224	31451.08
786.558	31324.98
786.891	31222.84
787.224	31051.09
787.557	31001.37
787.891	30969.51
788.224	30910.98
788.557	30691.33
788.89	30811.77
789.223	30744.88
789.556	30560.93
789.888	30366.14
790.221	30303.54
790.554	30058.12
790.887	30110.55
791.219	30069.65
791.552	30092.02
791.884	29942.64
792.217	29897
792.549	29920.72
792.882	29653.39
793.214	29577.23
793.546	29704.46
793.879	29582.88
794.211	29512.6
794.543	29499.04
794.875	29507.63
795.207	29615.87
795.539	29263.57
795.871	29438.93
796.203	29123.46
796.535	28998.94
796.867	28949.68
797.198	29006.85
797.53	28912.62
797.862	28664.49
798.193	28910.36
798.525	28550.59
798.856	28711.26
799.188	28418.62
799.519	28341.56
799.85	28239.86
800.182	28227.21
800.513	28369.35
800.844	28041.68
801.175	28252.97
801.506	28221.33
801.837	28009.59
802.168	27947.67
802.499	27935.01
802.83	27730.5
803.161	27762.59
803.491	27680.11
803.822	27721.23
804.153	27621.8
804.483	27499.55
804.814	27329.61
805.145	27314.69
805.475	27268.82
805.805	27208.03
806.136	27276.05
806.466	27340.45
806.796	27153.11
807.126	26952.67
807.457	26934.81
807.787	27048.26
808.117	26984.08
808.447	26715.39
808.777	26995.38
809.107	26831.54
809.436	26945.66
809.766	26709.74
810.096	26826.34
810.426	26560.13
810.755	26647.59
811.085	26600.81
811.414	26673.58
811.744	26453.02
812.073	26403.75
812.403	26452.12
812.732	26293.02
813.061	26378.67
813.39	26166.47
813.719	26131.67
814.049	26264.1
814.378	26130.32
814.707	26118.11
815.036	25935.74
815.365	25869.53
815.693	25689.65
816.022	25682.19
816.351	25629.54
816.68	25593.38
817.008	25627.05
817.337	25487.62
817.665	25498.24
817.994	25590.22
818.322	25522.65
818.651	25429.54
818.979	25452.37
819.307	25453.95
819.636	25411.92
819.964	25132.6
820.292	25372.37
820.62	25245.59
820.948	25266.84
821.276	25225.03
821.604	25282.2
821.932	25364.91
822.259	25295.08
822.587	25295.76
822.915	25317.91
823.243	25406.94
823.57	25401.52
823.898	25430.45
824.225	25329.21
824.553	25319.26
824.88	25486.26
825.207	25412.59
825.535	25185.26
825.862	25323.33
826.189	25237.01
826.516	25453.95
826.843	25558.81
827.17	25595.19
827.497	25617.33
827.824	25480.16
828.151	25521.74
828.478	25552.48
828.805	25685.81
829.131	25538.92
829.458	25509.99
829.785	25467.51
830.111	25596.32
830.438	25778.69
830.764	25627.96
831.09	25848.52
831.417	25768.07
831.743	25861.62
832.069	25909.76
832.395	25712.7
832.722	25732.13
833.048	25695.07
833.374	25652.14
833.7	25529.65
834.026	25704.79
834.351	25802.19
834.677	25658.46
835.003	25666.37
835.329	25804.45
835.654	25794.51
835.98	25629.31
836.306	25639.71
836.631	25519.48
836.956	25608.52
837.282	25567.39
837.607	25455.08
837.932	25402.43
838.258	25382.99
838.583	25534.63
838.908	25335.99
839.233	25465.02
839.558	25357.91
839.883	25382.31
840.208	25260.51
840.533	25317.91
840.858	25437.23
841.182	25384.12
841.507	25371.69
841.832	25224.35
842.156	25197.68
842.481	25206.72
842.805	25138.93
843.13	25110.46
843.454	24957.47
843.778	24858.48
844.103	24926.51
844.427	24896.22
844.751	24875.21
845.075	24781.88
845.399	24698.26
845.723	24668.43
846.047	24620.98
846.371	24489.68
846.695	24494.88
847.019	24359.51
847.343	24216.69
847.666	24016.47
847.99	24034.55
848.313	23988.9
848.637	23954.33
848.96	23935.8
849.284	23912.97
849.607	23726.09
849.931	23704.84
850.254	23541.68
850.577	23469.59
850.9	23398.18
851.223	23479.76
851.546	23299.2
851.869	23034.58
852.192	23295.36
852.515	23030.51
852.838	22997.74
853.161	23009.72
853.483	22899.67
853.806	22759.33
854.129	22816.05
854.451	22752.55
854.774	22602.27
855.096	22634.59
855.419	22461.94
855.741	22548.94
856.063	22459
856.385	22464.65
856.708	22359.79
857.03	22165.9
857.352	22205.9
857.674	22133.58
857.996	22024.21
858.318	22091.78
858.64	22005
858.961	21979.46
859.283	21890.65
859.605	21753.93
859.926	21790.99
860.248	21820.15
860.57	21770.66
860.891	21852.91
861.212	21636.87
861.534	21617.44
861.855	21684.33
862.176	21646.37
862.498	21678.68
862.819	21758.23
863.14	21563.66
863.461	21610.89
863.782	21551.91
864.103	21513.04
864.424	21380.61
864.745	21452.47
865.065	21240.05
865.386	21192.59
865.707	21325.02
866.027	21227.17
866.348	21223.1
866.668	21169.09
866.989	21104.23
867.309	21072.14
867.63	21162.54
867.95	21287.28
868.27	21043.44
868.59	21108.3
868.91	21118.24
869.23	20935.2
869.55	20968.42
869.87	21118.92
870.19	20967.74
870.51	21027.4
870.83	21049.32
871.15	20808.2
871.469	20812.49
871.789	20813.62
872.109	20932.49
872.428	20731.81
872.748	20736.79
873.067	20692.27
873.386	20925.03
873.706	20817.69
874.025	20687.52
874.344	20649.56
874.663	20768.2
874.982	20652.27
875.301	20703.11
875.62	20650.46
875.939	20587.64
876.258	20619.5
876.577	20431.03
876.896	20582.89
877.214	20642.32
877.533	20627.18
877.852	20626.51
878.17	20562.33
878.489	20530.01
878.807	20478.94
879.125	20515.32
879.444	20414.76
879.762	20461.54
880.08	20403.91
880.398	20432.84
880.716	20304.25
881.034	20220.87
881.352	20186.52
881.67	20214.99
881.988	20092.28
882.306	20143.58
882.624	20154.88
882.941	20008.67
883.259	19883.93
883.577	19980.87
883.894	19847.09
884.212	19918.05
884.529	19957.6
884.846	19926.64
885.164	20005.05
885.481	19793.08
885.798	19836.24
886.115	19679.64
886.432	19729.81
886.75	19678.06
887.067	19722.35
887.383	19508.79
887.7	19591.96
888.017	19536.36
888.334	19513.77
888.651	19563.26
888.967	19500.43
889.284	19290.04
889.6	19259.31
889.917	19154.91
890.233	19180.44
890.55	19049.15
890.866	19090.05
891.182	19072.87
891.498	19060.67
891.815	18968.7
892.131	18881.69
892.447	18790.17
892.763	18834.46
893.079	18699.32
893.395	18578.65
893.71	18642.83
894.026	18679.66
894.342	18574.13
894.657	18587.46
894.973	18472.21
895.289	18528.48
895.604	18469.95
895.92	18450.07
896.235	18351.76
896.55	18289.17
896.865	18309.5
897.181	18290.52
897.496	18324.65
897.811	18106.12
898.126	18039.46
898.441	17988.61
898.756	18051.43
899.071	17942.28
899.386	17829.97
899.7	17785.45
900.015	17714.72
900.33	17549.07
900.644	17447.83
900.959	17539.36
901.273	17516.53
901.588	17499.58
901.902	17427.95
902.216	17388.62
902.531	17383.2
902.845	17408.51
903.159	17236.76
903.473	17075.41
903.787	17118.35
904.101	17055.3
904.415	17004.23
904.729	16876.55
905.042	16854.63
905.356	16875.87
905.67	16810.56
905.984	16770.34
906.297	16704.8
906.611	16613.28
906.924	16594.3
907.237	16432.04
907.551	16406.96
907.864	16434.53
908.177	16444.02
908.491	16328.54
908.804	16244.02
909.117	16141.2
909.43	16124.25
909.743	16096.46
910.056	16023.24
910.368	15902.11
910.681	15927.87
910.994	15833.19
911.307	15784.37
911.619	15610.14
911.932	15771.04
912.244	15639.97
912.557	15597.94
912.869	15429.13
913.181	15442.69
913.494	15447.66
913.806	15217.61
914.118	15252.41
914.43	15246.99
914.742	15217.16
915.054	15076.6
915.366	15039.08
915.678	15049.93
915.99	15035.69
916.302	14762.71
916.613	14832.08
916.925	14866.21
917.236	14813.1
917.548	14646.55
917.859	14684.74
918.171	14565.87
918.482	14501.92
918.794	14466.44
919.105	14415.82
919.416	14346.9
919.727	14240.01
920.038	14193.45
920.349	14150.97
920.66	14047.7
920.971	14128.6
921.282	14115.04
921.593	13894.48
921.903	13818.1
922.214	13941.03
922.525	13781.94
922.835	13718.44
923.146	13578.78
923.456	13604.77
923.767	13630.08
924.077	13525.9
924.387	13517.31
924.697	13546.69
925.008	13403.19
925.318	13351.22
925.628	13303.31
925.938	13268.06
926.248	13049.3
926.558	13218.79
926.867	13063.77
927.177	13011.11
927.487	13002.98
927.796	12827.61
928.106	12816.32
928.416	12855.41
928.725	12750.55
929.034	12685.47
929.344	12776.77
929.653	12740.84
929.962	12546.49
930.271	12530.9
930.581	12512.59
930.89	12448.19
931.199	12434.4
931.508	12409.55
931.817	12320.96
932.125	12347.63
932.434	12284.8
932.743	12177.46
933.051	12180.63
933.36	12130.01
933.669	11969.11
933.977	11966.17
934.286	11871.26
934.594	11911.03
934.902	11806.85
935.21	11747.42
935.519	11706.29
935.827	11704.03
936.135	11649.57
936.443	11534.09
936.751	11514.2
937.059	11505.84
937.367	11413.19
937.674	11469.01
937.982	11407.54
938.29	11340.42
938.597	11329.35
938.905	11205.74
939.213	11237.83
939.52	11182.01
939.827	11140.43
940.135	11045.06
940.442	11067.89
940.749	10936.14
941.056	10975.46
941.363	10899.53
941.67	10866.99
941.977	10778.63
942.284	10715.81
942.591	10728.23
942.898	10679.87
943.205	10657.05
943.511	10624.06
943.818	10576.15
944.125	10482.82
944.431	10541.35
944.738	10390.62
945.044	10400.33
945.35	10294.12
945.657	10301.58
945.963	10349.26
946.269	10191.98
946.575	10213.9
946.881	10152.43
947.187	10094.13
947.493	10081.7
947.799	9994.47
948.105	9966.22
948.41	9997.63
948.716	9873.12
949.022	9780.01
949.327	9883.29
949.633	9842.83
949.938	9762.61
950.244	9775.04
950.549	9672.9
950.854	9652.1
951.16	9626.12
951.465	9506.57
951.77	9492.56
952.075	9476.06
952.38	9441.72
952.685	9374.37
952.99	9232.45
953.294	9279.46
953.599	9269.29
953.904	9159.46
954.209	9098.9
954.513	9137.32
954.818	9084.21
955.122	9109.07
955.426	9032.91
955.731	8964.44
956.035	8913.37
956.339	8914.72
956.643	8843.54
956.948	8771.68
957.252	8851
957.556	8765.8
957.86	8746.82
958.163	8694.16
958.467	8675.18
958.771	8648.97
959.075	8638.35
959.378	8559.25
959.682	8556.77
959.985	8444.23
960.289	8393.83
960.592	8398.8
960.896	8399.26
961.199	8345.7
961.502	8304.34
961.805	8271.8
962.108	8219.6
962.411	8159.04
962.714	8159.04
963.017	8071.58
963.32	8098.7
963.623	8024.13
963.926	8050.11
964.228	8004.46
964.531	7996.33
964.833	8002.66
965.136	7891.25
965.438	7879.95
965.741	7901.19
966.043	7818.93
966.345	7765.83
966.648	7756.56
966.95	7698.48
967.252	7665.72
967.554	7629.56
967.856	7611.48
968.158	7530.8
968.46	7552.95
968.761	7508.21
969.063	7501.2
969.365	7437.02
969.666	7412.62
969.968	7331.26
970.269	7253.07
970.571	7245.84
970.872	7234.54
971.174	7230.47
971.475	7200.42
971.776	7175.79
972.077	7201.1
972.378	7102.57
972.679	7137.59
972.98	7092.17
973.281	7035.9
973.582	6983.7
973.883	6998.16
974.183	6960.42
974.484	6887.43
974.785	6801.56
975.085	6813.76
975.386	6872.52
975.686	6824.16
975.986	6727.44
976.287	6753.65
976.587	6696.02
976.887	6672.07
977.187	6676.59
977.487	6624.61
977.787	6565.41
978.087	6600.43
978.387	6522.02
978.687	6570.83
978.987	6468.46
979.286	6477.95
979.586	6422.59
979.885	6384.85
980.185	6338.75
980.484	6317.73
980.784	6318.18
981.083	6272.98
981.382	6272.53
981.682	6272.31
981.981	6211.97
982.28	6181.24
982.579	6162.25
982.878	6173.1
983.177	6091.97
983.475	6084.74
983.774	5983.05
984.073	5951.19
984.372	5934.91
984.67	5897.63
984.969	5914.12
985.267	5937.63
985.566	5851.3
985.864	5837.06
986.162	5852.66
986.461	5747.8
986.759	5729.72
987.057	5736.5
987.355	5688.37
987.653	5659.44
987.951	5645.66
988.249	5624.19
988.547	5623.96
988.844	5591.87
989.142	5555.49
989.44	5561.59
989.737	5497.64
990.035	5493.57
990.332	5496.73
990.63	5461.93
990.927	5437.07
991.224	5405.21
991.521	5309.39
991.819	5337.42
992.116	5330.41
992.413	5300.13
992.71	5219.91
993.006	5215.39
993.303	5169.96
993.6	5172.45
993.897	5206.57
994.193	5180.81
994.49	5148.04
994.787	5097.87
995.083	5037.99
995.379	5000.7
995.676	4966.8
995.972	4976.3
996.268	4965.67
996.565	4932.91
996.861	4953.47
997.157	4870.54
997.453	4879.12
997.749	4874.83
998.044	4818.79
998.34	4787.15
998.636	4764.55
998.932	4748.73
999.227	4730.43
999.523	4691.78
999.818	4642.75
1000.114	4640.03
1000.409	4605.46
1000.704	4580.37
1001	4608.85
1001.295	4579.24
1001.59	4506.7
1001.885	4500.83
1002.18	4425.8
1002.475	4412.92
1002.77	4403.43
1003.065	4364.33
1003.359	4333.37
1003.654	4370.44
1003.949	4302.87
1004.243	4285.24
1004.538	4231.23
1004.832	4215.86
1005.127	4231.91
1005.421	4159.59
1005.715	4162.08
1006.009	4165.02
1006.304	4106.49
1006.598	4048.41
1006.892	4015.42
1007.186	4033.5
1007.48	4017.22
1007.773	3982.42
1008.067	3999.6
1008.361	3930.9
1008.655	3920.73
1008.948	3932.03
1009.242	3892.71
1009.535	3919.15
1009.829	3819.72
1010.122	3787.17
1010.415	3825.14
1010.708	3796.44
1011.001	3751.92
1011.295	3723.67
1011.588	3737.01
1011.881	3682.54
1012.173	3626.27
1012.466	3652.94
1012.759	3642.32
1013.052	3593.96
1013.344	3545.82
1013.637	3531.59
1013.93	3548.54
1014.222	3479.84
1014.514	3458.6
1014.807	3479.39
1015.099	3429.9
1015.391	3403.23
1015.683	3397.35
1015.976	3332.72
1016.268	3337.69
1016.56	3332.72
1016.851	3299.05
1017.143	3284.81
1017.435	3248.43
1017.727	3230.58
1018.018	3215.66
1018.31	3179.51
1018.602	3146.06
1018.893	3121.88
1019.185	3126.85
1019.476	3077.36
1019.767	3105.61
1020.058	3063.58
1020.35	3024.48
1020.641	2992.62
1020.932	2979.29
1021.223	2986.74
1021.514	2963.92
1021.804	2891.6
1022.095	2885.28
1022.386	2848.44
1022.677	2867.88
1022.967	2838.95
1023.258	2827.88
1023.548	2801.89
1023.839	2829.23
1024.129	2756.47
1024.419	2752.17
1024.709	2749.69
1025	2727.77
1025.29	2684.15
1025.58	2669.69
1025.87	2644.15
1026.16	2633.31
1026.449	2608.9
1026.739	2594.44
1027.029	2541.11
1027.319	2522.35
1027.608	2525.06
1027.898	2492.97
1028.187	2513.99
1028.477	2485.29
1028.766	2481.67
1029.055	2431.05
1029.344	2413.43
1029.634	2370.49
1029.923	2411.84
1030.212	2343.82
1030.501	2325.52
1030.79	2325.52
1031.078	2290.72
1031.367	2291.39
1031.656	2254.33
1031.945	2251.85
1032.233	2244.62
1032.522	2237.16
1032.81	2198.29
1033.099	2180.44
1033.387	2163.26
1033.675	2172.53
1033.963	2136.82
1034.251	2128.24
1034.54	2101.57
1034.828	2111.29
1035.116	2072.42
1035.403	2064.51
1035.691	2032.19
1035.979	2015.02
1036.267	2002.59
1036.554	1948.58
1036.842	1991.74
1037.129	1988.35
1037.417	1944.29
1037.704	1920.78
1037.992	1895.47
1038.279	1897.96
1038.566	1885.98
1038.853	1885.98
1039.14	1885.98
