Data from copper_heatsink_FLMS001491_096.txt Node
Date: Tue Feb 07 10:50:53 GMT 2017
User: dcchb
Spectrometer: FLMS00149
Trigger mode: 0
Integration Time (sec): 2.000000E-2
Scans to average: 10
Electric dark correction enabled: true
Nonlinearity correction enabled: false
Boxcar width: 0
XAxis mode: Wavelengths
Number of Pixels in Spectrum: 2048
>>>>>Begin Spectral Data<<<<<
341.393	-13.33
341.776	-13.33
342.16	-13.33
342.543	-76.38
342.927	-68.25
343.31	-84.74
343.693	-89.04
344.077	-68.47
344.46	-64.18
344.843	-29.38
345.226	-37.74
345.61	-30.06
345.993	-18.3
346.376	9.49
346.759	4.52
347.142	19.89
347.525	48.59
347.908	59.43
348.291	83.84
348.674	110.51
349.057	85.65
349.44	120
349.823	140.56
350.206	169.94
350.588	199.54
350.971	221.92
351.354	230.05
351.737	249.03
352.119	246.55
352.502	273.44
352.884	290.16
353.267	274.12
353.65	310.73
354.032	309.14
354.414	325.87
354.797	334.91
355.179	319.09
355.562	322.25
355.944	330.84
356.326	323.16
356.709	326.32
357.091	350.05
357.473	349.6
357.855	344.17
358.238	348.47
358.62	340.33
359.002	341.46
359.384	337.84
359.766	342.36
360.148	344.4
360.53	343.49
360.912	335.58
361.294	336.04
361.676	351.4
362.057	351.18
362.439	325.19
362.821	315.47
363.203	338.97
363.584	330.61
363.966	327.9
364.348	314.79
364.729	316.15
365.111	322.48
365.493	324.51
365.874	322.7
366.256	322.25
366.637	320.44
367.019	316.83
367.4	312.53
367.781	324.06
368.163	310.5
368.544	328.13
368.925	329.03
369.306	319.77
369.688	337.62
370.069	338.97
370.45	322.7
370.831	327.9
371.212	359.76
371.593	323.38
371.974	313.44
372.355	315.92
372.736	305.08
373.117	332.42
373.498	303.95
373.879	330.39
374.26	317.28
374.641	317.73
375.021	315.25
375.402	352.76
375.783	337.17
376.163	334.68
376.544	341.91
376.925	329.03
377.305	353.21
377.686	314.57
378.066	340.56
378.447	363.61
378.827	338.52
379.208	318.64
379.588	331.52
379.968	357.05
380.349	338.75
380.729	353.66
381.109	339.43
381.489	351.86
381.87	357.96
382.25	350.05
382.63	361.12
383.01	333.1
383.39	356.6
383.77	362.48
384.15	350.95
384.53	358.18
384.91	366.32
385.29	369.03
385.67	363.61
386.049	358.86
386.429	375.13
386.809	359.09
387.189	368.13
387.568	370.16
387.948	387.11
388.328	413.32
388.707	384.17
389.087	395.24
389.466	389.37
389.846	396.15
390.225	379.65
390.605	400.89
390.984	388.24
391.363	382.14
391.743	387.33
392.122	404.74
392.501	393.21
392.881	411.74
393.26	400.44
393.639	400.22
394.018	400.22
394.397	375.58
394.776	390.5
395.155	411.51
395.534	413.1
395.913	404.74
396.292	399.76
396.671	413.77
397.05	415.13
397.429	409.71
397.808	395.7
398.186	427.11
398.565	419.88
398.944	419.42
399.323	402.7
399.701	432.98
400.08	425.53
400.458	422.14
400.837	427.11
401.215	434.11
401.594	424.85
401.972	435.69
402.351	430.27
402.729	425.98
403.107	443.83
403.486	428.69
403.864	447.67
404.242	433.43
404.62	435.47
404.999	435.69
405.377	451.74
405.755	466.2
406.133	441.8
406.511	438.86
406.889	459.65
407.267	467.33
407.645	455.81
408.023	450.38
408.401	438.41
408.779	472.98
409.156	486.09
409.534	503.26
409.912	473.43
410.29	475.24
410.667	480.89
411.045	520.21
411.422	487.9
411.8	517.05
412.178	479.31
412.555	498.29
412.933	496.94
413.31	519.76
413.687	502.13
414.065	499.2
414.442	498.52
414.819	536.48
415.197	522.47
415.574	533.77
415.951	534.68
416.328	535.58
416.705	528.57
417.082	531.74
417.46	559.31
417.837	533.32
418.214	550.72
418.591	551.62
418.967	553.66
419.344	536.94
419.721	562.02
420.098	576.03
420.475	574.9
420.852	552.53
421.228	556.37
421.605	571.28
421.982	564.05
422.358	564.28
422.735	576.93
423.111	557.05
423.488	591.62
423.864	568.35
424.241	577.39
424.617	583.71
424.994	597.95
425.37	590.72
425.746	592.98
426.123	581.23
426.499	619.42
426.875	625.29
427.251	603.15
427.627	609.25
428.003	631.62
428.379	629.59
428.756	633.43
429.132	640.21
429.507	641.34
429.883	663.26
430.259	684.73
430.635	644.05
431.011	661.68
431.387	672.07
431.763	682.02
432.138	687.21
432.514	698.51
432.89	715.46
433.265	699.64
433.641	704.61
434.016	719.53
434.392	716.59
434.767	699.19
435.143	727.66
435.518	719.98
435.894	723.6
436.269	731.96
436.644	743.48
437.02	729.92
437.395	750.49
437.77	749.13
438.145	740.09
438.52	770.6
438.895	785.29
439.271	749.81
439.646	783.93
440.021	788
440.395	814.44
440.77	784.16
441.145	776.7
441.52	791.84
441.895	819.41
442.27	819.64
442.645	798.17
443.019	799.75
443.394	820.09
443.769	831.62
444.143	835.46
444.518	823.93
444.892	815.12
445.267	853.54
445.641	844.05
446.016	834.78
446.39	858.73
446.764	871.39
447.139	861.67
447.513	859.19
447.887	893.08
448.262	895.12
448.636	886.08
449.01	864.61
449.384	891.5
449.758	894.67
450.132	895.57
450.506	898.28
450.88	934.89
451.254	935.57
451.628	928.11
452.002	957.49
452.376	928.56
452.75	946.87
453.123	936.92
453.497	956.13
453.871	957.71
454.244	1009.24
454.618	1003.36
454.992	1013.76
455.365	996.13
455.739	1004.49
456.112	1011.27
456.486	1033.42
456.859	1051.27
457.232	1037.49
457.606	1061.89
457.979	1082.23
458.352	1088.33
458.725	1095.34
459.099	1120.2
459.472	1131.27
459.845	1096.24
460.218	1102.12
460.591	1160.2
460.964	1111.84
461.337	1161.55
461.71	1172.62
462.083	1179.86
462.456	1217.82
462.829	1215.34
463.201	1207.88
463.574	1216.92
463.947	1220.31
464.32	1276.35
464.692	1234.32
465.065	1290.81
465.438	1294.2
465.81	1317.71
466.183	1324.71
466.555	1313.86
466.928	1338.95
467.3	1346.63
467.672	1359.74
468.045	1401.77
468.417	1396.35
468.789	1416.69
469.161	1442.22
469.534	1439.06
469.906	1457.14
470.278	1474.76
470.65	1497.81
471.022	1505.95
471.394	1550.02
471.766	1538.26
472.138	1548.66
472.51	1597.25
472.882	1607.64
473.253	1612.39
473.625	1667.3
473.997	1697.58
474.369	1696
474.74	1714.31
475.112	1734.87
475.484	1789.33
475.855	1807.86
476.227	1811.25
476.598	1866.39
476.97	1892.15
477.341	1916.33
477.713	1934.41
478.084	1964.24
478.455	1987.07
478.827	2018.7
479.198	2037.23
479.569	2073.62
479.94	2103.9
480.311	2126.95
480.682	2182.09
481.053	2224.57
481.424	2266.83
481.795	2251.92
482.166	2294.4
482.537	2325.14
482.908	2359.49
483.279	2377.34
483.65	2428.86
484.021	2477
484.391	2509.99
484.762	2511.57
485.133	2549.09
485.503	2545.02
485.874	2603.77
486.244	2622.76
486.615	2676.99
486.985	2743.88
487.356	2794.95
487.726	2778.23
488.097	2853.26
488.467	2836.08
488.837	2906.36
489.207	2941.17
489.578	3005.12
489.948	3034.5
490.318	3059.81
490.688	3083.08
491.058	3137.77
491.428	3173.25
491.798	3207.6
492.168	3245.34
492.538	3254.15
492.908	3327.6
493.278	3358.56
493.648	3358.1
494.017	3366.92
494.387	3424.32
494.757	3437.42
495.126	3478.55
495.496	3495.73
495.866	3568.49
496.235	3557.19
496.605	3610.07
496.974	3623.86
497.344	3698.89
497.713	3695.95
498.082	3709.28
498.452	3805.1
498.821	3792.89
499.19	3783.4
499.559	3813.46
499.928	3885.55
500.298	3866.79
500.667	3907.92
501.036	3936.62
501.405	3979.1
501.774	3977.52
502.143	4016.39
502.512	4030.63
502.88	4088.93
503.249	4048.48
503.618	4095.03
503.987	4084.19
504.356	4176.84
504.724	4194.01
505.093	4217.74
505.462	4293.22
505.83	4236.5
506.199	4317.4
506.567	4380.68
506.936	4359.21
507.304	4454.35
507.672	4454.12
508.041	4518.98
508.409	4515.59
508.777	4510.84
509.145	4578.18
509.514	4584.74
509.882	4665.41
510.25	4636.26
510.618	4664.51
510.986	4730.27
511.354	4786.54
511.722	4847.78
512.09	4845.07
512.458	4874.67
512.826	4912.19
513.193	4939.08
513.561	4986.54
513.929	5039.19
514.297	5066.99
514.664	5146.98
515.032	5117.61
515.4	5170.71
515.767	5190.82
516.135	5247.32
516.502	5222.46
516.869	5307.43
517.237	5321.22
517.604	5368.22
517.972	5437.37
518.339	5443.92
518.706	5502.68
519.073	5523.02
519.44	5565.5
519.808	5636.91
520.175	5672.85
520.542	5690.47
520.909	5769.79
521.276	5774.54
521.643	5812.73
522.009	5851.82
522.376	5924.59
522.743	6015.89
523.11	6002.1
523.477	6117.35
523.843	6156.45
524.21	6193.06
524.577	6239.38
524.943	6295.65
525.31	6356.44
525.676	6464.91
526.043	6439.15
526.409	6463.11
526.776	6527.74
527.142	6595.98
527.508	6624.68
527.874	6682.54
528.241	6735.64
528.607	6750.11
528.973	6827.17
529.339	6902.64
529.705	6978.35
530.071	6999.59
530.437	7085.69
530.803	7083.2
531.169	7127.5
531.535	7174.05
531.901	7208.62
532.267	7249.98
532.632	7305.8
532.998	7342.86
533.364	7358.9
533.73	7440.48
534.095	7523.87
534.461	7588.73
534.826	7611.78
535.192	7623.08
535.557	7736.29
535.923	7716.86
536.288	7804.31
536.653	7828.95
537.019	7824.65
537.384	7946.46
537.749	7973.8
538.114	8005.67
538.479	7971.54
538.845	8079.56
539.21	8021.71
539.575	8120.46
539.94	8211.76
540.305	8268.03
540.67	8268.71
541.034	8277.07
541.399	8356.62
541.764	8426.67
542.129	8430.06
542.494	8514.58
542.858	8528.82
543.223	8578.31
543.587	8653.33
543.952	8676.83
544.316	8707.34
544.681	8692.43
545.045	8828.24
545.41	8826.43
545.774	8912.76
546.138	9007.67
546.503	8982.36
546.867	9075.69
547.231	9152.75
547.595	9196.14
547.959	9248.12
548.324	9286.31
548.688	9273.2
549.052	9398.62
549.416	9517.72
549.779	9473.65
550.143	9507.55
550.507	9618.73
550.871	9699.41
551.235	9721.1
551.599	9857.14
551.962	9859.18
552.326	9965.84
552.689	10011.94
553.053	10049.68
553.417	10143.91
553.78	10305.72
554.143	10347.07
554.507	10385.94
554.87	10470.23
555.234	10548.65
555.597	10627.29
555.96	10726.05
556.323	10803.33
556.686	10800.62
557.05	10907.06
557.413	11001.07
557.776	11135.07
558.139	11286.26
558.502	11340.27
558.865	11389.08
559.228	11516.53
559.59	11652.12
559.953	11726.25
560.316	11936.86
560.679	11948.61
561.041	12013.7
561.404	12133.69
561.767	12304.99
562.129	12326.23
562.492	12518.99
562.854	12582.04
563.217	12706.33
563.579	12780.45
563.941	12849.61
564.304	13110.62
564.666	13230.39
565.028	13360.1
565.39	13437.39
565.753	13551.51
566.115	13651.84
566.477	13804.38
566.839	13948.79
567.201	14107.65
567.563	14108.78
567.925	14327.08
568.287	14432.84
568.648	14564.36
569.01	14719.84
569.372	14866.05
569.734	14888.65
570.095	15099.72
570.457	15209.54
570.819	15321.41
571.18	15465.58
571.542	15660.15
571.903	15739.02
572.265	15883.88
572.626	15922.29
572.987	16099.92
573.349	16171.55
573.71	16372
574.071	16409.51
574.432	16574.71
574.794	16755.04
575.155	16816.73
575.516	16975.37
575.877	17116.61
576.238	17187.34
576.599	17414.01
576.96	17467.79
577.32	17455.36
577.681	17623.04
578.042	17733.32
578.403	17865.07
578.763	17949.36
579.124	18027.1
579.485	18226.19
579.845	18305.28
580.206	18395.9
580.566	18470.7
580.927	18575.78
581.287	18669.34
581.648	18695.33
582.008	18916.34
582.368	19003.12
582.728	18992.95
583.089	19098.93
583.449	19118.59
583.809	19310.45
584.169	19317.68
584.529	19355.42
584.889	19561.29
585.249	19564.01
585.609	19521.75
585.969	19696.66
586.329	19797.45
586.688	19782.3
587.048	19929.19
587.408	19926.93
587.768	20004.45
588.127	20056.65
588.487	20157.44
588.846	20287.38
589.206	20282.18
589.565	20377.54
589.925	20378.67
590.284	20539.57
590.643	20606.01
591.003	20667.71
591.362	20821.15
591.721	20884.42
592.08	20865.67
592.44	21029.28
592.799	20981.37
593.158	21012.1
593.517	21057.3
593.876	21136.62
594.235	21076.51
594.593	21209.84
594.952	21341.81
595.311	21350.85
595.67	21450.28
596.029	21659.77
596.387	21702.25
596.746	21822.03
597.104	21703.61
597.463	21753.78
597.822	21932.3
598.18	21782.93
598.538	21945.19
598.897	22191.05
599.255	22105.41
599.613	22439.86
599.972	22254.1
600.33	22384.5
600.688	22350.15
601.046	22452.97
601.404	22711.95
601.762	22551.72
602.12	22762.79
602.478	22793.52
602.836	22782.9
603.194	22740.42
603.552	22914.43
603.91	22879.4
604.268	23102.22
604.625	23028.55
604.983	23304.92
605.341	23120.07
605.698	23331.14
606.056	23386.96
606.413	23350.8
606.771	23481.42
607.128	23654.97
607.485	23503.56
607.843	23659.49
608.2	23819.49
608.557	23924.79
608.914	23872.14
609.272	24048.63
609.629	24088.18
609.986	24276.42
610.343	24154.39
610.7	24303.99
611.057	24359.59
611.414	24451.79
611.771	24608.62
612.127	24422.41
612.484	24652.01
612.841	24873.92
613.198	24720.25
613.554	24694.49
613.911	24962.06
614.267	25013.58
614.624	24988.72
614.98	25107.81
615.337	25184.2
615.693	25237.53
616.05	25282.73
616.406	25544.87
616.762	25427.13
617.118	25398.43
617.475	25518.88
617.831	25610.17
618.187	25697.18
618.543	25844.29
618.899	25915.48
619.255	25951.18
619.611	25959.77
619.967	25984.63
620.323	26152.31
620.678	26034.8
621.034	26144.17
621.39	26097.62
621.746	26153.21
622.101	26471.85
622.457	26243.6
622.812	26303.94
623.168	26503.26
623.523	26534.9
623.879	26627.77
624.234	26439.3
624.589	26552.97
624.945	26476.37
625.3	26584.16
625.655	26671.16
626.01	26714.55
626.365	26821.22
626.72	26719.3
627.075	26871.38
627.43	26796.58
627.785	26716.36
628.14	26954.55
628.495	26834.77
628.85	26892.17
629.205	26937.37
629.559	26991.15
629.914	26964.04
630.269	27027.76
630.623	27112.51
630.978	27065.05
631.332	27227.31
631.687	27165.39
632.041	27112.96
632.396	27127.65
632.75	27180.98
633.104	27225.05
633.459	27132.39
633.813	27111.83
634.167	27240.41
634.521	27189.79
634.875	27288.1
635.229	27186.18
635.583	27072.28
635.937	27162.9
636.291	27079.06
636.645	27089.23
636.999	27151.15
637.352	27277.7
637.706	27127.65
638.06	27126.74
638.413	27200.64
638.767	27130.13
639.121	27268.44
639.474	27232.5
639.828	27293.07
640.181	27247.19
640.534	27314.54
640.888	27283.12
641.241	27131.04
641.594	27178.27
641.947	27306.17
642.301	27301.66
642.654	27303.91
643.007	27345.04
643.36	27346.85
643.713	27212.17
644.066	27526.28
644.419	27275.67
644.771	27004.26
645.124	26809.69
645.477	26695.12
645.83	26584.39
646.182	26557.49
646.535	26497.38
646.888	26688.11
647.24	26587.78
647.593	26732.4
647.945	26685.63
648.298	26762.23
648.65	26510.72
649.002	26611.05
649.355	26702.12
649.707	26539.64
650.059	26544.84
650.411	27065.73
650.763	27049.91
651.115	27333.74
651.467	27249.68
651.819	27458.04
652.171	27131.04
652.523	27302.11
652.875	27216.91
653.227	27102.56
653.578	27404.25
653.93	27423.69
654.282	27226.4
654.633	27064.6
654.985	27168.33
655.337	27402.9
655.688	27304.59
656.039	27372.61
656.391	27161.77
656.742	27177.36
657.094	27234.31
657.445	27500.97
657.796	27404.48
658.147	27318.15
658.498	27269.57
658.849	27381.43
659.2	27447.64
659.551	27320.19
659.902	27432.05
660.253	27405.16
660.604	27412.61
660.955	27417.36
661.306	27472.05
661.656	27378.26
662.007	27539.84
662.358	27534.19
662.708	27477.02
663.059	27507.53
663.409	27504.14
663.76	27647.41
664.11	27758.82
664.461	27654.41
664.811	27602.21
665.161	27638.14
665.511	27597.92
665.862	27634.08
666.212	27862.09
666.562	27824.58
666.912	27742.55
667.262	27643.34
667.612	27815.99
667.962	27877.01
668.312	27766.95
668.662	27852.83
669.011	27969.21
669.361	27999.04
669.711	27990
670.06	27895.31
670.41	27889.89
670.76	27692.38
671.109	27916.1
671.459	27881.53
671.808	27794.75
672.157	27876.78
672.507	27743.68
672.856	27770.8
673.205	27921.3
673.554	28005.59
673.904	27848.76
674.253	28014.18
674.602	27953.39
674.951	27582.78
675.3	27431.82
675.649	28047.17
675.998	27954.52
676.346	28039.49
676.695	28140.95
677.044	27893.05
677.393	27840.17
677.741	28013.73
678.09	28055.31
678.438	27925.59
678.787	28114.74
679.135	27963.56
679.484	27764.24
679.832	27939.83
680.181	27801.53
680.529	27834.07
680.877	27903.9
681.225	27793.62
681.573	27899.83
681.922	27858.7
682.27	27824.35
682.618	27780.06
682.966	27733.06
683.314	27754.3
683.661	27682.44
684.009	27635.88
684.357	27590.24
684.705	27500.97
685.053	27634.75
685.4	27706.84
685.748	27666.84
686.095	27554.3
686.443	27385.04
686.79	27357.7
687.138	27443.57
687.485	27544.36
687.832	27316.8
688.18	27312.28
688.527	27346.17
688.874	27269.79
689.221	27360.64
689.568	27292.16
689.915	27194.54
690.262	27271.83
690.609	27204.03
690.956	26969.46
691.303	27039.52
691.65	26835.68
691.997	26911.61
692.344	26871.61
692.69	26984.15
693.037	26791.39
693.383	26633.2
693.73	26723.59
694.077	26620.54
694.423	26552.3
694.769	26635.46
695.116	26595.46
695.462	26428.68
695.808	26459.87
696.155	26442.69
696.501	26324.51
696.847	26384.62
697.193	26204.51
697.539	26365.41
697.885	26166.54
698.231	25963.39
698.577	26015.36
698.923	26099.88
699.269	26040.22
699.614	25900.11
699.96	25846.1
700.306	25894.46
700.651	25747.8
700.997	25712.77
701.342	25692.88
701.688	25782.6
702.033	25680
702.379	25714.8
702.724	25551.87
703.069	25672.09
703.415	25224.65
703.76	25358.2
704.105	25399.11
704.45	25329.96
704.795	25182.39
705.14	25139.68
705.485	25258.09
705.83	25137.42
706.175	25175.84
706.52	25051.09
706.865	24969.06
707.209	24964.09
707.554	24804.77
707.899	24925.9
708.243	24846.58
708.588	24861.95
708.932	24660.37
709.277	24668.5
709.621	24823.3
709.966	24596.87
710.31	24639.8
710.654	24450.88
710.998	24589.64
711.342	24638
711.687	24586.25
712.031	24442.52
712.375	24433.93
712.719	24362.52
713.063	24282.98
713.407	24452.24
713.75	24306.93
714.094	24212.47
714.438	24211.34
714.782	24311.23
715.125	24141.51
715.469	24192.81
715.812	24086.82
716.156	23937.9
716.499	24004.34
716.843	24042.98
717.186	23851.12
717.53	24007.96
717.873	24021.06
718.216	23980.61
718.559	23931.35
718.902	23828.3
719.246	23827.17
719.589	23801.41
719.932	23752.14
720.275	23748.3
720.617	23718.02
720.96	23785.14
721.303	23733.39
721.646	23722.09
721.989	23612.26
722.331	23630.57
722.674	23548.53
723.016	23670.56
723.359	23593.5
723.701	23545.6
724.044	23443.68
724.386	23392.61
724.729	23502.88
725.071	23494.3
725.413	23369.33
725.755	23421.76
726.097	23413.17
726.439	23259.05
726.782	23370.23
727.124	23519.83
727.465	23260.86
727.807	23455.2
728.149	23246.85
728.491	23376.79
728.833	23381.31
729.175	23246.62
729.516	23264.02
729.858	23118.04
730.199	23147.64
730.541	23098.38
730.882	23126.4
731.224	23346.73
731.565	23170.24
731.906	23126.17
732.248	23175.44
732.589	23098.38
732.93	23104.48
733.271	23005.95
733.612	23109.45
733.953	23147.19
734.294	23021.09
734.635	22933.41
734.976	23113.74
735.317	23013.41
735.658	22957.36
735.999	22942.22
736.339	22864.48
736.68	22817.48
737.021	22737.03
737.361	22765.96
737.702	22904.03
738.042	22779.06
738.383	22755.11
738.723	22768.67
739.063	22724.15
739.404	22731.61
739.744	22777.48
740.084	22724.6
740.424	22747.65
740.764	22723.24
741.104	22818.84
741.444	22619.07
741.784	22625.85
742.124	22657.48
742.464	22690.25
742.804	22744.94
743.143	22611.61
743.483	22551.72
743.823	22460.88
744.162	22525.96
744.502	22524.83
744.841	22377.49
745.181	22493.42
745.52	22455.68
745.86	22357.6
746.199	22371.84
746.538	22321.67
746.877	22395.12
747.216	22393.54
747.556	22268.12
747.895	22311.73
748.234	22195.35
748.573	22184.28
748.911	22262.47
749.25	22130.04
749.589	22206.2
749.928	22149.93
750.267	22176.59
750.605	22011.62
750.944	21990.83
751.283	21805.98
751.621	21890.05
751.96	21829.48
752.298	21857.5
752.636	21924.17
752.975	21772.76
753.313	21689.6
753.651	21819.77
753.989	21660.45
754.327	21682.82
754.666	21584.29
755.004	21654.57
755.342	21807.79
755.679	21718.75
756.017	21666.32
756.355	21655.25
756.693	21474.69
757.031	21523.05
757.368	21290.97
757.706	21342.04
758.044	21384.3
758.381	21433.33
758.719	21407.57
759.056	21283.28
759.394	21187.01
759.731	21102.95
760.068	21037.19
760.405	20912.9
760.743	21001.93
761.08	21159.44
761.417	21002.84
761.754	20978.66
762.091	20876.97
762.428	20817.76
762.765	20767.82
763.102	20985.21
763.438	20777.08
763.775	20577.99
764.112	20692.56
764.449	20672.22
764.785	20520.36
765.122	20411.21
765.458	20332.35
765.795	20294.83
766.131	20388.39
766.467	20286.02
766.804	20126.25
767.14	20101.39
767.476	20185.23
767.812	19933.49
768.148	19937.55
768.485	19869.31
768.821	19802.64
769.157	19796.09
769.492	19821.63
769.828	19835.41
770.164	19589.99
770.5	19640.16
770.836	19667.96
771.171	19510.67
771.507	19546.15
771.842	19385.93
772.178	19346.84
772.513	19299.38
772.849	19316.78
773.184	19150
773.519	19298.93
773.855	19286.72
774.19	19138.25
774.525	19088.99
774.86	19001.76
775.195	18963.57
775.53	18846.51
775.865	18781.2
776.2	18647.65
776.535	18544.82
776.87	18458.72
777.205	18470.02
777.539	18440.87
777.874	18499.85
778.209	18362.46
778.543	18347.09
778.878	18143.93
779.212	18350.93
779.547	18083.59
779.881	18150.71
780.215	18204.95
780.55	18184.38
780.884	18086.53
781.218	18062.8
781.552	17889.47
781.886	17867.1
782.22	17761.79
782.554	17769.93
782.888	17659.65
783.222	17585.3
783.556	17503.49
783.889	17520.44
784.223	17416.94
784.557	17371.52
784.89	17415.81
785.224	17287.46
785.557	17312.77
785.891	17280
786.224	17102.83
786.558	17215.82
786.891	17062.38
787.224	17034.81
787.557	16962.94
787.891	16917.75
788.224	16897.41
788.557	16941.48
788.89	16845.21
789.223	16872.78
789.556	16721.59
789.888	16769.73
790.221	16640.24
790.554	16499.91
790.887	16552.79
791.219	16387.59
791.552	16432.11
791.884	16293.13
792.217	16368.38
792.549	16273.92
792.882	16227.6
793.214	16145.11
793.546	16205.22
793.879	16126.58
794.211	15944.44
794.543	16081.84
794.875	16107.15
795.207	16067.6
795.539	15966.81
795.871	15925.91
796.203	15786.25
796.535	15748.29
796.867	15688.63
797.198	15635.52
797.53	15732.02
797.862	15635.3
798.193	15577.22
798.525	15556.88
798.856	15584.45
799.188	15376.32
799.519	15354.17
799.85	15398.69
800.182	15352.59
800.513	15397.79
800.844	15151.01
801.175	15303.55
801.506	15270.78
801.837	15126.16
802.168	15179.04
802.499	15098.36
802.83	15091.13
803.161	15034.41
803.491	15072.6
803.822	15080.28
804.153	15047.51
804.483	14793.74
804.814	14767.75
805.145	14788.99
805.475	14759.16
805.805	14702.44
806.136	14776.11
806.466	14654.08
806.796	14682.1
807.126	14572.95
807.457	14598.03
807.787	14563.68
808.117	14493.4
808.447	14447.08
808.777	14459.05
809.107	14392.16
809.436	14386.06
809.766	14448.89
810.096	14409.11
810.426	14254.31
810.755	14290.92
811.085	14204.6
811.414	14212.28
811.744	14196.91
812.073	14137.03
812.403	14215.9
812.732	14148.78
813.061	14113.08
813.39	14105.39
813.719	14009.58
814.049	14131.83
814.378	14071.49
814.707	14004.83
815.036	13963.7
815.365	13922.12
815.693	13712.41
816.022	13811.16
816.351	13697.49
816.68	13610.72
817.008	13640.32
817.337	13638.96
817.665	13612.75
817.994	13613.2
818.322	13633.09
818.651	13652.75
818.979	13537.05
819.307	13548.57
819.636	13573.2
819.964	13468.12
820.292	13534.79
820.62	13537.27
820.948	13537.05
821.276	13528.68
821.604	13547.44
821.932	13616.37
822.259	13447.56
822.587	13530.04
822.915	13576.37
823.243	13609.13
823.57	13538.85
823.898	13529.36
824.225	13467.89
824.553	13456.37
824.88	13492.98
825.207	13559.19
825.535	13501.79
825.862	13688.23
826.189	13536.82
826.516	13598.06
826.843	13637.38
827.17	13567.1
827.497	13570.72
827.824	13518.29
828.151	13638.96
828.478	13642.58
828.805	13652.52
829.131	13587.44
829.458	13667.89
829.785	13479.42
830.111	13562.58
830.438	13736.14
830.764	13658.85
831.09	13743.14
831.417	13710.37
831.743	13657.95
832.069	13711.28
832.395	13553.32
832.722	13698.62
833.048	13556.48
833.374	13519.64
833.7	13575.91
834.026	13572.07
834.351	13538.4
834.677	13544.95
835.003	13656.59
835.329	13610.72
835.654	13520.32
835.98	13478.74
836.306	13538.4
836.631	13561.9
836.956	13560.1
837.282	13594.44
837.607	13448.01
837.932	13429.48
838.258	13473.54
838.583	13488.23
838.908	13397.39
839.233	13476.71
839.558	13408.91
839.883	13325.07
840.208	13311.74
840.533	13417.05
840.858	13380.44
841.182	13328.01
841.507	13355.58
841.832	13246.66
842.156	13207.11
842.481	13225.64
842.805	13214.57
843.13	13276.49
843.454	13276.71
843.778	13167.79
844.103	13138.86
844.427	13086.44
844.751	13099.09
845.075	13017.74
845.399	13050.96
845.723	12944.52
846.047	12951.3
846.371	12884.41
846.695	12855.71
847.019	12871.75
847.343	12760.12
847.666	12792.21
847.99	12694.81
848.313	12689.16
848.637	12648.93
848.96	12652.1
849.284	12592.21
849.607	12553.34
849.931	12467.69
850.254	12396.51
850.577	12366.45
850.9	12263.63
851.223	12217.08
851.546	12215.05
851.869	12088.04
852.192	12286.91
852.515	12118.55
852.838	12083.98
853.161	12101.15
853.483	12063.41
853.806	12113.58
854.129	11980.48
854.451	11899.57
854.774	11863.64
855.096	11911.1
855.419	11924.88
855.741	11828.16
856.063	11841.95
856.385	11706.36
856.708	11626.81
857.03	11628.85
857.352	11636.08
857.674	11627.72
857.996	11650.32
858.318	11503.65
858.64	11569.19
858.961	11473.6
859.283	11525.12
859.605	11407.61
859.926	11420.94
860.248	11454.39
860.57	11413.71
860.891	11389.53
861.212	11297.1
861.534	11213.72
861.855	11236.99
862.176	11241.29
862.498	11335.52
862.819	11308.18
863.14	11297.56
863.461	11240.38
863.782	11171.23
864.103	11215.98
864.424	11232.25
864.745	11223.43
865.065	11116.09
865.386	11074.29
865.707	11118.35
866.027	11086.04
866.348	11043.33
866.668	10994.06
866.989	11036.09
867.309	10878.81
867.63	10988.64
867.95	10980.95
868.27	10941.41
868.59	11026.15
868.91	10978.24
869.23	10878.81
869.55	10910.9
869.87	10971.01
870.19	10934.85
870.51	10973.27
870.83	10932.82
871.15	10810.11
871.469	10818.02
871.789	10874.29
872.109	10843.78
872.428	10785.25
872.748	10828.19
873.067	10754.52
873.386	10804.24
873.706	10745.71
874.025	10773.95
874.344	10755.2
874.663	10730.34
874.982	10738.93
875.301	10792.48
875.62	10702.32
875.939	10734.86
876.258	10754.07
876.577	10712.26
876.896	10693.28
877.214	10582.09
877.533	10594.75
877.852	10605.37
878.17	10602.89
878.489	10640.17
878.807	10660.06
879.125	10578.25
879.444	10626.16
879.762	10582.55
880.08	10580.96
880.398	10486.73
880.716	10554.75
881.034	10471.36
881.352	10491.93
881.67	10457.8
881.988	10505.94
882.306	10575.99
882.624	10526.95
882.941	10456.45
883.259	10413.51
883.577	10360.18
883.894	10335.77
884.212	10243.8
884.529	10337.58
884.846	10353.63
885.164	10286.06
885.481	10313.4
885.798	10324.47
886.115	10192.27
886.432	10257.58
886.75	10275.44
887.067	10237.24
887.383	10119.96
887.7	10177.81
888.017	10091.94
888.334	10060.75
888.651	10062.11
888.967	10059.85
889.284	10003.58
889.6	9996.35
889.917	9851.49
890.233	9932.85
890.55	9905.5
890.866	9925.39
891.182	9916.12
891.498	9908.21
891.815	9907.54
892.131	9817.14
892.447	9811.27
892.763	9755.68
893.079	9748.44
893.395	9679.75
893.71	9675.68
894.026	9676.13
894.342	9667.54
894.657	9692.17
894.973	9672.06
895.289	9583.7
895.604	9626.64
895.92	9475.68
896.235	9526.53
896.55	9490.82
896.865	9500.09
897.181	9414.44
897.496	9415.57
897.811	9366.08
898.126	9346.42
898.441	9343.26
898.756	9292.86
899.071	9341.9
899.386	9308.68
899.7	9282.69
900.015	9218.97
900.33	9214.45
900.644	9194.56
900.959	9125.41
901.273	9099.65
901.588	9031.63
901.902	8985.75
902.216	8931.74
902.531	8898.98
902.845	8989.14
903.159	8873.44
903.473	8873.89
903.787	8864.63
904.101	8821.69
904.415	8808.81
904.729	8667.79
905.042	8727
905.356	8658.98
905.67	8673.44
905.984	8650.39
906.297	8567.01
906.611	8490.17
906.924	8485.43
907.237	8535.37
907.551	8418.54
907.864	8444.3
908.177	8424.41
908.491	8359.1
908.804	8313.23
909.117	8279.56
909.43	8210.41
909.743	8196.39
910.056	8254.02
910.368	8279.56
910.681	8237.52
910.994	8195.94
911.307	8177.64
911.619	8082.05
911.932	8095.61
912.244	8078.88
912.557	8053.57
912.869	8062.61
913.181	8049.05
913.494	8036.4
913.806	7976.51
914.118	7994.59
914.43	7910.75
914.742	7898.32
915.054	7883.18
915.366	7837.53
915.678	7766.8
915.99	7776.97
916.302	7687.26
916.613	7698.33
916.925	7670.76
917.236	7581.95
917.548	7595.05
917.859	7636.86
918.171	7468.28
918.482	7525
918.794	7504.21
919.105	7517.09
919.416	7428.73
919.727	7336.53
920.038	7315.29
920.349	7277.32
920.66	7247.27
920.971	7151.9
921.282	7176.99
921.593	7168.85
921.903	7165.01
922.214	7186.48
922.525	7114.16
922.835	7105.58
923.146	7052.47
923.456	7035.3
923.767	7016.54
924.077	7075.29
924.387	6958.01
924.697	6908.52
925.008	6911.91
925.318	6888.18
925.628	6856.77
925.938	6831.23
926.248	6793.72
926.558	6748.07
926.867	6719.82
927.177	6679.37
927.487	6642.09
927.796	6612.26
928.106	6646.83
928.416	6610
928.725	6612.48
929.034	6520.28
929.344	6540.62
929.653	6513.28
929.962	6434.63
930.271	6468.98
930.581	6411.36
930.89	6411.58
931.199	6373.39
931.508	6348.08
931.817	6304.47
932.125	6301.76
932.434	6264.24
932.743	6234.41
933.051	6280.29
933.36	6249.33
933.669	6143.57
933.977	6189.89
934.286	6172.95
934.594	6101.76
934.902	6107.64
935.21	6113.96
935.519	6066.73
935.827	6005.94
936.135	6010.24
936.443	5952.84
936.751	5914.42
937.059	5885.95
937.367	5870.13
937.674	5944.93
937.982	5891.37
938.29	5858.6
938.597	5805.27
938.905	5757.59
939.213	5762.11
939.52	5748.78
939.827	5731.83
940.135	5713.52
940.442	5740.19
940.749	5688.21
941.056	5679.62
941.363	5629.68
941.67	5632.17
941.977	5597.14
942.284	5577.71
942.591	5547.65
942.898	5565.96
943.205	5445.51
943.511	5475.56
943.818	5420.65
944.125	5438.73
944.431	5415
944.738	5345.62
945.044	5419.07
945.35	5330.71
945.657	5290.93
945.963	5295.68
946.269	5294.55
946.575	5236.25
946.881	5229.69
947.187	5215.46
947.493	5178.17
947.799	5174.78
948.105	5165.97
948.41	5157.15
948.716	5087.32
949.022	5062.69
949.327	5099.3
949.633	4979.53
949.938	4994.67
950.244	5011.39
950.549	4980.66
950.854	4962.81
951.16	4966.42
951.465	4935.69
951.77	4956.25
952.075	4904.28
952.38	4881.45
952.685	4847.56
952.99	4821.79
953.294	4828.57
953.599	4753.55
953.904	4775.24
954.209	4733.43
954.513	4698.18
954.818	4731.63
955.122	4712.64
955.426	4672.42
955.731	4652.53
956.035	4624.74
956.339	4591.07
956.643	4596.94
956.948	4518.75
957.252	4577.05
957.556	4562.59
957.86	4535.47
958.163	4500.67
958.467	4490.28
958.771	4413.9
959.075	4391.97
959.378	4365.08
959.682	4432.88
959.985	4410.51
960.289	4379.32
960.592	4355.37
960.896	4371.41
961.199	4332.99
961.502	4341.58
961.805	4322.37
962.108	4258.19
962.411	4247.35
962.714	4222.71
963.017	4200.79
963.32	4273.11
963.623	4151.3
963.926	4201.25
964.228	4156.5
964.531	4146.56
964.833	4135.71
965.136	4100.01
965.438	4095.49
965.741	4078.08
966.043	4059.33
966.345	4065.2
966.648	4023.62
966.95	4018.88
967.252	3972.78
967.554	4018.43
967.856	3977.3
968.158	3937.52
968.46	3935.26
968.761	3944.3
969.063	3852.1
969.365	3917.64
969.666	3902.95
969.968	3848.26
970.269	3858.66
970.571	3809.39
970.872	3752.9
971.174	3788.37
971.475	3751.99
971.776	3759.68
972.077	3728.94
972.378	3744.08
972.679	3752.9
972.98	3699.56
973.281	3721.48
973.582	3702.5
973.883	3655.95
974.183	3645.1
974.484	3638.1
974.785	3582.5
975.085	3582.05
975.386	3576.63
975.686	3576.18
975.986	3497.08
976.287	3528.04
976.587	3513.58
976.887	3537.08
977.187	3504.77
977.487	3499.79
977.787	3492.79
978.087	3464.09
978.387	3435.16
978.687	3455.28
978.987	3420.48
979.286	3416.63
979.586	3393.58
979.885	3388.16
980.185	3345.45
980.484	3317.43
980.784	3322.62
981.083	3327.82
981.382	3305.22
981.682	3359.46
981.981	3273.36
982.28	3244.43
982.579	3220.03
982.878	3194.04
983.177	3241.95
983.475	3202.63
983.774	3160.14
984.073	3136.19
984.372	3126.02
984.67	3092.57
984.969	3103.87
985.267	3136.41
985.566	3105.91
985.864	3052.8
986.162	3062.52
986.461	3076.98
986.759	3058.45
987.057	3038.11
987.355	2976.42
987.653	3004.89
987.951	3001.28
988.249	3025.91
988.547	2996.98
988.844	2936.42
989.142	2914.27
989.44	2926.93
989.737	2935.52
990.035	2920.15
990.332	2884.22
990.63	2863.43
990.927	2858.68
991.224	2896.65
991.521	2807.61
991.819	2847.16
992.116	2834.73
992.413	2802.86
992.71	2819.81
993.006	2744.11
993.303	2803.99
993.6	2752.24
993.897	2727.61
994.193	2750.66
994.49	2705.47
994.787	2725.35
995.083	2716.31
995.379	2686.93
995.676	2701.17
995.972	2657.78
996.268	2659.59
996.565	2645.13
996.861	2634.51
997.157	2673.38
997.453	2607.62
997.749	2585.24
998.044	2619.14
998.34	2570.33
998.636	2546.15
998.932	2528.3
999.227	2521.52
999.523	2503.44
999.818	2494.4
1000.114	2497.56
1000.409	2479.93
1000.704	2453.95
1001	2469.54
1001.295	2445.81
1001.59	2395.19
1001.885	2395.64
1002.18	2386.38
1002.475	2393.61
1002.77	2384.57
1003.065	2375.3
1003.359	2361.52
1003.654	2364.23
1003.949	2315.19
1004.243	2303.89
1004.538	2282.65
1004.832	2272.03
1005.127	2266.16
1005.421	2263.67
1005.715	2241.97
1006.009	2245.36
1006.304	2224.35
1006.598	2222.54
1006.892	2171.47
1007.186	2191.58
1007.48	2176.89
1007.773	2123.79
1008.067	2122.66
1008.361	2116.55
1008.655	2126.95
1008.948	2092.15
1009.242	2068.65
1009.535	2099.83
1009.829	2060.28
1010.122	2071.58
1010.415	2056.22
1010.708	2063.22
1011.001	2033.39
1011.295	2013.05
1011.588	2037.91
1011.881	2003.34
1012.173	1964.24
1012.466	1953.17
1012.759	1953.17
1013.052	1934.64
1013.344	1947.97
1013.637	1901.87
1013.93	1908.42
1014.222	1910.91
1014.514	1897.8
1014.807	1886.05
1015.099	1911.14
1015.391	1858.48
1015.683	1827.97
1015.976	1830.69
1016.268	1838.14
1016.56	1813.29
1016.851	1805.6
1017.143	1828.65
1017.435	1754.53
1017.727	1773.96
1018.018	1757.02
1018.31	1726.51
1018.602	1719.5
1018.893	1727.86
1019.185	1702.33
1019.476	1693.51
1019.767	1717.02
1020.058	1677.24
1020.35	1652.61
1020.641	1667.53
1020.932	1620.52
1021.223	1621.65
1021.514	1605.83
1021.804	1604.7
1022.095	1607.64
1022.386	1589.34
1022.677	1624.59
1022.967	1570.13
1023.258	1584.59
1023.548	1554.54
1023.839	1548.21
1024.129	1554.54
1024.419	1538.49
1024.709	1539.17
1025	1490.58
1025.29	1487.87
1025.58	1498.72
1025.87	1502.33
1026.16	1462.79
1026.449	1447.19
1026.739	1425.5
1027.029	1416.91
1027.319	1427.76
1027.608	1422.34
1027.898	1394.77
1028.187	1425.27
1028.477	1380.53
1028.766	1360.87
1029.055	1381.88
1029.344	1363.81
1029.634	1340.53
1029.923	1341.21
1030.212	1322
1030.501	1329.68
1030.79	1317.93
1031.078	1304.15
1031.367	1281.32
1031.656	1272.06
1031.945	1265.05
1032.233	1268.89
1032.522	1246.52
1032.81	1243.13
1033.099	1253.53
1033.387	1247.88
1033.675	1228.22
1033.963	1186.64
1034.251	1211.49
1034.54	1191.83
1034.828	1202.68
1035.116	1194.77
1035.403	1190.7
1035.691	1162.68
1035.979	1131.95
1036.267	1164.49
1036.554	1165.62
1036.842	1134.66
1037.129	1142.12
1037.417	1123.13
1037.704	1133.76
1037.992	1117.26
1038.279	1102.34
1038.566	1084.72
1038.853	1084.72
1039.14	1084.72
