Data from copper_heatsink_FLMS001491_061.txt Node
Date: Tue Feb 07 10:50:21 GMT 2017
User: dcchb
Spectrometer: FLMS00149
Trigger mode: 0
Integration Time (sec): 2.000000E-2
Scans to average: 10
Electric dark correction enabled: true
Nonlinearity correction enabled: false
Boxcar width: 0
XAxis mode: Wavelengths
Number of Pixels in Spectrum: 2048
>>>>>Begin Spectral Data<<<<<
341.393	-23.42
341.776	-23.42
342.16	-23.42
342.543	-69.07
342.927	-74.94
343.31	-59.57
343.693	-41.72
344.077	-59.57
344.46	-61.83
344.843	-45.56
345.226	-67.03
345.61	-34.72
345.993	-15.73
346.376	3.93
346.759	-7.82
347.142	32.63
347.525	44.38
347.908	64.94
348.291	66.75
348.674	76.01
349.057	104.94
349.44	132.28
349.823	153.53
350.206	170.7
350.588	215.67
350.971	225.39
351.354	218.84
351.737	210.25
352.119	262.22
352.502	285.95
352.884	286.86
353.267	272.62
353.65	297.93
354.032	296.35
354.414	290.02
354.797	304.03
355.179	300.64
355.562	314.43
355.944	317.36
356.326	295.44
356.709	345.39
357.091	323.47
357.473	320.08
357.855	324.37
358.238	325.95
358.62	343.58
359.002	342.67
359.384	337.03
359.766	346.74
360.148	333.86
360.53	324.6
360.912	324.6
361.294	331.38
361.676	318.95
362.057	332.28
362.439	320.75
362.821	320.53
363.203	291.15
363.584	315.1
363.966	307.2
364.348	328.21
364.729	324.14
365.111	303.81
365.493	327.31
365.874	314.2
366.256	299.74
366.637	336.8
367.019	309.91
367.4	320.98
367.781	324.6
368.163	331.6
368.544	321.88
368.925	293.86
369.306	327.53
369.688	320.53
370.069	306.07
370.45	287.76
370.831	297.93
371.212	299.29
371.593	306.74
371.974	338.61
372.355	336.35
372.736	307.2
373.117	326.63
373.498	325.95
373.879	311.71
374.26	319.4
374.641	311.71
375.021	299.06
375.402	311.94
375.783	311.71
376.163	343.35
376.544	323.01
376.925	328.89
377.305	321.66
377.686	343.8
378.066	318.95
378.447	318.95
378.827	342.45
379.208	317.14
379.588	327.99
379.968	331.6
380.349	323.01
380.729	338.38
381.109	348.78
381.489	336.8
381.87	337.48
382.25	324.82
382.63	329.79
383.01	324.6
383.39	327.99
383.77	336.8
384.15	331.15
384.53	346.97
384.91	343.13
385.29	338.38
385.67	349.23
386.049	360.08
386.429	339.74
386.809	350.58
387.189	371.83
387.568	349.23
387.948	330.25
388.328	351.49
388.707	363.24
389.087	372.73
389.466	355.1
389.846	345.84
390.225	358.27
390.605	361.88
390.984	354.43
391.363	353.52
391.743	354.2
392.122	344.93
392.501	344.93
392.881	358.72
393.26	360.53
393.639	370.02
394.018	377.25
394.397	380.64
394.776	383.58
395.155	378.61
395.534	374.54
395.913	371.37
396.292	374.99
396.671	379.06
397.05	362.34
397.429	381.77
397.808	384.48
398.186	367.08
398.565	371.37
398.944	381.77
399.323	385.84
399.701	382.45
400.08	404.37
400.458	390.81
400.837	379.51
401.215	384.03
401.594	404.14
401.972	386.52
402.351	400.75
402.729	404.14
403.107	384.93
403.486	398.94
403.864	376.12
404.242	397.14
404.62	389.91
404.999	382.67
405.377	392.16
405.755	414.31
406.133	393.07
406.511	408.21
406.889	412.96
407.267	438.72
407.645	393.75
408.023	413.18
408.401	407.53
408.779	422.9
409.156	428.1
409.534	432.84
409.912	434.42
410.29	438.04
410.667	442.78
411.045	433.75
411.422	427.64
411.8	432.39
412.178	452.28
412.555	436.46
412.933	444.14
413.31	435.33
413.687	432.84
414.065	439.17
414.442	416.57
414.819	451.6
415.197	443.24
415.574	464.93
415.951	453.63
416.328	463.35
416.705	482.11
417.082	452.5
417.46	468.55
417.837	464.48
418.214	467.42
418.591	473.52
418.967	475.33
419.344	497.7
419.721	471.26
420.098	477.13
420.475	477.59
420.852	482.33
421.228	492.95
421.605	498.15
421.982	495.66
422.358	501.99
422.735	501.77
423.111	490.02
423.488	485.27
423.864	513.74
424.241	503.12
424.617	545.16
424.994	502.44
425.37	518.04
425.746	520.3
426.123	535.44
426.499	515.1
426.875	515.55
427.251	534.99
427.627	543.57
428.003	512.84
428.379	534.53
428.756	551.03
429.132	535.66
429.507	537.7
429.883	542.44
430.259	556
430.635	547.64
431.011	552.61
431.387	571.82
431.763	577.92
432.138	576.79
432.514	573.85
432.89	570.92
433.265	576.11
433.641	570.24
434.016	583.35
434.392	603.68
434.767	598.04
435.143	584.93
435.518	602.33
435.894	611.82
436.269	595.55
436.644	628.09
437.02	623.8
437.395	639.16
437.77	630.8
438.145	613.18
438.52	604.14
438.895	630.8
439.271	636.9
439.646	638.94
440.021	671.48
440.395	641.88
440.77	644.14
441.145	644.59
441.52	655.89
441.895	660.18
442.27	650.01
442.645	665.6
443.019	672.16
443.394	659.05
443.769	677.36
444.143	666.73
444.518	680.74
444.892	677.36
445.267	690.24
445.641	683
446.016	674.19
446.39	676.23
446.764	700.18
447.139	724.81
447.513	694.76
447.887	690.01
448.262	727.52
448.636	706.28
449.01	716.45
449.384	720.97
449.758	729.33
450.132	730.91
450.506	713.96
450.88	745.38
451.254	715.09
451.628	746.96
452.002	754.64
452.376	770.01
452.75	741.53
453.123	768.2
453.497	765.94
453.871	777.69
454.244	803.91
454.618	770.91
454.992	818.37
455.365	794.87
455.739	797.13
456.112	801.87
456.486	807.07
456.859	799.61
457.232	837.12
457.606	855.66
457.979	853.17
458.352	852.27
458.725	866.05
459.099	839.84
459.472	863.11
459.845	890.23
460.218	869.67
460.591	883.68
460.964	887.52
461.337	900.17
461.71	878.03
462.083	952.6
462.456	930.91
462.829	916.44
463.201	932.26
463.574	931.36
463.947	946.27
464.32	950.12
464.692	952.6
465.065	974.07
465.438	1000.51
465.81	982.66
466.183	1001.19
466.555	1013.84
466.928	1029.44
467.3	1037.35
467.672	1033.96
468.045	1036.89
468.417	1044.8
468.789	1060.85
469.161	1048.87
469.534	1073.5
469.906	1133.61
470.278	1108.08
470.65	1141.07
471.022	1158.25
471.394	1152.82
471.766	1180.84
472.138	1174.52
472.51	1172.03
472.882	1221.97
473.253	1237.11
473.625	1260.62
473.997	1259.26
474.369	1273.05
474.74	1276.89
475.112	1275.53
475.484	1314.17
475.855	1332.48
476.227	1342.87
476.598	1383.1
476.97	1403.89
477.341	1438.69
477.713	1424.68
478.084	1411.35
478.455	1469.65
478.827	1479.82
479.198	1510.1
479.569	1521.17
479.94	1564.56
480.311	1536.99
480.682	1584.22
481.053	1622.87
481.424	1661.51
481.795	1639.59
482.166	1667.84
482.537	1702.64
482.908	1721.85
483.279	1728.63
483.65	1777.44
484.021	1805.91
484.391	1856.53
484.762	1864.44
485.133	1868.28
485.503	1878.68
485.874	1922.52
486.244	1956.64
486.615	1971.56
486.985	1966.81
487.356	2015.4
487.726	2049.97
488.097	2052.91
488.467	2075.96
488.837	2122.97
489.207	2126.36
489.578	2179.91
489.948	2184.89
490.318	2255.84
490.688	2244.77
491.058	2263.3
491.428	2258.1
491.798	2303.75
492.168	2328.84
492.538	2346.92
492.908	2383.3
493.278	2428.72
493.648	2424.65
494.017	2457.87
494.387	2468.27
494.757	2480.47
495.126	2517.31
495.496	2519.57
495.866	2558.66
496.235	2569.51
496.605	2606.34
496.974	2614.25
497.344	2674.82
497.713	2656.96
498.082	2706.23
498.452	2675.72
498.821	2687.92
499.19	2725.89
499.559	2734.25
499.928	2780.12
500.298	2798.88
500.667	2818.09
501.036	2812.89
501.405	2842.72
501.774	2890.63
502.143	2883.4
502.512	2874.59
502.88	2937.41
503.249	2942.83
503.618	2930.18
503.987	3000.01
504.356	2983.96
504.724	2985.99
505.093	3019.89
505.462	3025.32
505.83	3047.01
506.199	3087.91
506.567	3120.23
506.936	3185.99
507.304	3185.54
507.672	3155.71
508.041	3172.66
508.409	3249.72
508.777	3261.47
509.145	3299.43
509.514	3292.88
509.882	3330.62
510.25	3325.87
510.618	3362.71
510.986	3383.05
511.354	3395.25
511.722	3473.21
512.09	3441.35
512.458	3498.52
512.826	3555.7
513.193	3559.99
513.561	3554.79
513.929	3576.26
514.297	3597.73
514.664	3658.97
515.032	3680.89
515.4	3670.72
515.767	3715.69
516.135	3698.97
516.502	3748.91
516.869	3826.2
517.237	3803.37
517.604	3802.02
517.972	3863.26
518.339	3873.88
518.706	3888.8
519.073	3929.25
519.44	3946.65
519.808	3964.73
520.175	3997.95
520.542	4067.77
520.909	4120.65
521.276	4082.24
521.643	4118.85
522.009	4159.98
522.376	4199.3
522.743	4205.62
523.11	4245.85
523.477	4319.52
523.843	4339.86
524.21	4375.34
524.577	4370.37
524.943	4397.26
525.31	4511.38
525.676	4514.77
526.043	4572.39
526.409	4586.86
526.776	4624.82
527.142	4657.82
527.508	4638.83
527.874	4664.14
528.241	4736.91
528.607	4777.13
528.973	4797.02
529.339	4791.37
529.705	4877.92
530.071	4921.31
530.437	4941.2
530.803	4917.7
531.169	5019.39
531.535	5001.76
531.901	5062.32
532.267	5081.99
532.632	5124.92
532.998	5128.31
533.364	5183.45
533.73	5181.42
534.095	5206.28
534.461	5256.22
534.826	5315.2
535.192	5327.63
535.557	5334.86
535.923	5396.78
536.288	5416.67
536.653	5455.08
537.019	5435.65
537.384	5503.22
537.749	5477.23
538.114	5528.3
538.479	5548.87
538.845	5562.65
539.21	5566.27
539.575	5629.99
539.94	5659.37
540.305	5700.73
540.67	5731.46
541.034	5755.19
541.399	5790.21
541.764	5802.64
542.129	5824.56
542.494	5880.38
542.858	5884.45
543.223	5908.63
543.587	6041.73
543.952	5997.67
544.316	6064.33
544.681	6017.33
545.045	6087.83
545.41	6084.9
545.774	6156.08
546.138	6152.47
546.503	6215.29
546.867	6221.62
547.231	6330.99
547.595	6324.44
547.959	6323.31
548.324	6387.26
548.688	6404.44
549.052	6462.97
549.416	6501.83
549.779	6529.63
550.143	6556.75
550.507	6642.62
550.871	6698.89
551.235	6715.61
551.599	6801.04
551.962	6788.15
552.326	6806.69
552.689	6881.03
553.053	6914.71
553.417	6930.52
553.78	7067.7
554.143	7069.05
554.507	7173.68
554.87	7215.49
555.234	7199.67
555.597	7221.14
555.96	7309.95
556.323	7344.52
556.686	7428.82
557.05	7594.24
557.413	7585.87
557.776	7635.36
558.139	7701.58
558.502	7726.89
558.865	7810.95
559.228	7935.7
559.59	8006.65
559.953	8020.21
560.316	8201.9
560.679	8156.03
561.041	8205.74
561.404	8366.19
561.767	8369.36
562.129	8378.17
562.492	8536.58
562.854	8673.53
563.217	8733.64
563.579	8734.09
563.941	8844.37
564.304	8899.29
564.666	9035.33
565.028	9117.36
565.39	9202.78
565.753	9299.95
566.115	9354.42
566.477	9459.5
566.839	9547.86
567.201	9595.54
567.563	9653.39
567.925	9800.73
568.287	9939.94
568.648	9945.13
569.01	10020.61
569.372	10101.51
569.734	10140.61
570.095	10277.33
570.457	10412.24
570.819	10502.63
571.18	10572.46
571.542	10706.92
571.903	10766.13
572.265	10769.52
572.626	10929.06
572.987	10969.51
573.349	11059.68
573.71	11136.97
574.071	11323.18
574.432	11326.57
574.794	11396.4
575.155	11448.37
575.516	11528.14
575.877	11702.83
576.238	11714.8
576.599	11869.6
576.96	11908.47
577.32	11904.4
577.681	12070.73
578.042	12112.53
578.403	12156.6
578.763	12204.74
579.124	12348.46
579.485	12453.77
579.845	12459.19
580.206	12489.02
580.566	12570.15
580.927	12607.44
581.287	12751.16
581.648	12705.97
582.008	12785.74
582.368	12856.24
582.728	12965.85
583.089	13020.99
583.449	12994.32
583.809	13116.8
584.169	13220.98
584.529	13187.53
584.889	13366.29
585.249	13293.75
585.609	13325.61
585.969	13464.59
586.329	13416.46
586.688	13656.22
587.048	13625.72
587.408	13579.84
587.768	13613.51
588.127	13627.98
588.487	13729.44
588.846	13888.31
589.206	13817.8
589.565	13842.88
589.925	13847.4
590.284	13941.87
590.643	14046.95
591.003	14053.05
591.362	14175.98
591.721	14090.34
592.08	14190.9
592.44	14266.83
592.799	14291.91
593.158	14317.67
593.517	14379.37
593.876	14453.49
594.235	14394.28
594.593	14552.47
594.952	14547.5
595.311	14494.62
595.67	14556.99
596.029	14706.82
596.387	14675.18
596.746	14795.85
597.104	14716.31
597.463	14744.78
597.822	14907.26
598.18	14894.16
598.538	14848.51
598.897	14910.65
599.255	14914.72
599.613	15141.16
599.972	15143.87
600.33	15221.15
600.688	15131.66
601.046	15278.33
601.404	15383.86
601.762	15432.9
602.12	15421.15
602.478	15441.26
602.836	15550.64
603.194	15405.56
603.552	15445.78
603.91	15411.66
604.268	15635.83
604.625	15616.4
604.983	15829.95
605.341	15676.28
605.698	15799.9
606.056	15846
606.413	15921.47
606.771	16015.03
607.128	15965.31
607.485	15935.48
607.843	16106.55
608.2	16073.56
608.557	16133.22
608.914	16128.02
609.272	16269.26
609.629	16285.76
609.986	16475.81
610.343	16365.98
610.7	16458.41
611.057	16526.66
611.414	16533.21
611.771	16622.02
612.127	16612.08
612.484	16763.49
612.841	16730.49
613.198	16678.97
613.554	16678.74
613.911	16975.46
614.267	16931.16
614.624	16859.53
614.98	16981.11
615.337	17124.38
615.693	17019.75
616.05	17139.07
616.406	17251.61
616.762	17177.94
617.118	17226.52
617.475	17226.75
617.831	17325.28
618.187	17279.4
618.543	17415.9
618.899	17492.96
619.255	17487.76
619.611	17555.1
619.967	17631.49
620.323	17657.93
620.678	17636.01
621.034	17650.47
621.39	17652.5
621.746	17600.3
622.101	17877.35
622.457	17682.11
622.812	17887.52
623.168	17818.83
623.523	17838.26
623.879	17956.22
624.234	17790.8
624.589	17884.59
624.945	17966.62
625.3	18038.71
625.655	18065.37
626.01	17976.79
626.365	18072.38
626.72	17956.45
627.075	18051.36
627.43	18129.55
627.785	18067.41
628.14	18139.27
628.495	18158.03
628.85	18149.89
629.205	18166.61
629.559	18274.63
629.914	18196.89
630.269	18203
630.623	18226.95
630.978	18189.89
631.332	18302.43
631.687	18337.91
632.041	18273.73
632.396	18320.06
632.75	18300.39
633.104	18344.46
633.459	18307.17
633.813	18212.49
634.167	18292.94
634.521	18276.89
634.875	18351.01
635.229	18255.88
635.583	18267.63
635.937	18325.03
636.291	18280.96
636.645	18274.86
636.999	18170.45
637.352	18382.65
637.706	18289.1
638.06	18401.86
638.413	18325.93
638.767	18414.06
639.121	18312.15
639.474	18301.98
639.828	18402.31
640.181	18426.94
640.534	18433.72
640.888	18343.56
641.241	18250.45
641.594	18420.39
641.947	18398.02
642.301	18300.39
642.654	18431.69
643.007	18448.64
643.36	18382.43
643.713	18325.93
644.066	18513.95
644.419	18336.55
644.771	18178.82
645.124	17972.27
645.477	17887.52
645.83	17867.41
646.182	17888.88
646.535	17810.24
646.888	17961.65
647.24	17898.6
647.593	18016.11
647.945	17958.71
648.298	17796.68
648.65	17788.77
649.002	17789.9
649.355	17867.64
649.707	17918.26
650.059	17826.96
650.411	18140.4
650.763	18101.53
651.115	18401.41
651.467	18347.85
651.819	18414.52
652.171	18398.7
652.523	18354.86
652.875	18303.33
653.227	18295.65
653.578	18442.31
653.93	18323.22
654.282	18286.84
654.633	18226.05
654.985	18306.04
655.337	18299.72
655.688	18347.17
656.039	18444.35
656.391	18401.18
656.742	18286.61
657.094	18316.21
657.445	18387.4
657.796	18526.83
658.147	18339.04
658.498	18360.73
658.849	18364.12
659.2	18410.67
659.551	18353.05
659.902	18478.02
660.253	18410.45
660.604	18515.08
660.955	18409.77
661.306	18508.98
661.656	18469.88
662.007	18435.76
662.358	18466.04
662.708	18513.27
663.059	18546.04
663.409	18449.54
663.76	18533.16
664.11	18502.2
664.461	18571.57
664.811	18624.23
665.161	18551.01
665.511	18519.37
665.862	18624.23
666.212	18614.51
666.562	18706.26
666.912	18612.93
667.262	18603.21
667.612	18599.6
667.962	18624.68
668.312	18626.94
668.662	18693.6
669.011	18718.46
669.361	18663.77
669.711	18647.73
670.06	18846.82
670.41	18697.22
670.76	18671.01
671.109	18795.52
671.459	18710.78
671.808	18638.46
672.157	18779.93
672.507	18548.3
672.856	18686.37
673.205	18692.02
673.554	18803.88
673.904	18781.96
674.253	18934.28
674.602	18840.49
674.951	18606.38
675.3	18431.92
675.649	18723.89
675.998	18833.49
676.346	18853.15
676.695	18865.13
677.044	18752.59
677.393	18754.39
677.741	18811.12
678.09	18787.61
678.438	18803.66
678.787	18809.99
679.135	18906.03
679.484	18714.85
679.832	18856.99
680.181	18658.58
680.529	18877.1
680.877	18753.04
681.225	18758.01
681.573	18908.06
681.922	18809.76
682.27	18729.76
682.618	18597.11
682.966	18677.11
683.314	18743.32
683.661	18668.07
684.009	18685.02
684.357	18579.03
684.705	18652.02
685.053	18594.4
685.4	18518.02
685.748	18523.89
686.095	18558.92
686.443	18499.94
686.79	18419.26
687.138	18572.25
687.485	18605.02
687.832	18422.2
688.18	18514.17
688.527	18510.56
688.874	18382.65
689.221	18511.24
689.568	18333.16
689.915	18332.71
690.262	18370
690.609	18265.82
690.956	18301.3
691.303	18257.46
691.65	18143.34
691.997	18175.43
692.344	18119.83
692.69	18272.15
693.037	18162.09
693.383	18072.38
693.73	18079.61
694.077	18029.67
694.423	18035.32
694.769	18005.04
695.116	17954.41
695.462	17928.2
695.808	17901.08
696.155	17908.54
696.501	17789.9
696.847	17821.09
697.193	17768.66
697.539	17863.57
697.885	17611.37
698.231	17679.39
698.577	17683.69
698.923	17598.04
699.269	17506.74
699.614	17414.77
699.96	17443.24
700.306	17612.95
700.651	17449.12
700.997	17412.73
701.342	17418.16
701.688	17332.28
702.033	17432.17
702.379	17367.99
702.724	17254.77
703.069	17364.83
703.415	17149.69
703.76	17196.02
704.105	17174.55
704.45	17130.71
704.795	17038.28
705.14	17048.45
705.485	17009.13
705.83	16940.2
706.175	17019.52
706.52	16968.23
706.865	16837.83
707.209	16895.69
707.554	16777.04
707.899	16802.58
708.243	16802.58
708.588	16829.47
708.932	16687.78
709.277	16767.55
709.621	16742.02
709.966	16719.87
710.31	16666.31
710.654	16505.19
710.998	16715.8
711.342	16672.41
711.687	16636.26
712.031	16591.06
712.375	16446.88
712.719	16611.85
713.063	16469.03
713.407	16566.2
713.75	16532.76
714.094	16487.79
714.438	16348.13
714.782	16418.41
715.125	16389.48
715.469	16313.55
715.812	16308.13
716.156	16239.43
716.499	16358.75
716.843	16242.82
717.186	16127.57
717.53	16184.29
717.873	16200.11
718.216	16193.78
718.559	16161.69
718.902	16031.75
719.246	16164.86
719.589	16109.27
719.932	16036.95
720.275	16057.29
720.617	16091.19
720.96	16087.12
721.303	16052.32
721.646	16058.87
721.989	15989.72
722.331	16050.96
722.674	16049.38
723.016	15942.72
723.359	15985.43
723.701	16046.89
724.044	15900.91
724.386	15791.31
724.729	15844.19
725.071	15849.39
725.413	15832.89
725.755	15808.48
726.097	15855.26
726.439	15794.02
726.782	15795.15
727.124	15857.52
727.465	15800.8
727.807	15788.82
728.149	15780.69
728.491	15796.96
728.833	15749.05
729.175	15739.33
729.516	15738.88
729.858	15770.74
730.199	15850.74
730.541	15778.43
730.882	15735.04
731.224	15720.8
731.565	15714.47
731.906	15603.74
732.248	15648.03
732.589	15648.26
732.93	15668.6
733.271	15696.17
733.612	15690.75
733.953	15693.91
734.294	15613.69
734.635	15621.59
734.976	15689.84
735.317	15524.42
735.658	15546.12
735.999	15454.14
736.339	15563.74
736.68	15554.93
737.021	15468.15
737.361	15388.83
737.702	15511.09
738.042	15457.31
738.383	15481.03
738.723	15471.32
739.063	15427.48
739.404	15410.3
739.744	15455.72
740.084	15433.35
740.424	15433.8
740.764	15495.72
741.104	15419.57
741.444	15387.48
741.784	15379.57
742.124	15422.28
742.464	15437.19
742.804	15393.58
743.143	15357.65
743.483	15344.77
743.823	15235.62
744.162	15259.8
744.502	15281.72
744.841	15268.16
745.181	15306.12
745.52	15145.22
745.86	15236.97
746.199	15221.61
746.538	15089.63
746.877	15111.55
747.216	15160.82
747.556	15179.57
747.895	15105.45
748.234	15072.23
748.573	15065
748.911	15059.58
749.25	15154.26
749.589	15062.97
749.928	15129.86
750.267	15013.7
750.605	15038.11
750.944	14960.14
751.283	14971.89
751.621	14979.58
751.96	14862.52
752.298	14820.71
752.636	14840.82
752.975	14872.69
753.313	14848.73
753.651	14935.96
753.989	14791.33
754.327	14759.02
754.666	14740.49
755.004	14747.49
755.342	14798.79
755.679	14797.66
756.017	14712.01
756.355	14815.97
756.693	14686.7
757.031	14676.76
757.368	14628.4
757.706	14688.74
758.044	14656.2
758.381	14656.42
758.719	14532.13
759.056	14533.94
759.394	14494.84
759.731	14394.28
760.068	14453.72
760.405	14348.18
760.743	14378.69
761.08	14391.57
761.417	14343.89
761.754	14314.74
762.091	14269.09
762.428	14261.63
762.765	14211.01
763.102	14250.56
763.438	14281.29
763.775	14159.94
764.112	14244.23
764.449	14136.89
764.785	14148.19
765.122	13993.39
765.458	13966.27
765.795	13981.41
766.131	13945.93
766.467	13893.05
766.804	13822.55
767.14	13703.45
767.476	13769.21
767.812	13663.91
768.148	13754.75
768.485	13614.64
768.821	13566.28
769.157	13580.29
769.492	13516.79
769.828	13545.72
770.164	13404.48
770.5	13457.58
770.836	13475.89
771.171	13341.88
771.507	13362.22
771.842	13345.27
772.178	13333.29
772.513	13298.94
772.849	13221.88
773.184	13284.03
773.519	13178.27
773.855	13171.04
774.19	12990.03
774.525	13067.31
774.86	13133.52
775.195	12952.29
775.53	12993.64
775.865	12987.09
776.2	12823.93
776.535	12730.82
776.87	12671.84
777.205	12741.44
777.539	12677.49
777.874	12721.78
778.209	12583.26
778.543	12588.23
778.878	12578.51
779.212	12527.89
779.547	12404.5
779.881	12481.34
780.215	12399.53
780.55	12468.23
780.884	12411.74
781.218	12362.25
781.552	12384.39
781.886	12304.39
782.22	12309.59
782.554	12168.8
782.888	12152.31
783.222	12097.62
783.556	12009.94
783.889	12092.42
784.223	11987.57
784.557	11946.89
784.89	11985.53
785.224	11841.13
785.557	11867.57
785.891	11806.78
786.224	11798.42
786.558	11776.05
786.891	11767.46
787.224	11702.15
787.557	11652.43
787.891	11720.68
788.224	11697.18
788.557	11625.09
788.89	11640.46
789.223	11655.82
789.556	11513.91
789.888	11496.05
790.221	11434.36
790.554	11369.96
790.887	11416.73
791.219	11396.4
791.552	11273.01
791.884	11243.63
792.217	11271.2
792.549	11230.3
792.882	11198.43
793.214	11171.32
793.546	11206.12
793.879	11159.57
794.211	11063.97
794.543	11139.45
794.875	11010.87
795.207	11124.31
795.539	11002.06
795.871	10960.25
796.203	10874.83
796.535	10920.93
796.867	10900.36
797.198	10843.64
797.53	10861.04
797.862	10764.55
798.193	10801.61
798.525	10772.91
798.856	10749.18
799.188	10644.1
799.519	10588.05
799.85	10526.36
800.182	10607.04
800.513	10658.56
800.844	10527.72
801.175	10600.71
801.506	10594.61
801.837	10550.77
802.168	10538.79
802.499	10477.1
802.83	10429.42
803.161	10314.16
803.491	10335.41
803.822	10398.91
804.153	10299.93
804.483	10188.52
804.814	10240.72
805.145	10263.32
805.475	10242.3
805.805	10180.38
806.136	10144.22
806.466	10177.9
806.796	10189.87
807.126	10052.48
807.457	10057
807.787	10060.61
808.117	10048.86
808.447	10079.14
808.777	9989.43
809.107	9953.04
809.436	9967.51
809.766	9945.81
810.096	9987.17
810.426	9919.6
810.755	9906.72
811.085	9848.87
811.414	9826.27
811.744	9786.27
812.073	9783.1
812.403	9789.88
812.732	9771.81
813.061	9795.08
813.39	9708.3
813.719	9716.44
814.049	9785.36
814.378	9734.74
814.707	9691.58
815.036	9715.76
815.365	9727.96
815.693	9530.91
816.022	9515.31
816.351	9492.49
816.68	9467.18
817.008	9411.81
817.337	9463.79
817.665	9407.97
817.994	9518.48
818.322	9555.77
818.651	9433.51
818.979	9374.3
819.307	9406.39
819.636	9412.72
819.964	9378.14
820.292	9360.29
820.62	9408.2
820.948	9362.55
821.276	9408.65
821.604	9353.96
821.932	9369.56
822.259	9425.6
822.587	9342.89
822.915	9397.35
823.243	9413.17
823.57	9455.43
823.898	9370.91
824.225	9396.22
824.553	9378.82
824.88	9431.02
825.207	9421.53
825.535	9418.59
825.862	9400.06
826.189	9301.76
826.516	9411.36
826.843	9360.06
827.17	9384.7
827.497	9431.02
827.824	9367.3
828.151	9481.87
828.478	9421.98
828.805	9526.39
829.131	9452.49
829.458	9419.95
829.785	9419.5
830.111	9447.97
830.438	9456.56
830.764	9500.17
831.09	9502.66
831.417	9485.03
831.743	9460.63
832.069	9441.42
832.395	9420.63
832.722	9428.76
833.048	9414.98
833.374	9381.31
833.7	9375.88
834.026	9442.1
834.351	9449.78
834.677	9424.47
835.003	9468.99
835.329	9505.6
835.654	9515.09
835.98	9376.34
836.306	9437.35
836.631	9356.67
836.956	9452.04
837.282	9368.2
837.607	9376.34
837.932	9363
838.258	9395.77
838.583	9401.19
838.908	9262.21
839.233	9272.61
839.558	9308.77
839.883	9346.73
840.208	9362.1
840.533	9306.28
840.858	9272.84
841.182	9358.71
841.507	9325.49
841.832	9285.72
842.156	9302.89
842.481	9308.77
842.805	9234.64
843.13	9303.57
843.454	9274.19
843.778	9190.8
844.103	9147.41
844.427	9211.37
844.751	9186.28
845.075	9158.49
845.399	9125.04
845.723	9126.4
846.047	9108.32
846.371	9039.85
846.695	9021.77
847.019	8941.09
847.343	8966.85
847.666	8835.56
847.99	8855.45
848.313	8829.23
848.637	8790.81
848.96	8789.91
849.284	8821.55
849.607	8789.23
849.931	8710.14
850.254	8681.89
850.577	8638.05
850.9	8566.87
851.223	8639.86
851.546	8560.99
851.869	8511.73
852.192	8612.29
852.515	8467.88
852.838	8439.64
853.161	8481.9
853.483	8440.09
853.806	8410.71
854.129	8430.37
854.451	8355.12
854.774	8356.7
855.096	8266.53
855.419	8264.73
855.741	8345.4
856.063	8173.2
856.385	8226.99
856.708	8206.87
857.03	8178.85
857.352	8133.43
857.674	8061.79
857.996	8081.45
858.318	8052.08
858.64	8088.91
858.961	8048.01
859.283	8090.04
859.605	7994.22
859.926	8078.52
860.248	8035.13
860.57	7962.36
860.891	7963.49
861.212	7974.79
861.534	7943.6
861.855	7955.58
862.176	7964.62
862.498	8000.55
862.819	7926.88
863.14	7912.65
863.461	7942.02
863.782	7897.73
864.103	7858.86
864.424	7856.83
864.745	7853.21
865.065	7833.1
865.386	7782.7
865.707	7817.96
866.027	7775.02
866.348	7837.39
866.668	7791.52
866.989	7786.55
867.309	7680.79
867.63	7678.53
867.95	7686.66
868.27	7650.05
868.59	7711.97
868.91	7727.79
869.23	7707
869.55	7717.17
869.87	7753.55
870.19	7598.76
870.51	7587.23
870.83	7673.56
871.15	7583.84
871.469	7622.48
871.789	7636.04
872.109	7608.25
872.428	7653.44
872.748	7648.92
873.067	7598.08
873.386	7629.04
873.706	7624.29
874.025	7537.97
874.344	7548.36
874.663	7480.79
874.982	7478.53
875.301	7578.87
875.62	7564.86
875.939	7500.23
876.258	7524.18
876.577	7526.21
876.896	7528.7
877.214	7465.2
877.533	7499.1
877.852	7518.31
878.17	7439.66
878.489	7511.98
878.807	7441.92
879.125	7417.52
879.444	7373.45
879.762	7451.19
880.08	7408.25
880.398	7394.92
880.716	7385.65
881.034	7398.99
881.352	7367.57
881.67	7295.26
881.988	7370.29
882.306	7302.94
882.624	7311.3
882.941	7300.01
883.259	7313.11
883.577	7281.7
883.894	7247.13
884.212	7233.79
884.529	7269.72
884.846	7221.36
885.164	7193.57
885.481	7176.39
885.798	7172.55
886.115	7149.95
886.432	7173.68
886.75	7151.54
887.067	7145.21
887.383	7048.04
887.7	7088.94
888.017	7120.35
888.334	7136.62
888.651	7093.46
888.967	7039
889.284	7003.52
889.6	6993.8
889.917	7001.48
890.233	6992.9
890.55	6965.33
890.866	6965.1
891.182	6971.2
891.498	6998.77
891.815	6988.6
892.131	6883.75
892.447	6871.77
892.763	6812.34
893.079	6789.06
893.395	6793.35
893.71	6837.87
894.026	6734.82
894.342	6779.34
894.657	6749.29
894.973	6757.2
895.289	6695.73
895.604	6693.02
895.92	6657.31
896.235	6599.69
896.55	6626.8
896.865	6606.69
897.181	6634.94
897.496	6585.45
897.811	6562.62
898.126	6564.66
898.441	6537.09
898.756	6467.03
899.071	6485.34
899.386	6527.6
899.7	6464.77
900.015	6436.07
900.33	6419.8
900.644	6433.81
900.959	6427.71
901.273	6395.17
901.588	6330.54
901.902	6326.7
902.216	6316.98
902.531	6248.06
902.845	6196.76
903.159	6271.11
903.473	6220.03
903.787	6182.3
904.101	6186.81
904.415	6149.53
904.729	6113.37
905.042	6098.46
905.356	6106.36
905.67	6063.65
905.984	6073.15
906.297	6051.68
906.611	6025.01
906.924	6018.68
907.237	6061.39
907.551	5945.24
907.864	5889.2
908.177	5877.44
908.491	5871.57
908.804	5842.64
909.117	5809.42
909.43	5744.57
909.743	5772.14
910.056	5777.56
910.368	5757.9
910.681	5752.93
910.994	5731.46
911.307	5656.66
911.619	5685.36
911.932	5600.84
912.244	5658.69
912.557	5651.24
912.869	5634.51
913.181	5619.6
913.494	5566.49
913.806	5596.32
914.118	5545.25
914.43	5548.41
914.742	5538.92
915.054	5512.03
915.366	5474.52
915.678	5462.31
915.99	5426.83
916.302	5395.42
916.613	5395.88
916.925	5397.46
917.236	5362.66
917.548	5318.81
917.859	5341.19
918.171	5305.93
918.482	5225.71
918.794	5222.77
919.105	5267.74
919.416	5195.43
919.727	5141.19
920.038	5180.06
920.349	5124.02
920.66	5109.55
920.971	5130.35
921.282	5123.79
921.593	5055.09
921.903	5014.64
922.214	5035.43
922.525	4989.78
922.835	5012.83
923.146	4982.78
923.456	4933.51
923.767	4939.39
924.077	4917.02
924.387	4895.78
924.697	4875.44
925.008	4895.32
925.318	4858.49
925.628	4835.89
925.938	4799.96
926.248	4787.98
926.558	4768.77
926.867	4727.42
927.177	4745.5
927.487	4709.34
927.796	4653.3
928.106	4703.24
928.416	4707.76
928.725	4665.95
929.034	4628.66
929.344	4648.1
929.653	4601.77
929.962	4559.96
930.271	4562.68
930.581	4564.94
930.89	4520.64
931.199	4521.1
931.508	4494.88
931.817	4453.53
932.125	4499.85
932.434	4488.55
932.743	4446.3
933.051	4384.83
933.36	4380.53
933.669	4369.24
933.977	4375.34
934.286	4371.04
934.594	4335.56
934.902	4314.1
935.21	4328.11
935.519	4271.84
935.827	4253.76
936.135	4241.56
936.443	4191.39
936.751	4153.87
937.059	4157.04
937.367	4174.44
937.674	4172.4
937.982	4115
938.29	4139.86
938.597	4143.25
938.905	4042.24
939.213	4058.51
939.52	4048.57
939.827	4087.66
940.135	4021
940.442	4008.57
940.749	4006.53
941.056	4021.45
941.363	3981
941.67	3953.43
941.977	3944.16
942.284	3933.77
942.591	3892.41
942.898	3893.77
943.205	3898.51
943.511	3894.45
943.818	3897.16
944.125	3797.05
944.431	3794.11
944.738	3801.34
945.044	3784.84
945.35	3788.01
945.657	3763.83
945.963	3770.16
946.269	3722.02
946.575	3726.54
946.881	3664.85
947.187	3677.73
947.493	3634.79
947.799	3632.31
948.105	3599.76
948.41	3581.01
948.716	3593.44
949.022	3586.88
949.327	3620.55
949.633	3520.9
949.938	3548.69
950.244	3574.23
950.549	3473.44
950.854	3512.76
951.16	3491.74
951.465	3441.58
951.77	3433.44
952.075	3446.32
952.38	3477.73
952.685	3425.08
952.99	3394.57
953.294	3403.39
953.599	3400.9
953.904	3351.64
954.209	3365.65
954.513	3364.74
954.818	3373.1
955.122	3281.13
955.426	3280.68
955.731	3253.33
956.035	3230.73
956.339	3265.08
956.643	3278.19
956.948	3232.99
957.252	3190.74
957.556	3242.03
957.86	3203.62
958.163	3172.88
958.467	3212.2
958.771	3190.96
959.075	3187.57
959.378	3120
959.682	3135.37
959.985	3114.13
960.289	3118.19
960.592	3065.54
960.896	3086.11
961.199	3061.93
961.502	3079.78
961.805	3049.72
962.108	3066.44
962.411	3029.84
962.714	3016.95
963.017	3009.72
963.32	3006.33
963.623	2977.41
963.926	2974.47
964.228	2961.59
964.531	2943.51
964.833	2934.7
965.136	2887.47
965.438	2896.96
965.741	2920.69
966.043	2873.46
966.345	2882.49
966.648	2871.42
966.95	2866.68
967.252	2803.17
967.554	2824.19
967.856	2815.38
968.158	2779.22
968.46	2771.99
968.761	2758.66
969.063	2744.42
969.365	2748.49
969.666	2746.23
969.968	2748.26
970.269	2721.37
970.571	2730.63
970.872	2703.97
971.174	2688.6
971.475	2682.27
971.776	2661.94
972.077	2628.94
972.378	2656.51
972.679	2638.43
972.98	2642.95
973.281	2619
973.582	2639.79
973.883	2615.16
974.183	2586.68
974.484	2612.9
974.785	2552.56
975.085	2580.36
975.386	2522.5
975.686	2512.79
975.986	2528.15
976.287	2518.44
976.587	2498.1
976.887	2507.36
977.187	2499.91
977.487	2472.56
977.787	2452.9
978.087	2435.05
978.387	2430.08
978.687	2420.59
978.987	2433.24
979.286	2439.12
979.586	2416.07
979.885	2388.5
980.185	2364.09
980.484	2343.07
980.784	2371.1
981.083	2337.2
981.382	2355.28
981.682	2350.53
981.981	2340.14
982.28	2304.43
982.579	2292
982.878	2294.94
983.177	2313.7
983.475	2284.54
983.774	2253.81
984.073	2273.92
984.372	2212.91
984.67	2221.04
984.969	2228.05
985.267	2229.63
985.566	2195.96
985.864	2200.93
986.162	2208.16
986.461	2187.82
986.759	2181.04
987.057	2179.46
987.355	2156.41
987.653	2144.21
987.951	2127.26
988.249	2132.01
988.547	2142.85
988.844	2120.25
989.142	2109.86
989.44	2131.78
989.737	2100.82
990.035	2093.14
990.332	2074.83
990.63	2071.22
990.927	2080.03
991.224	2044.78
991.521	2012.69
991.819	2023.76
992.116	2030.77
992.413	2010.2
992.71	2016.3
993.006	1951.45
993.303	1993.48
993.6	1976.08
993.897	1986.47
994.193	1940.82
994.49	1966.59
994.787	1930.66
995.083	1936.53
995.379	1955.29
995.676	1908.06
995.972	1901.5
996.268	1911.22
996.565	1871
996.861	1884.1
997.157	1878.45
997.453	1848.85
997.749	1877.55
998.044	1825.57
998.34	1876.19
998.636	1840.71
998.932	1794.39
999.227	1799.36
999.523	1798.46
999.818	1790.09
1000.114	1797.78
1000.409	1788.06
1000.704	1736.99
1001	1765.24
1001.295	1759.59
1001.59	1738.8
1001.885	1717.78
1002.18	1689.31
1002.475	1703.99
1002.77	1697.67
1003.065	1715.52
1003.359	1685.92
1003.654	1685.46
1003.949	1675.75
1004.243	1666.48
1004.538	1643.66
1004.832	1631.68
1005.127	1650.21
1005.421	1621.06
1005.715	1602.98
1006.009	1595.52
1006.304	1606.37
1006.598	1572.47
1006.892	1590.33
1007.186	1552.59
1007.48	1579.93
1007.773	1553.72
1008.067	1564.11
1008.361	1534.73
1008.655	1542.64
1008.948	1550.1
1009.242	1519.59
1009.535	1510.33
1009.829	1496.77
1010.122	1493.15
1010.415	1484.57
1010.708	1475.98
1011.001	1461.29
1011.295	1455.41
1011.588	1464.68
1011.881	1453.38
1012.173	1430.56
1012.466	1425.81
1012.759	1436.43
1013.052	1393.04
1013.344	1417.45
1013.637	1443.89
1013.93	1399.37
1014.222	1347.17
1014.514	1393.04
1014.807	1375.19
1015.099	1366.38
1015.391	1365.25
1015.683	1357.34
1015.976	1349.2
1016.268	1332.25
1016.56	1318.02
1016.851	1324.57
1017.143	1312.82
1017.435	1295.87
1017.727	1308.52
1018.018	1297.9
1018.31	1261.07
1018.602	1264.01
1018.893	1244.12
1019.185	1248.87
1019.476	1241.86
1019.767	1206.38
1020.058	1214.06
1020.35	1223.78
1020.641	1214.97
1020.932	1215.42
1021.223	1204.57
1021.514	1184.69
1021.804	1189.66
1022.095	1172.03
1022.386	1194.4
1022.677	1192.14
1022.967	1176.78
1023.258	1150.79
1023.548	1164.12
1023.839	1120.28
1024.129	1121.41
1024.419	1111.24
1024.709	1116.67
1025	1111.47
1025.29	1112.6
1025.58	1090
1025.87	1068.31
1026.16	1072.15
1026.449	1080.06
1026.739	1080.51
1027.029	1056.1
1027.319	1059.72
1027.608	1066.27
1027.898	1032.6
1028.187	1036.67
1028.477	1054.29
1028.766	1022.43
1029.055	980.85
1029.344	1011.58
1029.634	998.93
1029.923	974.3
1030.212	986.5
1030.501	972.04
1030.79	963
1031.078	962.55
1031.367	971.58
1031.656	952.6
1031.945	951.25
1032.233	952.38
1032.522	945.6
1032.81	936.78
1033.099	926.84
1033.387	913.96
1033.675	936.33
1033.963	923.45
1034.251	911.93
1034.54	905.15
1034.828	889.1
1035.116	898.59
1035.403	882.77
1035.691	861.98
1035.979	837.8
1036.267	899.5
1036.554	856.56
1036.842	868.31
1037.129	857.24
1037.417	855.88
1037.704	864.92
1037.992	843.23
1038.279	837.35
1038.566	824.02
1038.853	824.02
1039.14	824.02
