Data from copper_heatsink_FLMS001491_068.txt Node
Date: Tue Feb 07 10:50:22 GMT 2017
User: dcchb
Spectrometer: FLMS00149
Trigger mode: 0
Integration Time (sec): 2.000000E-2
Scans to average: 10
Electric dark correction enabled: true
Nonlinearity correction enabled: false
Boxcar width: 0
XAxis mode: Wavelengths
Number of Pixels in Spectrum: 2048
>>>>>Begin Spectral Data<<<<<
341.393	-20.35
341.776	-20.35
342.16	-20.35
342.543	-61.26
342.927	-68.03
343.31	-73.68
343.693	-83.4
344.077	-72.33
344.46	-53.8
344.843	-59
345.226	-27.36
345.61	-34.82
345.993	-19.22
346.376	-1.6
346.759	1.79
347.142	14.45
347.525	46.99
347.908	56.48
348.291	87.67
348.674	105.52
349.057	112.3
349.44	117.5
349.823	140.77
350.206	157.27
350.588	189.81
350.971	182.58
351.354	213.99
351.737	231.39
352.119	231.62
352.502	257.61
352.884	289.02
353.267	280.88
353.65	281.56
354.032	289.92
354.414	288.11
354.797	313.42
355.179	314.78
355.562	330.37
355.944	328.11
356.326	330.6
356.709	335.57
357.091	342.58
357.473	345.29
357.855	340.99
358.238	345.97
358.62	335.8
359.002	327.89
359.384	357.94
359.766	335.34
360.148	344.16
360.53	336.25
360.912	352.97
361.294	327.21
361.676	327.89
362.057	315.23
362.439	322.01
362.821	322.46
363.203	299.64
363.584	314.33
363.966	308.23
364.348	326.3
364.729	343.71
365.111	310.49
365.493	343.25
365.874	321.33
366.256	319.3
366.637	325.85
367.019	331.5
367.4	307.1
367.781	298.28
368.163	303.03
368.544	306.64
368.925	310.26
369.306	310.26
369.688	317.27
370.069	315.01
370.45	330.37
370.831	293.76
371.212	324.27
371.593	315.01
371.974	303.93
372.355	300.54
372.736	301.22
373.117	313.42
373.498	302.12
373.879	308.68
374.26	311.84
374.641	318.17
375.021	308.23
375.402	291.96
375.783	313.42
376.163	328.34
376.544	322.01
376.925	325.63
377.305	296.48
377.686	312.97
378.066	320.88
378.447	328.11
378.827	304.61
379.208	309.81
379.588	315.01
379.968	324.72
380.349	329.47
380.729	304.61
381.109	342.12
381.489	323.37
381.87	338.06
382.25	328.11
382.63	328.11
383.01	326.3
383.39	319.3
383.77	350.49
384.15	343.93
384.53	329.92
384.91	340.32
385.29	339.64
385.67	320.88
386.049	350.03
386.429	331.28
386.809	346.42
387.189	356.59
387.568	345.29
387.948	334.21
388.328	355.23
388.707	348.9
389.087	336.47
389.466	348.9
389.846	356.59
390.225	341.45
390.605	378.96
390.984	351.62
391.363	348.68
391.743	366.98
392.122	342.12
392.501	344.61
392.881	367.43
393.26	366.08
393.639	359.75
394.018	376.25
394.397	385.06
394.776	364.72
395.155	380.09
395.534	371.95
395.913	371.28
396.292	385.29
396.671	384.83
397.05	387.09
397.429	398.85
397.808	377.6
398.186	389.81
398.565	385.29
398.944	364.27
399.323	378.51
399.701	378.06
400.08	400.43
400.458	357.26
400.837	410.14
401.215	401.11
401.594	356.81
401.972	381.44
402.351	403.14
402.729	390.71
403.107	387.55
403.486	409.47
403.864	373.99
404.242	397.72
404.62	414.44
404.999	398.62
405.377	402.91
405.755	397.04
406.133	426.42
406.511	416.02
406.889	426.87
407.267	415.34
407.645	423.25
408.023	400.2
408.401	412.4
408.779	409.24
409.156	437.26
409.534	406.3
409.912	427.77
410.29	410.82
410.667	434.78
411.045	425.51
411.422	423.48
411.8	426.87
412.178	445.4
412.555	457.37
412.933	438.17
413.31	456.92
413.687	425.74
414.065	469.58
414.442	453.31
414.819	469.8
415.197	463.48
415.574	444.27
415.951	444.04
416.328	460.76
416.705	463.7
417.082	469.8
417.46	456.7
417.837	482.23
418.214	455.34
418.591	475.45
418.967	453.53
419.344	489.69
419.721	469.8
420.098	484.49
420.475	489.69
420.852	482.46
421.228	495.11
421.605	500.76
421.982	489.24
422.358	491.72
422.735	486.98
423.111	498.05
423.488	507.54
423.864	472.97
424.241	505.96
424.617	485.17
424.994	496.02
425.37	493.76
425.746	533.08
426.123	521.33
426.499	519.97
426.875	510.71
427.251	520.65
427.627	544.38
428.003	530.14
428.379	536.92
428.756	527.66
429.132	535.34
429.507	551.84
429.883	536.02
430.259	530.82
430.635	535.57
431.011	542.34
431.387	538.73
431.763	560.65
432.138	562.46
432.514	573.08
432.89	572.63
433.265	587.32
433.641	578.73
434.016	555.68
434.392	589.12
434.767	599.52
435.143	574.89
435.518	603.81
435.894	606.75
436.269	595.9
436.644	626.64
437.02	628.44
437.395	616.92
437.77	609.01
438.145	630.03
438.52	631.61
438.895	635.68
439.271	609.01
439.646	632.29
440.021	648.56
440.395	628.22
440.77	674.54
441.145	631.83
441.52	656.01
441.895	643.58
442.27	658.95
442.645	691.27
443.019	667.31
443.394	666.64
443.769	647.2
444.143	645.17
444.518	676.58
444.892	671.61
445.267	667.76
445.641	673.41
446.016	684.49
446.39	668.44
446.764	694.2
447.139	700.76
447.513	705.5
447.887	698.72
448.262	695.56
448.636	672.96
449.01	701.44
449.384	707.99
449.758	731.27
450.132	720.42
450.506	715.67
450.88	744.6
451.254	736.24
451.628	744.6
452.002	766.52
452.376	740.08
452.75	732.85
453.123	762.68
453.497	773.98
453.871	753.64
454.244	776.01
454.618	783.69
454.992	780.3
455.365	792.06
455.739	795.22
456.112	801.55
456.486	836.12
456.859	808.78
457.232	836.35
457.606	825.73
457.979	830.02
458.352	848.1
458.725	858.95
459.099	832.05
459.472	893.3
459.845	872.51
460.218	860.53
460.591	881.32
460.964	871.6
461.337	890.81
461.71	918.61
462.083	921.77
462.456	909.34
462.829	922.9
463.201	946.18
463.574	951.83
463.947	948.21
464.32	978.72
464.692	972.62
465.065	974.2
465.438	967.87
465.81	971.94
466.183	1001.77
466.555	995.44
466.928	1031.82
467.3	1020.98
467.672	1052.84
468.045	1055.1
468.417	1086.28
468.789	1072.5
469.161	1102.56
469.534	1070.01
469.906	1113.63
470.278	1129.67
470.65	1109.79
471.022	1147.53
471.394	1163.57
471.766	1163.57
472.138	1182.1
472.51	1205.6
472.882	1205.15
473.253	1233.4
473.625	1220.97
473.997	1258.26
474.369	1274.75
474.74	1261.2
475.112	1287.64
475.484	1307.52
475.855	1308.2
476.227	1347.75
476.598	1376.22
476.97	1380.74
477.341	1408.99
477.713	1437.46
478.084	1405.82
478.455	1460.51
478.827	1495.31
479.198	1497.57
479.569	1511.13
479.94	1573.5
480.311	1540.28
480.682	1585.25
481.053	1619.6
481.424	1651.92
481.795	1655.76
482.166	1681.3
482.537	1676.78
482.908	1713.16
483.279	1707.29
483.65	1780.73
484.021	1815.76
484.391	1837.9
484.762	1832.93
485.133	1829.99
485.503	1870.67
485.874	1914.51
486.244	1934.85
486.615	1966.71
486.985	1982.08
487.356	2012.81
487.726	2009.2
488.097	2066.6
488.467	2088.97
488.837	2103.66
489.207	2167.84
489.578	2162.41
489.948	2202.19
490.318	2219.59
490.688	2237.44
491.058	2258.23
491.428	2278.34
491.798	2291.23
492.168	2342.75
492.538	2356.31
492.908	2371.9
493.278	2428.85
493.648	2393.14
494.017	2447.83
494.387	2507.26
494.757	2463.2
495.126	2524.21
495.496	2525.12
495.866	2560.6
496.235	2558.34
496.605	2567.15
496.974	2621.16
497.344	2643.76
497.713	2668.84
498.082	2669.52
498.452	2709.52
498.821	2729.18
499.19	2752.68
499.559	2738.67
499.928	2766.24
500.298	2810.53
500.667	2858.67
501.036	2816.18
501.405	2842.85
501.774	2839.23
502.143	2875.16
502.512	2900.7
502.88	2934.37
503.249	2944.77
503.618	2942.73
503.987	3018.21
504.356	3025.9
504.724	3011.21
505.093	3047.36
505.462	3088.04
505.83	3091.2
506.199	3066.35
506.567	3128.04
506.936	3136.17
507.304	3165.78
507.672	3222.5
508.041	3231.77
508.409	3210.97
508.777	3236.96
509.145	3311.99
509.514	3308.83
509.882	3302.72
510.25	3302.05
510.618	3358.32
510.986	3381.14
511.354	3431.99
511.722	3419.78
512.09	3490.52
512.458	3455.71
512.826	3514.47
513.193	3545.2
513.561	3582.72
513.929	3565.32
514.297	3619.55
514.664	3645.09
515.032	3632.43
515.4	3711.75
515.767	3706.78
516.135	3751.3
516.502	3670.17
516.869	3779.55
517.237	3814.12
517.604	3801.47
517.972	3837.63
518.339	3886.21
518.706	3904.52
519.073	3930.28
519.44	3928.92
519.808	3985.19
520.175	3997.39
520.542	4059.99
520.909	4098.41
521.276	4143.83
521.643	4143.83
522.009	4169.37
522.376	4223.6
522.743	4236.03
523.11	4267.9
523.477	4281.68
523.843	4341.11
524.21	4384.73
524.577	4408.23
524.943	4431.28
525.31	4466.99
525.676	4521.45
526.043	4534.56
526.409	4569.81
526.776	4572.3
527.142	4664.04
527.508	4651.16
527.874	4713.53
528.241	4703.59
528.607	4797.83
528.973	4761.44
529.339	4783.81
529.705	4902.46
530.071	4924.38
530.437	4947.65
530.803	4986.75
531.169	4961.89
531.535	5029.91
531.901	5013.19
532.267	5063.81
532.632	5062.68
532.998	5191.71
533.364	5140.42
533.73	5163.69
534.095	5230.58
534.461	5256.8
534.826	5293.41
535.192	5299.73
535.557	5365.95
535.923	5345.38
536.288	5414.08
536.653	5456.57
537.019	5440.52
537.384	5473.74
537.749	5581.31
538.114	5575.88
538.479	5585.38
538.845	5572.27
539.21	5576.56
539.575	5647.52
539.94	5655.88
540.305	5703.79
540.67	5752.15
541.034	5744.24
541.399	5787.4
541.764	5822.21
542.129	5830.12
542.494	5871.47
542.858	5906.95
543.223	5947.17
543.587	6012.03
543.952	5999.15
544.316	6013.16
544.681	6005.7
545.045	6057.23
545.41	6157.34
545.774	6167.73
546.138	6195.98
546.503	6243.21
546.867	6200.73
547.231	6305.81
547.595	6328.41
547.959	6353.04
548.324	6383.09
548.688	6388.52
549.052	6466.71
549.416	6522.07
549.779	6485.47
550.143	6621.96
550.507	6642.3
550.871	6694.95
551.235	6720.94
551.599	6800.94
551.962	6841.16
552.326	6823.08
552.689	6895.85
553.053	6854.95
553.417	6980.37
553.78	7080.48
554.143	7098.33
554.507	7157.99
554.87	7195.05
555.234	7261.49
555.597	7266.69
555.96	7289.51
556.323	7405.21
556.686	7470.3
557.05	7540.58
557.413	7550.97
557.776	7614.25
558.139	7741.25
558.502	7742.83
558.865	7841.14
559.228	8006.33
559.59	8000.91
559.953	8016.95
560.316	8188.47
560.679	8237.74
561.041	8224.85
561.404	8374.68
561.767	8464.85
562.129	8430.5
562.492	8598.4
562.854	8577.39
563.217	8663.49
563.579	8824.61
563.941	8924.72
564.304	8958.17
564.666	9033.87
565.028	9142.34
565.39	9217.37
565.753	9329.46
566.115	9361.32
566.477	9534.2
566.839	9516.8
567.201	9639.05
567.563	9669.11
567.925	9764.02
568.287	9862.1
568.648	9963.79
569.01	10016.67
569.372	10175.31
569.734	10223.45
570.095	10295.99
570.457	10390.45
570.819	10492.59
571.18	10601.74
571.542	10727.39
571.903	10689.42
572.265	10831.57
572.626	10865.01
572.987	10952.01
573.349	11025.23
573.71	11128.96
574.071	11279.69
574.432	11299.35
574.794	11476.75
575.155	11540.93
575.516	11575.73
575.877	11606.23
576.238	11715.38
576.599	11825.89
576.96	11883.29
577.32	11920.8
577.681	12061.59
578.042	12155.82
578.403	12154.92
578.763	12222.49
579.124	12347.23
579.485	12358.08
579.845	12534.8
580.206	12499.54
580.566	12600.78
580.927	12656.6
581.287	12706.54
581.648	12699.09
582.008	12852.3
582.368	12908.12
582.728	12890.04
583.089	12980.66
583.449	13045.07
583.809	13163.93
584.169	13226.08
584.529	13227.66
584.889	13344.49
585.249	13370.48
585.609	13314.89
585.969	13513.08
586.329	13476.47
586.688	13498.61
587.048	13563.02
587.408	13624.49
587.768	13584.94
588.127	13690.25
588.487	13734.09
588.846	13838.27
589.206	13813.18
589.565	13858.15
589.925	13938.83
590.284	13962.78
590.643	13920.07
591.003	14033.29
591.362	14189.67
591.721	14170.23
592.08	14111.03
592.44	14278.71
592.799	14298.37
593.158	14269.44
593.517	14308.08
593.876	14344.24
594.235	14351.7
594.593	14565.03
594.952	14546.95
595.311	14560.51
595.67	14590.56
596.029	14758.92
596.387	14720.05
596.746	14792.82
597.104	14753.27
597.463	14793.72
597.822	14926.15
598.18	14917.33
598.538	14833.27
598.897	15002.76
599.255	14927.28
599.613	15223.99
599.972	15138.8
600.33	15255.86
600.688	15161.62
601.046	15280.94
601.404	15310.09
601.762	15376.76
602.12	15360.71
602.478	15448.17
602.836	15548.96
603.194	15503.53
603.552	15495.62
603.91	15522.97
604.268	15676.18
604.625	15599.58
604.983	15703.98
605.341	15630.54
605.698	15841.15
606.056	15971.32
606.413	15891.09
606.771	15969.28
607.128	15971.32
607.485	16023.52
607.843	15967.7
608.2	16129.05
608.557	16110.97
608.914	16170.41
609.272	16268.71
609.629	16371.31
609.986	16360.69
610.343	16372.89
610.7	16476.61
611.057	16523.62
611.414	16562.49
611.771	16627.8
612.127	16691.3
612.484	16709.83
612.841	16711.41
613.198	16820.56
613.554	16715.93
613.911	16864.63
614.267	16958.18
614.624	16867.34
614.98	17000.89
615.337	17069.14
615.693	17115.02
616.05	17094.9
616.406	17212.19
616.762	17253.32
617.118	17212.41
617.475	17236.37
617.831	17277.95
618.187	17406.08
618.543	17310.04
618.899	17547.55
619.255	17530.82
619.611	17545.74
619.967	17569.02
620.323	17786.86
620.678	17539.19
621.034	17644.49
621.39	17675.45
621.746	17647.21
622.101	17814.66
622.457	17802.68
622.812	17903.7
623.168	17894.66
623.523	17907.54
623.879	17849.23
624.234	17797.48
624.589	17957.25
624.945	17948.67
625.3	17904.6
625.655	18046.52
626.01	18031.6
626.365	18079.74
626.72	18050.58
627.075	18027.76
627.43	18060.53
627.785	18107.53
628.14	18077.7
628.495	18156.8
628.85	18169.68
629.205	17977.82
629.559	18203.58
629.914	18164.03
630.269	18211.48
630.623	18224.59
630.978	18173.29
631.332	18280.86
631.687	18424.36
632.041	18310.69
632.396	18317.92
632.75	18360.86
633.104	18409.67
633.459	18293.29
633.813	18244.93
634.167	18316.34
634.521	18296.23
634.875	18388.2
635.229	18333.97
635.583	18172.39
635.937	18258.04
636.291	18273.63
636.645	18281.09
636.999	18341.42
637.352	18410.35
637.706	18322.67
638.06	18439.95
638.413	18224.14
638.767	18346.62
639.121	18214.65
639.474	18371.25
639.828	18252.84
640.181	18323.35
640.534	18447.86
640.888	18343.68
641.241	18312.72
641.594	18403.57
641.947	18390.91
642.301	18319.96
642.654	18408.77
643.007	18306.17
643.36	18405.6
643.713	18279.05
644.066	18550.01
644.419	18401.31
644.771	18226.4
645.124	18038.38
645.477	17912.96
645.83	17828.44
646.182	17924.71
646.535	17885.84
646.888	18011.72
647.24	17889.23
647.593	18013.07
647.945	17945.73
648.298	18006.29
648.65	17935.11
649.002	17874.77
649.355	18005.61
649.707	17831.83
650.059	17860.53
650.411	18006.29
650.763	18159.51
651.115	18437.47
651.467	18366.73
651.819	18456
652.171	18244.48
652.523	18329
652.875	18365.83
653.227	18282.89
653.578	18369.67
653.93	18399.5
654.282	18204.48
654.633	18243.57
654.985	18404.47
655.337	18373.29
655.688	18327.87
656.039	18486.51
656.391	18295.1
656.742	18278.15
657.094	18463.23
657.445	18473.17
657.796	18400.86
658.147	18440.63
658.498	18393.85
658.849	18448.31
659.2	18454.64
659.551	18333.74
659.902	18432.72
660.253	18422.55
660.604	18430.69
660.955	18427.75
661.306	18554.75
661.656	18461.42
662.007	18470.01
662.358	18472.95
662.708	18553.85
663.059	18524.7
663.409	18410.35
663.76	18608.76
664.11	18558.37
664.461	18595.88
664.811	18665.71
665.161	18525.83
665.511	18468.65
665.862	18626.16
666.212	18613.73
666.562	18690.34
666.912	18644.24
667.262	18626.61
667.612	18714.97
667.962	18738.25
668.312	18682.88
668.662	18768.53
669.011	18715.43
669.361	18670.46
669.711	18690.12
670.06	18708.42
670.41	18731.24
670.76	18628.87
671.109	18775.54
671.459	18733.96
671.808	18557.69
672.157	18694.64
672.507	18632.49
672.856	18678.59
673.205	18632.72
673.554	18877.23
673.904	18697.8
674.253	18832.49
674.602	18821.41
674.951	18460.07
675.3	18411.71
675.649	18754.52
675.998	18836.1
676.346	18916.1
676.695	18906.61
677.044	18807.17
677.393	18832.49
677.741	18845.14
678.09	18748.42
678.438	18724.47
678.787	18872.26
679.135	18852.6
679.484	18761.98
679.832	18883.78
680.181	18815.76
680.529	18801.75
680.877	18765.82
681.225	18751.58
681.573	18796.78
681.922	18693.05
682.27	18705.03
682.618	18800.17
682.966	18716.1
683.314	18796.1
683.661	18671.36
684.009	18602.66
684.357	18604.24
684.705	18596.33
685.053	18681.75
685.4	18553.85
685.748	18476.11
686.095	18545.71
686.443	18478.82
686.79	18562.66
687.138	18574.64
687.485	18591.14
687.832	18528.76
688.18	18492.38
688.527	18435.43
688.874	18485.6
689.221	18411.03
689.568	18328.32
689.915	18343.68
690.262	18404.93
690.609	18322.89
690.956	18284.25
691.303	18213.07
691.65	18184.59
691.997	18230.92
692.344	18194.08
692.69	18153.41
693.037	18174.88
693.383	18018.27
693.73	18129.9
694.077	18008.78
694.423	17982.34
694.769	17904.37
695.116	17933.53
695.462	17856.92
695.808	17832.96
696.155	17887.88
696.501	17694.44
696.847	17901.21
697.193	17803.13
697.539	17811.72
697.885	17693.53
698.231	17781.89
698.577	17670.03
698.923	17559.3
699.269	17550.48
699.614	17494.44
699.96	17511.62
700.306	17553.65
700.651	17497.6
700.997	17402.24
701.342	17393.2
701.688	17321.11
702.033	17261.9
702.379	17381.45
702.724	17395.69
703.069	17375.8
703.415	17142.36
703.76	17118.86
704.105	17170.61
704.45	17077.28
704.795	17082.02
705.14	17081.57
705.485	17015.58
705.83	16975.13
706.175	17061.68
706.52	16960.67
706.865	16977.84
707.209	16842.48
707.554	16848.36
707.899	16901.46
708.243	16817.4
708.588	16867.56
708.932	16693.11
709.277	16720
709.621	16755.25
709.966	16735.59
710.31	16658.3
710.654	16605.42
710.998	16713.9
711.342	16694.24
711.687	16581.92
712.031	16612.2
712.375	16513.45
712.719	16554.8
713.063	16496.28
713.407	16558.19
713.75	16475.71
714.094	16392.32
714.438	16421.47
714.782	16343.74
715.125	16379.22
715.469	16388.03
715.812	16342.16
716.156	16323.17
716.499	16254.7
716.843	16263.06
717.186	16276.62
717.53	16179.67
717.873	16286.56
718.216	16173.57
718.559	16160.24
718.902	16144.65
719.246	16192.78
719.589	16093.35
719.932	16064.87
720.275	16115.49
720.617	16088.15
720.96	16024.65
721.303	16107.81
721.646	16129.51
721.989	16011.32
722.331	16000.24
722.674	16039.11
723.016	16012.45
723.359	15907.36
723.701	16018.77
724.044	15901.26
724.386	15726.35
724.729	15876.86
725.071	15824.88
725.413	15819.46
725.755	15860.13
726.097	15820.81
726.439	15725.45
726.782	15777.65
727.124	15914.82
727.465	15770.87
727.807	15845.67
728.149	15790.76
728.491	15828.95
728.833	15774.26
729.175	15750.98
729.516	15720.7
729.858	15701.49
730.199	15733.58
730.541	15748.72
730.882	15729.74
731.224	15734.94
731.565	15689.74
731.906	15658.33
732.248	15614.72
732.589	15687.48
732.93	15655.85
733.271	15651.78
733.612	15687.48
733.953	15652.68
734.294	15613.13
734.635	15589.41
734.976	15650.2
735.317	15545.34
735.658	15539.01
735.999	15590.08
736.339	15501.73
736.68	15518.45
737.021	15509.63
737.361	15485.45
737.702	15496.53
738.042	15442.97
738.383	15434.16
738.723	15463.31
739.063	15415.63
739.404	15435.29
739.744	15374.27
740.084	15370.2
740.424	15490.2
740.764	15460.6
741.104	15452.01
741.444	15390.09
741.784	15421.05
742.124	15437.09
742.464	15413.37
742.804	15397.77
743.143	15418.79
743.483	15444.78
743.823	15281.84
744.162	15353.71
744.502	15289.75
744.841	15217.44
745.181	15251.11
745.52	15223.09
745.86	15173.37
746.199	15167.5
746.538	15233.48
746.877	15162.98
747.216	15173.15
747.556	15121.85
747.895	15131.79
748.234	15063.32
748.573	15134.28
748.911	15047.73
749.25	15049.08
749.589	15008.63
749.928	15101.51
750.267	14985.81
750.605	15045.01
750.944	15000.27
751.283	14931.12
751.621	15004.11
751.96	14908.29
752.298	14915.3
752.636	14835.08
752.975	14878.24
753.313	14805.02
753.651	14904.23
753.989	14734.29
754.327	14746.94
754.666	14809.54
755.004	14822.87
755.342	14823.78
755.679	14872.14
756.017	14653.61
756.355	14807.51
756.693	14727.73
757.031	14709.43
757.368	14605.93
757.706	14678.24
758.044	14604.8
758.381	14607.29
758.719	14574.29
759.056	14558.25
759.394	14474.63
759.731	14335.65
760.068	14502.88
760.405	14367.97
760.743	14384.01
761.08	14428.31
761.417	14356.67
761.754	14274.86
762.091	14267.63
762.428	14170.23
762.765	14237.13
763.102	14317.8
763.438	14240.52
763.775	14180.63
764.112	14124.36
764.449	14241.42
764.785	14109.67
765.122	14005.95
765.458	13980.18
765.795	13933.4
766.131	13900.41
766.467	13929.34
766.804	13844.14
767.14	13801.88
767.476	13718.5
767.812	13694.32
768.148	13716.46
768.485	13683.92
768.821	13622
769.157	13589.23
769.492	13640.76
769.828	13513.3
770.164	13452.29
770.5	13521.21
770.836	13506.98
771.171	13438.5
771.507	13426.75
771.842	13347.66
772.178	13309.69
772.513	13285.29
772.849	13225.17
773.184	13155.57
773.519	13216.81
773.855	13265.63
774.19	13066.31
774.525	13017.72
774.86	13040.55
775.195	12965.97
775.53	12983.37
775.865	12832.19
776.2	12862.25
776.535	12736.83
776.87	12787.9
777.205	12691.63
777.539	12688.69
777.874	12707.45
778.209	12619.99
778.543	12643.27
778.878	12588.81
779.212	12540.67
779.547	12423.39
779.881	12474.91
780.215	12381.36
780.55	12530.05
780.884	12410.96
781.218	12375.71
781.552	12430.39
781.886	12280.79
782.22	12255.71
782.554	12137.75
782.888	12169.84
783.222	12142.27
783.556	11994.25
783.889	12044.87
784.223	11894.59
784.557	11945.43
784.89	11956.73
785.224	11950.63
785.557	11853.69
785.891	11789.05
786.224	11822.05
786.558	11821.14
786.891	11756.96
787.224	11739.56
787.557	11683.75
787.891	11686.68
788.224	11677.87
788.557	11632.67
788.89	11584.31
789.223	11642.84
789.556	11549.96
789.888	11497.08
790.221	11460.02
790.554	11404.66
790.887	11388.16
791.219	11336.64
791.552	11323.76
791.884	11307.03
792.217	11236.98
792.549	11177.77
792.882	11127.6
793.214	11086.93
793.546	11182.52
793.879	11150.2
794.211	11086.02
794.543	11034.72
794.875	11073.37
795.207	11065.46
795.539	11064.1
795.871	11035.4
796.203	10886.03
796.535	10806.93
796.867	10857.78
797.198	10862.3
797.53	10859.81
797.862	10817.78
798.193	10808.97
798.525	10767.84
798.856	10836.09
799.188	10578.69
799.519	10599.03
799.85	10507.51
800.182	10563.1
800.513	10649.88
800.844	10556.54
801.175	10597.45
801.506	10590.22
801.837	10545.02
802.168	10479.94
802.499	10504.12
802.83	10397.23
803.161	10387.28
803.491	10417.57
803.822	10430.67
804.153	10314.06
804.483	10154.75
804.814	10160.85
805.145	10265.03
805.475	10187.06
805.805	10138.48
806.136	10110.45
806.466	10148.42
806.796	10140.28
807.126	10067.29
807.457	10052.15
807.787	10049.44
808.117	10088.76
808.447	10063.22
808.777	10024.81
809.107	9974.41
809.436	9959.27
809.766	9953.17
810.096	9949.78
810.426	9886.51
810.755	9966.28
811.085	9881.99
811.414	9802.44
811.744	9878.6
812.073	9773.97
812.403	9766.96
812.732	9810.8
813.061	9735.32
813.39	9732.39
813.719	9713.18
814.049	9782.1
814.378	9760.63
814.707	9673.18
815.036	9665.49
815.365	9642.22
815.693	9547.31
816.022	9592.95
816.351	9529.45
816.68	9512.28
817.008	9517.48
817.337	9407.2
817.665	9423.24
817.994	9538.94
818.322	9547.98
818.651	9470.25
818.979	9363.13
819.307	9395.22
819.636	9397.7
819.964	9346.86
820.292	9410.81
820.62	9376.46
820.948	9352.73
821.276	9444.26
821.604	9397.7
821.932	9373.75
822.259	9331.04
822.587	9385.28
822.915	9370.59
823.243	9394.99
823.57	9454.65
823.898	9422.56
824.225	9303.47
824.553	9365.16
824.88	9420.08
825.207	9424.37
825.535	9362
825.862	9391.6
826.189	9327.88
826.516	9382.56
826.843	9437.03
827.17	9373.98
827.497	9403.13
827.824	9416.91
828.151	9477.48
828.478	9441.77
828.805	9453.52
829.131	9444.26
829.458	9432.51
829.785	9439.74
830.111	9404.71
830.438	9435.22
830.764	9459.17
831.09	9464.82
831.417	9457.36
831.743	9501.88
832.069	9482.67
832.395	9443.81
832.722	9532.16
833.048	9398.38
833.374	9439.74
833.7	9413.07
834.026	9384.15
834.351	9476.12
834.677	9457.36
835.003	9456.46
835.329	9484.71
835.654	9427.99
835.98	9481.09
836.306	9386.86
836.631	9383.24
836.956	9418.04
837.282	9433.86
837.607	9391.15
837.932	9387.08
838.258	9366.75
838.583	9334.2
838.908	9362.45
839.233	9371.94
839.558	9327.88
839.883	9354.09
840.208	9327.2
840.533	9299.85
840.858	9339.85
841.182	9294.2
841.507	9370.13
841.832	9293.98
842.156	9303.47
842.481	9316.58
842.805	9275.9
843.13	9242.23
843.454	9285.17
843.778	9255.11
844.103	9131.95
844.427	9156.58
844.751	9129.24
845.075	9152.29
845.399	9137.82
845.723	9111.38
846.047	9085.85
846.371	8999.52
846.695	8981.22
847.019	8948
847.343	8951.84
847.666	8880.88
847.99	8859.41
848.313	8882.69
848.637	8749.13
848.96	8876.14
849.284	8821.9
849.607	8662.81
849.931	8693.77
850.254	8680.44
850.577	8614.9
850.9	8577.61
851.223	8531.51
851.546	8535.35
851.869	8431.4
852.192	8576.71
852.515	8515.92
852.838	8381.23
853.161	8475.47
853.483	8409.03
853.806	8418.52
854.129	8379.2
854.451	8368.58
854.774	8318.64
855.096	8281.58
855.419	8334.91
855.741	8296.72
856.063	8273.89
856.385	8265.98
856.708	8193.44
857.03	8161.13
857.352	8173.56
857.674	8130.17
857.996	8066.89
858.318	8041.81
858.64	8108.02
858.961	8085.65
859.283	8070.96
859.605	7993.67
859.926	8033.9
860.248	8021.7
860.57	7950.51
860.891	8040.45
861.212	7991.41
861.534	7905.31
861.855	7947.57
862.176	7985.09
862.498	7931.98
862.819	7866.9
863.14	7924.52
863.461	7842.04
863.782	7866.45
864.103	7867.35
864.424	7830.29
864.745	7788.93
865.065	7812.21
865.386	7755.26
865.707	7772.21
866.027	7778.31
866.348	7777.41
866.668	7771.76
866.989	7746.67
867.309	7661.48
867.63	7714.13
867.95	7692.89
868.27	7664.64
868.59	7717.98
868.91	7746.67
869.23	7697.64
869.55	7729.27
869.87	7745.32
870.19	7673.68
870.51	7627.13
870.83	7639.78
871.15	7611.09
871.469	7607.7
871.789	7648.6
872.109	7656.96
872.428	7587.36
872.748	7638.43
873.067	7675.49
873.386	7627.13
873.706	7595.49
874.025	7544.87
874.344	7478.21
874.663	7534.25
874.982	7500.58
875.301	7532.67
875.62	7515.72
875.939	7521.82
876.258	7493.35
876.577	7496.06
876.896	7496.06
877.214	7449.06
877.533	7460.35
877.852	7428.94
878.17	7465.1
878.489	7457.64
878.807	7436.17
879.125	7348.04
879.444	7408.38
879.762	7400.47
880.08	7473.01
880.398	7422.39
880.716	7352.79
881.034	7417.87
881.352	7363.41
881.67	7291.55
881.988	7359.11
882.306	7287.03
882.624	7312.56
882.941	7305.33
883.259	7240.25
883.577	7291.55
883.894	7240.7
884.212	7252
884.529	7250.64
884.846	7253.58
885.164	7179.46
885.481	7212.68
885.798	7293.13
886.115	7168.84
886.432	7162.96
886.75	7106.92
887.067	7128.39
887.383	7137.2
887.7	7098.56
888.017	7063.53
888.334	7098.56
888.651	7031.21
888.967	7035.96
889.284	7017.43
889.6	7024.89
889.917	7002.97
890.233	6918.67
890.55	6953.02
890.866	6950.99
891.182	6924.32
891.498	6914.61
891.815	6936.75
892.131	6911.89
892.447	6850.2
892.763	6816.53
893.079	6771.79
893.395	6821.73
893.71	6791.45
894.026	6755.97
894.342	6810.43
894.657	6736.08
894.973	6738.34
895.289	6680.49
895.604	6689.75
895.92	6645.91
896.235	6655.63
896.55	6608.85
896.865	6652.69
897.181	6586.48
897.496	6536.99
897.811	6511.23
898.126	6538.12
898.441	6480.49
898.756	6551.23
899.071	6517.33
899.386	6496.99
899.7	6461.06
900.015	6479.59
900.33	6432.13
900.644	6479.36
900.959	6444.34
901.273	6388.74
901.588	6329.31
901.902	6278.92
902.216	6268.3
902.531	6242.08
902.845	6278.24
903.159	6176.77
903.473	6213.83
903.787	6186.26
904.101	6208.86
904.415	6138.36
904.729	6141.97
905.042	6092.71
905.356	6108.98
905.67	6095.64
905.984	6040.28
906.297	6024.69
906.611	6043.67
906.924	6017.45
907.237	5955.08
907.551	6002.54
907.864	5932.26
908.177	5906.5
908.491	5854.52
908.804	5856.78
909.117	5850.23
909.43	5774.98
909.743	5735.43
910.056	5750.34
910.368	5785.6
910.681	5697.46
910.994	5698.14
911.307	5689.55
911.619	5694.07
911.932	5690.91
912.244	5644.81
912.557	5679.84
912.869	5558.48
913.181	5595.32
913.494	5641.65
913.806	5540.18
914.118	5542.66
914.43	5524.13
914.742	5485.49
915.054	5493.63
915.366	5452.95
915.678	5437.36
915.99	5394.65
916.302	5392.61
916.613	5372.95
916.925	5354.2
917.236	5406.4
917.548	5332.5
917.859	5325.04
918.171	5269.45
918.482	5231.03
918.794	5231.71
919.105	5299.51
919.416	5206.63
919.727	5200.08
920.038	5130.7
920.349	5101.77
920.66	5123.92
920.971	5118.95
921.282	5107.42
921.593	5049.57
921.903	5026.75
922.214	5057.03
922.525	5030.36
922.835	5002.57
923.146	4975.67
923.456	4945.39
923.767	4914.66
924.077	4950.82
924.387	4879.41
924.697	4932.29
925.008	4886.41
925.318	4840.54
925.628	4840.99
925.938	4773.65
926.248	4751.73
926.558	4752.18
926.867	4729.81
927.177	4730.03
927.487	4688.68
927.796	4672.63
928.106	4662.91
928.416	4624.95
928.725	4650.03
929.034	4628.11
929.344	4621.79
929.653	4616.81
929.962	4522.58
930.271	4548.34
930.581	4519.19
930.89	4536.14
931.199	4507.21
931.508	4460.66
931.817	4502.92
932.125	4495.46
932.434	4463.82
932.743	4420.21
933.051	4400.77
933.36	4391.28
933.669	4368.91
933.977	4374.79
934.286	4387.22
934.594	4311.74
934.902	4318.52
935.21	4289.82
935.519	4239.2
935.827	4231.96
936.135	4252.76
936.443	4198.29
936.751	4182.02
937.059	4163.94
937.367	4162.81
937.674	4141.57
937.982	4147.45
938.29	4119.65
938.597	4101.57
938.905	4097.73
939.213	4066.09
939.52	4033.1
939.827	4083.04
940.135	4055.92
940.442	4028.81
940.749	4025.64
941.056	4023.61
941.363	3962.37
941.67	3958.75
941.977	3988.58
942.284	3927.57
942.591	3919.43
942.898	3917.85
943.205	3934.8
943.511	3861.58
943.818	3840.79
944.125	3789.72
944.431	3770.28
944.738	3775.71
945.044	3784.75
945.35	3742.26
945.657	3762.37
945.963	3747.23
946.269	3745.88
946.575	3759.89
946.881	3712.88
947.187	3695.26
947.493	3653.9
947.799	3719.66
948.105	3628.59
948.41	3592.43
948.716	3574.58
949.022	3577.52
949.327	3593.34
949.633	3547.46
949.938	3547.69
950.244	3581.59
950.549	3532.55
950.854	3520.57
951.16	3488.03
951.465	3492.1
951.77	3462.72
952.075	3491.19
952.38	3441.7
952.685	3418.88
952.99	3431.99
953.294	3411.42
953.599	3400.8
953.904	3368.26
954.209	3341.37
954.513	3356.06
954.818	3292.1
955.122	3309.96
955.426	3299.11
955.731	3304.53
956.035	3271.99
956.339	3271.54
956.643	3272.89
956.948	3225.44
957.252	3259.34
957.556	3260.24
957.86	3199.68
958.163	3222.5
958.467	3184.31
958.771	3189.73
959.075	3147.93
959.378	3146.8
959.682	3120.13
959.985	3150.86
960.289	3140.47
960.592	3061.83
960.896	3076.74
961.199	3070.87
961.502	3083.29
961.805	3077.42
962.108	3029.74
962.411	3040.36
962.714	3032.45
963.017	2971.89
963.32	2970.53
963.623	2988.16
963.926	2994.94
964.228	2953.35
964.531	2941.15
964.833	2957.2
965.136	2905.9
965.438	2881.94
965.741	2904.09
966.043	2910.42
966.345	2862.06
966.648	2830.19
966.95	2827.26
967.252	2836.75
967.554	2819.57
967.856	2812.34
968.158	2780.03
968.46	2778.67
968.761	2795.17
969.063	2773.47
969.365	2761.5
969.666	2717.43
969.968	2702.29
970.269	2727.82
970.571	2747.26
970.872	2705.23
971.174	2680.37
971.475	2677.88
971.776	2670.42
972.077	2665
972.378	2664.77
972.679	2642.85
972.98	2654.61
973.281	2656.64
973.582	2635.17
973.883	2637.43
974.183	2604.21
974.484	2549.3
974.785	2531.9
975.085	2552.69
975.386	2539.35
975.686	2537.77
975.986	2541.16
976.287	2544.78
976.587	2497.55
976.887	2474.5
977.187	2490.09
977.487	2488.06
977.787	2448.51
978.087	2447.38
978.387	2454.84
978.687	2439.92
978.987	2430.88
979.286	2417.32
979.586	2408.74
979.885	2363.99
980.185	2394.73
980.484	2370.77
980.784	2338.23
981.083	2321.51
981.382	2333.48
981.682	2352.69
981.981	2342.75
982.28	2304.78
982.579	2306.37
982.878	2307.04
983.177	2249.19
983.475	2290.1
983.774	2274.95
984.073	2249.64
984.372	2228.18
984.67	2224.56
984.969	2225.92
985.267	2207.16
985.566	2221.85
985.864	2223.43
986.162	2196.76
986.461	2204
986.759	2196.31
987.057	2165.58
987.355	2183.66
987.653	2168.74
987.951	2164
988.249	2153.83
988.547	2138.46
988.844	2139.59
989.142	2165.8
989.44	2115.86
989.737	2071.12
990.035	2093.26
990.332	2099.14
990.63	2086.03
990.927	2047.62
991.224	2021.18
991.521	2052.36
991.819	2008.97
992.116	2022.76
992.413	2015.3
992.71	1986.6
993.006	2013.94
993.303	1981.63
993.6	1951.35
993.897	1958.58
994.193	1994.74
994.49	1953.38
994.787	1950.9
995.083	1932.82
995.379	1893.5
995.676	1888.3
995.972	1897.11
996.268	1885.13
996.565	1862.54
996.861	1859.6
997.157	1881.74
997.453	1893.95
997.749	1849.88
998.044	1830.9
998.34	1841.29
998.636	1814.18
998.932	1816.66
999.227	1805.14
999.523	1784.8
999.818	1788.41
1000.114	1774.63
1000.409	1762.65
1000.704	1759.71
1001	1757.68
1001.295	1745.25
1001.59	1714.52
1001.885	1698.47
1002.18	1700.28
1002.475	1728.98
1002.77	1703.44
1003.065	1685.59
1003.359	1678.36
1003.654	1674.07
1003.949	1701.18
1004.243	1658.7
1004.538	1633.84
1004.832	1642.88
1005.127	1631.36
1005.421	1618.02
1005.715	1625.48
1006.009	1605.59
1006.304	1607.18
1006.598	1581.41
1006.892	1582.09
1007.186	1543.9
1007.48	1570.11
1007.773	1603.11
1008.067	1570.34
1008.361	1534.63
1008.655	1506.39
1008.948	1535.09
1009.242	1519.27
1009.535	1510.45
1009.829	1486.27
1010.122	1517.46
1010.415	1477.46
1010.708	1500.51
1011.001	1453.28
1011.295	1447.86
1011.588	1471.13
1011.881	1439.27
1012.173	1427.29
1012.466	1441.98
1012.759	1406.73
1013.052	1437.69
1013.344	1439.27
1013.637	1424.36
1013.93	1411.7
1014.222	1388.42
1014.514	1387.52
1014.807	1411.47
1015.099	1352.04
1015.391	1353.85
1015.683	1379.61
1015.976	1340.29
1016.268	1343.45
1016.56	1317.24
1016.851	1316.79
1017.143	1303
1017.435	1278.37
1017.727	1288.54
1018.018	1291.03
1018.31	1282.44
1018.602	1264.13
1018.893	1243.79
1019.185	1252.16
1019.476	1227.3
1019.767	1236.34
1020.058	1232.27
1020.35	1232.95
1020.641	1198.15
1020.932	1222.1
1021.223	1185.49
1021.514	1172.38
1021.804	1185.49
1022.095	1183.23
1022.386	1167.64
1022.677	1140.97
1022.967	1140.07
1023.258	1158.6
1023.548	1139.39
1023.839	1111.6
1024.129	1127.64
1024.419	1134.42
1024.709	1109.34
1025	1112.95
1025.29	1096.91
1025.58	1084.48
1025.87	1075.66
1026.16	1083.35
1026.449	1079.96
1026.739	1058.49
1027.029	1037.25
1027.319	1067.08
1027.608	1053.29
1027.898	1034.31
1028.187	1038.83
1028.477	1036.12
1028.766	1037.25
1029.055	1001.09
1029.344	1005.61
1029.634	974.2
1029.923	971.26
1030.212	981.88
1030.501	1002.9
1030.79	967.42
1031.078	963.8
1031.367	963.58
1031.656	948.44
1031.945	959.73
1032.233	949.11
1032.522	923.58
1032.81	938.94
1033.099	933.97
1033.387	932.16
1033.675	896.69
1033.963	920.64
1034.251	907.53
1034.54	899.85
1034.828	867.53
1035.116	870.47
1035.403	876.35
1035.691	877.25
1035.979	879.51
1036.267	867.99
1036.554	854.65
1036.842	842
1037.129	838.38
1037.417	840.42
1037.704	820.08
1037.992	833.18
1038.279	830.92
1038.566	811.94
1038.853	811.94
1039.14	811.94
