Data from copper_heatsink_FLMS001491_014.txt Node
Date: Tue Feb 07 10:49:18 GMT 2017
User: dcchb
Spectrometer: FLMS00149
Trigger mode: 0
Integration Time (sec): 2.000000E-2
Scans to average: 10
Electric dark correction enabled: true
Nonlinearity correction enabled: false
Boxcar width: 0
XAxis mode: Wavelengths
Number of Pixels in Spectrum: 2048
>>>>>Begin Spectral Data<<<<<
341.393	-19.53
341.776	-19.53
342.16	-19.53
342.543	-70.61
342.927	-76.48
343.31	-61.34
343.693	-80.32
344.077	-78.51
344.46	-41.23
344.843	-54.79
345.226	-42.58
345.61	-37.39
345.993	-20.44
346.376	-2.36
346.759	13.01
347.142	24.76
347.525	43.97
347.908	56.85
348.291	76.74
348.674	86
349.057	117.64
349.44	131.2
349.823	126.68
350.206	164.19
350.588	202.83
350.971	228.6
351.354	252.78
351.737	262.04
352.119	278.54
352.502	269.95
352.884	283.96
353.267	313.34
353.65	300.68
354.032	311.53
354.414	316.73
354.797	337.52
355.179	328.25
355.562	357.86
355.944	338.65
356.326	342.94
356.709	338.88
357.091	362.83
357.473	362.15
357.855	367.12
358.238	359.21
358.62	349.27
359.002	363.51
359.384	363.96
359.766	381.81
360.148	358.76
360.53	359.89
360.912	367.35
361.294	339.55
361.676	349.27
362.057	341.59
362.439	344.3
362.821	354.92
363.203	349.5
363.584	356.5
363.966	348.82
364.348	360.8
364.729	352.66
365.111	350.17
365.493	329.16
365.874	339.1
366.256	341.36
366.637	342.94
367.019	347.24
367.4	320.34
367.781	322.83
368.163	329.84
368.544	344.98
368.925	324.86
369.306	335.26
369.688	349.5
370.069	339.55
370.45	331.64
370.831	324.64
371.212	342.27
371.593	354.02
371.974	332.55
372.355	329.61
372.736	341.59
373.117	366.67
373.498	333
373.879	349.72
374.26	344.75
374.641	333.23
375.021	352.21
375.402	332.1
375.783	371.64
376.163	372.09
376.544	350.4
376.925	364.86
377.305	377.07
377.686	371.42
378.066	370.06
378.447	359.44
378.827	367.8
379.208	357.41
379.588	363.28
379.968	366.67
380.349	367.12
380.729	358.76
381.109	381.13
381.489	386.11
381.87	353.11
382.25	350.17
382.63	390.17
383.01	350.4
383.39	363.96
383.77	393.11
384.15	378.65
384.53	370.06
384.91	383.85
385.29	366.9
385.67	391.3
386.049	388.37
386.429	373.9
386.809	394.92
387.189	397.63
387.568	393.11
387.948	381.59
388.328	388.37
388.707	399.66
389.087	406.67
389.466	396.73
389.846	393.56
390.225	391.98
390.605	398.76
390.984	381.81
391.363	403.05
391.743	421.36
392.122	394.69
392.501	405.99
392.881	403.73
393.26	397.4
393.639	407.57
394.018	403.51
394.397	417.97
394.776	433.11
395.155	450.06
395.534	416.84
395.913	415.94
396.292	422.26
396.671	431.3
397.05	444.41
397.429	451.19
397.808	438.99
398.186	433.11
398.565	426.33
398.944	445.31
399.323	428.36
399.701	438.99
400.08	434.24
400.458	429.49
400.837	434.92
401.215	454.58
401.594	439.66
401.972	446.67
402.351	456.16
402.729	448.48
403.107	457.52
403.486	455.03
403.864	450.28
404.242	455.03
404.62	451.19
404.999	449.15
405.377	455.48
405.755	462.71
406.133	482.6
406.511	484.41
406.889	477.18
407.267	488.48
407.645	492.77
408.023	488.93
408.401	487.35
408.779	495.93
409.156	500.23
409.534	501.13
409.912	504.97
410.29	505.65
410.667	503.62
411.045	512.66
411.422	511.07
411.8	495.03
412.178	487.57
412.555	500.45
412.933	546.1
413.31	511.75
413.687	515.59
414.065	534.8
414.442	542.26
414.819	537.29
415.197	541.81
415.574	512.88
415.951	551.98
416.328	559.43
416.705	549.72
417.082	548.14
417.46	577.97
417.837	554.69
418.214	548.14
418.591	553.56
418.967	584.97
419.344	579.77
419.721	590.62
420.098	592.88
420.475	579.09
420.852	584.52
421.228	598.3
421.605	594.46
421.982	588.13
422.358	582.48
422.735	592.65
423.111	599.66
423.488	608.92
423.864	622.71
424.241	604.41
424.617	623.16
424.994	627
425.37	644.18
425.746	624.52
426.123	622.71
426.499	617.29
426.875	653.9
427.251	643.05
427.627	653.9
428.003	658.41
428.379	653.67
428.756	639.21
429.132	663.61
429.507	651.18
429.883	675.59
430.259	667.91
430.635	681.01
431.011	704.52
431.387	668.13
431.763	705.65
432.138	716.04
432.514	689.83
432.89	714.68
433.265	739.09
433.641	726.66
434.016	735.7
434.392	752.2
434.767	751.29
435.143	752.88
435.518	763.27
435.894	739.32
436.269	779.09
436.644	782.48
437.02	777.51
437.395	773.44
437.77	790.16
438.145	764.85
438.52	815.92
438.895	783.16
439.271	801.24
439.646	805.98
440.021	841.23
440.395	821.8
440.77	836.04
441.145	829.26
441.52	835.59
441.895	833.1
442.27	844.85
442.645	842.82
443.019	844.4
443.394	859.09
443.769	846.21
444.143	850.73
444.518	887.11
444.892	876.94
445.267	884.17
445.641	891.4
446.016	892.53
446.39	899.31
446.764	903.38
447.139	886.88
447.513	897.28
447.887	923.72
448.262	914.91
448.636	898.63
449.01	917.62
449.384	940.67
449.758	958.29
450.132	948.8
450.506	973.21
450.88	963.49
451.254	944.06
451.628	975.02
452.002	991.29
452.376	989.25
452.75	997.39
453.123	989.25
453.497	1016.37
453.871	1030.16
454.244	1041.91
454.618	1014.79
454.992	1064.51
455.365	1041.91
455.739	1071.29
456.112	1068.35
456.486	1089.59
456.859	1089.59
457.232	1130.04
457.606	1119.42
457.979	1101.34
458.352	1134.79
458.725	1153.77
459.099	1161.23
459.472	1161.68
459.845	1167.33
460.218	1197.38
460.591	1174.11
460.964	1180.21
461.337	1233.09
461.71	1269.47
462.083	1264.73
462.456	1257.5
462.829	1276.03
463.201	1325.06
463.574	1316.93
463.947	1319.19
464.32	1330.71
464.692	1382.24
465.065	1367.77
465.438	1375.46
465.81	1415.91
466.183	1412.75
466.555	1443.25
466.928	1437.6
467.3	1461.78
467.672	1487.09
468.045	1518.96
468.417	1510.82
468.789	1513.31
469.161	1558.05
469.534	1583.59
469.906	1614.77
470.278	1621.1
470.65	1630.59
471.022	1648.45
471.394	1661.55
471.766	1719.86
472.138	1720.31
472.51	1741.1
472.882	1796.69
473.253	1779.97
473.625	1809.12
473.997	1844.6
474.369	1852.73
474.74	1906.74
475.112	1911.72
475.484	1935.44
475.855	1986.29
476.227	2004.82
476.598	2118.04
476.97	2101.54
477.341	2126.62
477.713	2168.88
478.084	2175.44
478.455	2253.18
478.827	2294.98
479.198	2318.26
479.569	2329.56
479.94	2400.52
480.311	2411.59
480.682	2479.38
481.053	2521.87
481.424	2536.33
481.795	2566.84
482.166	2650.68
482.537	2654.29
482.908	2727.06
483.279	2756.21
483.65	2807.06
484.021	2812.03
484.391	2864.46
484.762	2896.1
485.133	3012.7
485.503	2969.54
485.874	3047.28
486.244	3091.12
486.615	3170.89
486.985	3228.74
487.356	3256.31
487.726	3282.07
488.097	3328.4
488.467	3351
488.837	3406.14
489.207	3466.7
489.578	3506.25
489.948	3549.41
490.318	3612.91
490.688	3612.91
491.058	3711.67
491.428	3770.42
491.798	3800.93
492.168	3882.74
492.538	3862.62
492.908	3971.32
493.278	4026.91
493.648	3980.14
494.017	4077.31
494.387	4154.14
494.757	4181.26
495.126	4198.43
495.496	4234.14
495.866	4289.96
496.235	4301.93
496.605	4400.92
496.974	4404.53
497.344	4445.43
497.713	4449.28
498.082	4513.23
498.452	4589.84
498.821	4562.49
499.19	4633.9
499.559	4695.14
499.928	4727.01
500.298	4757.52
500.667	4808.36
501.036	4849.04
501.405	4891.07
501.774	4880.22
502.143	4956.38
502.512	4988.92
502.88	5025.76
503.249	5030.28
503.618	5150.05
503.987	5135.36
504.356	5197.05
504.724	5211.06
505.093	5240.22
505.462	5309.82
505.83	5326.77
506.199	5423.26
506.567	5492.41
506.936	5451.74
507.304	5543.26
507.672	5566.76
508.041	5588.45
508.409	5651.05
508.777	5752.74
509.145	5746.64
509.514	5773.08
509.882	5885.4
510.25	5888.79
510.618	5924.04
510.986	5993.42
511.354	6016.69
511.722	6098.05
512.09	6159.06
512.458	6168.78
512.826	6231.6
513.193	6255.1
513.561	6326.74
513.929	6381.65
514.297	6430.47
514.664	6468.88
515.032	6602.44
515.4	6574.42
515.767	6649.9
516.135	6671.14
516.502	6741.19
516.869	6774.64
517.237	6853.05
517.604	6874.3
517.972	6939.61
518.339	6999.27
518.706	7032.03
519.073	7095.31
519.44	7166.72
519.808	7243.55
520.175	7247.85
520.542	7337.79
520.909	7468.86
521.276	7484.22
521.643	7499.59
522.009	7649.42
522.376	7720.83
522.743	7770.32
523.11	7849.41
523.477	7949.3
523.843	7961.05
524.21	8055.28
524.577	8165.11
524.943	8213.92
525.31	8267.03
525.676	8320.36
526.043	8386.57
526.409	8547.7
526.776	8623.86
527.142	8590.18
527.508	8650.75
527.874	8741.37
528.241	8826.56
528.607	8865.43
528.973	9073.33
529.339	9050.51
529.705	9153.56
530.071	9227.46
530.437	9282.14
530.803	9308.58
531.169	9400.56
531.535	9424.96
531.901	9464.96
532.267	9588.58
532.632	9672.64
532.998	9703.37
533.364	9816.37
533.73	9844.39
534.095	9984.27
534.461	10010.03
534.826	10095.23
535.192	10147.2
535.557	10297.94
535.923	10271.27
536.288	10301.1
536.653	10457.93
537.019	10421.55
537.384	10471.72
537.749	10545.39
538.114	10611.6
538.479	10685.04
538.845	10786.51
539.21	10814.98
539.575	10895.89
539.94	11010.69
540.305	11079.38
540.67	11140.85
541.034	11204.35
541.399	11301.3
541.764	11402.99
542.129	11377.91
542.494	11493.16
542.858	11564.34
543.223	11636.88
543.587	11709.42
543.952	11778.35
544.316	11863.77
544.681	11869.42
545.045	12013.37
545.41	12088.85
545.774	12251.56
546.138	12271.89
546.503	12368.84
546.867	12402.51
547.231	12609.29
547.595	12573.36
547.959	12687.48
548.324	12772.45
548.688	12858.32
549.052	12967.02
549.416	12993.01
549.779	13138.99
550.143	13120.91
550.507	13385.54
550.871	13490.62
551.235	13535.82
551.599	13681.12
551.962	13781.91
552.326	13871.63
552.689	13989.59
553.053	14073.2
553.417	14138.74
553.78	14441.33
554.143	14355.68
554.507	14556.13
554.87	14663.02
555.234	14882.45
555.597	14812.84
555.96	15109.33
556.323	15103.68
556.686	15303.68
557.05	15500.74
557.413	15641.07
557.776	15795.64
558.139	16011.01
558.502	16060.27
558.865	16182.53
559.228	16378.23
559.59	16460.94
559.953	16559.24
560.316	16956.29
560.679	16933.47
561.041	17181.6
561.404	17330.97
561.767	17629.95
562.129	17636.5
562.492	17942.25
562.854	18016.38
563.217	18149.71
563.579	18271.51
563.941	18551.5
564.304	18675.79
564.666	18889.8
565.028	19151.49
565.39	19343.12
565.753	19529.11
566.115	19733.17
566.477	19962.54
566.839	20140.84
567.201	20289.31
567.563	20460.61
567.925	20602.07
568.287	20826.02
568.648	20923.42
569.01	21241.38
569.372	21510.75
569.734	21444.76
570.095	21731.53
570.457	21975.14
570.819	22167
571.18	22265.76
571.542	22583.94
571.903	22697.16
572.265	22953.87
572.626	23119.75
572.987	23244.26
573.349	23472.05
573.71	23687.19
574.071	23785.94
574.432	23995.43
574.794	24222.77
575.155	24410.78
575.516	24485.13
575.877	24585.24
576.238	24778.23
576.599	24999.47
576.96	25159.69
577.32	25244.44
577.681	25368.05
578.042	25581.38
578.403	25759
578.763	25803.06
579.124	26023.17
579.485	26203.96
579.845	26395.59
580.206	26388.59
580.566	26530.95
580.927	26647.11
581.287	26939.53
581.648	26854.56
582.008	27147.89
582.368	26996.25
582.728	27306.3
583.089	27219.3
583.449	27529.8
583.809	27346.07
584.169	27642.56
584.529	27662.45
584.889	27908.77
585.249	27796.01
585.609	27924.82
585.969	28129.33
586.329	28177.47
586.688	28271.93
587.048	28353.28
587.408	28457.68
587.768	28524.35
588.127	28581.07
588.487	28628.53
588.846	28842.31
589.206	28796.43
589.565	28795.98
589.925	29100.6
590.284	29058.35
590.643	29116.2
591.003	29236.65
591.362	29393.7
591.721	29385.34
592.08	29436.64
592.44	29565.9
592.799	29683.19
593.158	29691.55
593.517	29732.68
593.876	29901.49
594.235	29865.33
594.593	29948.49
594.952	30169.73
595.311	30148.71
595.67	30300.8
596.029	30405.88
596.387	30534.24
596.746	30504.64
597.104	30548.93
597.463	30563.39
597.822	30687.23
598.18	30708.02
598.538	30745.99
598.897	31062.59
599.255	30848.81
599.613	31354.78
599.972	31000.44
600.33	31267.78
600.688	31265.52
601.046	31515.91
601.404	31682.68
601.762	31609.01
602.12	31880.42
602.478	31837.48
602.836	31941.43
603.194	31773.08
603.552	31922
603.91	31865.5
604.268	32088.1
604.625	32057.36
604.983	32274.98
605.341	32233.86
605.698	32481.31
606.056	32618.25
606.413	32592.04
606.771	32786.61
607.128	32834.97
607.485	32702.77
607.843	32832.26
608.2	32958.13
608.557	33243.55
608.914	33130.56
609.272	33485.12
609.629	33444.9
609.986	33531.9
610.343	33565.8
610.7	33775.51
611.057	33766.02
611.414	33574.61
611.771	33831.78
612.127	34033.81
612.484	34052.11
612.841	34234.48
613.198	34164.65
613.554	34150.87
613.911	34411.43
614.267	34589.05
614.624	34652.32
614.98	34758.54
615.337	34805.31
615.693	34830.17
616.05	34869.27
616.406	35253.89
616.762	34979.32
617.118	34991.98
617.475	35069.49
617.831	35204.85
618.187	35443.71
618.543	35547.22
618.899	35534.33
619.255	35623.15
619.611	35515.13
619.967	35762.35
620.323	35797.15
620.678	35780.66
621.034	35708.57
621.39	35857.26
621.746	36046.64
622.101	36284.6
622.457	36105.84
622.812	36140.42
623.168	36335.89
623.523	36472.39
623.879	36601.88
624.234	36336.35
624.589	36517.36
624.945	36632.84
625.3	36562.1
625.655	36531.82
626.01	36716.45
626.365	36553.97
626.72	36766.39
627.075	36788.99
627.43	36764.58
627.785	36865.6
628.14	36898.37
628.495	36962.77
628.85	36959.38
629.205	36807.52
629.559	36967.74
629.914	36852.94
630.269	36991.92
630.623	36929.33
630.978	36749.9
631.332	37039.83
631.687	37126.61
632.041	37079.15
632.396	37139.94
632.75	37065.37
633.104	37261.07
633.459	36904.24
633.813	36887.52
634.167	37007.29
634.521	37072.37
634.875	37062.66
635.229	36991.47
635.583	36958.7
635.937	37130.22
636.291	37012.49
636.645	37185.14
636.999	37013.62
637.352	37265.36
637.706	36998.93
638.06	37213.84
638.413	37036.67
638.767	36925.03
639.121	37086.38
639.474	36914.41
639.828	36994.41
640.181	36966.84
640.534	36999.83
640.888	36915.31
641.241	36858.82
641.594	36975.43
641.947	37004.8
642.301	37095.42
642.654	36960.96
643.007	37221.52
643.36	37173.84
643.713	37128.19
644.066	37222.65
644.419	36995.54
644.771	36759.16
645.124	36144.26
645.477	36060.87
645.83	35976.36
646.182	36000.31
646.535	36097.71
646.888	36344.71
647.24	36190.81
647.593	36408.66
647.945	36454.76
648.298	36340.64
648.65	36357.36
649.002	36238.5
649.355	36307.65
649.707	36233.98
650.059	36208.89
650.411	36615.44
650.763	36660.41
651.115	37170.68
651.467	37075.54
651.819	37183.33
652.171	37165.7
652.523	36998.93
652.875	36966.16
653.227	36823.34
653.578	36998.25
653.93	37002.54
654.282	36907.18
654.633	37060.62
654.985	37131.35
655.337	37103.11
655.688	37106.95
656.039	37305.36
656.391	36874.64
656.742	37059.04
657.094	37142.88
657.445	37213.84
657.796	37017.46
658.147	37132.03
658.498	37245.7
658.849	37232.82
659.2	37084.58
659.551	37171.81
659.902	37351.24
660.253	37172.48
660.604	37238.02
660.955	37077.12
661.306	37206.83
661.656	37211.8
662.007	37138.59
662.358	37219.71
662.708	37214.29
663.059	37213.16
663.409	37053.62
663.76	37401.4
664.11	37379.03
664.461	37588.52
664.811	37597.78
665.161	37433.27
665.511	37304.68
665.862	37404.12
666.212	37601.4
666.562	37679.14
666.912	37569.53
667.262	37541.29
667.612	37492.25
667.962	37661.96
668.312	37611.34
668.662	37630.78
669.011	37625.58
669.361	37597.1
669.711	37597.56
670.06	37498.8
670.41	37593.71
670.76	37530.21
671.109	37649.31
671.459	37541.06
671.808	37475.53
672.157	37742.41
672.507	37588.29
672.856	37604.79
673.205	37646.37
673.554	37666.48
673.904	37707.84
674.253	37976.53
674.602	37825.35
674.951	37235.08
675.3	37147.17
675.649	37776.76
675.998	37797.78
676.346	37762.75
676.695	38001.84
677.044	37747.38
677.393	37808.4
677.741	37647.5
678.09	37698.57
678.438	37661.74
678.787	37821.28
679.135	37673.71
679.484	37600.27
679.832	37614.28
680.181	37484.79
680.529	37653.6
680.877	37520.5
681.225	37691.57
681.573	37928.4
681.922	37612.7
682.27	37517.78
682.618	37644.11
682.966	37367.51
683.314	37595.07
683.661	37465.13
684.009	37230.11
684.357	37292.03
684.705	37346.94
685.053	37317.79
685.4	37302.88
685.748	37069.66
686.095	37265.59
686.443	37075.76
686.79	37014.52
687.138	37107.17
687.485	37156.44
687.832	37075.99
688.18	37122.99
688.527	36970.91
688.874	36979.49
689.221	37016.78
689.568	36856.79
689.915	36710.57
690.262	36718.03
690.609	36662.67
690.956	36766.84
691.303	36587.41
691.65	36486.63
691.997	36554.19
692.344	36355.78
692.69	36253.86
693.037	36484.82
693.383	36131.15
693.73	36270.81
694.077	36007.32
694.423	36290.47
694.769	36111.72
695.116	36016.81
695.462	35994.43
695.808	35896.81
696.155	35960.31
696.501	35591.96
696.847	35757.6
697.193	35349.25
697.539	35579.98
697.885	35392.87
698.231	35252.99
698.577	35234.91
698.923	35310.61
699.269	35121.92
699.614	35032.88
699.96	35042.82
700.306	35062.48
700.651	34975.48
700.997	34991.52
701.342	34979.09
701.688	35007.12
702.033	34765.77
702.379	34863.62
702.724	34803.51
703.069	34785.43
703.415	34458.43
703.76	34426.11
704.105	34508.15
704.45	34451.88
704.795	34170.3
705.14	34136.63
705.485	34143.64
705.83	34117.87
706.175	34187.7
706.52	34121.94
706.865	33951.1
707.209	33902.29
707.554	33952.68
707.899	33982.96
708.243	33788.39
708.588	33837.88
708.932	33621.39
709.277	33669.52
709.621	33716.3
709.966	33535.97
710.31	33638.11
710.654	33236.77
710.998	33410.77
711.342	33348.63
711.687	33290.55
712.031	33267.05
712.375	33054.85
712.719	33191.34
713.063	33265.02
713.407	33336.43
713.75	33050.78
714.094	33215.3
714.438	33035.87
714.782	33044.23
715.125	33013.5
715.469	33091.69
715.812	32848.3
716.156	32765.59
716.499	32843.78
716.843	32906.15
717.186	32652.15
717.53	32935.08
717.873	32962.42
718.216	32841.52
718.559	32737.57
718.902	32535.77
719.246	32643.11
719.589	32507.97
719.932	32331.25
720.275	32471.14
720.617	32475.21
720.96	32426.17
721.303	32440.18
721.646	32346.17
721.989	32338.94
722.331	32508.65
722.674	32339.16
723.016	32455.77
723.359	32351.82
723.701	32340.52
724.044	32243.35
724.386	32127.87
724.729	32264.36
725.071	32189.34
725.413	32259.62
725.755	32117.02
726.097	31977.82
726.439	31816.47
726.782	31971.49
727.124	32051.94
727.465	31911.6
727.807	32005.16
728.149	31850.59
728.491	31795.68
728.833	31798.61
729.175	31754.32
729.516	31870.25
729.858	31734.89
730.199	31795
730.541	31724.94
730.882	31720.65
731.224	31799.29
731.565	31591.39
731.906	31743.93
732.248	31749.8
732.589	31616.47
732.93	31546.87
733.271	31635.68
733.612	31692.18
733.953	31651.72
734.294	31734.21
734.635	31563.82
734.976	31656.24
735.317	31403.6
735.658	31475.91
735.999	31569.92
736.339	31571.5
736.68	31551.16
737.021	31492.86
737.361	31399.75
737.702	31626.19
738.042	31374.22
738.383	31274.33
738.723	31360.66
739.063	31241.79
739.404	31306.87
739.744	31465.06
740.084	31199.31
740.424	31331.51
740.764	31153.21
741.104	31370.15
741.444	31143.04
741.784	31150.72
742.124	31157.5
742.464	31211.74
742.804	31065.52
743.143	30903.72
743.483	30940.56
743.823	30847.68
744.162	30851.75
744.502	31144.62
744.841	30958.18
745.181	30996.6
745.52	30989.59
745.86	30999.54
746.199	30766.78
746.538	30849.26
746.877	31030.95
747.216	30960.89
747.556	30977.17
747.895	30931.74
748.234	30802.71
748.573	30840.22
748.911	30772.43
749.25	30694.46
749.589	30616.27
749.928	30630.96
750.267	30740.56
750.605	30598.19
750.944	30547.35
751.283	30553.67
751.621	30677.51
751.96	30508.7
752.298	30339.22
752.636	30385.32
752.975	30277.07
753.313	30122.72
753.651	30331.53
753.989	30253.79
754.327	30128.15
754.666	30049.05
755.004	30082.27
755.342	30163.4
755.679	30126.11
756.017	29983.75
756.355	29905.78
756.693	29973.58
757.031	29949.17
757.368	29677.76
757.706	29690.42
758.044	29670.53
758.381	29766.8
758.719	29602.51
759.056	29729.06
759.394	29545.11
759.731	29325.91
760.068	29390.09
760.405	29383.76
760.743	29233.48
761.08	29375.4
761.417	29193.94
761.754	29166.59
762.091	29115.52
762.428	29053.83
762.765	28979.48
763.102	28946.26
763.438	28898.58
763.775	28689.32
764.112	28797.56
764.449	28863.1
764.785	28519.6
765.122	28415.65
765.458	28390.79
765.795	28456.1
766.131	28538.59
766.467	28376.33
766.804	28275.09
767.14	28158.26
767.476	28250.01
767.812	28051.14
768.148	28240.29
768.485	27857.02
768.821	27865.38
769.157	27790.81
769.492	27724.37
769.828	27792.16
770.164	27539.06
770.5	27536.13
770.836	27558.27
771.171	27326.19
771.507	27230.37
771.842	27109.47
772.178	27218.85
772.513	27121
772.849	27023.37
773.184	26890.27
773.519	26979.98
773.855	26817.28
774.19	26666.54
774.525	26669.26
774.86	26749.71
775.195	26797.16
775.53	26593.33
775.865	26532.31
776.2	26351.75
776.535	26193.79
776.87	26182.94
777.205	26032.66
777.539	26015.49
777.874	26054.58
778.209	25829.96
778.543	25731.65
778.878	25787.47
779.212	25763.74
779.547	25531.66
779.881	25616.4
780.215	25552.45
780.55	25526.91
780.884	25460.93
781.218	25392.68
781.552	25420.7
781.886	25279.91
782.22	25158.79
782.554	25218.22
782.888	24849.42
783.222	24750.44
783.556	24830.66
783.889	24812.81
784.223	24695.75
784.557	24676.77
784.89	24632.25
785.224	24539.82
785.557	24381.41
785.891	24340.05
786.224	24355.42
786.558	24338.92
786.891	24180.28
787.224	24002.21
787.557	24098.48
787.891	24056.9
788.224	24067.97
788.557	24061.42
788.89	23903.45
789.223	23948.42
789.556	23829.11
789.888	23880.86
790.221	23667.3
790.554	23554.76
790.887	23611.71
791.219	23531.49
791.552	23498.49
791.884	23378.5
792.217	23339.63
792.549	23132.4
792.882	23046.3
793.214	23015.57
793.546	23079.07
793.879	22897.83
794.211	22869.13
794.543	22993.87
794.875	22901.9
795.207	22948.45
795.539	22888.11
795.871	22843.59
796.203	22617.84
796.535	22473.66
796.867	22492.42
797.198	22402.93
797.53	22510.5
797.862	22303.04
798.193	22424.85
798.525	22185.31
798.856	22295.59
799.188	21958.19
799.519	21970.17
799.85	21949.61
800.182	21989.38
800.513	21988.93
800.844	21812.21
801.175	21921.81
801.506	21934.24
801.837	21858.99
802.168	21702.38
802.499	21631.65
802.83	21554.14
803.161	21666.68
803.491	21480.69
803.822	21572.67
804.153	21396.4
804.483	21372.67
804.814	21313.92
805.145	21213.81
805.475	21328.38
805.805	21149.85
806.136	21129.52
806.466	21024.66
806.796	21061.04
807.126	21017.43
807.457	20953.02
807.787	20988.5
808.117	20880.71
808.447	20774.27
808.777	20925.9
809.107	20790.99
809.436	20781.5
809.766	20745.34
810.096	20764.33
810.426	20688.62
810.755	20677.78
811.085	20688.62
811.414	20682.75
811.744	20543.54
812.073	20375.18
812.403	20494.73
812.732	20332.47
813.061	20472.13
813.39	20247.28
813.719	20255.64
814.049	20286.6
814.378	20369.08
814.707	20132.93
815.036	20282.98
815.365	20178.13
815.693	19985.59
816.022	19940.39
816.351	19960.73
816.68	19969.09
817.008	20055.64
817.337	19829.44
817.665	19774.07
817.994	19911.47
818.322	19896.1
818.651	19831.7
818.979	19810.91
819.307	19828.76
819.636	19832.6
819.964	19777.91
820.292	19800.74
820.62	19805.71
820.948	19781.08
821.276	19847.29
821.604	19787.63
821.932	19882.99
822.259	19917.12
822.587	19850
822.915	19865.14
823.243	19750.34
823.57	19889.1
823.898	19821.98
824.225	19868.76
824.553	19776.33
824.88	19802.09
825.207	19892.26
825.535	19816.56
825.862	19815.65
826.189	19741.08
826.516	19894.52
826.843	19926.61
827.17	19945.59
827.497	20075.76
827.824	19981.07
828.151	19997.57
828.478	19939.72
828.805	20140.39
829.131	20002.77
829.458	20011.35
829.785	20033.27
830.111	20037.11
830.438	20189.2
830.764	20028.98
831.09	20116.66
831.417	20013.39
831.743	20157.79
832.069	20105.59
832.395	20132.25
832.722	20275.53
833.048	20063.55
833.374	20153.27
833.7	20020.39
834.026	20096.77
834.351	20255.87
834.677	20196.88
835.003	20152.82
835.329	20205.02
835.654	20096.55
835.98	19992.82
836.306	20142.87
836.631	20096.77
836.956	20136.32
837.282	20112.82
837.607	20062.42
837.932	19931.81
838.258	20026.04
838.583	19989.43
838.908	19961.86
839.233	19995.08
839.558	19902.2
839.883	19948.98
840.208	19835.76
840.533	19871.24
840.858	19863.56
841.182	19908.76
841.507	19837.12
841.832	19638.03
842.156	19751.25
842.481	19755.54
842.805	19683
843.13	19619.72
843.454	19735.2
843.778	19742.88
844.103	19686.84
844.427	19687.29
844.751	19667.63
845.075	19634.41
845.399	19437.13
845.723	19406.17
846.047	19543.57
846.371	19402.55
846.695	19319.17
847.019	19357.81
847.343	19205.95
847.666	19177.93
847.99	19004.15
848.313	19110.59
848.637	18947.43
848.96	18893.87
849.284	18843.47
849.607	18787.88
849.931	18833.98
850.254	18596.47
850.577	18547.21
850.9	18372.53
851.223	18460.21
851.546	18472.18
851.869	18273.09
852.192	18386.31
852.515	18155.13
852.838	18162.36
853.161	18072.65
853.483	18120.33
853.806	17971.18
854.129	17982.71
854.451	17867.91
854.774	17897.06
855.096	17718.53
855.419	17715.14
855.741	17802.82
856.063	17751.75
856.385	17742.71
856.708	17661.36
857.03	17527.35
857.352	17584.3
857.674	17627.23
857.996	17471.08
858.318	17406.22
858.64	17313.8
858.961	17278.54
859.283	17318.99
859.605	17291.88
859.926	17320.58
860.248	17244.19
860.57	17252.33
860.891	17122.16
861.212	17158.32
861.534	17158.55
861.855	17092.33
862.176	17154.03
862.498	17101.37
862.819	17077.19
863.14	16999.45
863.461	17013.24
863.782	17011.88
864.103	16970.53
864.424	16962.39
864.745	16975.95
865.065	16898.21
865.386	16858.67
865.707	16878.33
866.027	17010.98
866.348	16969.85
866.668	16877.88
866.989	16863.64
867.309	16756.75
867.63	16820.93
867.95	16816.18
868.27	16607.37
868.59	16868.38
868.91	16750.65
869.23	16846.24
869.55	16690.31
869.87	16724.66
870.19	16670.2
870.51	16692.34
870.83	16752.23
871.15	16624.55
871.469	16685.79
871.789	16749.07
872.109	16622.74
872.428	16604.44
872.748	16583.42
873.067	16552.91
873.386	16643.98
873.706	16498.9
874.025	16440.15
874.344	16372.58
874.663	16636.3
874.982	16445.57
875.301	16533.93
875.62	16427.04
875.939	16390.88
876.258	16389.75
876.577	16331.22
876.896	16409.64
877.214	16321.96
877.533	16317.44
877.852	16315.4
878.17	16336.65
878.489	16237.44
878.807	16326.25
879.125	16249.42
879.444	16252.58
879.762	16375.74
880.08	16351.79
880.398	16248.74
880.716	16255.74
881.034	16163.32
881.352	16213.03
881.67	16071.79
881.988	16121.96
882.306	16149.98
882.624	16082.64
882.941	16127.84
883.259	16102.98
883.577	16015.3
883.894	16004.68
884.212	15925.81
884.529	15941.85
884.846	15935.98
885.164	15913.83
885.481	15849.43
885.798	15937.11
886.115	15805.14
886.432	15821.18
886.75	15755.65
887.067	15791.35
887.383	15748.87
887.7	15772.82
888.017	15714.29
888.334	15729.21
888.651	15714.74
888.967	15693.27
889.284	15580.28
889.6	15530.79
889.917	15441.75
890.233	15478.82
890.55	15378.93
890.866	15445.14
891.182	15398.37
891.498	15327.63
891.815	15279.5
892.131	15332.15
892.447	15272.95
892.763	15211.03
893.079	15244.02
893.395	15135.1
893.71	15193.85
894.026	15094.87
894.342	15085.15
894.657	15092.39
894.973	15089.45
895.289	15051.48
895.604	14939.85
895.92	14846.29
896.235	14828.66
896.55	14890.81
896.865	14714.77
897.181	14788.44
897.496	14758.38
897.811	14653.75
898.126	14721.32
898.441	14651.49
898.756	14568.33
899.071	14538.5
899.386	14489.92
899.7	14380.77
900.015	14272.97
900.33	14297.38
900.644	14248.11
900.959	14288.34
901.273	14308.45
901.588	14201.79
901.902	14141
902.216	14118.17
902.531	14099.19
902.845	14043.83
903.159	14009.93
903.473	13971.74
903.787	13871.17
904.101	13799.31
904.415	13768.13
904.729	13801.57
905.042	13726.77
905.356	13725.87
905.67	13651.97
905.984	13622.82
906.297	13618.75
906.611	13490.17
906.924	13432.99
907.237	13414.69
907.551	13426.21
907.864	13368.59
908.177	13312.32
908.491	13265.77
908.804	13153.91
909.117	13118.65
909.43	13012.44
909.743	13073
910.056	13034.81
910.368	13035.49
910.681	12940.13
910.994	12848.38
911.307	12777.64
911.619	12761.6
911.932	12865.33
912.244	12615.39
912.557	12778.77
912.869	12612.9
913.181	12512.11
913.494	12548.72
913.806	12489.06
914.118	12506.92
914.43	12457.65
914.742	12413.36
915.054	12355.06
915.366	12300.14
915.678	12222.4
915.99	12203.2
916.302	12138.57
916.613	12165
916.925	12082.07
917.236	12058.79
917.548	11996.42
917.859	11973.15
918.171	11856.54
918.482	11843.21
918.794	11868.29
919.105	11824.22
919.416	11656.54
919.727	11742.64
920.038	11649.09
920.349	11512.37
920.66	11581.07
920.971	11551.91
921.282	11496.77
921.593	11419.04
921.903	11456.78
922.214	11405.93
922.525	11400.05
922.835	11246.61
923.146	11170.91
923.456	11171.58
923.767	11038.25
924.077	11143.79
924.387	10987.63
924.697	10969.56
925.008	10907.41
925.318	10926.62
925.628	10873.74
925.938	10882.55
926.248	10768.43
926.558	10784.25
926.867	10766.4
927.177	10645.04
927.487	10645.72
927.796	10594.42
928.106	10544.03
928.416	10553.07
928.725	10507.87
929.034	10471.04
929.344	10426.75
929.653	10351.72
929.962	10333.64
930.271	10291.83
930.581	10244.6
930.89	10148.33
931.199	10063.82
931.508	10153.31
931.817	10164.15
932.125	10087.77
932.434	10037.15
932.743	10031.73
933.051	9888
933.36	9946.31
933.669	9871.28
933.977	9801.68
934.286	9855.69
934.594	9786.99
934.902	9734.56
935.21	9731.17
935.519	9725.07
935.827	9617.95
936.135	9554.68
936.443	9570.5
936.751	9551.74
937.059	9459.77
937.367	9430.16
937.674	9384.97
937.982	9361.24
938.29	9332.99
938.597	9292.76
938.905	9184.29
939.213	9192.43
939.52	9182.03
939.827	9111.53
940.135	9068.14
940.442	9059.1
940.749	9042.38
941.056	9082.37
941.363	9064.75
941.67	9002.83
941.977	8944.98
942.284	8932.55
942.591	8883.74
942.898	8817.52
943.205	8795.15
943.511	8761.03
943.818	8730.07
944.125	8660.24
944.431	8644.19
944.738	8673.57
945.044	8602.16
945.35	8580.92
945.657	8439.68
945.963	8467.48
946.269	8440.36
946.575	8456.18
946.881	8306.12
947.187	8395.61
947.493	8246.46
947.799	8346.57
948.105	8223.64
948.41	8149.52
948.716	8206.24
949.022	8118.33
949.327	8140.03
949.633	8041.72
949.938	8083.3
950.244	8064.55
950.549	7942.07
950.854	7906.81
951.16	7922.18
951.465	7885.34
951.77	7806.93
952.075	7823.42
952.38	7796.98
952.685	7805.35
952.99	7738
953.294	7728.29
953.599	7733.48
953.904	7651.68
954.209	7611
954.513	7587.27
954.818	7538.91
955.122	7524.9
955.426	7501.85
955.731	7439.25
956.035	7469.54
956.339	7420.27
956.643	7326.49
956.948	7298.24
957.252	7227.51
957.556	7266.83
957.86	7234.51
958.163	7274.06
958.467	7173.5
958.771	7164.23
959.075	7211.24
959.378	7140.73
959.682	7080.39
959.985	7057.34
960.289	7059.15
960.592	7021.64
960.896	6968.08
961.199	6940.51
961.502	6881.3
961.805	6856.9
962.108	6811.47
962.411	6781.87
962.714	6772.83
963.017	6780.97
963.32	6781.87
963.623	6713.85
963.926	6741.64
964.228	6690.35
964.531	6677.69
964.833	6666.84
965.136	6593.85
965.438	6582.55
965.741	6518.15
966.043	6506.17
966.345	6488.09
966.648	6485.38
966.95	6442.44
967.252	6345.05
967.554	6315.44
967.856	6271.6
968.158	6304.59
968.46	6254.2
968.761	6301.43
969.063	6202.22
969.365	6209.46
969.666	6126.97
969.968	6100.08
970.269	6079.06
970.571	6096.46
970.872	6065.05
971.174	5987.99
971.475	6029.35
971.776	5990.48
972.077	5958.84
972.378	5985.73
972.679	5951.84
972.98	5894.89
973.281	5893.76
973.582	5875
973.883	5818.28
974.183	5828.45
974.484	5852.85
974.785	5718.85
975.085	5687.66
975.386	5727.66
975.686	5681.33
975.986	5674.78
976.287	5642.24
976.587	5642.69
976.887	5608.57
977.187	5665.06
977.487	5567.44
977.787	5509.13
978.087	5499.64
978.387	5517.5
978.687	5493.77
978.987	5438.63
979.286	5405.63
979.586	5459.42
979.885	5378.52
980.185	5370.16
980.484	5310.72
980.784	5346.88
981.083	5257.16
981.382	5250.84
981.682	5254.68
981.981	5217.84
982.28	5140.1
982.579	5134
982.878	5168.13
983.177	5109.15
983.475	5080.67
983.774	5054.01
984.073	5094.23
984.372	5026.66
984.67	4977.4
984.969	5032.31
985.267	4972.88
985.566	4967.45
985.864	4943.27
986.162	4870.73
986.461	4870.28
986.759	4875.93
987.057	4822.37
987.355	4835.93
987.653	4779.89
987.951	4740.79
988.249	4769.95
988.547	4768.14
988.844	4741.47
989.142	4696.27
989.44	4702.6
989.737	4663.06
990.035	4727.91
990.332	4647.24
990.63	4564.3
990.927	4601.59
991.224	4531.08
991.521	4546.22
991.819	4477.98
992.116	4514.13
992.413	4468.03
992.71	4433.23
993.006	4396.62
993.303	4449.5
993.6	4447.24
993.897	4385.32
994.193	4417.64
994.49	4373.35
994.787	4368.15
995.083	4329.28
995.379	4292.9
995.676	4273.24
995.972	4285.44
996.268	4228.72
996.565	4236.63
996.861	4245.89
997.157	4159.11
997.453	4188.04
997.749	4120.47
998.044	4086.57
998.34	4056.07
998.636	4108.95
998.932	4029.63
999.227	3993.02
999.523	3975.84
999.818	3955.5
1000.114	3977.2
1000.409	3921.15
1000.704	3954.83
1001	3868.5
1001.295	3808.16
1001.59	3807.48
1001.885	3852.46
1002.18	3796.41
1002.475	3801.38
1002.77	3784.21
1003.065	3736.75
1003.359	3765.45
1003.654	3706.47
1003.949	3686.81
1004.243	3679.58
1004.538	3662.4
1004.832	3605.68
1005.127	3598.22
1005.421	3579.47
1005.715	3557.55
1006.009	3533.14
1006.304	3525.23
1006.598	3530.2
1006.892	3474.16
1007.186	3446.82
1007.48	3415.63
1007.773	3400.49
1008.067	3417.21
1008.361	3409.75
1008.655	3408.63
1008.948	3366.37
1009.242	3377.44
1009.535	3313.26
1009.829	3288.18
1010.122	3257.22
1010.415	3281.4
1010.708	3216.09
1011.001	3226.71
1011.295	3188.74
1011.588	3207.95
1011.881	3145.36
1012.173	3119.59
1012.466	3121.63
1012.759	3095.86
1013.052	3091.12
1013.344	3057.22
1013.637	3062.19
1013.93	3020.16
1014.222	3032.59
1014.514	2988.98
1014.807	3020.84
1015.099	2944.46
1015.391	2929.77
1015.683	2922.08
1015.976	2856.32
1016.268	2857.68
1016.56	2867.17
1016.851	2854.29
1017.143	2840.73
1017.435	2817.68
1017.727	2775.42
1018.018	2785.36
1018.31	2762.77
1018.602	2712.15
1018.893	2704.91
1019.185	2685.71
1019.476	2660.62
1019.767	2656.33
1020.058	2624.69
1020.35	2623.11
1020.641	2599.83
1020.932	2571.13
1021.223	2560.51
1021.514	2559.83
1021.804	2505.6
1022.095	2479.16
1022.386	2485.71
1022.677	2474.19
1022.967	2430.35
1023.258	2428.54
1023.548	2399.16
1023.839	2398.71
1024.129	2377.92
1024.419	2325.49
1024.709	2335.88
1025	2345.15
1025.29	2316.68
1025.58	2290.24
1025.87	2232.61
1026.16	2225.61
1026.449	2247.07
1026.739	2204.59
1027.029	2187.41
1027.319	2188.09
1027.608	2168.21
1027.898	2147.87
1028.187	2151.71
1028.477	2114.2
1028.766	2112.39
1029.055	2079.62
1029.344	2086.63
1029.634	2043.01
1029.923	2035.55
1030.212	2025.16
1030.501	2021.54
1030.79	1980.41
1031.078	1952.39
1031.367	1973.41
1031.656	1936.8
1031.945	1936.57
1032.233	1924.82
1032.522	1872.62
1032.81	1917.82
1033.099	1886.41
1033.387	1908.33
1033.675	1865.84
1033.963	1847.31
1034.251	1822.45
1034.54	1765.96
1034.828	1806.63
1035.116	1815.22
1035.403	1755.56
1035.691	1769.8
1035.979	1778.61
1036.267	1732.06
1036.554	1688.9
1036.842	1699.97
1037.129	1691.16
1037.417	1662.68
1037.704	1662
1037.992	1660.65
1038.279	1631.04
1038.566	1623.14
1038.853	1623.14
1039.14	1623.14
