Data from foam1_polythene_foam_FLMS001491_00009.txt Node
Date: Wed Feb 08 10:54:18 GMT 2017
User: dcchb
Spectrometer: FLMS00149
Trigger mode: 0
Integration Time (sec): 2.000000E-2
Scans to average: 10
Electric dark correction enabled: true
Nonlinearity correction enabled: false
Boxcar width: 0
XAxis mode: Wavelengths
Number of Pixels in Spectrum: 2048
>>>>>Begin Spectral Data<<<<<
341.393	-18.98
341.776	-18.98
342.16	-18.98
342.543	-50.39
342.927	-64.63
343.31	-73.44
343.693	-58.98
344.077	-66.21
344.46	-45.65
344.843	-44.29
345.226	-47
345.61	-27.8
345.993	-22.82
346.376	-26.44
346.759	2.94
347.142	28.7
347.525	25.31
347.908	72.54
348.291	81.81
348.674	80.22
349.057	121.13
349.44	129.71
349.823	136.95
350.206	156.38
350.588	174.46
350.971	202.03
351.354	222.14
351.737	226.43
352.119	217.62
352.502	249.03
352.884	264.4
353.267	273.89
353.65	268.47
354.032	282.93
354.414	282.93
354.797	287.45
355.179	311.63
355.562	309.37
355.944	307.79
356.326	284.51
356.709	289.26
357.091	317.28
357.473	321.35
357.855	320.22
358.238	293.33
358.62	313.44
359.002	317.51
359.384	325.19
359.766	301.46
360.148	301.69
360.53	307.34
360.912	338.52
361.294	305.3
361.676	318.64
362.057	310.27
362.439	307.11
362.821	312.53
363.203	327.45
363.584	292.87
363.966	302.82
364.348	296.72
364.729	320.67
365.111	274.34
365.493	307.56
365.874	275.7
366.256	292.42
366.637	283.61
367.019	286.55
367.4	298.98
367.781	283.83
368.163	309.14
368.544	301.69
368.925	273.44
369.306	288.13
369.688	279.09
370.069	263.27
370.45	268.02
370.831	309.37
371.212	284.74
371.593	283.16
371.974	293.78
372.355	276.15
372.736	300.33
373.117	283.83
373.498	287.68
373.879	307.56
374.26	302.36
374.641	288.13
375.021	276.83
375.402	293.55
375.783	304.62
376.163	301.46
376.544	300.78
376.925	304.4
377.305	279.99
377.686	324.06
378.066	310.27
378.447	308.69
378.827	305.98
379.208	303.95
379.588	289.71
379.968	305.98
380.349	297.39
380.729	312.08
381.109	304.4
381.489	325.64
381.87	307.79
382.25	313.44
382.63	313.89
383.01	298.52
383.39	313.44
383.77	328.58
384.15	312.31
384.53	289.71
384.91	303.49
385.29	316.83
385.67	319.54
386.049	310.95
386.429	326.55
386.809	327.67
387.189	314.34
387.568	349.6
387.948	308.01
388.328	318.41
388.707	338.07
389.087	330.39
389.466	346.66
389.846	314.57
390.225	321.35
390.605	337.84
390.984	346.88
391.363	345.3
391.743	336.04
392.122	320.9
392.501	327.22
392.881	344.85
393.26	335.81
393.639	346.43
394.018	329.71
394.397	342.59
394.776	357.96
395.155	349.6
395.534	334.91
395.913	329.26
396.292	335.81
396.671	360.89
397.05	341.69
397.429	355.24
397.808	347.56
398.186	366.77
398.565	333.32
398.944	358.41
399.323	361.57
399.701	368.58
400.08	369.48
400.458	368.35
400.837	382.59
401.215	357.5
401.594	375.81
401.972	356.15
402.351	368.8
402.729	360.89
403.107	356.15
403.486	360.44
403.864	391.63
404.242	360.67
404.62	404.06
404.999	377.39
405.377	352.53
405.755	387.11
406.133	392.76
406.511	393.66
406.889	404.06
407.267	372.65
407.645	375.13
408.023	396.6
408.401	391.85
408.779	404.28
409.156	392.53
409.534	407.22
409.912	400.89
410.29	403.61
410.667	413.77
411.045	394.34
411.422	408.35
411.8	393.21
412.178	398.86
412.555	418.29
412.933	416.71
413.31	419.42
413.687	417.39
414.065	414.9
414.442	421.01
414.819	413.32
415.197	436.6
415.574	427.56
415.951	426.43
416.328	436.15
416.705	416.71
417.082	442.93
417.46	447.67
417.837	443.15
418.214	422.59
418.591	461
418.967	444.73
419.344	437.95
419.721	449.71
420.098	473.21
420.475	448.58
420.852	457.62
421.228	451.29
421.605	455.58
421.982	473.89
422.358	465.3
422.735	457.84
423.111	473.89
423.488	458.97
423.864	481.8
424.241	477.95
424.617	504.17
424.994	480.67
425.37	494.9
425.746	490.38
426.123	509.37
426.499	498.74
426.875	494.9
427.251	500.78
427.627	494.22
428.003	509.14
428.379	538.06
428.756	518.4
429.132	519.31
429.507	522.02
429.883	538.29
430.259	544.39
430.635	541.68
431.011	540.32
431.387	547.1
431.763	546.2
432.138	543.49
432.514	559.76
432.89	542.13
433.265	558.18
433.641	561.79
434.016	568.12
434.392	570.38
434.767	586.2
435.143	608.57
435.518	589.14
435.894	585.52
436.269	603.83
436.644	611.96
437.02	609.7
437.395	612.87
437.77	620.55
438.145	629.81
438.52	640.89
438.895	615.13
439.271	640.44
439.646	627.1
440.021	620.77
440.395	642.92
440.77	674.11
441.145	671.39
441.52	674.78
441.895	638.63
442.27	685.18
442.645	680.43
443.019	699.42
443.394	681.56
443.769	695.57
444.143	672.98
444.518	701
444.892	695.57
445.267	699.64
445.641	711.17
446.016	743.71
446.39	735.35
446.764	708
447.139	745.52
447.513	746.65
447.887	751.17
448.262	758.4
448.636	766.99
449.01	765.4
449.384	774.89
449.758	773.76
450.132	762.92
450.506	776.48
450.88	793.65
451.254	809.47
451.628	792.07
452.002	822.13
452.376	776.93
452.75	812.41
453.123	808.79
453.497	828.23
453.871	843.82
454.244	846.53
454.618	854.44
454.992	844.95
455.365	836.36
455.739	833.2
456.112	841.56
456.486	867.32
456.859	844.05
457.232	876.36
457.606	883.59
457.979	881.11
458.352	870.03
458.725	871.39
459.099	895.57
459.472	904.16
459.845	901.22
460.218	932.18
460.591	927.66
460.964	886.08
461.337	941.44
461.71	935.12
462.083	959.97
462.456	946.42
462.829	956.59
463.201	958.62
463.574	959.52
463.947	965.62
464.32	969.47
464.692	983.93
465.065	991.39
465.438	1010.82
465.81	1019.41
466.183	1023.93
466.555	1030.71
466.928	1025.74
467.3	1016.7
467.672	1039.07
468.045	1044.27
468.417	1109.35
468.789	1056.92
469.161	1055.34
469.534	1106.41
469.906	1108.67
470.278	1104.6
470.65	1115.68
471.022	1124.94
471.394	1154.09
471.766	1159.52
472.138	1133.3
472.51	1150.93
472.882	1169.46
473.253	1159.07
473.625	1209.01
473.997	1218.95
474.369	1235.9
474.74	1207.43
475.112	1240.42
475.484	1272.96
475.855	1276.8
476.227	1274.32
476.598	1322.68
476.97	1329.68
477.341	1358.16
477.713	1363.58
478.084	1371.26
478.455	1394.09
478.827	1428.66
479.198	1423.47
479.569	1416.01
479.94	1470.92
480.311	1455.78
480.682	1485.84
481.053	1548.66
481.424	1569.45
481.795	1583.24
482.166	1551.6
482.537	1584.82
482.908	1618.49
483.279	1637.02
483.65	1635.44
484.021	1692.61
484.391	1685.61
484.762	1699.16
485.133	1719.95
485.503	1738.71
485.874	1782.1
486.244	1776.9
486.615	1832.72
486.985	1841.99
487.356	1853.96
487.726	1877.92
488.097	1932.15
488.467	1913.17
488.837	1938.48
489.207	1984.81
489.578	1969.21
489.948	2004.02
490.318	1989.1
490.688	2036.78
491.058	2054.86
491.428	2082.43
491.798	2097.35
492.168	2137.12
492.538	2139.6
492.908	2210.79
493.278	2213.28
493.648	2213.28
494.017	2249.43
494.387	2262.31
494.757	2247.4
495.126	2318.13
495.496	2274.74
495.866	2347.73
496.235	2323.1
496.605	2345.02
496.974	2344.57
497.344	2385.02
497.713	2395.19
498.082	2465.7
498.452	2487.17
498.821	2481.29
499.19	2493.04
499.559	2530.1
499.928	2542.98
500.298	2528.52
500.667	2578.01
501.036	2563.77
501.405	2559.48
501.774	2578.24
502.143	2607.39
502.512	2606.49
502.88	2644
503.249	2672.25
503.618	2662.98
503.987	2658.69
504.356	2705.24
504.724	2681.96
505.093	2717.44
505.462	2724.22
505.83	2763.09
506.199	2754.96
506.567	2834.05
506.936	2812.58
507.304	2837.44
507.672	2835.86
508.041	2836.08
508.409	2915.63
508.777	2935.29
509.145	2927.61
509.514	2932.8
509.882	2935.06
510.25	3020.94
510.618	3007.6
510.986	3003.76
511.354	3035.85
511.722	3106.58
512.09	3095.51
512.458	3102.97
512.826	3090.77
513.193	3122.4
513.561	3207.37
513.929	3194.04
514.297	3253.47
514.664	3236.3
515.032	3268.16
515.4	3305.68
515.767	3300.03
516.135	3307.26
516.502	3313.13
516.869	3375.05
517.237	3414.15
517.604	3361.49
517.972	3396.52
518.339	3412.34
518.706	3449.85
519.073	3450.08
519.44	3526.91
519.808	3548.61
520.175	3507.03
520.542	3581.37
520.909	3587.02
521.276	3638.77
521.643	3662.95
522.009	3715.61
522.376	3717.64
522.743	3693.69
523.11	3774.14
523.477	3770.75
523.843	3806.68
524.21	3838.54
524.577	3866.11
524.943	3914.25
525.31	3939.78
525.676	3999.67
526.043	3982.27
526.409	4011.42
526.776	4011.65
527.142	4003.96
527.508	4066.79
527.874	4121.02
528.241	4065.66
528.607	4137.74
528.973	4158.31
529.339	4163.51
529.705	4195.14
530.071	4250.74
530.437	4284.18
530.803	4297.51
531.169	4327.12
531.535	4330.73
531.901	4337.74
532.267	4314.91
532.632	4382.48
532.998	4405.99
533.364	4430.39
533.73	4470.84
534.095	4505.64
534.461	4527.34
534.826	4535.47
535.192	4566.89
535.557	4546.32
535.923	4575.92
536.288	4583.38
536.653	4603.04
537.019	4606.43
537.384	4673.78
537.749	4680.78
538.114	4711.29
538.479	4704.74
538.845	4701.8
539.21	4704.28
539.575	4723.72
539.94	4758.52
540.305	4795.58
540.67	4772.3
541.034	4794.68
541.399	4886.2
541.764	4877.16
542.129	4913.77
542.494	4925.52
542.858	4908.12
543.223	4885.75
543.587	4886.88
543.952	4878.06
544.316	4928.68
544.681	4921.9
545.045	5003.26
545.41	5040.55
545.774	5071.73
546.138	5052.3
546.503	5076.02
546.867	5049.81
547.231	5134.78
547.595	5131.84
547.959	5127.55
548.324	5137.72
548.688	5111.73
549.052	5192.41
549.416	5222.46
549.779	5219.98
550.143	5255
550.507	5255.68
550.871	5322.35
551.235	5254.78
551.599	5319.18
551.962	5304.27
552.326	5339.75
552.689	5347.66
553.053	5368.67
553.417	5411.84
553.78	5506.3
554.143	5445.28
554.507	5471.49
554.87	5497.71
555.234	5545.62
555.597	5536.58
555.96	5550.81
556.323	5591.72
556.686	5608.89
557.05	5617.93
557.413	5622.9
557.776	5722.34
558.139	5729.57
558.502	5701.55
558.865	5772.5
559.228	5776.57
559.59	5772.05
559.953	5791.26
560.316	5884.82
560.679	5882.11
561.041	5866.96
561.404	5962.33
561.767	5962.56
562.129	5967.3
562.492	5969.79
562.854	6031.71
563.217	6018.6
563.579	6062.44
563.941	6096.11
564.304	6117.58
564.666	6146.51
565.028	6132.27
565.39	6134.3
565.753	6217.01
566.115	6239.16
566.477	6290.23
566.839	6349.89
567.201	6295.65
567.563	6339.95
567.925	6380.85
568.287	6392.6
568.648	6417.01
569.01	6459.94
569.372	6509.21
569.734	6429.89
570.095	6500.85
570.457	6553.05
570.819	6577.68
571.18	6582.88
571.542	6628.75
571.903	6638.02
572.265	6654.06
572.626	6683.89
572.987	6688.86
573.349	6684.34
573.71	6721.41
574.071	6747.85
574.432	6736.32
574.794	6846.15
575.155	6787.84
575.516	6743.1
575.877	6842.31
576.238	6881.18
576.599	6891.57
576.96	6859.25
577.32	6828.97
577.681	6939.03
578.042	6848.63
578.403	6908.97
578.763	6903.1
579.124	6882.98
579.485	6933.6
579.845	6979.25
580.206	6910.1
580.566	6941.96
580.927	6953.49
581.287	6967.73
581.648	6966.82
582.008	7003.21
582.368	7027.39
582.728	7025.58
583.089	6949.87
583.449	6960.49
583.809	6997.33
584.169	6998.23
584.529	7020.83
584.889	7081.85
585.249	7038.01
585.609	7002.98
585.969	7052.02
586.329	7045.46
586.688	7026.26
587.048	7030.1
587.408	7067.84
587.768	7039.81
588.127	7035.52
588.487	6982.42
588.846	7073.94
589.206	6978.35
589.565	7030.1
589.925	7006.14
590.284	7040.04
590.643	7074.39
591.003	7041.4
591.362	7096.08
591.721	7083.2
592.08	7061.28
592.44	7109.87
592.799	7097.89
593.158	7095.18
593.517	7066.03
593.876	7056.76
594.235	7004.56
594.593	7075.07
594.952	7114.39
595.311	7039.36
595.67	7081.17
596.029	7142.64
596.387	7088.85
596.746	7162.75
597.104	7143.32
597.463	7134.28
597.822	7119.59
598.18	7065.12
598.538	7065.8
598.897	7190.09
599.255	7088.4
599.613	7162.75
599.972	7213.6
600.33	7149.19
600.688	7105.8
601.046	7177.44
601.404	7167.04
601.762	7098.8
602.12	7226.93
602.478	7187.38
602.836	7178.57
603.194	7122.75
603.552	7154.61
603.91	7112.13
604.268	7148.29
604.625	7214.27
604.983	7169.08
605.341	7195.29
605.698	7212.92
606.056	7271.9
606.413	7229.64
606.771	7227.15
607.128	7261.28
607.485	7197.55
607.843	7210.43
608.2	7286.59
608.557	7256.53
608.914	7245.69
609.272	7269.87
609.629	7287.49
609.986	7249.98
610.343	7278.68
610.7	7334.04
611.057	7355.29
611.414	7321.84
611.771	7304.89
612.127	7360.71
612.484	7317.55
612.841	7387.6
613.198	7355.96
613.554	7404.33
613.911	7358.45
614.267	7400.71
614.624	7367.49
614.98	7358
615.337	7401.61
615.693	7380.82
616.05	7410.2
616.406	7367.49
616.762	7394.83
617.118	7345.12
617.475	7405.91
617.831	7445.68
618.187	7434.83
618.543	7434.61
618.899	7446.36
619.255	7406.36
619.611	7381.05
619.967	7416.98
620.323	7484.1
620.678	7424.66
621.034	7419.01
621.39	7451.33
621.746	7378.79
622.101	7497.43
622.457	7481.39
622.812	7397.09
623.168	7457.21
623.523	7473.7
623.879	7524.77
624.234	7421.73
624.589	7445.91
624.945	7470.76
625.3	7487.94
625.655	7412.69
626.01	7449.75
626.365	7377.43
626.72	7370.2
627.075	7402.07
627.43	7410.43
627.785	7383.53
628.14	7416.98
628.495	7444.32
628.85	7364.33
629.205	7382.4
629.559	7381.95
629.914	7377.43
630.269	7393.25
630.623	7390.99
630.978	7369.98
631.332	7354.16
631.687	7341.28
632.041	7306.02
632.396	7294.27
632.75	7248.17
633.104	7282.97
633.459	7259.92
633.813	7209.3
634.167	7283.42
634.521	7324.78
634.875	7334.04
635.229	7303.08
635.583	7238.68
635.937	7275.06
636.291	7238
636.645	7193.94
636.999	7193.94
637.352	7263.76
637.706	7139.47
638.06	7200.94
638.413	7123.2
638.767	7080.94
639.121	7145.12
639.474	7095.63
639.828	7132.92
640.181	7107.61
640.534	7144.44
640.888	7117.78
641.241	7099.7
641.594	7133.6
641.947	7060.83
642.301	7077.78
642.654	7036.43
643.007	7021.74
643.36	6995.97
643.713	6991.91
644.066	6972.7
644.419	6970.89
644.771	6967.95
645.124	6873.72
645.477	6906.94
645.83	6812.48
646.182	6762.99
646.535	6754.17
646.888	6854.96
647.24	6782.87
647.593	6806.37
647.945	6791.46
648.298	6756.66
648.65	6713.5
649.002	6736.09
649.355	6683.44
649.707	6618.36
650.059	6689.54
650.411	6801.86
650.763	6749.65
651.115	6879.14
651.467	6828.75
651.819	6847.28
652.171	6852.25
652.523	6871.46
652.875	6832.14
653.227	6779.03
653.578	6749.88
653.93	6764.79
654.282	6715.53
654.633	6713.27
654.985	6761.18
655.337	6723.89
655.688	6768.64
656.039	6712.82
656.391	6685.02
656.742	6687.28
657.094	6692.93
657.445	6733.83
657.796	6711.91
658.147	6693.38
658.498	6714.85
658.849	6669.2
659.2	6746.04
659.551	6645.47
659.902	6688.64
660.253	6648.86
660.604	6624.01
660.955	6627.85
661.306	6659.94
661.656	6623.33
662.007	6639.37
662.358	6608.41
662.708	6597.11
663.059	6577
663.409	6573.39
663.76	6647.28
664.11	6563.22
664.461	6599.37
664.811	6592.6
665.161	6678.02
665.511	6604.12
665.862	6633.27
666.212	6645.02
666.562	6602.31
666.912	6628.07
667.262	6586.49
667.612	6607.96
667.962	6565.03
668.312	6561.64
668.662	6581.07
669.011	6570.67
669.361	6533.16
669.711	6531.35
670.06	6495.87
670.41	6452.03
670.76	6513.5
671.109	6536.78
671.459	6539.72
671.808	6531.81
672.157	6563.9
672.507	6489.55
672.856	6541.97
673.205	6517.34
673.554	6501.3
673.904	6499.49
674.253	6479.15
674.602	6548.53
674.951	6393.05
675.3	6383.56
675.649	6463.11
675.998	6426.72
676.346	6437.34
676.695	6392.6
677.044	6382.43
677.393	6403.67
677.741	6427.4
678.09	6435.54
678.438	6430.57
678.787	6471.24
679.135	6464.69
679.484	6433.28
679.832	6390.57
680.181	6422.2
680.529	6411.58
680.877	6401.41
681.225	6350.79
681.573	6363.9
681.922	6308.53
682.27	6350.57
682.618	6313.05
682.966	6258.37
683.314	6265.82
683.661	6282.32
684.009	6248.2
684.357	6244.13
684.705	6182.66
685.053	6262.89
685.4	6251.36
685.748	6246.62
686.095	6208.2
686.443	6214.3
686.79	6232.6
687.138	6230.57
687.485	6192.38
687.832	6152.38
688.18	6158.71
688.527	6123
688.874	6125.71
689.221	6050.01
689.568	6061.76
689.915	6030.12
690.262	6005.27
690.609	6058.82
690.956	6058.6
691.303	6048.43
691.65	6033.29
691.997	6043.91
692.344	6016.56
692.69	5978.15
693.037	6021.31
693.383	5944.7
693.73	5996
694.077	5905.61
694.423	5898.38
694.769	5883.24
695.116	5836.23
695.462	5851.6
695.808	5803.46
696.155	5802.33
696.501	5717.59
696.847	5768.44
697.193	5694.31
697.539	5761.2
697.885	5718.04
698.231	5728.66
698.577	5708.55
698.923	5705.61
699.269	5711.49
699.614	5706.52
699.96	5678.95
700.306	5683.69
700.651	5619.51
700.997	5657.48
701.342	5626.07
701.688	5605.5
702.033	5568.67
702.379	5552.85
702.724	5487.77
703.069	5520.76
703.415	5456.58
703.76	5424.26
704.105	5427.2
704.45	5449.8
704.795	5415.22
705.14	5450.7
705.485	5415.45
705.83	5468.1
706.175	5455.68
706.52	5446.18
706.865	5416.13
707.209	5424.04
707.554	5402.57
707.899	5402.34
708.243	5382.46
708.588	5342.23
708.932	5319.63
709.277	5314.44
709.621	5254.55
709.966	5176.14
710.31	5258.17
710.654	5194.67
710.998	5169.36
711.342	5189.02
711.687	5197.83
712.031	5166.19
712.375	5189.69
712.719	5183.82
713.063	5176.59
713.407	5180.2
713.75	5218.62
714.094	5212.29
714.438	5163.93
714.782	5184.27
715.125	5175.91
715.469	5096.82
715.812	5076.7
716.156	5088.68
716.499	5074.44
716.843	5065.63
717.186	5014.33
717.53	4997.38
717.873	4982.02
718.216	5010.49
718.559	4966.42
718.902	4924.39
719.246	4948.8
719.589	4975.46
719.932	4956.71
720.275	4998.51
720.617	4985.86
720.96	5002.13
721.303	5029.7
721.646	5023.82
721.989	4947.44
722.331	4990.83
722.674	4949.02
723.016	4935.01
723.359	4928.91
723.701	4865.18
724.044	4846.88
724.386	4777.28
724.729	4845.52
725.071	4808.01
725.413	4822.7
725.755	4808.91
726.097	4802.59
726.439	4823.38
726.782	4857.27
727.124	4837.61
727.465	4809.37
727.807	4796.03
728.149	4797.84
728.491	4817.5
728.833	4804.62
729.175	4843.49
729.516	4783.38
729.858	4762.13
730.199	4753.77
730.541	4742.47
730.882	4755.36
731.224	4710.38
731.565	4656.83
731.906	4709.48
732.248	4657.5
732.589	4653.21
732.93	4619.09
733.271	4654.11
733.612	4650.05
733.953	4691.4
734.294	4652.31
734.635	4650.73
734.976	4670.84
735.317	4648.47
735.658	4691.18
735.999	4696.6
736.339	4605.75
736.68	4645.08
737.021	4665.64
737.361	4621.12
737.702	4633.55
738.042	4612.76
738.383	4602.59
738.723	4577.73
739.063	4508.36
739.404	4552.65
739.744	4525.76
740.084	4510.39
740.424	4494.57
740.764	4520.56
741.104	4525.3
741.444	4498.19
741.784	4493.67
742.124	4500.22
742.464	4493.89
742.804	4526.43
743.143	4518.75
743.483	4568.69
743.823	4515.14
744.162	4529.82
744.502	4546.32
744.841	4494.12
745.181	4483.05
745.52	4428.58
745.86	4465.19
746.199	4435.14
746.538	4414.57
746.877	4365.08
747.216	4414.57
747.556	4362.37
747.895	4339.77
748.234	4335.25
748.573	4348.59
748.911	4351.75
749.25	4352.43
749.589	4302.71
749.928	4347.91
750.267	4390.84
750.605	4377.96
750.944	4375.93
751.283	4343.16
751.621	4350.62
751.96	4346.55
752.298	4329.83
752.636	4360.56
752.975	4324.86
753.313	4265.88
753.651	4314.24
753.989	4257.74
754.327	4221.36
754.666	4192.43
755.004	4244.86
755.342	4209.83
755.679	4174.35
756.017	4118.76
756.355	4168.03
756.693	4157.4
757.031	4180.68
757.368	4162.15
757.706	4144.75
758.044	4117.86
758.381	4191.3
758.719	4120.12
759.056	4145.88
759.394	4144.3
759.731	4115.6
760.068	4111.76
760.405	4123.96
760.743	4093
761.08	4094.81
761.417	4080.34
761.754	4074.92
762.091	4006.22
762.428	4017.07
762.765	3929.84
763.102	3960.8
763.438	3935.04
763.775	3900.01
764.112	3927.13
764.449	3952.66
764.785	3903.4
765.122	3882.16
765.458	3924.19
765.795	3898.65
766.131	3889.16
766.467	3866.79
766.804	3893
767.14	3885.77
767.476	3873.8
767.812	3835.61
768.148	3834.25
768.485	3825.89
768.821	3843.97
769.157	3818.88
769.492	3778.21
769.828	3806.68
770.164	3743.4
770.5	3738.66
770.836	3741.37
771.171	3737.53
771.507	3696.63
771.842	3657.08
772.178	3638.32
772.513	3642.84
772.849	3659.79
773.184	3635.61
773.519	3630.64
773.855	3622.73
774.19	3590.41
774.525	3562.84
774.86	3598.1
775.195	3574.37
775.53	3628.15
775.865	3579.79
776.2	3585.44
776.535	3535.95
776.87	3556.97
777.205	3582.73
777.539	3545.44
777.874	3562.84
778.209	3505.44
778.543	3512
778.878	3472.68
779.212	3453.47
779.547	3426.8
779.881	3404.88
780.215	3433.81
780.55	3387.71
780.884	3370.53
781.218	3358.33
781.552	3355.62
781.886	3355.62
782.22	3370.31
782.554	3327.82
782.888	3297.54
783.222	3252.8
783.556	3303.87
783.889	3322.62
784.223	3297.99
784.557	3301.38
784.89	3306.35
785.224	3320.82
785.557	3298.67
785.891	3268.84
786.224	3252.34
786.558	3257.54
786.891	3222.97
787.224	3207.37
787.557	3222.06
787.891	3175.96
788.224	3162.18
788.557	3152.69
788.89	3133.25
789.223	3101.61
789.556	3091.44
789.888	3113.59
790.221	3062.07
790.554	3020.26
790.887	3049.64
791.219	3050.32
791.552	3041.05
791.884	2999.24
792.217	2982.75
792.549	3041.28
792.882	2990.88
793.214	3010.32
793.546	3042.63
793.879	3015.29
794.211	3037.66
794.543	3038.56
794.875	3041.73
795.207	2992.69
795.539	3001.28
795.871	3037.66
796.203	2969.87
796.535	2947.95
796.867	2937.32
797.198	2907.04
797.53	2874.05
797.862	2868.63
798.193	2883.09
798.525	2860.26
798.856	2886.03
799.188	2831.56
799.519	2809.87
799.85	2777.33
800.182	2831.11
800.513	2788.85
800.844	2791.57
801.175	2793.82
801.506	2814.39
801.837	2798.8
802.168	2827.95
802.499	2790.89
802.83	2814.39
803.161	2799.25
803.491	2791.79
803.822	2820.49
804.153	2792.47
804.483	2761.28
804.814	2755.63
805.145	2736.88
805.475	2698.46
805.805	2685.13
806.136	2732.13
806.466	2686.26
806.796	2689.65
807.126	2653.04
807.457	2629.31
807.787	2655.3
808.117	2660.72
808.447	2627.73
808.777	2642.64
809.107	2637.9
809.436	2598.35
809.766	2641.51
810.096	2644
810.426	2599.71
810.755	2622.98
811.085	2644.9
811.414	2612.13
811.744	2597.9
812.073	2637.67
812.403	2599.93
812.732	2629.31
813.061	2632.93
813.39	2594.73
813.719	2602.64
814.049	2604.9
814.378	2604
814.707	2564.68
815.036	2569.2
815.365	2531.68
815.693	2553.61
816.022	2534.4
816.351	2513.83
816.68	2453.04
817.008	2487.17
817.337	2485.81
817.665	2500.5
817.994	2450.33
818.322	2485.58
818.651	2437
818.979	2488.97
819.307	2472.93
819.636	2458.92
819.964	2430.22
820.292	2462.31
820.62	2451.46
820.948	2478.8
821.276	2473.38
821.604	2481.74
821.932	2497.79
822.259	2505.02
822.587	2461.63
822.915	2476.77
823.243	2480.61
823.57	2494.85
823.898	2479.93
824.225	2465.47
824.553	2439.03
824.88	2489.2
825.207	2451.01
825.535	2439.26
825.862	2518.8
826.189	2416.21
826.516	2414.17
826.843	2417.11
827.17	2432.25
827.497	2410.78
827.824	2419.37
828.151	2411.69
828.478	2437.45
828.805	2444
829.131	2422.31
829.458	2373.95
829.785	2399.48
830.111	2414.85
830.438	2445.36
830.764	2440.16
831.09	2471.12
831.417	2450.56
831.743	2431.57
832.069	2470.9
832.395	2456.21
832.722	2461.4
833.048	2446.04
833.374	2462.99
833.7	2437.9
834.026	2421.86
834.351	2422.99
834.677	2428.86
835.003	2414.17
835.329	2414.4
835.654	2421.41
835.98	2422.99
836.306	2360.16
836.631	2373.27
836.956	2402.65
837.282	2384.12
837.607	2369.43
837.932	2365.81
838.258	2334.4
838.583	2355.64
838.908	2360.39
839.233	2378.69
839.558	2346.15
839.883	2381.63
840.208	2363.1
840.533	2349.09
840.858	2340.5
841.182	2331.24
841.507	2383.21
841.832	2389.77
842.156	2355.42
842.481	2354.97
842.805	2366.04
843.13	2363.33
843.454	2344.57
843.778	2350.22
844.103	2303.44
844.427	2329.66
844.751	2298.24
845.075	2324.46
845.399	2312.93
845.723	2295.08
846.047	2268.19
846.371	2288.53
846.695	2251.01
847.019	2224.35
847.343	2238.13
847.666	2207.4
847.99	2189.55
848.313	2214.18
848.637	2184.35
848.96	2179.15
849.284	2198.81
849.607	2161.3
849.931	2177.57
850.254	2164.01
850.577	2180.51
850.9	2136.22
851.223	2134.63
851.546	2141.19
851.869	2147.06
852.192	2164.46
852.515	2138.02
852.838	2150.68
853.161	2144.12
853.483	2134.86
853.806	2107.52
854.129	2147.51
854.451	2088.98
854.774	2099.83
855.096	2085.14
855.419	2098.7
855.741	2073.39
856.063	2040.85
856.385	2050.34
856.708	2045.82
857.03	2061.41
857.352	2013.73
857.674	2017.12
857.996	2008.99
858.318	1971.25
858.64	2007.4
858.961	2000.17
859.283	2030
859.605	1999.72
859.926	2003.34
860.248	2009.66
860.57	1963.56
860.891	1985.48
861.212	1957.91
861.534	2002.66
861.855	2005.6
862.176	1961.3
862.498	2003.11
862.819	1996.78
863.14	2004.24
863.461	1972.15
863.782	1969.89
864.103	2003.56
864.424	1969.89
864.745	1979.16
865.065	1977.58
865.386	1984.35
865.707	1959.72
866.027	1943.45
866.348	1954.52
866.668	1946.84
866.989	1899.84
867.309	1916.11
867.63	1913.4
867.95	1905.94
868.27	1911.36
868.59	1890.57
868.91	1887.41
869.23	1895.54
869.55	1867.3
869.87	1859.39
870.19	1876.33
870.51	1905.94
870.83	1914.07
871.15	1895.09
871.469	1912.94
871.789	1891.93
872.109	1871.14
872.428	1866.39
872.748	1898.03
873.067	1881.08
873.386	1899.84
873.706	1903.68
874.025	1895.09
874.344	1904.81
874.663	1886.73
874.982	1859.84
875.301	1864.36
875.62	1878.37
875.939	1882.21
876.258	1864.13
876.577	1884.7
876.896	1839.27
877.214	1823.23
877.533	1860.29
877.852	1836.56
878.17	1830.01
878.489	1843.12
878.807	1838.82
879.125	1852.38
879.444	1807.64
879.762	1830.01
880.08	1789.56
880.398	1794.53
880.716	1799.73
881.034	1840.18
881.352	1818.03
881.67	1781.65
881.988	1796.79
882.306	1792.5
882.624	1789.33
882.941	1805.15
883.259	1805.15
883.577	1810.35
883.894	1795.88
884.212	1796.56
884.529	1809.9
884.846	1796.79
885.164	1766.51
885.481	1804.92
885.798	1772.38
886.115	1798.37
886.432	1826.39
886.75	1770.8
887.067	1767.41
887.383	1780.52
887.7	1771.03
888.017	1749.78
888.334	1747.52
888.651	1755.66
888.967	1700.07
889.284	1765.38
889.6	1710.01
889.917	1702.1
890.233	1715.44
890.55	1669.56
890.866	1692.16
891.182	1729.45
891.498	1715.89
891.815	1695.1
892.131	1688.54
892.447	1701.42
892.763	1682.44
893.079	1672.72
893.395	1665.04
893.71	1663.23
894.026	1671.82
894.342	1662.33
894.657	1671.82
894.973	1668.88
895.289	1653.97
895.604	1657.13
895.92	1661.65
896.235	1671.37
896.55	1664.36
896.865	1650.58
897.181	1617.58
897.496	1632.5
897.811	1615.55
898.126	1604.25
898.441	1647.41
898.756	1641.99
899.071	1611.71
899.386	1606.06
899.7	1614.19
900.015	1592.5
900.33	1561.54
900.644	1568.77
900.959	1580.3
901.273	1601.99
901.588	1591.14
901.902	1589.56
902.216	1559.73
902.531	1523.12
902.845	1533.29
903.159	1547.98
903.473	1535.1
903.787	1552.05
904.101	1501.66
904.415	1532.62
904.729	1521.77
905.042	1507.31
905.356	1498.94
905.67	1507.76
905.984	1526.29
906.297	1519.51
906.611	1529
906.924	1492.39
907.237	1491.03
907.551	1497.81
907.864	1475.89
908.177	1472.05
908.491	1511.37
908.804	1494.2
909.117	1458.94
909.43	1515.89
909.743	1444.48
910.056	1457.81
910.368	1472.5
910.681	1430.47
910.994	1432.28
911.307	1434.54
911.619	1436.57
911.932	1461.2
912.244	1415.56
912.557	1417.59
912.869	1408.1
913.181	1393.41
913.494	1402.67
913.806	1389.57
914.118	1395.44
914.43	1410.81
914.742	1421.88
915.054	1361.55
915.366	1360.64
915.678	1378.95
915.99	1375.56
916.302	1344.82
916.613	1353.86
916.925	1346.86
917.236	1320.87
917.548	1349.8
917.859	1361.77
918.171	1330.36
918.482	1327.87
918.794	1309.57
919.105	1311.38
919.416	1290.59
919.727	1321.1
920.038	1312.73
920.349	1306.41
920.66	1281.55
920.971	1326.97
921.282	1309.57
921.593	1302.11
921.903	1320.42
922.214	1300.08
922.525	1287.88
922.835	1311.38
923.146	1264.37
923.456	1270.02
923.767	1265.5
924.077	1268.44
924.387	1249.91
924.697	1255.33
925.008	1254.43
925.318	1257.82
925.628	1239.74
925.938	1222.79
926.248	1226.18
926.558	1223.47
926.867	1214.66
927.177	1188.44
927.487	1200.87
927.796	1151.61
928.106	1184.38
928.416	1190.03
928.725	1190.03
929.034	1182.57
929.344	1191.38
929.653	1191.16
929.962	1173.98
930.271	1172.85
930.581	1166.07
930.89	1173.08
931.199	1166.97
931.508	1182.79
931.817	1167.65
932.125	1153.87
932.434	1168.78
932.743	1147.31
933.051	1148.22
933.36	1140.08
933.669	1143.25
933.977	1157.94
934.286	1130.14
934.594	1132.63
934.902	1135.11
935.21	1126.07
935.519	1104.38
935.827	1142.34
936.135	1125.17
936.443	1131.27
936.751	1092.63
937.059	1098.5
937.367	1096.02
937.674	1108.45
937.982	1097.15
938.29	1079.07
938.597	1083.59
938.905	1084.04
939.213	1078.16
939.52	1042.01
939.827	1069.35
940.135	1061.22
940.442	1066.86
940.749	1046.3
941.056	1053.76
941.363	1048.56
941.67	1033.65
941.977	1045.62
942.284	1064.83
942.591	1016.7
942.898	1023.48
943.205	1023.25
943.511	1010.37
943.818	1007.21
944.125	1020.31
944.431	1032.97
944.738	1028.9
945.044	988.45
945.35	1018.5
945.657	994.55
945.963	1003.14
946.269	995
946.575	1002.01
946.881	1003.82
947.187	1006.75
947.493	970.6
947.799	984.38
948.105	984.38
948.41	957.49
948.716	979.18
949.022	944.83
949.327	969.92
949.633	966.53
949.938	971.05
950.244	945.29
950.549	950.26
950.854	960.88
951.16	954.78
951.465	958.39
951.77	931.05
952.075	929.02
952.38	934.89
952.685	931.05
952.99	922.24
953.294	924.72
953.599	917.94
953.904	942.12
954.209	909.81
954.513	909.13
954.818	888.56
955.122	928.11
955.426	907.09
955.731	916.59
956.035	925.17
956.339	896.93
956.643	918.62
956.948	907.55
957.252	904.16
957.556	889.02
957.86	883.82
958.163	876.59
958.467	888.79
958.771	865.29
959.075	886.53
959.378	882.46
959.682	904.61
959.985	872.75
960.289	875.23
960.592	886.53
960.896	883.37
961.199	854.67
961.502	864.16
961.805	861.45
962.108	861.45
962.411	887.43
962.714	842.01
963.017	866.87
963.32	851.5
963.623	843.59
963.926	837.27
964.228	863.25
964.531	831.16
964.833	840.88
965.136	825.29
965.438	811.96
965.741	823.26
966.043	831.39
966.345	845.4
966.648	812.63
966.95	831.39
967.252	802.46
967.554	819.87
967.856	795.46
968.158	819.87
968.46	783.26
968.761	796.59
969.063	799.08
969.365	808.34
969.666	808.79
969.968	814.44
970.269	782.35
970.571	787.32
970.872	778.06
971.174	778.74
971.475	803.37
971.776	787.1
972.077	798.62
972.378	769.47
972.679	781
972.98	776.25
973.281	754.78
973.582	759.98
973.883	779.87
974.183	781.67
974.484	785.52
974.785	765.63
975.085	756.36
975.386	769.25
975.686	742.81
975.986	757.95
976.287	745.52
976.587	757.27
976.887	752.97
977.187	757.95
977.487	717.27
977.787	759.98
978.087	708.23
978.387	717.5
978.687	738.74
978.987	724.27
979.286	729.47
979.586	730.38
979.885	712.75
980.185	737.61
980.484	691.28
980.784	733.09
981.083	710.94
981.382	706.87
981.682	714.33
981.981	693.99
982.28	684.28
982.579	683.37
982.878	701.45
983.177	691.28
983.475	708.91
983.774	705.97
984.073	708.23
984.372	686.08
984.67	690.83
984.969	691.06
985.267	731.96
985.566	676.14
985.864	692.41
986.162	685.63
986.461	691.96
986.759	673.2
987.057	686.99
987.355	662.36
987.653	667.78
987.951	650.38
988.249	692.86
988.547	676.14
988.844	658.74
989.142	686.08
989.44	655.8
989.737	643.6
990.035	666.2
990.332	673.65
990.63	642.69
990.927	658.06
991.224	659.87
991.521	653.77
991.819	650.83
992.116	660.77
992.413	668.23
992.71	632.75
993.006	635.24
993.303	651.73
993.6	635.24
993.897	634.11
994.193	654.22
994.49	639.76
994.787	648.57
995.083	631.85
995.379	629.14
995.676	639.31
995.972	641.57
996.268	627.33
996.565	626.2
996.861	625.97
997.157	633.43
997.453	615.8
997.749	633.66
998.044	611.96
998.34	598.18
998.636	596.82
998.932	602.24
999.227	607.22
999.523	616.93
999.818	606.54
1000.114	611.51
1000.409	607.89
1000.704	604.28
1001	581.91
1001.295	590.04
1001.59	606.54
1001.885	609.7
1002.18	597.5
1002.475	562.7
1002.77	589.59
1003.065	579.65
1003.359	574.9
1003.654	598.85
1003.949	597.27
1004.243	591.4
1004.538	572.64
1004.832	569.7
1005.127	588.01
1005.421	572.19
1005.715	565.18
1006.009	567.67
1006.304	589.81
1006.598	570.83
1006.892	548.91
1007.186	562.92
1007.48	588.91
1007.773	558.18
1008.067	551.62
1008.361	536.94
1008.655	533.32
1008.948	568.8
1009.242	536.48
1009.535	551.85
1009.829	538.97
1010.122	582.13
1010.415	561.12
1010.708	559.99
1011.001	548.46
1011.295	536.71
1011.588	547.33
1011.881	527.67
1012.173	524.51
1012.466	539.87
1012.759	527.67
1013.052	528.35
1013.344	509.37
1013.637	542.81
1013.93	532.64
1014.222	537.84
1014.514	523.15
1014.807	527.67
1015.099	532.64
1015.391	522.7
1015.683	527.22
1015.976	546.2
1016.268	505.98
1016.56	529.93
1016.851	523.38
1017.143	511.17
1017.435	502.13
1017.727	506.88
1018.018	519.53
1018.31	490.16
1018.602	507.33
1018.893	506.2
1019.185	492.87
1019.476	507.11
1019.767	501.68
1020.058	503.04
1020.35	496.71
1020.641	504.17
1020.932	507.56
1021.223	481.57
1021.514	502.13
1021.804	464.39
1022.095	472.08
1022.386	500.1
1022.677	492.87
1022.967	468.91
1023.258	473.21
1023.548	482.25
1023.839	469.59
1024.129	488.57
1024.419	469.14
1024.709	468.24
1025	459.87
1025.29	466.88
1025.58	453.55
1025.87	464.17
1026.16	449.48
1026.449	446.99
1026.739	458.97
1027.029	464.17
1027.319	471.17
1027.608	442.02
1027.898	462.36
1028.187	430.72
1028.477	443.15
1028.766	454.23
1029.055	445.86
1029.344	446.77
1029.634	429.37
1029.923	445.64
1030.212	471.4
1030.501	434.56
1030.79	449.03
1031.078	431.4
1031.367	451.06
1031.656	445.86
1031.945	437.95
1032.233	428.46
1032.522	440.67
1032.81	435.69
1033.099	444.73
1033.387	441.12
1033.675	436.6
1033.963	429.82
1034.251	446.77
1034.54	408.12
1034.828	435.24
1035.116	418.75
1035.403	436.15
1035.691	431.4
1035.979	419.65
1036.267	420.33
1036.554	422.59
1036.842	418.07
1037.129	425.3
1037.417	417.16
1037.704	412.64
1037.992	421.46
1038.279	414.9
1038.566	412.42
1038.853	412.42
1039.14	412.42
