Data from foam1_polythene_foam_FLMS001491_00039.txt Node
Date: Wed Feb 08 10:54:45 GMT 2017
User: dcchb
Spectrometer: FLMS00149
Trigger mode: 0
Integration Time (sec): 2.000000E-2
Scans to average: 10
Electric dark correction enabled: true
Nonlinearity correction enabled: false
Boxcar width: 0
XAxis mode: Wavelengths
Number of Pixels in Spectrum: 2048
>>>>>Begin Spectral Data<<<<<
341.393	-15.92
341.776	-15.92
342.16	-15.92
342.543	-55.69
342.927	-68.12
343.31	-59.98
343.693	-55.92
344.077	-69.25
344.46	-61.34
344.843	-44.17
345.226	-44.39
345.61	-21.79
345.993	-9.82
346.376	3.52
346.759	-5.75
347.142	36.74
347.525	51.43
347.908	50.07
348.291	66.11
348.674	83.51
349.057	81.03
349.44	110.63
349.823	135.94
350.206	152.89
350.588	172.33
350.971	201.25
351.354	198.09
351.737	238.09
352.119	228.6
352.502	237.63
352.884	250.97
353.267	231.99
353.65	272.66
354.032	283.74
354.414	294.36
354.797	302.04
355.179	309.95
355.562	310.18
355.944	307.01
356.326	305.43
356.709	323.73
357.091	319.21
357.473	315.83
357.855	304.53
358.238	332.77
358.62	328.25
359.002	328.48
359.384	333
359.766	317.41
360.148	311.31
360.53	329.38
360.912	312.21
361.294	338.88
361.676	297.75
362.057	300.01
362.439	317.63
362.821	311.98
363.203	316.5
363.584	286.67
363.966	308.82
364.348	307.92
364.729	291.19
365.111	314.24
365.493	319.67
365.874	301.14
366.256	295.03
366.637	294.81
367.019	287.35
367.4	280.8
367.781	309.5
368.163	304.3
368.544	300.68
368.925	301.59
369.306	303.17
369.688	273.57
370.069	289.84
370.45	293
370.831	279.44
371.212	316.28
371.593	307.24
371.974	272.89
372.355	298.42
372.736	307.01
373.117	307.92
373.498	292.55
373.879	288.93
374.26	303.85
374.641	301.36
375.021	302.49
375.402	306.79
375.783	295.49
376.163	294.13
376.544	316.28
376.925	311.08
377.305	309.95
377.686	305.43
378.066	302.49
378.447	315.15
378.827	312.21
379.208	302.49
379.588	325.77
379.968	300.46
380.349	306.33
380.729	331.19
381.109	322.6
381.489	311.76
381.87	306.11
382.25	307.01
382.63	316.95
383.01	329.84
383.39	333.68
383.77	320.8
384.15	317.86
384.53	317.63
384.91	319.67
385.29	314.47
385.67	329.61
386.049	339.55
386.429	340.91
386.809	322.15
387.189	348.14
387.568	343.17
387.948	318.99
388.328	338.2
388.707	330.29
389.087	335.94
389.466	334.58
389.846	355.37
390.225	347.91
390.605	347.91
390.984	345.2
391.363	330.74
391.743	337.75
392.122	347.46
392.501	346.11
392.881	329.84
393.26	344.75
393.639	344.3
394.018	347.91
394.397	357.18
394.776	335.71
395.155	334.81
395.534	341.81
395.913	350.85
396.292	352.66
396.671	350.85
397.05	346.56
397.429	366.9
397.808	361.7
398.186	365.09
398.565	360.57
398.944	370.96
399.323	354.24
399.701	346.78
400.08	377.74
400.458	375.26
400.837	347.69
401.215	363.28
401.594	375.26
401.972	371.19
402.351	378.42
402.729	350.17
403.107	382.94
403.486	364.41
403.864	386.56
404.242	387.24
404.62	389.5
404.999	400.12
405.377	381.36
405.755	388.59
406.133	408.7
406.511	404.64
406.889	395.6
407.267	370.06
407.645	380.23
408.023	394.92
408.401	400.57
408.779	420.23
409.156	405.09
409.534	412.77
409.912	405.99
410.29	397.86
410.667	425.65
411.045	390.85
411.422	434.01
411.8	404.18
412.178	422.94
412.555	417.52
412.933	430.62
413.31	410.51
413.687	418.2
414.065	425.43
414.442	420
414.819	423.84
415.197	417.07
415.574	429.72
415.951	429.04
416.328	417.07
416.705	426.1
417.082	450.06
417.46	451.87
417.837	453
418.214	446.44
418.591	432.66
418.967	444.18
419.344	459.1
419.721	451.19
420.098	447.35
420.475	453
420.852	447.8
421.228	437.4
421.605	443.73
421.982	470.4
422.358	449.61
422.735	457.52
423.111	459.55
423.488	474.46
423.864	488.93
424.241	470.4
424.617	479.21
424.994	484.18
425.37	481.7
425.746	490.06
426.123	476.72
426.499	481.47
426.875	507.46
427.251	502.03
427.627	509.49
428.003	513.56
428.379	485.54
428.756	518.76
429.132	518.76
429.507	518.98
429.883	524.18
430.259	547.91
430.635	544.29
431.011	534.12
431.387	569.15
431.763	544.75
432.138	540.45
432.514	550.62
432.89	565.31
433.265	581.58
433.641	560.11
434.016	551.53
434.392	585.65
434.767	585.2
435.143	608.7
435.518	579.09
435.894	572.77
436.269	587.46
436.644	590.62
437.02	601.92
437.395	617.29
437.77	601.24
438.145	603.5
438.52	610.51
438.895	632.88
439.271	638.3
439.646	637.85
440.021	640.56
440.395	635.59
440.77	635.59
441.145	649.38
441.52	680.34
441.895	628.81
442.27	674.69
442.645	666.78
443.019	657.96
443.394	665.65
443.769	693.67
444.143	660.22
444.518	686.21
444.892	706.32
445.267	693.22
445.641	689.83
446.016	714.01
446.39	715.36
446.764	705.19
447.139	710.16
447.513	736.83
447.887	711.75
448.262	740.45
448.636	762.14
449.01	752.2
449.384	739.77
449.758	732.31
450.132	757.17
450.506	771.18
450.88	748.58
451.254	769.15
451.628	779.77
452.002	762.37
452.376	781.58
452.75	768.24
453.123	796.04
453.497	807.34
453.871	815.47
454.244	827.68
454.618	819.99
454.992	829.94
455.365	818.86
455.739	838.75
456.112	843.72
456.486	818.64
456.859	855.7
457.232	850.5
457.606	826.09
457.979	862.93
458.352	861.57
458.725	862.25
459.099	892.76
459.472	870.39
459.845	881.91
460.218	883.95
460.591	886.21
460.964	875.81
461.337	895.7
461.71	900.44
462.083	895.24
462.456	906.32
462.829	906.77
463.201	886.43
463.574	898.41
463.947	916.94
464.32	953.1
464.692	943.15
465.065	924.17
465.438	954.68
465.81	970.72
466.183	965.53
466.555	990.16
466.928	973.21
467.3	964.17
467.672	996.03
468.045	1018.63
468.417	1032.64
468.789	992.19
469.161	1032.64
469.534	1044.17
469.906	1039.87
470.278	1031.06
470.65	1045.75
471.022	1021.12
471.394	1061.57
471.766	1082.81
472.138	1094.11
472.51	1114.45
472.882	1106.54
473.253	1146.76
473.625	1128.46
473.997	1138.63
474.369	1166.42
474.74	1170.04
475.112	1160.1
475.484	1181.56
475.855	1201.9
476.227	1225.63
476.598	1218.4
476.97	1214.33
477.341	1261.56
477.713	1282.58
478.084	1270.83
478.455	1295.69
478.827	1304.73
479.198	1336.36
479.569	1319.19
479.94	1360.54
480.311	1383.37
480.682	1395.8
481.053	1426.3
481.424	1453.87
481.795	1446.87
482.166	1455.91
482.537	1468.34
482.908	1518.73
483.279	1528
483.65	1540.65
484.021	1580.88
484.391	1567.54
484.762	1568.67
485.133	1622.91
485.503	1609.35
485.874	1623.59
486.244	1650.71
486.615	1647.77
486.985	1654.32
487.356	1718.95
487.726	1733.41
488.097	1753.98
488.467	1746.97
488.837	1789.23
489.207	1792.4
489.578	1801.66
489.948	1868.1
490.318	1847.99
490.688	1871.72
491.058	1900.64
491.428	1930.25
491.798	1926.86
492.168	1941.54
492.538	1967.76
492.908	1987.87
493.278	2010.47
493.648	1993.52
494.017	2023.8
494.387	2031.94
494.757	2049.34
495.126	2053.86
495.496	2120.75
495.866	2096.12
496.235	2117.36
496.605	2133.86
496.974	2153.06
497.344	2204.36
497.713	2150.58
498.082	2223.57
498.452	2221.09
498.821	2203.01
499.19	2244.59
499.559	2260.86
499.928	2276.68
500.298	2294.08
500.667	2291.59
501.036	2286.17
501.405	2295.89
501.774	2317.35
502.143	2358.71
502.512	2362.78
502.88	2385.38
503.249	2385.38
503.618	2405.71
503.987	2425.6
504.356	2427.86
504.724	2459.72
505.093	2463.34
505.462	2457.69
505.83	2479.16
506.199	2488.65
506.567	2504.47
506.936	2533.39
507.304	2554.86
507.672	2549.66
508.041	2586.73
508.409	2605.48
508.777	2611.13
509.145	2621.08
509.514	2626.05
509.882	2621.53
510.25	2663.33
510.618	2658.14
510.986	2656.1
511.354	2668.53
511.722	2734.52
512.09	2734.97
512.458	2737.68
512.826	2766.38
513.193	2781.75
513.561	2782.88
513.929	2840.73
514.297	2828.53
514.664	2834.18
515.032	2873.27
515.4	2882.99
515.767	2919.82
516.135	2929.77
516.502	2946.49
516.869	2967.28
517.237	3002.08
517.604	2986.04
517.972	3035.08
518.339	3004.12
518.706	3066.71
519.073	3039.82
519.44	3072.36
519.808	3092.48
520.175	3127.05
520.542	3134.96
520.909	3135.19
521.276	3171.34
521.643	3149.42
522.009	3216.09
522.376	3233.26
522.743	3274.39
523.11	3278.23
523.477	3309.64
523.843	3343.99
524.21	3334.28
524.577	3400.04
524.943	3375.41
525.31	3409.3
525.676	3456.53
526.043	3461.28
526.409	3519.81
526.776	3481.39
527.142	3523.88
527.508	3512.35
527.874	3542.63
528.241	3525.46
528.607	3601.61
528.973	3608.85
529.339	3584.67
529.705	3665.57
530.071	3675.96
530.437	3695.85
530.803	3700.14
531.169	3733.59
531.535	3735.17
531.901	3747.83
532.267	3792.12
532.632	3822.85
532.998	3786.47
533.364	3829.63
533.73	3819.24
534.095	3856.75
534.461	3894.94
534.826	3880.25
535.192	3913.92
535.557	3908.05
535.923	3960.47
536.288	3957.76
536.653	3980.81
537.019	3971.32
537.384	3969.74
537.749	3977.2
538.114	4001.6
538.479	4042.51
538.845	4034.15
539.21	4040.47
539.575	4044.31
539.94	4088.83
540.305	4105.56
540.67	4094.48
541.034	4097.87
541.399	4116.18
541.764	4166.8
542.129	4158.89
542.494	4191.88
542.858	4171.32
543.223	4169.73
543.587	4269.85
543.952	4196.4
544.316	4252.22
544.681	4236.4
545.045	4288.38
545.41	4259.68
545.774	4283.4
546.138	4273.01
546.503	4296.96
546.867	4283.4
547.231	4324.08
547.595	4335.38
547.959	4388.26
548.324	4366.57
548.688	4333.12
549.052	4415.83
549.416	4363.63
549.779	4390.97
550.143	4383.74
550.507	4444.98
550.871	4485.43
551.235	4491.76
551.599	4516.84
551.962	4517.3
552.326	4545.77
552.689	4529.27
553.053	4521.82
553.417	4540.8
553.78	4593
554.143	4570.85
554.507	4646.11
554.87	4704.18
555.234	4682.94
555.597	4697.86
555.96	4681.59
556.323	4682.94
556.686	4717.29
557.05	4775.59
557.413	4757.74
557.776	4789.15
558.139	4816.27
558.502	4810.4
558.865	4822.15
559.228	4862.82
559.59	4855.14
559.953	4908.25
560.316	4933.56
560.679	4894.69
561.041	4974.91
561.404	5008.81
561.767	5054.01
562.129	4987.79
562.492	5038.64
562.854	5095.13
563.217	5040.9
563.579	5089.48
563.941	5114.57
564.304	5181.01
564.666	5207.22
565.028	5229.82
565.39	5193.44
565.753	5258.75
566.115	5223.94
566.477	5282.47
566.839	5291.29
567.201	5313.43
567.563	5284.51
567.925	5334.9
568.287	5350.72
568.648	5368.8
569.01	5414.45
569.372	5389.59
569.734	5413.09
570.095	5473.66
570.457	5481.56
570.819	5450.83
571.18	5518.4
571.542	5519.76
571.903	5550.26
572.265	5595.01
572.626	5569.47
572.987	5595.91
573.349	5598.4
573.71	5614.89
574.071	5648.34
574.432	5675.01
574.794	5743.7
575.155	5721.11
575.516	5660.32
575.877	5679.3
576.238	5758.39
576.599	5712.29
576.96	5755.91
577.32	5731.5
577.681	5743.25
578.042	5757.72
578.403	5800.88
578.763	5787.77
579.124	5780.31
579.485	5795
579.845	5844.04
580.206	5781.44
580.566	5764.04
580.927	5799.3
581.287	5845.62
581.648	5809.47
582.008	5883.81
582.368	5851.05
582.728	5850.37
583.089	5807.43
583.449	5854.21
583.809	5818.51
584.169	5903.93
584.529	5835
584.889	5892.63
585.249	5838.84
585.609	5846.98
585.969	5886.98
586.329	5849.24
586.688	5888.11
587.048	5868
587.408	5863.48
587.768	5907.99
588.127	5838.39
588.487	5808.56
588.846	5894.66
589.206	5827.32
589.565	5851.05
589.925	5887.88
590.284	5835.91
590.643	5876.36
591.003	5852.63
591.362	5908.22
591.721	5865.96
592.08	5913.87
592.44	5879.52
592.799	5908.67
593.158	5879.29
593.517	5879.97
593.876	5894.89
594.235	5874.32
594.593	5837.71
594.952	5905.96
595.311	5850.59
595.67	5919.97
596.029	5889.46
596.387	5965.39
596.746	5983.02
597.104	5831.61
597.463	5856.7
597.822	5888.33
598.18	5916.81
598.538	5931.72
598.897	5888.79
599.255	5884.27
599.613	5928.56
599.972	5924.72
600.33	5925.62
600.688	5934.66
601.046	5929.69
601.404	5947.54
601.762	5950.03
602.12	5944.38
602.478	5984.83
602.836	5954.55
603.194	5932.4
603.552	5929.91
603.91	5907.09
604.268	5988.67
604.625	5897.6
604.983	5974.21
605.341	5889.92
605.698	5913.42
606.056	5977.15
606.413	5986.86
606.771	6005.84
607.128	5993.19
607.485	5971.95
607.843	5999.29
608.2	6000.2
608.557	5951.38
608.914	5971.5
609.272	6006.52
609.629	6050.14
609.986	6085.62
610.343	6020.53
610.7	6079.52
611.057	6040.87
611.414	6066.63
611.771	6042.91
612.127	6031.38
612.484	6037.26
612.841	6054.43
613.198	6046.3
613.554	6049.23
613.911	6096.92
614.267	6044.49
614.624	6027.31
614.98	6043.13
615.337	6097.14
615.693	6046.75
616.05	6091.94
616.406	6150.25
616.762	6120.42
617.118	6044.71
617.475	6076.58
617.831	6094.2
618.187	6038.84
618.543	6100.76
618.899	6082.23
619.255	6117.48
619.611	6068.67
619.967	6107.99
620.323	6108.44
620.678	6058.05
621.034	6103.47
621.39	6053.08
621.746	6042.45
622.101	6105.28
622.457	6085.62
622.812	6097.59
623.168	6094.66
623.523	6102.11
623.879	6081.32
624.234	6018.27
624.589	6094.43
624.945	6085.16
625.3	6083.13
625.655	6058.27
626.01	6136.91
626.365	6078.84
626.72	6070.7
627.075	6056.01
627.43	6056.47
627.785	6009.01
628.14	6011.72
628.495	6026.41
628.85	6018.5
629.205	5989.8
629.559	5983.47
629.914	5984.15
630.269	5996.35
630.623	6002.68
630.978	5963.59
631.332	6018.73
631.687	6075.9
632.041	5957.03
632.396	5961.55
632.75	5978.05
633.104	5963.59
633.459	5900.54
633.813	5930.59
634.167	5944.6
634.521	5925.62
634.875	5882.91
635.229	5923.36
635.583	5894.89
635.937	5876.13
636.291	5919.75
636.645	5883.36
636.999	5866.87
637.352	5873.87
637.706	5825.06
638.06	5841.1
638.413	5775.57
638.767	5810.82
639.121	5803.14
639.474	5828.67
639.828	5803.14
640.181	5799.97
640.534	5771.5
640.888	5805.85
641.241	5766.76
641.594	5711.16
641.947	5775.79
642.301	5701.45
642.654	5731.28
643.007	5776.25
643.36	5699.41
643.713	5731.95
644.066	5745.06
644.419	5610.15
644.771	5602.92
645.124	5524.28
645.477	5532.64
645.83	5504.62
646.182	5530.6
646.535	5493.54
646.888	5485.63
647.24	5505.29
647.593	5492.86
647.945	5548
648.298	5453.32
648.65	5459.42
649.002	5450.15
649.355	5445.63
649.707	5437.5
650.059	5451.06
650.411	5503.94
650.763	5501.45
651.115	5600.66
651.467	5522.47
651.819	5548
652.171	5577.16
652.523	5514.78
652.875	5539.19
653.227	5458.74
653.578	5527.89
653.93	5496.48
654.282	5481.34
654.633	5402.02
654.985	5406.09
655.337	5469.59
655.688	5443.15
656.039	5462.13
656.391	5403.83
656.742	5404.5
657.094	5421
657.445	5391.85
657.796	5436.82
658.147	5414.67
658.498	5402.7
658.849	5410.15
659.2	5380.78
659.551	5370.38
659.902	5372.19
660.253	5389.36
660.604	5381.91
660.955	5374
661.306	5361.34
661.656	5407.67
662.007	5338.74
662.358	5349.82
662.708	5374.9
663.059	5316.6
663.409	5293.1
663.76	5362.25
664.11	5343.94
664.461	5305.98
664.811	5319.76
665.161	5329.48
665.511	5356.14
665.862	5342.36
666.212	5330.16
666.562	5269.59
666.912	5256.03
667.262	5291.06
667.612	5305.75
667.962	5265.53
668.312	5287.45
668.662	5344.62
669.011	5252.87
669.361	5241.57
669.711	5270.05
670.06	5216.04
670.41	5249.48
670.76	5285.41
671.109	5242.25
671.459	5243.83
671.808	5247.22
672.157	5264.85
672.507	5176.49
672.856	5155.25
673.205	5230.72
673.554	5219.88
673.904	5232.76
674.253	5216.94
674.602	5174.68
674.951	5107.11
675.3	5094.23
675.649	5211.29
675.998	5158.41
676.346	5174.68
676.695	5190.95
677.044	5133.78
677.393	5130.39
677.741	5137.85
678.09	5067.34
678.438	5104.63
678.787	5101.01
679.135	5149.6
679.484	5127.9
679.832	5099.65
680.181	5084.74
680.529	5122.48
680.877	5079.54
681.225	5063.5
681.573	5095.36
681.922	5070.5
682.27	5050.39
682.618	5056.27
682.966	5037.51
683.314	5035.47
683.661	5033.44
684.009	4997.96
684.357	5034.12
684.705	4997.74
685.053	4985.31
685.4	5002.26
685.748	4967.23
686.095	4974.01
686.443	4911.86
686.79	4966.78
687.138	4893.78
687.485	4950.05
687.832	4878.42
688.18	4933.78
688.527	4924.07
688.874	4895.37
689.221	4871.86
689.568	4910.73
689.915	4825.76
690.262	4834.12
690.609	4815.37
690.956	4811.75
691.303	4835.48
691.65	4824.18
691.997	4766.56
692.344	4755.26
692.69	4740.34
693.037	4765.88
693.383	4708.93
693.73	4787.35
694.077	4710.51
694.423	4709.16
694.769	4693.11
695.116	4624.41
695.462	4677.74
695.808	4677.74
696.155	4623.96
696.501	4636.62
696.847	4634.58
697.193	4588.71
697.539	4608.82
697.885	4543.51
698.231	4541.48
698.577	4564.07
698.923	4573.11
699.269	4534.02
699.614	4500.35
699.96	4474.81
700.306	4528.14
700.651	4506.45
700.997	4525.88
701.342	4469.61
701.688	4436.39
702.033	4459.9
702.379	4423.74
702.724	4429.62
703.069	4422.38
703.415	4418.54
703.76	4396.85
704.105	4376.51
704.45	4395.27
704.795	4393.23
705.14	4329.73
705.485	4343.29
705.83	4307.13
706.175	4274.82
706.52	4274.59
706.865	4233.46
707.209	4230.98
707.554	4229.39
707.899	4292.44
708.243	4265.1
708.588	4240.92
708.932	4201.37
709.277	4242.73
709.621	4225.1
709.966	4176.97
710.31	4193.92
710.654	4132.9
710.998	4181.49
711.342	4161.15
711.687	4127.7
712.031	4146.23
712.375	4109.4
712.719	4092
713.063	4099.91
713.407	4122.28
713.75	4137.65
714.094	4094.93
714.438	4058.33
714.782	4071.88
715.125	4068.72
715.469	4068.95
715.812	4097.42
716.156	4030.08
716.499	4056.29
716.843	4019.68
717.186	4014.03
717.53	4045.67
717.873	3992.79
718.216	3972
718.559	3982.85
718.902	4002.51
719.246	3979.91
719.589	3987.37
719.932	3970.87
720.275	3916.86
720.617	3973.13
720.96	3881.38
721.303	3967.93
721.646	3919.12
721.989	3913.47
722.331	3933.81
722.674	3929.06
723.016	3932.91
723.359	3895.84
723.701	3875.51
724.044	3890.65
724.386	3870.76
724.729	3889.52
725.071	3859.23
725.413	3840.7
725.755	3821.5
726.097	3838.67
726.439	3826.69
726.782	3821.27
727.124	3792.12
727.465	3816.98
727.807	3826.69
728.149	3821.27
728.491	3791.67
728.833	3795.73
729.175	3798.67
729.516	3792.12
729.858	3766.58
730.199	3795.73
730.541	3788.95
730.882	3752.8
731.224	3781.5
731.565	3714.15
731.906	3776.98
732.248	3755.51
732.589	3728.16
732.93	3709.18
733.271	3696.08
733.612	3715.51
733.953	3721.61
734.294	3680.26
734.635	3692.23
734.976	3712.8
735.317	3689.97
735.658	3680.71
735.999	3703.08
736.339	3700.59
736.68	3655.17
737.021	3643.42
737.361	3659.92
737.702	3630.54
738.042	3608.17
738.383	3668.05
738.723	3640.48
739.063	3635.51
739.404	3616.53
739.744	3626.47
740.084	3585.57
740.424	3615.85
740.764	3599.35
741.104	3617.66
741.444	3558.23
741.784	3586.93
742.124	3579.47
742.464	3543.76
742.804	3591.22
743.143	3541.95
743.483	3566.81
743.823	3503.09
744.162	3560.03
744.502	3567.94
744.841	3511.45
745.181	3484.1
745.52	3513.71
745.86	3550.77
746.199	3506.02
746.538	3489.07
746.877	3520.03
747.216	3515.97
747.556	3484.1
747.895	3479.13
748.234	3496.98
748.573	3423.31
748.911	3450.21
749.25	3440.26
749.589	3467.38
749.928	3425.12
750.267	3460.15
750.605	3415.63
750.944	3429.19
751.283	3421.05
751.621	3459.92
751.96	3423.99
752.298	3430.32
752.636	3344.67
752.975	3390.77
753.313	3388.06
753.651	3416.76
753.989	3399.59
754.327	3378.57
754.666	3335.18
755.004	3374.5
755.342	3343.99
755.679	3363.65
756.017	3316.42
756.355	3353.26
756.693	3297.44
757.031	3347.16
757.368	3310.1
757.706	3276.88
758.044	3285.69
758.381	3279.59
758.719	3271.23
759.056	3216.31
759.394	3256.76
759.731	3256.31
760.068	3239.36
760.405	3204.79
760.743	3199.82
761.08	3252.7
761.417	3203.88
761.754	3186.03
762.091	3196.65
762.428	3188.07
762.765	3121.17
763.102	3167.5
763.438	3137.9
763.775	3109.88
764.112	3155.07
764.449	3113.27
764.785	3127.5
765.122	3087.28
765.458	3103.32
765.795	3088.18
766.131	3094.51
766.467	3077.79
766.804	3116.66
767.14	3029.65
767.476	3025.58
767.812	3061.74
768.148	3055.87
768.485	3038.47
768.821	2985.81
769.157	3010.9
769.492	2990.33
769.828	2951.91
770.164	2955.76
770.5	2943.1
770.836	2970.44
771.171	2953.72
771.507	2920.05
771.842	2922.76
772.178	2962.76
772.513	2935.64
772.849	2899.94
773.184	2849.77
773.519	2855.19
773.855	2877.11
774.19	2845.25
774.525	2872.59
774.86	2831.47
775.195	2871.24
775.53	2827.62
775.865	2829.66
776.2	2791.47
776.535	2812.93
776.87	2784.46
777.205	2755.31
777.539	2796.89
777.874	2753.73
778.209	2758.47
778.543	2757.79
778.878	2712.82
779.212	2730.68
779.547	2691.58
779.881	2715.31
780.215	2707.17
780.55	2664.01
780.884	2673.5
781.218	2695.42
781.552	2698.36
781.886	2691.36
782.22	2656.78
782.554	2660.17
782.888	2636.67
783.222	2612.49
783.556	2624.92
783.889	2594.64
784.223	2605.26
784.557	2596.67
784.89	2560.74
785.224	2567.74
785.557	2600.74
785.891	2586.5
786.224	2556.22
786.558	2552.6
786.891	2469.89
787.224	2546.27
787.557	2514.41
787.891	2530.23
788.224	2513.73
788.557	2499.04
788.89	2493.62
789.223	2500.17
789.556	2493.39
789.888	2454.07
790.221	2440.74
790.554	2416.79
790.887	2462.44
791.219	2439.39
791.552	2443
791.884	2398.48
792.217	2431.7
792.549	2399.61
792.882	2387.41
793.214	2367.07
793.546	2375.43
793.879	2373.62
794.211	2355.77
794.543	2369.78
794.875	2378.14
795.207	2354.64
795.539	2342.66
795.871	2386.51
796.203	2323.23
796.535	2327.3
796.867	2299.5
797.198	2331.14
797.53	2314.42
797.862	2271.03
798.193	2300.41
798.525	2287.98
798.856	2297.92
799.188	2293.17
799.519	2260.41
799.85	2245.49
800.182	2247.07
800.513	2252.27
800.844	2239.84
801.175	2253.85
801.506	2204.36
801.837	2265.6
802.168	2241.88
802.499	2247.98
802.83	2233.29
803.161	2211.37
803.491	2196.45
803.822	2230.58
804.153	2217.7
804.483	2224.02
804.814	2165.27
805.145	2179.05
805.475	2167.3
805.805	2190.13
806.136	2138.6
806.466	2170.92
806.796	2139.28
807.126	2144.25
807.457	2137.92
807.787	2146.96
808.117	2143.12
808.447	2100.86
808.777	2127.98
809.107	2112.61
809.436	2100.64
809.766	2127.75
810.096	2087.08
810.426	2104.7
810.755	2056.12
811.085	2079.62
811.414	2088.21
811.744	2050.69
812.073	2048.21
812.403	2091.15
812.732	2080.75
813.061	2060.19
813.39	2069.45
813.719	2050.24
814.049	2013.86
814.378	2038.72
814.707	2049.34
815.036	2005.5
815.365	2022.9
815.693	2017.25
816.022	2005.95
816.351	1988.55
816.68	2004.82
817.008	2006.18
817.337	2000.75
817.665	1999.62
817.994	1987.65
818.322	1978.61
818.651	1972.73
818.979	1969.79
819.307	1952.39
819.636	1926.18
819.964	1938.83
820.292	1932.51
820.62	1948.55
820.948	1949.68
821.276	1952.84
821.604	1959.85
821.932	1951.26
822.259	1924.82
822.587	1929.12
822.915	1955.78
823.243	1923.24
823.57	1961.66
823.898	1958.27
824.225	1942.45
824.553	1945.39
824.88	1920.3
825.207	1950.81
825.535	1944.48
825.862	1946.97
826.189	1920.3
826.516	1944.48
826.843	1935.9
827.17	1949.23
827.497	1930.92
827.824	1955.56
828.151	1914.65
828.478	1907.42
828.805	1931.83
829.131	1906.74
829.458	1946.74
829.785	1950.36
830.111	1960.75
830.438	1936.12
830.764	1946.29
831.09	1931.6
831.417	1915.78
831.743	1919.62
832.069	1922.79
832.395	1913.07
832.722	1928.21
833.048	1938.16
833.374	1917.14
833.7	1915.11
834.026	1904.94
834.351	1902.45
834.677	1922.34
835.003	1929.79
835.329	1907.65
835.654	1887.08
835.98	1885.05
836.306	1893.64
836.631	1916.91
836.956	1897.48
837.282	1901.32
837.607	1904.94
837.932	1893.86
838.258	1897.25
838.583	1897.48
838.908	1899.29
839.233	1894.99
839.558	1873.98
839.883	1848.67
840.208	1869.46
840.533	1849.12
840.858	1879.4
841.182	1899.06
841.507	1918.49
841.832	1901.09
842.156	1834.66
842.481	1857.93
842.805	1846.86
843.13	1845.95
843.454	1859.97
843.778	1863.58
844.103	1840.76
844.427	1843.24
844.751	1835.33
845.075	1837.82
845.399	1831.94
845.723	1824.49
846.047	1805.73
846.371	1794.88
846.695	1819.74
847.019	1793.53
847.343	1749.91
847.666	1807.09
847.99	1779.97
848.313	1755.34
848.637	1758.05
848.96	1753.75
849.284	1773.41
849.607	1758.72
849.931	1738.84
850.254	1751.04
850.577	1735.9
850.9	1732.96
851.223	1711.04
851.546	1695
851.869	1720.53
852.192	1710.14
852.515	1699.97
852.838	1711.27
853.161	1662.46
853.483	1695
853.806	1679.86
854.129	1683.25
854.451	1677.6
854.774	1683.7
855.096	1667.88
855.419	1662.46
855.741	1639.63
856.063	1661.1
856.385	1638.5
856.708	1631.04
857.03	1631.27
857.352	1611.16
857.674	1670.37
857.996	1634.43
858.318	1627.88
858.64	1622.91
858.961	1646.41
859.283	1609.12
859.605	1615.9
859.926	1600.76
860.248	1606.19
860.57	1607.32
860.891	1607.09
861.212	1601.89
861.534	1590.37
861.855	1571.84
862.176	1598.28
862.498	1575.45
862.819	1569.58
863.14	1609.12
863.461	1592.4
863.782	1575.68
864.103	1564.38
864.424	1559.63
864.745	1579.29
865.065	1571.61
865.386	1569.35
865.707	1547.21
866.027	1559.18
866.348	1548.79
866.668	1583.14
866.989	1562.57
867.309	1528.9
867.63	1540.43
867.95	1533.19
868.27	1512.63
868.59	1512.63
868.91	1505.17
869.23	1514.66
869.55	1515.12
869.87	1527.77
870.19	1501.1
870.51	1512.18
870.83	1520.77
871.15	1532.29
871.469	1530.71
871.789	1528.22
872.109	1506.08
872.428	1506.3
872.748	1510.6
873.067	1515.34
873.386	1502.23
873.706	1494.55
874.025	1521.22
874.344	1491.61
874.663	1507.66
874.982	1501.56
875.301	1474.89
875.62	1471.5
875.939	1493.87
876.258	1480.99
876.577	1483.25
876.896	1491.16
877.214	1491.61
877.533	1490.48
877.852	1489.58
878.17	1479.86
878.489	1480.31
878.807	1481.44
879.125	1500.2
879.444	1468.56
879.762	1466.76
880.08	1465.63
880.398	1454.1
880.716	1463.37
881.034	1455.91
881.352	1467.89
881.67	1435.12
881.988	1439.41
882.306	1472.18
882.624	1438.28
882.941	1432.86
883.259	1440.32
883.577	1446.87
883.894	1442.35
884.212	1411.84
884.529	1406.64
884.846	1427.66
885.164	1404.38
885.481	1397.83
885.798	1425.17
886.115	1414.78
886.432	1437.83
886.75	1403.71
887.067	1396.93
887.383	1386.31
887.7	1390.6
888.017	1397.83
888.334	1410.49
888.651	1393.31
888.967	1360.77
889.284	1370.71
889.6	1370.94
889.917	1388.79
890.233	1354.44
890.55	1368.23
890.866	1361
891.182	1385.85
891.498	1370.94
891.815	1355.35
892.131	1361.67
892.447	1357.61
892.763	1343.59
893.079	1342.01
893.395	1358.96
893.71	1331.84
894.026	1329.58
894.342	1361
894.657	1316.25
894.973	1292.3
895.289	1349.02
895.604	1327.55
895.92	1306.76
896.235	1328.45
896.55	1330.94
896.865	1299.53
897.181	1290.49
897.496	1309.92
897.811	1330.94
898.126	1269.02
898.441	1292.3
898.756	1291.62
899.071	1288.45
899.386	1274.44
899.7	1261.11
900.015	1265.4
900.33	1263.37
900.644	1259.76
900.959	1264.05
901.273	1267.66
901.588	1244.61
901.902	1242.35
902.216	1256.82
902.531	1233.99
902.845	1226.31
903.159	1206.2
903.473	1218.85
903.787	1212.3
904.101	1229.47
904.415	1223.37
904.729	1202.13
905.042	1217.5
905.356	1240.77
905.67	1204.62
905.984	1200.55
906.297	1218.4
906.611	1229.7
906.924	1184.28
907.237	1181.34
907.551	1193.77
907.864	1187.44
908.177	1190.83
908.491	1197.16
908.804	1167.1
909.117	1163.03
909.43	1151.96
909.743	1150.61
910.056	1170.27
910.368	1137.5
910.681	1140.89
910.994	1133.88
911.307	1156.25
911.619	1162.36
911.932	1149.7
912.244	1113.54
912.557	1142.92
912.869	1120.32
913.181	1123.49
913.494	1123.94
913.806	1101.12
914.118	1092.98
914.43	1082.81
914.742	1098.86
915.054	1077.16
915.366	1100.89
915.678	1091.17
915.99	1099.53
916.302	1085.75
916.613	1087.33
916.925	1092.08
917.236	1117.84
917.548	1076.48
917.859	1100.89
918.171	1058.4
918.482	1051.62
918.794	1048.24
919.105	1056.14
919.416	1073.09
919.727	1077.16
920.038	1071.29
920.349	1046.88
920.66	1042.59
920.971	1046.65
921.282	1036.94
921.593	1041.46
921.903	1028.35
922.214	1040.1
922.525	1011.63
922.835	1048.91
923.146	1033.09
923.456	985.19
923.767	1033.55
924.077	1020.21
924.387	989.93
924.697	980.21
925.008	1008.69
925.318	1019.31
925.628	997.39
925.938	987.67
926.248	1001
926.558	966.43
926.867	1007.78
927.177	978.63
927.487	959.42
927.796	977.05
928.106	965.98
928.416	985.19
928.725	949.03
929.034	941.12
929.344	969.59
929.653	960.78
929.962	956.26
930.271	957.16
930.581	955.13
930.89	961.23
931.199	936.37
931.508	931.18
931.817	927.79
932.125	951.06
932.434	928.92
932.743	912.87
933.051	915.58
933.36	915.58
933.669	916.94
933.977	887.11
934.286	900.22
934.594	927.11
934.902	895.02
935.21	904.51
935.519	912.19
935.827	888.69
936.135	882.59
936.443	893.66
936.751	887.56
937.059	894.79
937.367	893.89
937.674	862.03
937.982	891.4
938.29	864.29
938.597	876.04
938.905	884.85
939.213	862.93
939.52	862.48
939.827	890.27
940.135	864.06
940.442	846.66
940.749	876.94
941.056	861.57
941.363	842.36
941.67	855.02
941.977	837.39
942.284	854.79
942.591	843.95
942.898	829.71
943.205	849.37
943.511	826.09
943.818	829.94
944.125	852.31
944.431	818.41
944.738	830.16
945.044	845.98
945.35	800.56
945.657	824.29
945.963	815.47
946.269	812.76
946.575	812.31
946.881	829.71
947.187	813.67
947.493	814.79
947.799	799.43
948.105	809.82
948.41	812.08
948.716	784.97
949.022	813.89
949.327	785.42
949.633	773.89
949.938	815.02
950.244	790.84
950.549	783.16
950.854	771.86
951.16	775.25
951.465	765.98
951.77	776.15
952.075	751.07
952.38	764.85
952.685	760.56
952.99	747.68
953.294	787.68
953.599	745.64
953.904	751.75
954.209	746.55
954.513	732.31
954.818	764.17
955.122	735.93
955.426	740.9
955.731	735.93
956.035	752.65
956.339	717.62
956.643	762.37
956.948	732.76
957.252	742.48
957.556	747.45
957.86	742.93
958.163	732.76
958.467	722.14
958.771	733.89
959.075	690.5
959.378	719.43
959.682	728.47
959.985	708.13
960.289	723.72
960.592	719.66
960.896	697.96
961.199	716.27
961.502	687.79
961.805	713.55
962.108	692.99
962.411	680.11
962.714	716.04
963.017	701.8
963.32	710.39
963.623	703.39
963.926	692.54
964.228	698.87
964.531	693.67
964.833	682.37
965.136	694.35
965.438	674.46
965.741	684.18
966.043	659.09
966.345	686.21
966.648	678.08
966.95	679.66
967.252	651.18
967.554	666.1
967.856	673.33
968.158	646.66
968.46	670.62
968.761	651.64
969.063	678.53
969.365	669.71
969.666	646.21
969.968	660
970.269	662.26
970.571	652.09
970.872	656.16
971.174	662.93
971.475	671.97
971.776	631.97
972.077	637.62
972.378	628.81
972.679	619.77
972.98	647.34
973.281	624.07
973.582	641.69
973.883	629.94
974.183	641.69
974.484	622.48
974.785	632.43
975.085	655.03
975.386	641.01
975.686	624.97
975.986	616.61
976.287	619.32
976.587	619.77
976.887	632.65
977.187	617.96
977.487	609.15
977.787	593.33
978.087	611.18
978.387	615.48
978.687	598.08
978.987	606.44
979.286	610.28
979.586	611.86
979.885	597.4
980.185	596.04
980.484	596.95
980.784	592.2
981.083	590.17
981.382	582.03
981.682	580.68
981.981	597.17
982.28	570.73
982.579	594.46
982.878	596.27
983.177	588.36
983.475	578.87
983.774	605.76
984.073	596.95
984.372	586.33
984.67	582.26
984.969	597.63
985.267	595.14
985.566	571.64
985.864	581.58
986.162	577.51
986.461	598.53
986.759	554.01
987.057	579.55
987.355	573.45
987.653	565.08
987.951	593.11
988.249	581.58
988.547	572.54
988.844	565.99
989.142	551.75
989.44	578.64
989.737	556.5
990.035	573.45
990.332	552.88
990.63	556.04
990.927	534.58
991.224	539.77
991.521	555.82
991.819	555.37
992.116	547.68
992.413	560.79
992.71	549.27
993.006	545.42
993.303	555.14
993.6	548.59
993.897	530.06
994.193	539.1
994.49	540.68
994.787	538.87
995.083	500.23
995.379	535.25
995.676	537.97
995.972	552.65
996.268	518.08
996.565	530.73
996.861	528.93
997.157	523.5
997.453	530.73
997.749	528.47
998.044	528.25
998.34	541.13
998.636	527.34
998.932	521.24
999.227	518.76
999.523	526.67
999.818	508.81
1000.114	516.5
1000.409	514.92
1000.704	519.66
1001	510.62
1001.295	505.2
1001.59	498.19
1001.885	537.97
1002.18	490.06
1002.475	508.14
1002.77	503.62
1003.065	482.83
1003.359	520.57
1003.654	504.52
1003.949	508.59
1004.243	494.13
1004.538	506.1
1004.832	491.87
1005.127	506.1
1005.421	489.38
1005.715	478.08
1006.009	513.33
1006.304	511.98
1006.598	487.35
1006.892	486.44
1007.186	477.85
1007.48	496.84
1007.773	488.02
1008.067	490.28
1008.361	500.23
1008.655	491.19
1008.948	476.95
1009.242	477.85
1009.535	487.35
1009.829	484.86
1010.122	477.4
1010.415	499.1
1010.708	488.93
1011.001	478.98
1011.295	452.09
1011.588	460.45
1011.881	464.75
1012.173	461.81
1012.466	478.31
1012.759	464.75
1013.052	465.88
1013.344	435.14
1013.637	470.4
1013.93	457.97
1014.222	447.8
1014.514	450.96
1014.807	441.47
1015.099	451.64
1015.391	446.9
1015.683	471.75
1015.976	441.02
1016.268	456.84
1016.56	467.01
1016.851	457.52
1017.143	442.15
1017.435	445.54
1017.727	439.44
1018.018	443.05
1018.31	456.39
1018.602	436.05
1018.893	433.79
1019.185	451.64
1019.476	440.34
1019.767	441.47
1020.058	442.38
1020.35	430.17
1020.641	431.3
1020.932	422.71
1021.223	447.8
1021.514	430.17
1021.804	444.41
1022.095	420.91
1022.386	421.58
1022.677	425.88
1022.967	422.49
1023.258	421.13
1023.548	419.33
1023.839	423.84
1024.129	405.54
1024.419	420.91
1024.709	428.14
1025	435.14
1025.29	437.86
1025.58	436.05
1025.87	416.61
1026.16	410.51
1026.449	421.58
1026.739	403.51
1027.029	408.93
1027.319	413.9
1027.608	421.81
1027.898	421.58
1028.187	411.87
1028.477	398.08
1028.766	409.16
1029.055	415.03
1029.344	398.99
1029.634	383.39
1029.923	412.55
1030.212	396.95
1030.501	403.05
1030.79	401.25
1031.078	385.88
1031.367	397.63
1031.656	392.21
1031.945	389.95
1032.233	399.21
1032.522	403.05
1032.81	382.49
1033.099	395.14
1033.387	385.43
1033.675	405.99
1033.963	409.38
1034.251	397.86
1034.54	410.29
1034.828	406.22
1035.116	389.5
1035.403	387.91
1035.691	384.3
1035.979	403.28
1036.267	398.08
1036.554	378.65
1036.842	402.15
1037.129	381.13
1037.417	369.16
1037.704	372.09
1037.992	382.94
1038.279	388.82
1038.566	375.03
1038.853	375.03
1039.14	375.03
