Data from foam_black_FLMS001491_00037.txt Node
Date: Wed Feb 08 10:43:48 GMT 2017
User: dcchb
Spectrometer: FLMS00149
Trigger mode: 0
Integration Time (sec): 2.000000E-2
Scans to average: 10
Electric dark correction enabled: true
Nonlinearity correction enabled: false
Boxcar width: 0
XAxis mode: Wavelengths
Number of Pixels in Spectrum: 2048
>>>>>Begin Spectral Data<<<<<
341.393	-12.85
341.776	-12.85
342.16	-12.85
342.543	-63.92
342.927	-60.99
343.31	-71.16
343.693	-57.37
344.077	-44.72
344.46	-53.3
344.843	-37.26
345.226	-47.43
345.61	-64.6
345.993	-14.43
346.376	-17.15
346.759	16.98
347.142	29.18
347.525	38.9
347.908	57.65
348.291	74.15
348.674	88.16
349.057	102.4
349.44	130.42
349.823	151.44
350.206	151.44
350.588	173.81
350.971	200.47
351.354	219.46
351.737	217.88
352.119	250.42
352.502	245.22
352.884	247.71
353.267	252.68
353.65	275.95
354.032	270.08
354.414	304.2
354.797	285.9
355.179	296.52
355.562	294.71
355.944	309.4
356.326	315.73
356.709	343.97
357.091	323.41
357.473	335.16
357.855	336.74
358.238	329.29
358.62	326.8
359.002	335.16
359.384	329.06
359.766	329.06
360.148	313.69
360.53	314.6
360.912	294.94
361.294	328.83
361.676	315.27
362.057	317.08
362.439	311.88
362.821	312.56
363.203	328.83
363.584	311.88
363.966	299.91
364.348	303.07
364.729	321.38
365.111	312.56
365.493	311.66
365.874	338.78
366.256	303.98
366.637	290.87
367.019	310.53
367.4	296.07
367.781	309.17
368.163	287.25
368.544	316.4
368.925	303.98
369.306	307.36
369.688	292.9
370.069	294.26
370.45	298.1
370.831	301.49
371.212	284.09
371.593	294.48
371.974	306.23
372.355	300.81
372.736	299.91
373.117	277.76
373.498	306.23
373.879	300.36
374.26	298.33
374.641	305.33
375.021	286.35
375.402	323.64
375.783	305.56
376.163	311.43
376.544	321.38
376.925	285.9
377.305	301.94
377.686	289.29
378.066	312.56
378.447	315.95
378.827	314.6
379.208	321.15
379.588	313.69
379.968	323.86
380.349	295.16
380.729	312.56
381.109	327.03
381.489	308.49
381.87	310.75
382.25	323.86
382.63	318.66
383.01	332
383.39	320.7
383.77	313.01
384.15	329.06
384.53	327.7
384.91	314.82
385.29	305.1
385.67	328.38
386.049	326.12
386.429	328.38
386.809	360.02
387.189	345.1
387.568	333.8
387.948	324.31
388.328	351.66
388.707	320.92
389.087	329.51
389.466	350.53
389.846	360.24
390.225	331.54
390.605	341.49
390.984	337.65
391.363	326.12
391.743	350.08
392.122	355.27
392.501	365.22
392.881	345.78
393.26	341.94
393.639	350.53
394.018	354.82
394.397	377.65
394.776	358.44
395.155	369.51
395.534	336.52
395.913	355.05
396.292	366.8
396.671	375.16
397.05	387.36
397.429	383.3
397.808	388.27
398.186	347.82
398.565	390.07
398.944	375.84
399.323	355.95
399.701	364.99
400.08	346.46
400.458	369.51
400.837	371.54
401.215	366.12
401.594	364.76
401.972	375.16
402.351	366.35
402.729	382.17
403.107	384.2
403.486	366.57
403.864	378.55
404.242	369.28
404.62	387.14
404.999	390.07
405.377	392.79
405.755	381.49
406.133	392.56
406.511	367.48
406.889	395.72
407.267	398.66
407.645	390.75
408.023	390.98
408.401	397.98
408.779	417.42
409.156	385.55
409.534	422.62
409.912	414.93
410.29	406.12
410.667	414.48
411.045	411.77
411.422	426.46
411.8	395.5
412.178	407.48
412.555	426.01
412.933	427.59
413.31	413.58
413.687	426.46
414.065	427.14
414.442	430.3
414.819	428.72
415.197	441.15
415.574	423.07
415.951	442.05
416.328	457.87
416.705	426.68
417.082	433.24
417.46	439.11
417.837	428.94
418.214	433.46
418.591	438.89
418.967	444.54
419.344	464.87
419.721	461.26
420.098	451.32
420.475	449.73
420.852	463.07
421.228	473.91
421.605	443.41
421.982	484.31
422.358	459
422.735	478.43
423.111	471.65
423.488	484.31
423.864	479.34
424.241	506.23
424.617	479.34
424.994	495.16
425.37	474.14
425.746	478.21
426.123	498.77
426.499	485.44
426.875	495.38
427.251	506.23
427.627	512.11
428.003	489.51
428.379	527.7
428.756	515.72
429.132	509.17
429.507	520.92
429.883	528.15
430.259	537.64
430.635	516.4
431.011	538.77
431.387	528.6
431.763	540.8
432.138	540.8
432.514	557.3
432.89	550.3
433.265	554.36
433.641	563.4
434.016	548.26
434.392	576.96
434.767	569.73
435.143	604.98
435.518	546.91
435.894	578.32
436.269	576.51
436.644	594.36
437.02	579.22
437.395	577.64
437.77	576.96
438.145	605.21
438.52	564.31
438.895	600.46
439.271	608.83
439.646	620.8
440.021	593.23
440.395	592.56
440.77	632.33
441.145	615.38
441.52	636.17
441.895	634.59
442.27	632.78
442.645	643.85
443.019	637.07
443.394	627.36
443.769	616.51
444.143	600.46
444.518	643.85
444.892	654.25
445.267	665.55
445.641	630.07
446.016	623.74
446.39	636.85
446.764	621.48
447.139	644.76
447.513	629.84
447.887	650.18
448.262	667.81
448.636	653.8
449.01	689.73
449.384	691.76
449.758	661.71
450.132	676.85
450.506	686.56
450.88	684.08
451.254	678.43
451.628	695.83
452.002	707.81
452.376	711.65
452.75	722.27
453.123	712.78
453.497	724.75
453.871	711.87
454.244	729.95
454.618	745.32
454.992	742.83
455.365	735.38
455.739	768.82
456.112	750.74
456.486	753.23
456.859	764.53
457.232	770.63
457.606	760.46
457.979	753.91
458.352	789.16
458.725	791.42
459.099	814.47
459.472	819.89
459.845	789.61
460.218	803.17
460.591	807.24
460.964	833
461.337	840.91
461.71	840.91
462.083	867.58
462.456	836.84
462.829	845.66
463.201	841.59
463.574	849.5
463.947	878.88
464.32	898.08
464.692	909.38
465.065	894.02
465.438	903.28
465.81	939.44
466.183	921.13
466.555	959.78
466.928	924.75
467.3	957.07
467.672	969.27
468.045	974.69
468.417	972.88
468.789	963.84
469.161	988.7
469.534	995.71
469.906	1015.59
470.278	1030.51
470.65	1026.67
471.022	1041.36
471.394	1059.89
471.766	1051.98
472.138	1069.83
472.51	1083.16
472.882	1086.1
473.253	1116.38
473.625	1096.5
473.997	1118.64
474.369	1110.73
474.74	1155.48
475.112	1133.11
475.484	1195.48
475.855	1202.48
476.227	1192.77
476.598	1221.01
476.97	1230.96
477.341	1247.68
477.713	1256.04
478.084	1246.55
478.455	1279.54
478.827	1314.8
479.198	1320.9
479.569	1319.09
479.94	1338.98
480.311	1378.75
480.682	1393.44
481.053	1410.61
481.424	1438.86
481.795	1466.2
482.166	1461.91
482.537	1455.36
482.908	1473.89
483.279	1519.31
483.65	1531.29
484.021	1549.59
484.391	1552.76
484.762	1595.47
485.133	1590.27
485.503	1625.3
485.874	1649.25
486.244	1645.18
486.615	1671.4
486.985	1669.81
487.356	1698.51
487.726	1719.31
488.097	1717.5
488.467	1755.24
488.837	1778.51
489.207	1802.47
489.578	1809.02
489.948	1860.54
490.318	1840.88
490.688	1860.32
491.058	1859.64
491.428	1881.79
491.798	1920.2
492.168	1952.97
492.538	1940.99
492.908	1966.3
493.278	1987.55
493.648	2006.76
494.017	2000.2
494.387	2034.78
494.757	2027.32
495.126	2041.1
495.496	2039.52
495.866	2076.58
496.235	2095.79
496.605	2139.63
496.974	2146.64
497.344	2086.98
497.713	2119.52
498.082	2185.28
498.452	2184.15
498.821	2215.56
499.19	2222.12
499.559	2185.73
499.928	2217.37
500.298	2242.23
500.667	2237.94
501.036	2279.06
501.405	2278.84
501.774	2307.31
502.143	2307.99
502.512	2282.91
502.88	2352.06
503.249	2329.46
503.618	2331.72
503.987	2343.24
504.356	2347.31
504.724	2382.34
505.093	2414.2
505.462	2401.32
505.83	2423.02
506.199	2423.92
506.567	2435.44
506.936	2463.69
507.304	2480.87
507.672	2503.92
508.041	2530.36
508.409	2573.07
508.777	2575.33
509.145	2559.51
509.514	2552.96
509.882	2601.99
510.25	2590.02
510.618	2597.25
510.986	2649.68
511.354	2645.38
511.722	2689.45
512.09	2684.25
512.458	2678.38
512.826	2693.97
513.193	2712.05
513.561	2711.37
513.929	2770.35
514.297	2767.87
514.664	2760.63
515.032	2798.37
515.4	2792.95
515.767	2808.99
516.135	2813.06
516.502	2862.1
516.869	2857.13
517.237	2872.72
517.604	2888.09
517.972	2914.08
518.339	2930.57
518.706	2934.87
519.073	2976.67
519.44	2944.13
519.808	3008.08
520.175	3008.76
520.542	3089.89
520.909	3067.29
521.276	3053.06
521.643	3093.96
522.009	3123.34
522.376	3139.83
522.743	3153.17
523.11	3221.86
523.477	3194.52
523.843	3231.81
524.21	3299.83
524.577	3301.86
524.943	3304.35
525.31	3314.52
525.676	3358.58
526.043	3409.88
526.409	3391.35
526.776	3421.86
527.142	3482.42
527.508	3426.6
527.874	3442.42
528.241	3470.45
528.607	3503.21
528.973	3494.85
529.339	3517.45
529.705	3553.61
530.071	3619.59
530.437	3650.78
530.803	3635.41
531.169	3643.1
531.535	3616.43
531.901	3648.52
532.267	3688.97
532.632	3696.2
532.998	3708.86
533.364	3693.94
533.73	3811
534.095	3754.96
534.461	3775.52
534.826	3792.7
535.192	3792.92
535.557	3859.14
535.923	3856.65
536.288	3854.84
536.653	3923.99
537.019	3909.3
537.384	3935.52
537.749	3975.52
538.114	3908.4
538.479	3931.9
538.845	3944.11
539.21	3966.25
539.575	3972.13
539.94	4035.85
540.305	4048.28
540.67	4030.2
541.034	4068.17
541.399	4119.02
541.764	4077.44
542.129	4132.12
542.494	4074.05
542.858	4131.45
543.223	4133.93
543.587	4166.92
543.952	4160.37
544.316	4138.45
544.681	4211.89
545.045	4186.13
545.41	4245.79
545.774	4215.28
546.138	4232.91
546.503	4278.11
546.867	4280.14
547.231	4313.81
547.595	4307.49
547.959	4297.54
548.324	4286.47
548.688	4301.38
549.052	4323.08
549.416	4364.66
549.779	4333.93
550.143	4360.14
550.507	4402.17
550.871	4422.51
551.235	4446.69
551.599	4484.43
551.962	4444.88
552.326	4480.14
552.689	4524.66
553.053	4474.71
553.417	4515.16
553.78	4554.03
554.143	4550.42
554.507	4570.76
554.87	4607.82
555.234	4646.46
555.597	4626.57
555.96	4636.29
556.323	4657.98
556.686	4730.3
557.05	4647.59
557.413	4732.79
557.776	4704.76
558.139	4767.13
558.502	4793.8
558.865	4818.66
559.228	4871.76
559.59	4843.06
559.953	4888.04
560.316	4930.29
560.679	4988.15
561.041	5004.42
561.404	5002.38
561.767	5027.01
562.129	4998.31
562.492	5025.21
562.854	5007.58
563.217	5073.34
563.579	5084.19
563.941	5133.68
564.304	5105.88
564.666	5186.33
565.028	5237.63
565.39	5226.56
565.753	5231.08
566.115	5244.64
566.477	5328.93
566.839	5288.7
567.201	5293
567.563	5337.97
567.925	5377.97
568.287	5378.87
568.648	5350.62
569.01	5397.85
569.372	5437.17
569.734	5451.86
570.095	5445.31
570.457	5463.39
570.819	5488.47
571.18	5493.44
571.542	5572.76
571.903	5560.79
572.265	5539.54
572.626	5584.29
572.987	5585.19
573.349	5606.43
573.71	5615.47
574.071	5652.76
574.432	5721.91
574.794	5689.37
575.155	5708.13
575.516	5671.52
575.877	5763.04
576.238	5742.48
576.599	5766.88
576.96	5773.21
577.32	5742.48
577.681	5798.52
578.042	5785.86
578.403	5814.79
578.763	5810.27
579.124	5838.07
579.485	5836.48
579.845	5845.98
580.206	5833.77
580.566	5953.77
580.927	5941.79
581.287	5926.88
581.648	5876.71
582.008	5909.03
582.368	5858.86
582.728	5948.35
583.089	5916.71
583.449	5894.56
583.809	5906.54
584.169	5937.27
584.529	5944.96
584.889	5920.78
585.249	5950.83
585.609	5885.75
585.969	5994.22
586.329	5941.79
586.688	5939.53
587.048	5928.46
587.408	5943.15
587.768	5914.22
588.127	5925.3
588.487	5898.63
588.846	5967.1
589.206	5979.31
589.565	5996.71
589.925	5957.39
590.284	5963.71
590.643	5969.59
591.003	5991.96
591.362	5995.12
591.721	5955.13
592.08	5911.29
592.44	5999.87
592.799	5991.28
593.158	5940.44
593.517	5968.91
593.876	5923.94
594.235	5883.49
594.593	5993.32
594.952	5979.53
595.311	5956.71
595.67	5913.32
596.029	6076.48
596.387	5967.78
596.746	6047.55
597.104	6009.81
597.463	5986.09
597.822	6042.81
598.18	6031.51
598.538	6020.89
598.897	6023.37
599.255	5993.54
599.613	6109.92
599.972	6037.38
600.33	6123.71
600.688	6029.47
601.046	6120.55
601.404	6106.53
601.762	6050.26
602.12	6102.24
602.478	6077.83
602.836	6087.33
603.194	6099.08
603.552	6068.8
603.91	6045.97
604.268	6066.76
604.625	6077.38
604.983	6065.41
605.341	6125.97
605.698	6145.86
606.056	6112.18
606.413	6135.23
606.771	6120.77
607.128	6136.59
607.485	6101.34
607.843	6110.83
608.2	6146.99
608.557	6197.15
608.914	6128.45
609.272	6161.9
609.629	6171.39
609.986	6206.42
610.343	6161.22
610.7	6255.46
611.057	6172.3
611.414	6203.48
611.771	6215.91
612.127	6173.43
612.484	6225.18
612.841	6287.55
613.198	6230.6
613.554	6252.97
613.911	6329.35
614.267	6298.62
614.624	6332.52
614.98	6294.33
615.337	6394.66
615.693	6374.32
616.05	6368.9
616.406	6411.84
616.762	6382.01
617.118	6372.06
617.475	6376.13
617.831	6483.93
618.187	6465.39
618.543	6430.82
618.899	6472.63
619.255	6478.95
619.611	6437.37
619.967	6479.41
620.323	6421.33
620.678	6436.92
621.034	6436.02
621.39	6372.29
621.746	6386.75
622.101	6511.5
622.457	6418.16
622.812	6410.26
623.168	6399.86
623.523	6422.91
623.879	6414.55
624.234	6337.26
624.589	6342.69
624.945	6350.37
625.3	6328.22
625.655	6347.88
626.01	6351.95
626.365	6325.51
626.72	6258.62
627.075	6259.07
627.43	6307.21
627.785	6245.06
628.14	6268.79
628.495	6297.49
628.85	6158.28
629.205	6280.54
629.559	6261.33
629.914	6287.55
630.269	6269.24
630.623	6238.28
630.978	6278.51
631.332	6298.62
631.687	6305.85
632.041	6263.82
632.396	6288.22
632.75	6256.36
633.104	6294.78
633.459	6338.84
633.813	6306.3
634.167	6294.33
634.521	6296.81
634.875	6329.81
635.229	6352.86
635.583	6346.3
635.937	6308.56
636.291	6360.99
636.645	6349.47
636.999	6367.54
637.352	6363.02
637.706	6270.82
638.06	6314.21
638.413	6342.69
638.767	6246.42
639.121	6305.17
639.474	6309.92
639.828	6263.37
640.181	6243.71
640.534	6288.22
640.888	6210.03
641.241	6247.32
641.594	6239.41
641.947	6214.33
642.301	6189.92
642.654	6233.76
643.007	6216.81
643.36	6186.98
643.713	6100.43
644.066	6156.02
644.419	6102.69
644.771	6022.47
645.124	5996.71
645.477	5958.52
645.83	5898.4
646.182	5903.38
646.535	5913.32
646.888	5916.03
647.24	5920.78
647.593	5955.58
647.945	5916.93
648.298	5910.16
648.65	5869.48
649.002	5885.75
649.355	5818.41
649.707	5853.43
650.059	5836.03
650.411	5924.84
650.763	5956.03
651.115	5945.63
651.467	6001
651.819	6027.89
652.171	6010.72
652.523	6000.32
652.875	5994.9
653.227	5963.94
653.578	6006.2
653.93	5997.61
654.282	5945.86
654.633	5947.22
654.985	5969.59
655.337	5983.6
655.688	5994.67
656.039	5971.4
656.391	5973.2
656.742	5966.65
657.094	5973.88
657.445	6012.07
657.796	5960.78
658.147	5965.52
658.498	5892.08
658.849	5913.09
659.2	5921.68
659.551	5938.18
659.902	5961.23
660.253	5895.01
660.604	5861.34
660.955	5864.28
661.306	5906.09
661.656	5852.76
662.007	5900.66
662.358	5859.31
662.708	5830.16
663.059	5849.82
663.409	5813.43
663.76	5826.54
664.11	5835.58
664.461	5785.41
664.811	5805.07
665.161	5818.86
665.511	5815.24
665.862	5800.1
666.212	5824.51
666.562	5752.65
666.912	5819.76
667.262	5805.75
667.612	5793.32
667.962	5810.27
668.312	5760.1
668.662	5808.24
669.011	5828.58
669.361	5840.55
669.711	5782.93
670.06	5826.77
670.41	5786.77
670.76	5762.14
671.109	5839.42
671.459	5843.26
671.808	5838.52
672.157	5862.25
672.507	5815.92
672.856	5812.98
673.205	5838.29
673.554	5875.35
673.904	5852.08
674.253	5862.02
674.602	5883.26
674.951	5800.55
675.3	5777.28
675.649	5850.04
675.998	5831.06
676.346	5851.4
676.695	5875.13
677.044	5859.54
677.393	5800.33
677.741	5809.37
678.09	5839.2
678.438	5789.48
678.787	5797.62
679.135	5857.73
679.484	5781.8
679.832	5784.28
680.181	5765.3
680.529	5744.96
680.877	5734.79
681.225	5739.54
681.573	5763.04
681.922	5718.75
682.27	5651.41
682.618	5652.99
682.966	5638.3
683.314	5634.23
683.661	5603.04
684.009	5543.16
684.357	5532.54
684.705	5574.8
685.053	5545.87
685.4	5537.51
685.748	5495.7
686.095	5487.57
686.443	5430.62
686.79	5492.99
687.138	5495.25
687.485	5482.82
687.832	5417.74
688.18	5426.78
688.527	5446.66
688.874	5382.26
689.221	5365.54
689.568	5391.07
689.915	5403.05
690.262	5361.7
690.609	5374.12
690.956	5359.21
691.303	5377.06
691.65	5294.8
691.997	5322.6
692.344	5298.42
692.69	5326.22
693.037	5306.33
693.383	5287.35
693.73	5327.57
694.077	5315.14
694.423	5311.3
694.769	5295.93
695.116	5313.33
695.462	5318.76
695.808	5259.1
696.155	5223.17
696.501	5192.66
696.847	5255.94
697.193	5237.63
697.539	5236.27
697.885	5217.52
698.231	5225.2
698.577	5187.91
698.923	5190.17
699.269	5175.49
699.614	5148.14
699.96	5145.88
700.306	5108.59
700.651	5115.15
700.997	5118.54
701.342	5081.7
701.688	5107.69
702.033	5075.83
702.379	5072.66
702.724	5072.21
703.069	5044.87
703.415	5013.23
703.76	4956.73
704.105	4979.11
704.45	4986.79
704.795	4899.11
705.14	4868.6
705.485	4913.12
705.83	4941.37
706.175	4930.29
706.52	4842.39
706.865	4842.61
707.209	4847.58
707.554	4829.51
707.899	4828.6
708.243	4809.62
708.588	4799
708.932	4757.87
709.277	4741.15
709.621	4761.03
709.966	4733.69
710.31	4811.65
710.654	4677.87
710.998	4696.4
711.342	4698.21
711.687	4692.79
712.031	4723.07
712.375	4640.36
712.719	4667.48
713.063	4688.04
713.407	4682.84
713.75	4651.66
714.094	4664.31
714.438	4650.75
714.782	4664.54
715.125	4629.51
715.469	4654.6
715.812	4645.1
716.156	4620.92
716.499	4582.05
716.843	4649.85
717.186	4561.49
717.53	4609.17
717.873	4593.13
718.216	4596.29
718.559	4574.37
718.902	4582.73
719.246	4529.4
719.589	4541.15
719.932	4573.69
720.275	4529.85
720.617	4578.44
720.96	4523.07
721.303	4559.23
721.646	4514.26
721.989	4493.24
722.331	4559.91
722.674	4443.53
723.016	4516.52
723.359	4443.98
723.701	4501.38
724.044	4452.34
724.386	4447.82
724.729	4423.87
725.071	4414.6
725.413	4401.72
725.755	4397.88
726.097	4353.13
726.439	4394.26
726.782	4399.23
727.124	4449.18
727.465	4368.5
727.807	4382.06
728.149	4321.27
728.491	4326.47
728.833	4337.32
729.175	4312.91
729.516	4315.17
729.858	4307.26
730.199	4301.38
730.541	4290.54
730.882	4309.07
731.224	4280.37
731.565	4305.23
731.906	4258.45
732.248	4236.75
732.589	4241.27
732.93	4241.5
733.271	4234.04
733.612	4260.48
733.953	4255.74
734.294	4184.1
734.635	4199.24
734.976	4241.95
735.317	4185.45
735.658	4148.85
735.999	4195.85
736.339	4220.26
736.68	4170.77
737.021	4170.99
737.361	4191.56
737.702	4166.7
738.042	4172.57
738.383	4202.63
738.723	4166.7
739.063	4118.79
739.404	4103.65
739.744	4130.09
740.084	4125.12
740.424	4151.33
740.764	4118.56
741.104	4114.72
741.444	4135.96
741.784	4125.57
742.124	4089.41
742.464	4095.74
742.804	4139.81
743.143	4093.03
743.483	4099.58
743.823	4037.21
744.162	4028.4
744.502	4079.24
744.841	4051.45
745.181	4078.79
745.52	4065.01
745.86	4053.26
746.199	4028.62
746.538	4006.93
746.877	4022.3
747.216	4051.22
747.556	3992.47
747.895	4030.66
748.234	3989.08
748.573	3994.73
748.911	4003.31
749.25	4028.85
749.589	3995.63
749.928	4015.97
750.267	4034.72
750.605	3976.65
750.944	3971
751.283	4000.15
751.621	4043.09
751.96	3935.07
752.298	3963.31
752.636	3919.02
752.975	3909.98
753.313	3916.08
753.651	3910.66
753.989	3924.44
754.327	3885.12
754.666	3894.39
755.004	3888.97
755.342	3888.29
755.679	3910.43
756.017	3857.78
756.355	3862.07
756.693	3868.63
757.031	3868.63
757.368	3851.45
757.706	3792.7
758.044	3814.84
758.381	3825.01
758.719	3779.36
759.056	3763.77
759.394	3821.85
759.731	3792.47
760.068	3770.32
760.405	3791.57
760.743	3707.95
761.08	3732.81
761.417	3709.54
761.754	3748.63
762.091	3752.92
762.428	3719.25
762.765	3676.54
763.102	3683.1
763.438	3655.75
763.775	3653.04
764.112	3641.51
764.449	3649.88
764.785	3608.52
765.122	3612.36
765.458	3572.14
765.795	3617.11
766.131	3583.21
766.467	3585.24
766.804	3546.38
767.14	3502.54
767.476	3557
767.812	3506.15
768.148	3507.05
768.485	3502.08
768.821	3465.7
769.157	3468.64
769.492	3463.89
769.828	3504.12
770.164	3458.02
770.5	3443.55
770.836	3452.14
771.171	3396.32
771.507	3457.34
771.842	3380.96
772.178	3368.08
772.513	3376.21
772.849	3369.21
773.184	3369.66
773.519	3342.31
773.855	3297.79
774.19	3308.42
774.525	3284.01
774.86	3326.04
775.195	3262.09
775.53	3310.45
775.865	3225.25
776.2	3241.07
776.535	3235.88
776.87	3246.5
777.205	3215.99
777.539	3194.07
777.874	3174.41
778.209	3193.84
778.543	3203.11
778.878	3161.98
779.212	3189.1
779.547	3152.49
779.881	3153.84
780.215	3136.89
780.55	3152.04
780.884	3149.55
781.218	3140.06
781.552	3100.51
781.886	3107.52
782.22	3063.9
782.554	3073.39
782.888	3102.77
783.222	3031.59
783.556	3062.09
783.889	3017.12
784.223	3025.26
784.557	3027.29
784.89	3031.36
785.224	2997.01
785.557	2979.16
785.891	3012.15
786.224	2958.59
786.558	2984.81
786.891	2990.01
787.224	2927.63
787.557	2936
787.891	2945.26
788.224	2936.9
788.557	2967.41
788.89	2952.04
789.223	2923.57
789.556	2922.89
789.888	2899.61
790.221	2883.57
790.554	2875.43
790.887	2901.42
791.219	2830.24
791.552	2849.9
791.884	2840.41
792.217	2837.47
792.549	2857.35
792.882	2834.76
793.214	2786.85
793.546	2815.55
793.879	2797.69
794.211	2773.06
794.543	2797.24
794.875	2759.5
795.207	2767.64
795.539	2783.68
795.871	2775.1
796.203	2764.48
796.535	2748.88
796.867	2721.76
797.198	2694.87
797.53	2726.74
797.862	2712.05
798.193	2657.36
798.525	2670.01
798.856	2673.4
799.188	2674.99
799.519	2638.38
799.85	2638.15
800.182	2628.21
800.513	2634.76
800.844	2578.94
801.175	2633.41
801.506	2572.16
801.837	2566.74
802.168	2589.34
802.499	2556.57
802.83	2574.65
803.161	2551.37
803.491	2546.63
803.822	2589.56
804.153	2567.87
804.483	2533.97
804.814	2507.31
805.145	2484.48
805.475	2514.54
805.805	2540.07
806.136	2521.09
806.466	2464.82
806.796	2491.49
807.126	2461.21
807.457	2466.86
807.787	2458.04
808.117	2478.83
808.447	2460.08
808.777	2465.5
809.107	2485.61
809.436	2432.51
809.766	2448.33
810.096	2439.74
810.426	2472.05
810.755	2425.05
811.085	2453.07
811.414	2442
811.744	2426.86
812.073	2413.3
812.403	2427.99
812.732	2403.81
813.061	2442.45
813.39	2404.26
813.719	2385.28
814.049	2418.04
814.378	2399.06
814.707	2411.26
815.036	2405.16
815.365	2376.69
815.693	2373.98
816.022	2390.47
816.351	2367.65
816.68	2358.61
817.008	2363.13
817.337	2352.96
817.665	2331.72
817.994	2355.22
818.322	2340.31
818.651	2343.47
818.979	2336.46
819.307	2328.33
819.636	2305.73
819.964	2319.29
820.292	2322.68
820.62	2329.46
820.948	2321.55
821.276	2289.91
821.604	2280.65
821.932	2285.17
822.259	2316.8
822.587	2304.6
822.915	2300.53
823.243	2296.47
823.57	2299.85
823.898	2285.39
824.225	2269.35
824.553	2280.65
824.88	2288.33
825.207	2330.36
825.535	2258.27
825.862	2288.1
826.189	2291.49
826.516	2288.78
826.843	2251.27
827.17	2254.21
827.497	2286.52
827.824	2258.05
828.151	2290.82
828.478	2239.97
828.805	2251.04
829.131	2240.87
829.458	2256.69
829.785	2258.27
830.111	2236.58
830.438	2289.01
830.764	2265.73
831.09	2266.18
831.417	2230.25
831.743	2226.41
832.069	2248.1
832.395	2237.48
832.722	2244.94
833.048	2226.86
833.374	2220.76
833.7	2222.34
834.026	2228.22
834.351	2234.09
834.677	2233.42
835.003	2217.6
835.329	2259.63
835.654	2202.23
835.98	2192.96
836.306	2180.76
836.631	2220.76
836.956	2234.77
837.282	2215.56
837.607	2199.74
837.932	2200.2
838.258	2207.88
838.583	2201.78
838.908	2178.28
839.233	2188.67
839.558	2202.68
839.883	2213.08
840.208	2181.44
840.533	2190.93
840.858	2190.48
841.182	2174.21
841.507	2202
841.832	2159.97
842.156	2197.03
842.481	2192.51
842.805	2160.2
843.13	2185.73
843.454	2195.22
843.778	2181.89
844.103	2181.67
844.427	2157.03
844.751	2125.62
845.075	2169.46
845.399	2156.58
845.723	2175.34
846.047	2166.75
846.371	2140.08
846.695	2141.21
847.019	2164.72
847.343	2138.5
847.666	2113.19
847.99	2103.25
848.313	2102.8
848.637	2126.98
848.96	2125.17
849.284	2119.29
849.607	2073.42
849.931	2098.5
850.254	2092.4
850.577	2098.28
850.9	2037.26
851.223	2048.11
851.546	2035.23
851.869	2050.6
852.192	2044.49
852.515	2017.38
852.838	2063.93
853.161	2052.63
853.483	2038.84
853.806	2027.09
854.129	2005.85
854.451	2023.03
854.774	1963.14
855.096	1994.78
855.419	1975.34
855.741	1960.65
856.063	1947.1
856.385	1956.59
856.708	1982.35
857.03	1964.04
857.352	1952.07
857.674	1921.11
857.996	1939.41
858.318	1926.53
858.64	1933.08
858.961	1929.47
859.283	1913.88
859.605	1870.26
859.926	1852.63
860.248	1854.67
860.57	1833.65
860.891	1875.69
861.212	1879.75
861.534	1877.27
861.855	1839.08
862.176	1835.01
862.498	1846.76
862.819	1826.42
863.14	1821.45
863.461	1817.38
863.782	1794.11
864.103	1833.2
864.424	1805.4
864.745	1815.57
865.065	1796.59
865.386	1791.62
865.707	1763.6
866.027	1779.19
866.348	1755.24
866.668	1782.81
866.989	1783.71
867.309	1753.88
867.63	1792.3
867.95	1795.46
868.27	1739.19
868.59	1761.34
868.91	1748.91
869.23	1736.71
869.55	1715.69
869.87	1743.03
870.19	1746.65
870.51	1721.79
870.83	1759.98
871.15	1725.86
871.469	1730.6
871.789	1735.58
872.109	1751.62
872.428	1698.06
872.748	1719.08
873.067	1717.05
873.386	1696.25
873.706	1695.35
874.025	1722.69
874.344	1716.82
874.663	1716.82
874.982	1705.97
875.301	1724.73
875.62	1736.93
875.939	1708.68
876.258	1732.41
876.577	1729.02
876.896	1696.48
877.214	1733.09
877.533	1693.09
877.852	1697.61
878.17	1741.68
878.489	1724.28
878.807	1687.44
879.125	1691.06
879.444	1745.29
879.762	1705.29
880.08	1742.36
880.398	1716.37
880.716	1720.66
881.034	1706.65
881.352	1727.89
881.67	1717.05
881.988	1710.49
882.306	1698.97
882.624	1711.62
882.941	1706.42
883.259	1705.07
883.577	1708.01
883.894	1702.36
884.212	1716.59
884.529	1688.57
884.846	1691.28
885.164	1686.99
885.481	1687.44
885.798	1693.09
886.115	1688.8
886.432	1667.78
886.75	1655.58
887.067	1680.89
887.383	1673.43
887.7	1672.98
888.017	1672.98
888.334	1697.16
888.651	1635.92
888.967	1644.73
889.284	1657.16
889.6	1634.56
889.917	1659.87
890.233	1654.67
890.55	1639.08
890.866	1653.09
891.182	1641.57
891.498	1626.43
891.815	1609.93
892.131	1601.79
892.447	1629.82
892.763	1648.12
893.079	1612.42
893.395	1594.11
893.71	1611.06
894.026	1595.47
894.342	1587.33
894.657	1574.22
894.973	1577.39
895.289	1564.28
895.604	1584.85
895.92	1557.5
896.235	1530.38
896.55	1553.21
896.865	1534.9
897.181	1533.55
897.496	1536.03
897.811	1553.66
898.126	1504.4
898.441	1522.47
898.756	1506.43
899.071	1508.92
899.386	1498.29
899.7	1467.56
900.015	1486.09
900.33	1452.87
900.644	1470.95
900.959	1459.88
901.273	1475.92
901.588	1449.93
901.902	1455.58
902.216	1443.83
902.531	1443.15
902.845	1462.36
903.159	1432.08
903.473	1453.78
903.787	1413.1
904.101	1421.23
904.415	1404.96
904.729	1400.22
905.042	1427.79
905.356	1413.1
905.67	1420.1
905.984	1375.59
906.297	1397.51
906.611	1389.14
906.924	1396.15
907.237	1359.99
907.551	1358.18
907.864	1373.33
908.177	1393.21
908.491	1356.38
908.804	1345.53
909.117	1351.18
909.43	1371.52
909.743	1354.34
910.056	1328.13
910.368	1339.2
910.681	1364.74
910.994	1345.3
911.307	1328.13
911.619	1315.25
911.932	1326.1
912.244	1333.55
912.557	1333.55
912.869	1302.14
913.181	1304.85
913.494	1311.63
913.806	1306.21
914.118	1297.4
914.43	1302.59
914.742	1284.97
915.054	1275.02
915.366	1278.41
915.678	1283.16
915.99	1282.48
916.302	1271.41
916.613	1285.87
916.925	1276.15
917.236	1268.7
917.548	1263.05
917.859	1285.19
918.171	1263.27
918.482	1261.01
918.794	1252.42
919.105	1239.09
919.416	1249.26
919.727	1243.61
920.038	1238.41
920.349	1232.99
920.66	1241.35
920.971	1240.67
921.282	1258.07
921.593	1230.5
921.903	1217.62
922.214	1226.66
922.525	1202.03
922.835	1206.78
923.146	1203.16
923.456	1212.88
923.767	1202.03
924.077	1184.4
924.387	1191.86
924.697	1196.61
925.008	1185.76
925.318	1207.23
925.628	1207.68
925.938	1184.18
926.248	1182.14
926.558	1173.33
926.867	1169.72
927.177	1131.98
927.487	1162.26
927.796	1152.31
928.106	1133.11
928.416	1144.63
928.725	1142.82
929.034	1120.9
929.344	1105.31
929.653	1110.73
929.962	1123.84
930.271	1116.16
930.581	1096.04
930.89	1096.95
931.199	1081.58
931.508	1075.93
931.817	1079.55
932.125	1077.29
932.434	1083.39
932.743	1086.55
933.051	1062.6
933.36	1095.82
933.669	1051.53
933.977	1051.07
934.286	1051.75
934.594	1054.46
934.902	1070.28
935.21	1046.55
935.519	1039.77
935.827	1028.48
936.135	1041.58
936.443	1002.26
936.751	1036.84
937.059	1031.19
937.367	1027.8
937.674	1023.28
937.982	1009.27
938.29	1022.37
938.597	1019.66
938.905	991.19
939.213	991.64
939.52	993.45
939.827	987.12
940.135	974.47
940.442	993.45
940.749	1014.24
941.056	983.96
941.363	979.89
941.67	971.3
941.977	998.42
942.284	981.7
942.591	960.45
942.898	939.89
943.205	973.34
943.511	957.29
943.818	964.3
944.125	953.68
944.431	957.07
944.738	948.25
945.044	935.82
945.35	926.33
945.657	959.78
945.963	949.38
946.269	941.7
946.575	900.57
946.881	937.18
947.187	919.55
947.493	923.62
947.799	903.28
948.105	919.1
948.41	938.08
948.716	926.78
949.022	939.89
949.327	905.99
949.633	889.5
949.938	894.47
950.244	918.65
950.549	902.83
950.854	880.91
951.16	894.02
951.465	887.24
951.77	899.44
952.075	881.14
952.38	879.1
952.685	876.62
952.99	889.72
953.294	867.12
953.599	886.11
953.904	854.02
954.209	892.43
954.513	879.33
954.818	854.47
955.122	872.1
955.426	871.19
955.731	869.38
956.035	865.77
956.339	880.46
956.643	837.97
956.948	872.1
957.252	850.18
957.556	858.54
957.86	851.98
958.163	828.93
958.467	812.44
958.771	835.71
959.075	846.79
959.378	853.34
959.682	844.53
959.985	841.14
960.289	827.35
960.592	841.36
960.896	825.09
961.199	820.12
961.502	814.24
961.805	818.31
962.108	795.26
962.411	829.16
962.714	803.4
963.017	821.25
963.32	783.28
963.623	793.45
963.926	806.11
964.228	787.8
964.531	784.19
964.833	804.3
965.136	788.93
965.438	794.81
965.741	775.6
966.043	789.16
966.345	784.64
966.648	766.56
966.95	775.6
967.252	799.33
967.554	771.53
967.856	753.23
968.158	784.87
968.46	758.2
968.761	775.38
969.063	764.08
969.365	752.32
969.666	778.76
969.968	767.47
970.269	728.37
970.571	757.52
970.872	737.41
971.174	743.51
971.475	752.32
971.776	732.66
972.077	727.24
972.378	738.54
972.679	720.91
972.98	740.35
973.281	730.18
973.582	734.25
973.883	737.64
974.183	721.14
974.484	720.91
974.785	713.91
975.085	733.12
975.386	717.98
975.686	710.74
975.986	708.94
976.287	701.03
976.587	696.51
976.887	687.69
977.187	714.36
977.487	690.18
977.787	708.71
978.087	694.25
978.387	690.63
978.687	689.05
978.987	697.41
979.286	696.73
979.586	689.05
979.885	688.37
980.185	669.84
980.484	686.34
980.784	658.77
981.083	680.24
981.382	666.68
981.682	646.79
981.981	678.43
982.28	686.34
982.579	665.77
982.878	656.73
983.177	635.94
983.475	653.34
983.774	655.83
984.073	659.67
984.372	651.76
984.67	642.72
984.969	648.82
985.267	639.11
985.566	647.92
985.864	646.79
986.162	646.11
986.461	647.47
986.759	629.16
987.057	653.34
987.355	652.21
987.653	638.43
987.951	645.89
988.249	638.2
988.547	617.64
988.844	616.96
989.142	624.42
989.44	611.76
989.737	627.36
990.035	623.74
990.332	607.7
990.63	608.83
990.927	649.05
991.224	611.31
991.521	620.8
991.819	596.4
992.116	624.64
992.413	590.75
992.71	606.11
993.006	586
993.303	591.43
993.6	610.86
993.897	614.7
994.193	583.06
994.49	597.53
994.787	595.49
995.083	589.17
995.379	596.85
995.676	595.72
995.972	601.82
996.268	595.49
996.565	586.68
996.861	585.1
997.157	581.48
997.453	589.17
997.749	581.48
998.044	580.35
998.34	582.61
998.636	589.84
998.932	559.11
999.227	573.57
999.523	577.64
999.818	599.79
1000.114	569.05
1000.409	575.83
1000.704	584.42
1001	555.49
1001.295	549.62
1001.59	564.99
1001.885	556.4
1002.18	561.37
1002.475	566.12
1002.77	563.86
1003.065	526.79
1003.359	553.91
1003.654	553.91
1003.949	561.82
1004.243	553.46
1004.538	535.16
1004.832	541.93
1005.127	566.34
1005.421	553.01
1005.715	533.57
1006.009	533.12
1006.304	555.27
1006.598	533.57
1006.892	552.56
1007.186	534.93
1007.48	515.49
1007.773	531.77
1008.067	535.38
1008.361	533.57
1008.655	511.43
1008.948	542.84
1009.242	546
1009.535	525.21
1009.829	519.11
1010.122	518.66
1010.415	533.8
1010.708	525.89
1011.001	515.27
1011.295	515.49
1011.588	500.35
1011.881	516.17
1012.173	503.52
1012.466	526.57
1012.759	517.75
1013.052	511.43
1013.344	511.43
1013.637	513.24
1013.93	509.17
1014.222	514.59
1014.514	489.28
1014.807	501.03
1015.099	526.79
1015.391	495.83
1015.683	536.51
1015.976	490.86
1016.268	504.87
1016.56	495.38
1016.851	496.51
1017.143	501.94
1017.435	506.23
1017.727	472.33
1018.018	498.55
1018.31	480.69
1018.602	496.29
1018.893	480.69
1019.185	480.47
1019.476	458.32
1019.767	461.94
1020.058	469.39
1020.35	475.72
1020.641	476.17
1020.932	495.61
1021.223	474.82
1021.514	477.08
1021.804	478.66
1022.095	474.14
1022.386	460.13
1022.677	471.65
1022.967	468.94
1023.258	462.84
1023.548	466
1023.839	467.13
1024.129	458.77
1024.419	446.57
1024.709	448.38
1025	459.9
1025.29	455.16
1025.58	452.45
1025.87	449.51
1026.16	437.98
1026.449	441.6
1026.739	468.72
1027.029	449.28
1027.319	456.29
1027.608	461.71
1027.898	473.01
1028.187	439.34
1028.477	432.11
1028.766	429.4
1029.055	439.79
1029.344	434.82
1029.634	435.95
1029.923	444.31
1030.212	456.74
1030.501	438.66
1030.79	444.99
1031.078	429.4
1031.367	425.78
1031.656	429.62
1031.945	435.95
1032.233	435.95
1032.522	413.8
1032.81	411.54
1033.099	416.29
1033.387	428.72
1033.675	407.7
1033.963	418.1
1034.251	447.47
1034.54	400.02
1034.828	402.28
1035.116	415.84
1035.403	426.46
1035.691	417.42
1035.979	438.43
1036.267	421.03
1036.554	410.86
1036.842	411.54
1037.129	429.85
1037.417	406.8
1037.704	416.74
1037.992	421.49
1038.279	404.09
1038.566	426.23
1038.853	426.23
1039.14	426.23
