Data from foam2_polystyrene_foam_FLMS001491_00023.txt Node
Date: Wed Feb 08 10:57:43 GMT 2017
User: dcchb
Spectrometer: FLMS00149
Trigger mode: 0
Integration Time (sec): 2.000000E-2
Scans to average: 10
Electric dark correction enabled: true
Nonlinearity correction enabled: false
Boxcar width: 0
XAxis mode: Wavelengths
Number of Pixels in Spectrum: 2048
>>>>>Begin Spectral Data<<<<<
341.393	-12.12
341.776	-12.12
342.16	-12.12
342.543	-83.3
342.927	-69.74
343.31	-63.19
343.693	-62.29
344.077	-53.93
344.46	-51.67
344.843	-56.41
345.226	-46.92
345.61	-39.24
345.993	-8.95
346.376	-22.51
346.759	-1.72
347.142	33.53
347.525	34.43
347.908	66.3
348.291	85.51
348.674	85.05
349.057	102
349.44	132.74
349.823	138.84
350.206	158.5
350.588	231.94
350.971	216.58
351.354	255.22
351.737	242.56
352.119	268.55
352.502	270.13
352.884	292.05
353.267	301.77
353.65	318.72
354.032	317.36
354.414	309
354.797	331.6
355.179	332.96
355.562	345.61
355.944	321.66
356.326	361.21
356.709	350.13
357.091	362.79
357.473	368.21
357.855	355.33
358.238	332.05
358.62	342.9
359.002	358.49
359.384	375.89
359.766	374.54
360.148	359.4
360.53	373.18
360.912	360.08
361.294	362.11
361.676	363.01
362.057	358.95
362.439	365.05
362.821	356.46
363.203	363.92
363.584	358.49
363.966	342.45
364.348	362.79
364.729	353.97
365.111	356.46
365.493	356.91
365.874	366.63
366.256	353.52
366.637	325.73
367.019	342.9
367.4	365.5
367.781	356.91
368.163	360.08
368.544	351.49
368.925	339.74
369.306	372.73
369.688	348.78
370.069	368.89
370.45	351.26
370.831	369.79
371.212	363.92
371.593	372.73
371.974	366.18
372.355	388.55
372.736	376.12
373.117	371.37
373.498	369.57
373.879	372.73
374.26	381.32
374.641	383.8
375.021	358.72
375.402	376.57
375.783	386.52
376.163	387.19
376.544	379.51
376.925	412.96
377.305	380.87
377.686	402.56
378.066	395.78
378.447	377.02
378.827	375.22
379.208	409.11
379.588	431.03
379.968	414.54
380.349	420.19
380.729	423.58
381.109	422.22
381.489	429.45
381.87	450.47
382.25	437.14
382.63	431.94
383.01	440.75
383.39	445.95
383.77	441.66
384.15	467.19
384.53	450.92
384.91	450.24
385.29	453.41
385.67	488.89
386.049	457.25
386.429	468.55
386.809	471.94
387.189	483.69
387.568	486.4
387.948	466.97
388.328	461.32
388.707	509
389.087	489.11
389.466	502.44
389.846	506.29
390.225	512.61
390.605	515.1
390.984	530.69
391.363	512.61
391.743	538.83
392.122	543.8
392.501	533.4
392.881	536.79
393.26	549.9
393.639	536.12
394.018	554.42
394.397	568.66
394.776	546.96
395.155	550.58
395.534	569.11
395.913	580.86
396.292	574.31
396.671	572.73
397.05	575.21
397.429	597.81
397.808	594.19
398.186	587.41
398.565	605.94
398.944	602.78
399.323	619.96
399.701	611.82
400.08	635.1
400.458	645.27
400.837	630.8
401.215	632.84
401.594	637.36
401.972	656.11
402.351	657.02
402.729	678.48
403.107	660.18
403.486	692.5
403.864	700.86
404.242	700.86
404.62	707.41
404.999	717.58
405.377	720.52
405.755	728.88
406.133	723.23
406.511	739.27
406.889	732.95
407.267	750.12
407.645	765.49
408.023	766.84
408.401	774.75
408.779	778.6
409.156	790.35
409.534	807.97
409.912	788.76
410.29	812.94
410.667	847.52
411.045	837.35
411.422	822.44
411.8	871.93
412.178	851.14
412.555	867.63
412.933	901.53
413.31	895.65
413.687	912.6
414.065	914.86
414.442	930.23
414.819	924.81
415.197	960.74
415.574	944.24
415.951	962.55
416.328	987.4
416.705	984.47
417.082	970.68
417.46	1012.71
417.837	1002.09
418.214	1021.53
418.591	999.15
418.967	1020.17
419.344	1020.62
419.721	1053.39
420.098	1064.24
420.475	1064.01
420.852	1091.81
421.228	1100.17
421.605	1089.77
421.982	1105.14
422.358	1096.1
422.735	1141.75
423.111	1168.19
423.488	1130.45
423.864	1153.27
424.241	1177.45
424.617	1187.17
424.994	1187.62
425.37	1221.97
425.746	1206.15
426.123	1213.84
426.499	1260.16
426.875	1223.33
427.251	1287.96
427.627	1300.16
428.003	1300.16
428.379	1325.25
428.756	1348.52
429.132	1325.47
429.507	1365.47
429.883	1362.99
430.259	1416.09
430.635	1431.23
431.011	1460.61
431.387	1449.09
431.763	1457.9
432.138	1494.73
432.514	1535.41
432.89	1532.25
433.265	1564.56
433.641	1576.09
434.016	1556.88
434.392	1572.25
434.767	1639.82
435.143	1621.51
435.518	1660.38
435.894	1657.89
436.269	1698.35
436.644	1705.35
437.02	1725.46
437.395	1742.19
437.77	1757.55
438.145	1792.81
438.52	1784.44
438.895	1842.3
439.271	1831.68
439.646	1895.4
440.021	1894.05
440.395	1881.17
440.77	1857.44
441.145	1929.07
441.52	1945.34
441.895	1965
442.27	1942.18
442.645	1982.63
443.019	1997.09
443.394	1984.89
443.769	2049.07
444.143	2035.51
444.518	2076.19
444.892	2058.79
445.267	2079.58
445.641	2106.47
446.016	2125.23
446.39	2100.59
446.764	2128.39
447.139	2147.82
447.513	2199.12
447.887	2182.63
448.262	2172.68
448.636	2198.45
449.01	2263.75
449.384	2226.92
449.758	2313.02
450.132	2314.83
450.506	2353.7
450.88	2322.28
451.254	2343.75
451.628	2401.83
452.002	2392.11
452.376	2407.03
452.75	2453.13
453.123	2460.13
453.497	2505.33
453.871	2534.93
454.244	2586.01
454.618	2603.41
454.992	2636.85
455.365	2653.35
455.739	2667.36
456.112	2727.02
456.486	2759.56
456.859	2739
457.232	2781.03
457.606	2785.32
457.979	2826.23
458.352	2894.25
458.725	2907.13
459.099	2908.03
459.472	3017.63
459.845	3022.38
460.218	3022.83
460.591	3065.99
460.964	3068.03
461.337	3195.93
461.71	3198.19
462.083	3223.73
462.456	3252.88
462.829	3264.86
463.201	3325.2
463.574	3309.15
463.947	3376.27
464.32	3458.52
464.692	3445.64
465.065	3501.46
465.438	3562.02
465.81	3571.74
466.183	3645.86
466.555	3702.13
466.928	3717.05
467.3	3702.36
467.672	3808.57
468.045	3870.94
468.417	3849.25
468.789	3931.51
469.161	3995.23
469.534	4022.35
469.906	4108.45
470.278	4083.14
470.65	4160.2
471.022	4256.24
471.394	4346.19
471.766	4337.15
472.138	4446.07
472.51	4511.83
472.882	4568.33
473.253	4601.77
473.625	4675.44
473.997	4798.83
474.369	4837.92
474.74	4876.57
475.112	4980.29
475.484	5041.53
475.855	5099.61
476.227	5141.19
476.598	5319.04
476.97	5393.16
477.341	5454.18
477.713	5534.63
478.084	5524.91
478.455	5741.85
478.827	5794.51
479.198	5940.49
479.569	5953.15
479.94	6130.55
480.311	6183.2
480.682	6248.96
481.053	6450.08
481.424	6594.26
481.795	6597.65
482.166	6697.54
482.537	6793.13
482.908	6961.94
483.279	6974.82
483.65	7153.79
484.021	7267.69
484.391	7361.47
484.762	7416.61
485.133	7509.04
485.503	7591.75
485.874	7723.95
486.244	7865.19
486.615	7979.54
486.985	8046.65
487.356	8207.33
487.726	8261.11
488.097	8474.44
488.467	8473.76
488.837	8688.22
489.207	8771.15
489.578	8927.31
489.948	9014.54
490.318	9096.79
490.688	9144.48
491.058	9270.12
491.428	9414.53
491.798	9546.27
492.168	9711.47
492.538	9764.8
492.908	9858.36
493.278	9969.31
493.648	9970.44
494.017	10106.26
494.387	10273.49
494.757	10245.47
495.126	10498.57
495.496	10512.12
495.866	10588.51
496.235	10676.41
496.605	10754.15
496.974	10837.09
497.344	10973.81
497.713	11017.2
498.082	11125.89
498.452	11193.46
498.821	11262.16
499.19	11297.41
499.559	11427.35
499.928	11573.79
500.298	11602.04
500.667	11713.9
501.036	11677.52
501.405	11847
501.774	11902.82
502.143	12025.08
502.512	11987.34
502.88	12192.31
503.249	12211.52
503.618	12334.45
503.987	12396.82
504.356	12405.18
504.724	12463.49
505.093	12564.95
505.462	12626.87
505.83	12732.18
506.199	12801.78
506.567	12926.52
506.936	13061.66
507.304	13178.04
507.672	13279.74
508.041	13360.64
508.409	13372.61
508.777	13444.93
509.145	13614.19
509.514	13637.47
509.882	13793.85
510.25	13814.64
510.618	13957.23
510.986	13971.24
511.354	14136.21
511.722	14284.68
512.09	14406.94
512.458	14433.15
512.826	14659.59
513.193	14635.41
513.561	14754.5
513.929	14828.17
514.297	14975.74
514.664	15092.34
515.032	15142.96
515.4	15281.04
515.767	15348.83
516.135	15482.16
516.502	15458.66
516.869	15775.04
517.237	15763.51
517.604	15837.18
517.972	16013.9
518.339	16069.27
518.706	16107.68
519.073	16275.36
519.44	16335.02
519.808	16482.36
520.175	16582.47
520.542	16786.31
520.909	16860.21
521.276	17039.18
521.643	17174.55
522.009	17313.75
522.376	17404.6
522.743	17620.41
523.11	17736.57
523.477	17831.93
523.843	18008.2
524.21	18167.74
524.577	18313.5
524.943	18356.89
525.31	18556.43
525.676	18708.29
526.043	18803.66
526.409	18787.39
526.776	19100.15
527.142	19101.96
527.508	19345.34
527.874	19367.49
528.241	19509.63
528.607	19668.27
528.973	19875.95
529.339	19871.65
529.705	20110.97
530.071	20175.37
530.437	20379.66
530.803	20501.24
531.169	20528.81
531.535	20534.23
531.901	20653.78
532.267	20760.89
532.632	20910.72
532.998	20981.23
533.364	21134.67
533.73	21228.91
534.095	21315.68
534.461	21380.99
534.826	21507.09
535.192	21671.61
535.557	21767.2
535.923	21841.77
536.288	21939.17
536.653	22046.06
537.019	21853.3
537.384	22058.49
537.749	22176.22
538.114	22366.5
538.479	22378.93
538.845	22543.22
539.21	22528.08
539.575	22593.16
539.94	22633.16
540.305	22918.35
540.67	22827.28
541.034	22988.41
541.399	23094.84
541.764	23081.74
542.129	23279.7
542.494	23365.12
542.858	23371.22
543.223	23379.81
543.587	23666.81
543.952	23575.96
544.316	23738.9
544.681	23661.61
545.045	23800.14
545.41	23958.1
545.774	24068.38
546.138	24090.3
546.503	24077.42
546.867	24269.5
547.231	24496.62
547.595	24475.15
547.959	24687.12
548.324	24720.79
548.688	24695.25
549.052	24824.52
549.416	24882.59
549.779	24906.77
550.143	25000.11
550.507	25324.39
550.871	25274.45
551.235	25288.01
551.599	25448
551.962	25449.59
552.326	25651.84
552.689	25720.54
553.053	25761.44
553.417	25885.28
553.78	26215.21
554.143	26190.81
554.507	26226.06
554.87	26273.07
555.234	26602.1
555.597	26519.39
555.96	26665.37
556.323	26835.31
556.686	26791.92
557.05	27022.43
557.413	27029.2
557.776	27102.42
558.139	27328.18
558.502	27358.01
558.865	27591.68
559.228	27738.34
559.59	27780.15
559.953	27766.13
560.316	28205.67
560.679	28148.72
561.041	28348.04
561.404	28393.01
561.767	28609.05
562.129	28513.91
562.492	28835.26
562.854	28907.57
563.217	29053.56
563.579	29148.92
563.941	29279.54
564.304	29421.01
564.666	29611.28
565.028	29607.67
565.39	29849.92
565.753	29966.53
566.115	30109.58
566.477	30141.21
566.839	30284.03
567.201	30544.37
567.563	30503.46
567.925	30720.86
568.287	30675.21
568.648	30704.81
569.01	31052.38
569.372	31122.43
569.734	31141.41
570.095	31307.06
570.457	31428.86
570.819	31465.47
571.18	31612.13
571.542	31712.47
571.903	31706.14
572.265	31924.44
572.626	31977.32
572.987	31973.26
573.349	32196.98
573.71	32323.08
574.071	32342.74
574.432	32384.77
574.794	32587.25
575.155	32539.12
575.516	32519.91
575.877	32749.51
576.238	32844.42
576.599	32966.9
576.96	32995.38
577.32	33003.96
577.681	33036.73
578.042	33134.58
578.403	33131.19
578.763	33152.89
579.124	33248.25
579.485	33250.74
579.845	33415.25
580.206	33387
580.566	33372.54
580.927	33272.2
581.287	33457.06
581.648	33326.89
582.008	33747.45
582.368	33480.33
582.728	33618.18
583.089	33575.25
583.449	33565.08
583.809	33777.95
584.169	33771.4
584.529	33623.38
584.889	33933.88
585.249	33702.93
585.609	33675.58
585.969	33940.66
586.329	33959.42
586.688	33796.94
587.048	33878.06
587.408	33819.31
587.768	33755.13
588.127	33788.8
588.487	33727.56
588.846	34033.54
589.206	33844.39
589.565	33856.14
589.925	33954.45
590.284	33922.36
590.643	33999.19
591.003	34000.32
591.362	33983.37
591.721	33884.84
592.08	33981.34
592.44	33951.51
592.799	33970.04
593.158	33928.23
593.517	33996.03
593.876	33968.23
594.235	33970.72
594.593	33964.39
594.952	34099.53
595.311	33975.46
595.67	34058.85
596.029	34254.1
596.387	34260.65
596.746	34320.31
597.104	34226.76
597.463	34214.33
597.822	34522.79
598.18	34149.24
598.538	34210.71
598.897	34525.28
599.255	34186.08
599.613	34483.47
599.972	34477.6
600.33	34523.92
600.688	34281.67
601.046	34492.29
601.404	34675.33
601.762	34361.44
602.12	34626.74
602.478	34703.13
602.836	34685.27
603.194	34449.8
603.552	34704.48
603.91	34455.45
604.268	34725.27
604.625	34628.78
604.983	34729.57
605.341	34557.37
605.698	34805.72
606.056	34933.4
606.413	34759.62
606.771	34969.56
607.128	34913.07
607.485	34748.1
607.843	34945.61
608.2	35064.47
608.557	35263.34
608.914	35023.8
609.272	35188.09
609.629	35178.82
609.986	35467.63
610.343	35139.95
610.7	35427.85
611.057	35251.59
611.414	35428.08
611.771	35299.5
612.127	35333.84
612.484	35528.19
612.841	35499.26
613.198	35394.41
613.554	35435.54
613.911	35624.23
614.267	35693.61
614.624	35661.07
614.98	35603.44
615.337	35756.43
615.693	35631.46
616.05	35730.44
616.406	36026.03
616.762	35795.08
617.118	35905.58
617.475	35869.2
617.831	35969.53
618.187	36091.79
618.543	36008.4
618.899	36229.87
619.255	36152.81
619.611	36205.46
619.967	36109.64
620.323	36362.07
620.678	36018.8
621.034	35998.46
621.39	36090.66
621.746	36060.61
622.101	36377.21
622.457	36125.01
622.812	36299.47
623.168	36407.04
623.523	36348.51
623.879	36496.53
624.234	36343.99
624.589	36526.81
624.945	36432.12
625.3	36460.37
625.655	36427.38
626.01	36391.22
626.365	36438.67
626.72	36422.86
627.075	36493.81
627.43	36352.35
627.785	36223.09
628.14	36320.26
628.495	36429.18
628.85	36346.93
629.205	36204.33
629.559	36480.03
629.914	36362.29
630.269	36346.93
630.623	36273.03
630.978	36126.37
631.332	36213.37
631.687	36178.34
632.041	35990.55
632.396	35977.9
632.75	35924.56
633.104	36110.77
633.459	35642.76
633.813	35819.26
634.167	35805.02
634.521	35908.97
634.875	35770.22
635.229	35650.9
635.583	35483.67
635.937	35487.29
636.291	35533.39
636.645	35645.48
636.999	35506.5
637.352	35547.62
637.706	35439.83
638.06	35507.4
638.413	35410.45
638.767	35356.67
639.121	35435.99
639.474	35072.61
639.828	35093.4
640.181	35308.76
640.534	35150.8
640.888	34953.52
641.241	34980.41
641.594	34835.55
641.947	34935.21
642.301	34958.49
642.654	35033.74
643.007	34777.25
643.36	34881.65
643.713	34666.52
644.066	34797.59
644.419	34552.17
644.771	34287.09
645.124	33785.86
645.477	33848.01
645.83	33685.3
646.182	33573.44
646.535	33524.4
646.888	33480.56
647.24	33544.97
647.593	33686.88
647.945	33479.88
648.298	33423.61
648.65	33374.57
649.002	33243.5
649.355	33422.48
649.707	33290.51
650.059	33263.39
650.411	33711.29
650.763	33751.97
651.115	34118.28
651.467	33952.19
651.819	34045.52
652.171	33996.25
652.523	33866.31
652.875	33874
653.227	33672.19
653.578	33898.85
653.93	33748.58
654.282	33585.87
654.633	33515.36
654.985	33674
655.337	33674.68
655.688	33738.41
656.039	33659.76
656.391	33426.32
656.742	33652.31
657.094	33552.65
657.445	33676.71
657.796	33558.75
658.147	33451.18
658.498	33424.52
658.849	33531.41
659.2	33491.41
659.551	33247.12
659.902	33536.15
660.253	33290.28
660.604	33374.12
660.955	33244.63
661.306	33224.75
661.656	33206.44
662.007	33277.63
662.358	33198.76
662.708	33275.82
663.059	33106.56
663.409	32799.67
663.76	33237.63
664.11	33072.21
664.461	33196.5
664.811	33070.63
665.161	33073.79
665.511	32889.84
665.862	33013.91
666.212	33150.17
666.562	33018.43
666.912	32900.69
667.262	32914.93
667.612	32926.22
667.962	32842.84
668.312	32701.37
668.662	33066.11
669.011	32827.92
669.361	32863.18
669.711	32843.29
670.06	32750.86
670.41	32719.68
670.76	32797.41
671.109	32908.37
671.459	32785.21
671.808	32726.68
672.157	32807.58
672.507	32652.79
672.856	32518.1
673.205	32602.62
673.554	32595.84
673.904	32389.06
674.253	32613.01
674.602	32427.25
674.951	31963.54
675.3	31922.64
675.649	32261.61
675.998	32327.37
676.346	32258.22
676.695	32266.13
677.044	32145.45
677.393	32073.59
677.741	32242.85
678.09	32062.97
678.438	31994.72
678.787	31953.59
679.135	32059.13
679.484	31906.14
679.832	32009.41
680.181	31906.82
680.529	31931.9
680.877	31842.41
681.225	31864.78
681.573	32039.02
681.922	31653.72
682.27	31734.17
682.618	31641.29
682.966	31690.55
683.314	31838.34
683.661	31559.25
684.009	31475.87
684.357	31422.31
684.705	31544.57
685.053	31460.5
685.4	31282.88
685.748	31095.31
686.095	31183.9
686.443	31107.74
686.79	31018.48
687.138	31125.37
687.485	30903.23
687.832	30809.44
688.18	30882.66
688.527	30796.56
688.874	30573.52
689.221	30545.95
689.568	30486.51
689.915	30319.97
690.262	30346.63
690.609	30351.38
690.956	30258.27
691.303	30173.3
691.65	30068.22
691.997	30180.99
692.344	29861.45
692.69	29785.74
693.037	29970.82
693.383	29690.38
693.73	29787.1
694.077	29454.68
694.423	29617.61
694.769	29394.57
695.116	29523.83
695.462	29497.61
695.808	29339.2
696.155	29368.13
696.501	29118.19
696.847	29119.55
697.193	28897.18
697.539	29066.21
697.885	28877.74
698.231	28812.66
698.577	28739.22
698.923	28611.31
699.269	28578.77
699.614	28475.95
699.96	28304.2
700.306	28430.3
700.651	28221.49
700.997	28153.47
701.342	28189.4
701.688	27960.71
702.033	27951.67
702.379	27929.75
702.724	27804.33
703.069	27814.04
703.415	27577.21
703.76	27480.04
704.105	27588.51
704.45	27452.7
704.795	27272.81
705.14	27186.94
705.485	27249.31
705.83	27089.32
706.175	27024.46
706.52	26950.34
706.865	26912.82
707.209	26860.4
707.554	26721.64
707.899	26744.24
708.243	26692.04
708.588	26653.85
708.932	26433.51
709.277	26443.46
709.621	26415.66
709.966	26294.99
710.31	26497.69
710.654	26125.05
710.998	26230.58
711.342	26320.3
711.687	26087.31
712.031	26078.04
712.375	25924.37
712.719	25971.83
713.063	25946.75
713.407	26005.95
713.75	25834.89
714.094	25850.25
714.438	25667.66
714.782	25783.59
715.125	25543.14
715.469	25608.68
715.812	25445.29
716.156	25325.29
716.499	25236.03
716.843	25311.28
717.186	25211.4
717.53	25315.58
717.873	25306.76
718.216	25173.43
718.559	25183.6
718.902	24870.84
719.246	24956.26
719.589	24812.99
719.932	24804.63
720.275	24754.24
720.617	24780.9
720.96	24821.13
721.303	24691.19
721.646	24709.94
721.989	24596.05
722.331	24595.6
722.674	24691.41
723.016	24691.41
723.359	24489.84
723.701	24597.18
724.044	24413
724.386	24342.95
724.729	24485.99
725.071	24330.52
725.413	24265.44
725.755	24297.98
726.097	24115.38
726.439	24009.4
726.782	24017.98
727.124	24213.91
727.465	24020.7
727.807	23958.55
728.149	23897.08
728.491	23938.89
728.833	23946.57
729.175	23735.28
729.516	23754.26
729.858	23701.61
730.199	23737.54
730.541	23699.12
730.882	23700.93
731.224	23650.99
731.565	23579.8
731.906	23464.1
732.248	23563.98
732.589	23481.5
732.93	23367.15
733.271	23287.83
733.612	23332.58
733.953	23331.9
734.294	23215.29
734.635	23256.2
734.976	23288.29
735.317	23065.24
735.658	23042.87
735.999	23074.51
736.339	23154.73
736.68	23204.67
737.021	23025.47
737.361	22969.65
737.702	23072.7
738.042	22895.98
738.383	22861.4
738.723	22970.78
739.063	22759.49
739.404	22993.15
739.744	22911.57
740.084	22662.09
740.424	22775.98
740.764	22658.25
741.104	22710.45
741.444	22613.5
741.784	22542.77
742.124	22624.8
742.464	22508.87
742.804	22467.52
743.143	22507.29
743.483	22413.28
743.823	22393.39
744.162	22348.65
744.502	22430.68
744.841	22383.68
745.181	22362.66
745.52	22330.35
745.86	22310.46
746.199	22205.15
746.538	22293.51
746.877	22201.53
747.216	22135.77
747.556	22088.09
747.895	22098.49
748.234	21932.62
748.573	21836.57
748.911	21901.88
749.25	21834.09
749.589	21751.83
749.928	21698.05
750.267	21690.36
750.605	21668.44
750.944	21524.94
751.283	21553.64
751.621	21526.52
751.96	21401.1
752.298	21454.89
752.636	21382.8
752.975	21300.99
753.313	21213.31
753.651	21399.75
753.989	21119.98
754.327	21172.64
754.666	21097.38
755.004	21107.78
755.342	21069.14
755.679	21016.03
756.017	20914.79
756.355	20951.62
756.693	20831.85
757.031	20841.57
757.368	20670.5
757.706	20755.92
758.044	20578.53
758.381	20648.81
758.719	20472.77
759.056	20483.39
759.394	20438.64
759.731	20212.43
760.068	20242.04
760.405	20194.81
760.743	20069.61
761.08	20142.83
761.417	20057.86
761.754	20015.6
762.091	19988.94
762.428	19936.51
762.765	19760.7
763.102	19873.23
763.438	19724.09
763.775	19597.99
764.112	19659.23
764.449	19674.37
764.785	19564.09
765.122	19475.96
765.458	19344.89
765.795	19250.43
766.131	19405.68
766.467	19189.64
766.804	19099.47
767.14	19059.7
767.476	19088.62
767.812	18951
768.148	18935.86
768.485	18752.59
768.821	18684.11
769.157	18622.42
769.492	18653.61
769.828	18719.14
770.164	18460.39
770.5	18479.37
770.836	18527.28
771.171	18308.98
771.507	18205.71
771.842	18009.33
772.178	18116.9
772.513	18207.97
772.849	18117.35
773.184	18010.23
773.519	18009.1
773.855	17796.23
774.19	17828.99
774.525	17706.29
774.86	17647.53
775.195	17604.14
775.53	17507.2
775.865	17423.81
776.2	17376.35
776.535	17199.18
776.87	17222
777.205	17162.12
777.539	17079.86
777.874	17108.34
778.209	16923.03
778.543	16929.13
778.878	16734.56
779.212	16806.2
779.547	16825.63
779.881	16721.23
780.215	16638.07
780.55	16739.76
780.884	16500.67
781.218	16524.4
781.552	16502.48
781.886	16340.22
782.22	16248.47
782.554	16186.78
782.888	16024.97
783.222	15983.17
783.556	15941.59
783.889	15918.76
784.223	15846
784.557	15808.71
784.89	15818.65
785.224	15704.53
785.557	15638.32
785.891	15619.56
786.224	15592.67
786.558	15587.47
786.891	15391.09
787.224	15372.79
787.557	15383.86
787.891	15348.16
788.224	15358.1
788.557	15226.35
788.89	15144.32
789.223	15165.11
789.556	15105.22
789.888	15058.22
790.221	14998.56
790.554	14769.19
790.887	14813.71
791.219	14861.39
791.552	14790.66
791.884	14708.17
792.217	14650.1
792.549	14622.3
792.882	14515.64
793.214	14464.34
793.546	14491
793.879	14380.72
794.211	14340.5
794.543	14288.07
794.875	14222.54
795.207	14269.77
795.539	14248.3
795.871	14168.75
796.203	14110.67
796.535	13997.68
796.867	13918.14
797.198	13963.56
797.53	13898.02
797.862	13785.03
798.193	13782.55
798.525	13682.44
798.856	13711.36
799.188	13582.55
799.519	13518.83
799.85	13427.53
800.182	13486.96
800.513	13423.69
800.844	13337.59
801.175	13466.85
801.506	13359.51
801.837	13232.51
802.168	13246.06
802.499	13152.73
802.83	13208.55
803.161	13098.27
803.491	13101.89
803.822	13096.69
804.153	13036.58
804.483	12939.86
804.814	12860.31
805.145	12946.19
805.475	12893.76
805.805	12832.52
806.136	12828.9
806.466	12783.93
806.796	12788.68
807.126	12649.47
807.457	12654.22
807.787	12577.38
808.117	12567.21
808.447	12548
808.777	12535.57
809.107	12464.84
809.436	12464.39
809.766	12392.98
810.096	12336.26
810.426	12320.44
810.755	12304.39
811.085	12324.73
811.414	12291.29
811.744	12190.05
812.073	12190.72
812.403	12087.22
812.732	12070.95
813.061	11998.87
813.39	11980.33
813.719	11980.56
814.049	12000
814.378	12010.39
814.707	11865.76
815.036	11884.52
815.365	11821.02
815.693	11732.88
816.022	11747.57
816.351	11745.31
816.68	11586.45
817.008	11676.61
817.337	11598.42
817.665	11537.41
817.994	11656.95
818.322	11548.71
818.651	11572.66
818.979	11484.3
819.307	11503.06
819.636	11426.68
819.964	11457.41
820.292	11442.04
820.62	11427.58
820.948	11408.37
821.276	11460.12
821.604	11414.93
821.932	11412.44
822.259	11500.8
822.587	11468.03
822.915	11376.28
823.243	11538.09
823.57	11390.97
823.898	11462.61
824.225	11382.16
824.553	11363.18
824.88	11358.88
825.207	11485.43
825.535	11314.36
825.862	11382.61
826.189	11389.39
826.516	11439.11
826.843	11379.9
827.17	11335.38
827.497	11397.07
827.824	11421.48
828.151	11404.53
828.478	11431.87
828.805	11411.54
829.131	11439.11
829.458	11432.78
829.785	11261.26
830.111	11302.16
830.438	11424.42
830.764	11339
831.09	11353.68
831.417	11257.42
831.743	11333.12
832.069	11304.19
832.395	11270.75
832.722	11299.9
833.048	11343.06
833.374	11277.98
833.7	11242.5
834.026	11294.93
834.351	11189.85
834.677	11200.47
835.003	11266.91
835.329	11204.08
835.654	11186.46
835.98	11152.56
836.306	11166.8
836.631	11121.37
836.956	11099.91
837.282	11137.65
837.607	11063.3
837.932	11053.13
838.258	11065.78
838.583	11073.69
838.908	11013.35
839.233	11094.03
839.558	11015.39
839.883	11003.19
840.208	10929.29
840.533	11002.51
840.858	10981.26
841.182	11000.47
841.507	10942.4
841.832	10826.24
842.156	10964.54
842.481	10873.47
842.805	10869.63
843.13	10849.29
843.454	10819.24
843.778	10739.46
844.103	10752.8
844.427	10663.31
844.751	10725.68
845.075	10712.57
845.399	10611.11
845.723	10583.99
846.047	10536.08
846.371	10526.36
846.695	10544.21
847.019	10389.42
847.343	10368.17
847.666	10336.08
847.99	10250.66
848.313	10199.59
848.637	10256.76
848.96	10201.17
849.284	10178.8
849.607	10108.75
849.931	9990.56
850.254	10017.22
850.577	9910.11
850.9	9846.38
851.223	9865.14
851.546	9841.86
851.869	9731.35
852.192	9755.08
852.515	9671.24
852.838	9634.18
853.161	9617.91
853.483	9617.01
853.806	9544.47
854.129	9573.62
854.451	9530
854.774	9432.15
855.096	9434.19
855.419	9419.27
855.741	9390.12
856.063	9372.95
856.385	9381.31
856.708	9316.9
857.03	9288.2
857.352	9337.69
857.674	9219.73
857.996	9220.41
858.318	9238.26
858.64	9142.22
858.961	9214.76
859.283	9066.96
859.605	9156.45
859.926	9158.49
860.248	9055.67
860.57	9077.59
860.891	9105.83
861.212	8954.2
861.534	8994.65
861.855	8949
862.176	9025.38
862.498	8989
862.819	8965.95
863.14	8921.43
863.461	8906.29
863.782	8868.78
864.103	8896.12
864.424	8816.58
864.745	8878.27
865.065	8762.57
865.386	8740.87
865.707	8765.05
866.027	8778.16
866.348	8706.07
866.668	8702.68
866.989	8671.04
867.309	8649.57
867.63	8678.27
867.95	8642.12
868.27	8640.31
868.59	8658.39
868.91	8601.67
869.23	8620.88
869.55	8554.44
869.87	8569.8
870.19	8547.88
870.51	8531.61
870.83	8561.44
871.15	8457.04
871.469	8476.7
871.789	8519.86
872.109	8450.48
872.428	8435.57
872.748	8485.74
873.067	8424.27
873.386	8418.17
873.706	8403.25
874.025	8329.58
874.344	8400.99
874.663	8400.54
874.982	8348.11
875.301	8392.63
875.62	8279.42
875.939	8290.49
876.258	8303.37
876.577	8255.91
876.896	8262.92
877.214	8233.09
877.533	8243.48
877.852	8176.59
878.17	8184.05
878.489	8217.27
878.807	8172.75
879.125	8141.79
879.444	8141.11
879.762	8168.46
880.08	8088.23
880.398	8095.24
880.716	8064.05
881.034	8039.65
881.352	8003.26
881.67	8078.74
881.988	8052.98
882.306	8068.12
882.624	8044.84
882.941	7958.75
883.259	7940.21
883.577	7930.05
883.894	7902.02
884.212	7910.39
884.529	7915.81
884.846	7900.67
885.164	7865.64
885.481	7831.07
885.798	7846.66
886.115	7785.19
886.432	7766.21
886.75	7748.58
887.067	7793.78
887.383	7704.29
887.7	7718.98
888.017	7669.94
888.334	7726.89
888.651	7631.97
888.967	7626.1
889.284	7663.61
889.6	7555.37
889.917	7521.24
890.233	7555.82
890.55	7468.59
890.866	7485.99
891.182	7470.85
891.498	7523.5
891.815	7418.42
892.131	7390.85
892.447	7382.49
892.763	7340.46
893.079	7359.67
893.395	7301.59
893.71	7306.33
894.026	7302.27
894.342	7200.57
894.657	7184.98
894.973	7224.98
895.289	7256.62
895.604	7136.62
895.92	7158.09
896.235	7142.27
896.55	7142.5
896.865	7087.58
897.181	7098.66
897.496	7036.06
897.811	7033.35
898.126	6961.94
898.441	6949.51
898.756	6901.6
899.071	6954.25
899.386	6930.75
899.7	6810.3
900.015	6819.57
900.33	6781.6
900.644	6817.98
900.959	6767.59
901.273	6727.59
901.588	6756.07
901.902	6672.68
902.216	6654.15
902.531	6700.7
902.845	6641.04
903.159	6624.77
903.473	6576.41
903.787	6596.75
904.101	6554.04
904.415	6486.24
904.729	6485.56
905.042	6465.9
905.356	6450.99
905.67	6472.23
905.984	6455.28
906.297	6410.76
906.611	6333.7
906.924	6341.39
907.237	6337.32
907.551	6261.84
907.864	6307.94
908.177	6264.78
908.491	6196.31
908.804	6236.98
909.117	6179.36
909.43	6153.6
909.743	6087.83
910.056	6107.27
910.368	6092.35
910.681	6049.87
910.994	5999.93
911.307	5992.24
911.619	5925.13
911.932	5975.29
912.244	5935.52
912.557	5914.05
912.869	5860.72
913.181	5834.73
913.494	5844.45
913.806	5848.74
914.118	5791.12
914.43	5766.49
914.742	5798.58
915.054	5718.8
915.366	5647.17
915.678	5657.11
915.99	5632.71
916.302	5552.03
916.613	5579.83
916.925	5590.9
917.236	5509.09
917.548	5504.35
917.859	5561.52
918.171	5489.21
918.482	5442.43
918.794	5438.59
919.105	5369.89
919.416	5355.42
919.727	5367.63
920.038	5351.13
920.349	5334.41
920.66	5254.64
920.971	5266.39
921.282	5265.03
921.593	5230
921.903	5207.41
922.214	5217.8
922.525	5167.63
922.835	5158.37
923.146	5100.52
923.456	5103.91
923.767	5098.71
924.077	5037.92
924.387	5036.56
924.697	5003.12
925.008	4999.5
925.318	4988.65
925.628	4969.67
925.938	4987.75
926.248	4930.12
926.558	4900.97
926.867	4837.47
927.177	4856
927.487	4831.37
927.796	4834.76
928.106	4826.17
928.416	4759.28
928.725	4814.42
929.034	4715.89
929.344	4712.5
929.653	4732.16
929.962	4702.33
930.271	4706.63
930.581	4640.64
930.89	4619.62
931.199	4590.47
931.508	4570.36
931.817	4531.72
932.125	4568.78
932.434	4545.73
932.743	4470.7
933.051	4451.49
933.36	4440.42
933.669	4378.73
933.977	4406.07
934.286	4391.16
934.594	4441.32
934.902	4346.86
935.21	4342.12
935.519	4382.12
935.827	4345.51
936.135	4278.84
936.443	4189.13
936.751	4238.84
937.059	4214.89
937.367	4249.46
937.674	4231.61
937.982	4198.62
938.29	4215.12
938.597	4183.93
938.905	4112.74
939.213	4146.42
939.52	4074.33
939.827	4113.42
940.135	4080.2
940.442	4012.18
940.749	4038.85
941.056	4046.31
941.363	4026.19
941.67	4007.89
941.977	3963.37
942.284	3996.59
942.591	3941.45
942.898	3953.2
943.205	3910.26
943.511	3881.34
943.818	3902.36
944.125	3851.73
944.431	3853.32
944.738	3825.29
945.044	3822.58
945.35	3873.88
945.657	3781
945.963	3774.22
946.269	3735.58
946.575	3759.08
946.881	3735.13
947.187	3688.58
947.493	3726.77
947.799	3711.4
948.105	3648.58
948.41	3626.2
948.716	3630.27
949.022	3638.86
949.327	3667.56
949.633	3576.49
949.938	3567.22
950.244	3569.93
950.549	3540.78
950.854	3547.56
951.16	3527.45
951.465	3510.5
951.77	3501.91
952.075	3480.22
952.38	3454.68
952.685	3462.37
952.99	3446.1
953.294	3381.24
953.599	3403.84
953.904	3390.96
954.209	3370.84
954.513	3345.08
954.818	3348.25
955.122	3344.63
955.426	3351.41
955.731	3292.2
956.035	3304.86
956.339	3282.48
956.643	3242.03
956.948	3280.68
957.252	3249.49
957.556	3214.92
957.86	3209.27
958.163	3191.64
958.467	3155.48
958.771	3167.01
959.075	3136.27
959.378	3131.3
959.682	3074.81
959.985	3117.74
960.289	3076.61
960.592	3053.34
960.896	3062.83
961.199	3083.62
961.502	3081.13
961.805	3018.54
962.108	2971.53
962.411	2995.49
962.714	2957.52
963.017	2953.23
963.32	2979.22
963.623	2970.85
963.926	2932.66
964.228	2942.15
964.531	2915.04
964.833	2942.15
965.136	2885.43
965.438	2880.91
965.741	2861.93
966.043	2828.48
966.345	2860.35
966.648	2848.15
966.95	2828.71
967.252	2820.35
967.554	2782.84
967.856	2786
968.158	2789.16
968.46	2805.66
968.761	2746.45
969.063	2763.85
969.365	2730.63
969.666	2710.07
969.968	2702.61
970.269	2670.3
970.571	2685.66
970.872	2669.17
971.174	2678.88
971.475	2651.54
971.776	2615.16
972.077	2597.08
972.378	2627.36
972.679	2619.9
972.98	2596.63
973.281	2590.3
973.582	2565.44
973.883	2557.76
974.183	2565.89
974.484	2523.86
974.785	2546.23
975.085	2541.03
975.386	2539.23
975.686	2491.54
975.986	2472.11
976.287	2465.56
976.587	2468.72
976.887	2440.7
977.187	2444.99
977.487	2419.68
977.787	2442.73
978.087	2421.72
978.387	2428.5
978.687	2421.94
978.987	2372.45
979.286	2390.98
979.586	2369.97
979.885	2327.48
980.185	2350.76
980.484	2368.16
980.784	2306.24
981.083	2308.05
981.382	2290.19
981.682	2293.13
981.981	2291.32
982.28	2273.25
982.579	2246.81
982.878	2225.79
983.177	2212.91
983.475	2194.83
983.774	2181.27
984.073	2233.25
984.372	2194.38
984.67	2203.42
984.969	2196.19
985.267	2202.74
985.566	2134.94
985.864	2154.83
986.162	2144.89
986.461	2143.31
986.759	2135.4
987.057	2107.37
987.355	2079.8
987.653	2111.22
987.951	2083.19
988.249	2082.06
988.547	2068.96
988.844	2079.58
989.142	2053.36
989.44	2051.78
989.737	2045.23
990.035	2022.86
990.332	2001.39
990.63	2015.17
990.927	2001.61
991.224	2012.46
991.521	1981.73
991.819	2021.27
992.116	1975.63
992.413	1952.12
992.71	1919.81
993.006	1936.76
993.303	1925.23
993.6	1918.9
993.897	1901.5
994.193	1902.41
994.49	1926.36
994.787	1894.5
995.083	1868.06
995.379	1861.5
995.676	1905.57
995.972	1832.13
996.268	1838
996.565	1803.43
996.861	1834.61
997.157	1783.99
997.453	1805.91
997.749	1826.03
998.044	1812.24
998.34	1781.28
998.636	1771.34
998.932	1760.49
999.227	1730.66
999.523	1760.26
999.818	1751
1000.114	1725.46
1000.409	1726.82
1000.704	1711.68
1001	1718.91
1001.295	1712.58
1001.59	1675.29
1001.885	1682.3
1002.18	1673.71
1002.475	1688.18
1002.77	1673.04
1003.065	1659.48
1003.359	1649.76
1003.654	1652.92
1003.949	1638.01
1004.243	1624.67
1004.538	1597.78
1004.832	1619.03
1005.127	1622.41
1005.421	1599.59
1005.715	1562.76
1006.009	1600.04
1006.304	1541.51
1006.598	1521.85
1006.892	1542.87
1007.186	1555.07
1007.48	1506.49
1007.773	1548.97
1008.067	1497.9
1008.361	1520.72
1008.655	1510.33
1008.948	1481.18
1009.242	1472.14
1009.535	1459.48
1009.829	1449.31
1010.122	1457.67
1010.415	1431.01
1010.708	1445.02
1011.001	1429.43
1011.295	1414.96
1011.588	1395.98
1011.881	1385.59
1012.173	1408.86
1012.466	1401.18
1012.759	1372.7
1013.052	1398.01
1013.344	1366.38
1013.637	1390.56
1013.93	1354.4
1014.222	1342.87
1014.514	1340.61
1014.807	1344.23
1015.099	1305.81
1015.391	1324.57
1015.683	1285.47
1015.976	1308.98
1016.268	1302.65
1016.56	1278.92
1016.851	1249.54
1017.143	1266.94
1017.435	1261.52
1017.727	1236.66
1018.018	1240.73
1018.31	1220.17
1018.602	1229.88
1018.893	1207.28
1019.185	1263.78
1019.476	1188.98
1019.767	1217
1020.058	1207.28
1020.35	1177.91
1020.641	1188.53
1020.932	1148.98
1021.223	1156.21
1021.514	1175.42
1021.804	1161.64
1022.095	1149.66
1022.386	1127.06
1022.677	1125.48
1022.967	1119.15
1023.258	1114.63
1023.548	1115.31
1023.839	1100.62
1024.129	1104.69
1024.419	1087.29
1024.709	1097.91
1025	1087.29
1025.29	1072.37
1025.58	1044.13
1025.87	1066.72
1026.16	1047.74
1026.449	1046.61
1026.739	1036.44
1027.029	1048.42
1027.319	1025.82
1027.608	1010.91
1027.898	1043.9
1028.187	994.63
1028.477	1006.61
1028.766	989.21
1029.055	991.02
1029.344	998.02
1029.634	985.82
1029.923	974.97
1030.212	919.61
1030.501	983.79
1030.79	954.86
1031.078	957.12
1031.367	932.04
1031.656	950.34
1031.945	940.4
1032.233	915.31
1032.522	935.2
1032.81	914.86
1033.099	902.89
1033.387	923
1033.675	898.37
1033.963	899.04
1034.251	888.87
1034.54	885.71
1034.828	883.23
1035.116	896.56
1035.403	891.13
1035.691	872.6
1035.979	862.43
1036.267	857.46
1036.554	843.9
1036.842	839.84
1037.129	850.68
1037.417	839.61
1037.704	841.64
1037.992	827.86
1038.279	812.04
1038.566	803.45
1038.853	803.45
1039.14	803.45
