Data from foam1_polythene_foam_FLMS001491_00010.txt Node
Date: Wed Feb 08 10:54:18 GMT 2017
User: dcchb
Spectrometer: FLMS00149
Trigger mode: 0
Integration Time (sec): 2.000000E-2
Scans to average: 10
Electric dark correction enabled: true
Nonlinearity correction enabled: false
Boxcar width: 0
XAxis mode: Wavelengths
Number of Pixels in Spectrum: 2048
>>>>>Begin Spectral Data<<<<<
341.393	0.75
341.776	0.75
342.16	0.75
342.543	-71.57
342.927	-71.79
343.31	-63.88
343.693	-70.66
344.077	-61.17
344.46	-64.11
344.843	-67.72
345.226	-36.54
345.61	-25.92
345.993	-11
346.376	-6.26
346.759	4.36
347.142	22.44
347.525	52.27
347.908	59.73
348.291	71.93
348.674	100.41
349.057	96.11
349.44	117.81
349.823	134.98
350.206	156.9
350.588	185.6
350.971	217.69
351.354	204.81
351.737	222.44
352.119	238.93
352.502	242.78
352.884	244.13
353.267	272.15
353.65	292.04
354.032	270.8
354.414	286.16
354.797	315.77
355.179	302.66
355.562	304.92
355.944	325.94
356.326	316.9
356.709	311.02
357.091	310.12
357.473	321.87
357.855	325.94
358.238	320.51
358.62	325.49
359.002	323.9
359.384	308.09
359.766	323.9
360.148	311.93
360.53	318.93
360.912	327.52
361.294	313.51
361.676	339.95
362.057	331.59
362.439	314.41
362.821	295.43
363.203	308.76
363.584	312.83
363.966	317.8
364.348	318.25
364.729	306.05
365.111	311.47
365.493	309.44
365.874	303.57
366.256	299.95
366.637	294.53
367.019	304.47
367.4	296.11
367.781	293.85
368.163	283
368.544	294.3
368.925	313.06
369.306	312.6
369.688	286.62
370.069	293.85
370.45	281.87
370.831	289.1
371.212	296.56
371.593	297.01
371.974	292.49
372.355	299.27
372.736	271.93
373.117	308.99
373.498	310.8
373.879	288.42
374.26	306.5
374.641	282.1
375.021	290.91
375.402	297.69
375.783	300.63
376.163	302.44
376.544	319.61
376.925	310.8
377.305	322.32
377.686	287.52
378.066	313.51
378.447	306.96
378.827	299.5
379.208	305.15
379.588	319.84
379.968	303.34
380.349	313.73
380.729	324.81
381.109	324.58
381.489	311.02
381.87	299.72
382.25	319.16
382.63	315.99
383.01	333.62
383.39	326.84
383.77	332.72
384.15	332.94
384.53	340.4
384.91	315.09
385.29	314.19
385.67	316.22
386.049	298.59
386.429	318.03
386.809	346.5
387.189	310.12
387.568	329.1
387.948	335.88
388.328	334.07
388.707	328.42
389.087	337.46
389.466	333.85
389.846	328.42
390.225	336.78
390.605	322.1
390.984	314.86
391.363	323
391.743	338.82
392.122	343.79
392.501	330.91
392.881	330.68
393.26	356.45
393.639	303.34
394.018	320.06
394.397	354.41
394.776	351.7
395.155	363.22
395.534	342.66
395.913	351.7
396.292	348.99
396.671	356.45
397.05	367.97
397.429	372.94
397.808	349.89
398.186	352.83
398.565	358.93
398.944	375.43
399.323	348.76
399.701	349.44
400.08	352.83
400.458	376.33
400.837	369.33
401.215	360.51
401.594	360.51
401.972	355.09
402.351	374.75
402.729	373.39
403.107	362.32
403.486	377.01
403.864	367.29
404.242	366.39
404.62	387.86
404.999	378.82
405.377	377.24
405.755	398.48
406.133	376.56
406.511	365.26
406.889	395.31
407.267	399.61
407.645	376.78
408.023	391.7
408.401	374.07
408.779	381.3
409.156	368.65
409.534	386.73
409.912	388.53
410.29	386.05
410.667	420.85
411.045	421.3
411.422	406.61
411.8	424.24
412.178	415.43
412.555	435.09
412.933	417.91
413.31	422.66
413.687	425.6
414.065	447.06
414.442	421.08
414.819	418.59
415.197	407.97
415.574	425.14
415.951	436.22
416.328	440.96
416.705	443.45
417.082	432.38
417.46	431.47
417.837	442.32
418.214	464.47
418.591	451.58
418.967	467.4
419.344	466.5
419.721	456.56
420.098	447.97
420.475	453.62
420.852	454.52
421.228	454.52
421.605	454.97
421.982	473.5
422.358	472.83
422.735	472.83
423.111	453.39
423.488	477.35
423.864	487.52
424.241	472.15
424.617	478.48
424.994	510.79
425.37	475.54
425.746	500.62
426.123	471.92
426.499	494.75
426.875	494.07
427.251	518.02
427.627	503.56
428.003	513.28
428.379	491.58
428.756	535.2
429.132	525.71
429.507	547.85
429.883	551.69
430.259	532.71
430.635	542.43
431.011	549.66
431.387	552.82
431.763	551.24
432.138	548.3
432.514	560.06
432.89	569.55
433.265	592.15
433.641	570.9
434.016	555.76
434.392	589.66
434.767	591.24
435.143	595.31
435.518	581.98
435.894	612.03
436.269	607.96
436.644	614.74
437.02	610.45
437.395	627.4
437.77	626.04
438.145	605.25
438.52	617.46
438.895	624.46
439.271	649.55
439.646	632.82
440.021	655.87
440.395	644.35
440.77	653.39
441.145	659.49
441.52	675.08
441.895	682.31
442.27	675.31
442.645	681.63
443.019	685.93
443.394	692.93
443.769	695.42
444.143	682.76
444.518	703.55
444.892	708.75
445.267	725.02
445.641	746.49
446.016	714.85
446.39	712.37
446.764	737
447.139	737.23
447.513	754.63
447.887	750.11
448.262	762.54
448.636	758.47
449.01	759.37
449.384	760.5
449.758	773.16
450.132	769.99
450.506	788.52
450.88	809.99
451.254	794.4
451.628	786.26
452.002	824.46
452.376	802.54
452.75	804.12
453.123	824.46
453.497	805.02
453.871	813.83
454.244	837.11
454.618	827.85
454.992	849.09
455.365	845.25
455.739	851.57
456.112	860.39
456.486	868.52
456.859	863.32
457.232	847.05
457.606	888.18
457.979	872.36
458.352	880.5
458.725	884.34
459.099	888.63
459.472	896.09
459.845	911.46
460.218	907.39
460.591	920.5
460.964	910.33
461.337	914.17
461.71	932.48
462.083	948.75
462.456	980.61
462.829	942.87
463.201	961.63
463.574	955.75
463.947	966.82
464.32	979.25
464.692	998.01
465.065	1005.02
465.438	995.75
465.81	1015.19
466.183	1027.16
466.555	1027.61
466.928	1026.94
467.3	1022.64
467.672	1050.89
468.045	1034.39
468.417	1049.53
468.789	1052.47
469.161	1090.21
469.534	1097.22
469.906	1130.44
470.278	1109.42
470.65	1114.39
471.022	1121.62
471.394	1155.75
471.766	1129.31
472.138	1155.97
472.51	1179.47
472.882	1190.1
473.253	1195.52
473.625	1228.51
473.997	1216.54
474.369	1229.64
474.74	1247.04
475.112	1278.91
475.484	1278.91
475.855	1284.56
476.227	1281.39
476.598	1318.45
476.97	1329.75
477.341	1360.49
477.713	1363.65
478.084	1371.33
478.455	1403.42
478.827	1403.65
479.198	1476.64
479.569	1429.64
479.94	1486.81
480.311	1475.51
480.682	1512.8
481.053	1541.72
481.424	1531.33
481.795	1583.76
482.166	1583.76
482.537	1589.18
482.908	1634.15
483.279	1642.74
483.65	1669.41
484.021	1698.33
484.391	1703.08
484.762	1737.88
485.133	1742.62
485.503	1783.3
485.874	1776.97
486.244	1801.83
486.615	1809.06
486.985	1831.89
487.356	1885.9
487.726	1872.34
488.097	1899.46
488.467	1942.17
488.837	1961.37
489.207	1975.61
489.578	1974.26
489.948	2006.12
490.318	2055.84
490.688	2059
491.058	2090.41
491.428	2115.27
491.798	2137.87
492.168	2136.74
492.538	2184.42
492.908	2208.37
493.278	2214.48
493.648	2240.01
494.017	2237.75
494.387	2241.59
494.757	2299.45
495.126	2320.91
495.496	2301.25
495.866	2333.34
496.235	2335.38
496.605	2370.63
496.974	2390.29
497.344	2400.91
497.713	2456.73
498.082	2412.44
498.452	2475.49
498.821	2461.02
499.19	2473.68
499.559	2517.97
499.928	2486.78
500.298	2531.08
500.667	2541.25
501.036	2559.33
501.405	2569.72
501.774	2542.15
502.143	2592.32
502.512	2633.45
502.88	2636.39
503.249	2665.09
503.618	2654.69
503.987	2698.08
504.356	2758.64
504.724	2728.13
505.093	2728.81
505.462	2753.67
505.83	2761.13
506.199	2766.33
506.567	2856.27
506.936	2828.02
507.304	2869.6
507.672	2889.26
508.041	2890.16
508.409	2908.69
508.777	2915.25
509.145	2938.3
509.514	2937.39
509.882	2937.62
510.25	3010.39
510.618	3038.41
510.986	3027.79
511.354	3048.8
511.722	3105.75
512.09	3095.13
512.458	3059.2
512.826	3139.42
513.193	3093.55
513.561	3179.42
513.929	3193.43
514.297	3213.32
514.664	3214.22
515.032	3300.55
515.4	3274.11
515.767	3276.59
516.135	3331.51
516.502	3293.09
516.869	3348.23
517.237	3362.69
517.604	3387.55
517.972	3420.55
518.339	3450.38
518.706	3477.49
519.073	3478.85
519.44	3500.77
519.808	3559.53
520.175	3516.59
520.542	3597.04
520.909	3636.59
521.276	3622.12
521.643	3630.48
522.009	3684.04
522.376	3695.11
522.743	3727.2
523.11	3760.2
523.477	3806.07
523.843	3786.41
524.21	3825.05
524.577	3858.73
524.943	3902.34
525.31	3929.23
525.676	3969.91
526.043	4005.16
526.409	4068.44
526.776	4018.27
527.142	4073.86
527.508	4068.21
527.874	4064.6
528.241	4117.48
528.607	4152.05
528.973	4147.31
529.339	4185.72
529.705	4252.39
530.071	4275.44
530.437	4257.59
530.803	4289.9
531.169	4330.8
531.535	4301.43
531.901	4332.84
532.267	4371.48
532.632	4416.68
532.998	4407.19
533.364	4412.61
533.73	4473.4
534.095	4483.57
534.461	4535.77
534.826	4534.41
535.192	4555.66
535.557	4549.1
535.923	4566.28
536.288	4597.01
536.653	4640.85
537.019	4569.22
537.384	4676.78
537.749	4636.11
538.114	4695.09
538.479	4670.91
538.845	4700.29
539.21	4764.24
539.575	4754.07
539.94	4788.87
540.305	4774.41
540.67	4833.62
541.034	4800.85
541.399	4810.57
541.764	4857.8
542.129	4884.69
542.494	4899.83
542.858	4921.3
543.223	4903.44
543.587	4933.73
543.952	4942.31
544.316	4982.09
544.681	4996.32
545.045	5005.14
545.41	5058.02
545.774	5061.18
546.138	5032.71
546.503	5033.84
546.867	5102.99
547.231	5089.43
547.595	5097.11
547.959	5144.57
548.324	5137.11
548.688	5131.01
549.052	5187.73
549.416	5178.92
549.779	5254.17
550.143	5265.02
550.507	5267.28
550.871	5319.25
551.235	5334.62
551.599	5349.76
551.962	5309.76
552.326	5327.61
552.689	5381.62
553.053	5429.31
553.417	5368.74
553.78	5449.87
554.143	5435.18
554.507	5472.92
554.87	5537.55
555.234	5555.18
555.597	5489.87
555.96	5517.89
556.323	5598.12
556.686	5574.39
557.05	5653.26
557.413	5657.32
557.776	5724.67
558.139	5722.18
558.502	5759.02
558.865	5771.44
559.228	5791.78
559.59	5773.03
559.953	5813.48
560.316	5847.6
560.679	5858.9
561.041	5920.82
561.404	5935.96
561.767	5938.67
562.129	5954.04
562.492	5988.16
562.854	6070.19
563.217	6038.33
563.579	6008.95
563.941	6056.86
564.304	6109.06
564.666	6145.67
565.028	6149.51
565.39	6199.91
565.753	6262.5
566.115	6262.5
566.477	6246.91
566.839	6317.64
567.201	6316.97
567.563	6385.67
567.925	6411.43
568.287	6444.65
568.648	6422.73
569.01	6460.92
569.372	6489.39
569.734	6507.92
570.095	6549.5
570.457	6539.11
570.819	6599.45
571.18	6517.41
571.542	6662.27
571.903	6624.98
572.265	6639.9
572.626	6667.47
572.987	6614.36
573.349	6697.07
573.71	6719.89
574.071	6715.6
574.432	6792.43
574.794	6780.23
575.155	6814.81
575.516	6768.03
575.877	6850.06
576.238	6845.09
576.599	6889.61
576.96	6827.46
577.32	6870.17
577.681	6847.8
578.042	6872.43
578.403	6832.66
578.763	6909.27
579.124	6916.27
579.485	6936.84
579.845	6977.97
580.206	6947.01
580.566	6958.98
580.927	6958.08
581.287	7009.6
581.648	6998.08
582.008	7057.74
582.368	6996.72
582.728	7028.13
583.089	7037.17
583.449	7009.83
583.809	6998.76
584.169	7022.48
584.529	7021.58
584.889	7092.09
585.249	7040.79
585.609	7017.74
585.969	7072.88
586.329	7068.13
586.688	7052.31
587.048	7068.59
587.408	7054.8
587.768	7047.79
588.127	7064.52
588.487	6997.17
588.846	7073.1
589.206	7071.07
589.565	7038.08
589.925	7081.47
590.284	7040.34
590.643	7103.61
591.003	7090.96
591.362	7095.7
591.721	7039.21
592.08	7098.64
592.44	7066.78
592.799	7071.98
593.158	7114.46
593.517	7060.68
593.876	7132.09
594.235	7071.98
594.593	7088.25
594.952	7067.91
595.311	7091.41
595.67	7049.6
596.029	7098.87
596.387	7113.56
596.746	7119.21
597.104	7141.13
597.463	7108.58
597.822	7110.39
598.18	7076.72
598.538	7082.6
598.897	7153.55
599.255	7092.77
599.613	7225.64
599.972	7140
600.33	7148.13
600.688	7156.94
601.046	7168.02
601.404	7177.73
601.762	7199.2
602.12	7189.71
602.478	7202.82
602.836	7187
603.194	7111.07
603.552	7186.32
603.91	7175.02
604.268	7208.24
604.625	7183.38
604.983	7183.61
605.341	7155.81
605.698	7237.85
606.056	7229.26
606.413	7211.18
606.771	7244.63
607.128	7287.56
607.485	7241.01
607.843	7273.33
608.2	7236.04
608.557	7302.7
608.914	7269.71
609.272	7250.95
609.629	7311.97
609.986	7343.38
610.343	7255.02
610.7	7309.93
611.057	7342.02
611.414	7344.06
611.771	7322.82
612.127	7343.38
612.484	7391.06
612.841	7376.83
613.198	7299.99
613.554	7383.38
613.911	7412.98
614.267	7323.72
614.624	7373.21
614.98	7325.75
615.337	7422.02
615.693	7361.68
616.05	7360.1
616.406	7458.41
616.762	7372.31
617.118	7333.89
617.475	7391.97
617.831	7387.22
618.187	7412.53
618.543	7403.72
618.899	7467.22
619.255	7527.78
619.611	7432.19
619.967	7445.52
620.323	7470.83
620.678	7383.38
621.034	7460.89
621.39	7402.14
621.746	7396.26
622.101	7458.41
622.457	7445.75
622.812	7412.08
623.168	7479.2
623.523	7460.67
623.879	7517.39
624.234	7418.18
624.589	7546.09
624.945	7451.85
625.3	7471.74
625.655	7467.22
626.01	7449.14
626.365	7461.34
626.72	7374.11
627.075	7392.64
627.43	7374.57
627.785	7445.52
628.14	7373.66
628.495	7452.3
628.85	7439.2
629.205	7431.97
629.559	7419.08
629.914	7399.2
630.269	7383.38
630.623	7390.38
630.978	7391.74
631.332	7354.23
631.687	7315.81
632.041	7305.42
632.396	7349.71
632.75	7270.16
633.104	7354.45
633.459	7201.69
633.813	7247.11
634.167	7317.62
634.521	7314.91
634.875	7309.93
635.229	7252.54
635.583	7237.62
635.937	7229.94
636.291	7215.02
636.645	7265.19
636.999	7146.32
637.352	7216.6
637.706	7183.16
638.06	7203.95
638.413	7118.08
638.767	7139.77
639.121	7211.63
639.474	7115.59
639.828	7108.81
640.181	7142.71
640.534	7158.53
640.888	7102.71
641.241	7121.69
641.594	7149.49
641.947	7100.9
642.301	7091.86
642.654	7078.53
643.007	7041.47
643.36	6984.97
643.713	6950.17
644.066	7031.98
644.419	6989.04
644.771	6965.54
645.124	6924.18
645.477	6864.07
645.83	6817.97
646.182	6833.56
646.535	6757.18
646.888	6788.82
647.24	6773.23
647.593	6825.2
647.945	6807.12
648.298	6752.21
648.65	6704.08
649.002	6695.49
649.355	6707.01
649.707	6723.74
650.059	6663.17
650.411	6742.72
650.763	6849.61
651.115	6813.45
651.467	6839.89
651.819	6878.31
652.171	6886.9
652.523	6815.03
652.875	6847.35
653.227	6801.25
653.578	6867.23
653.93	6788.59
654.282	6767.35
654.633	6719.89
654.985	6705.88
655.337	6738.42
655.688	6756.96
656.039	6746.56
656.391	6688.48
656.742	6720.12
657.094	6752.21
657.445	6749.72
657.796	6710.85
658.147	6735.49
658.498	6677.41
658.849	6719.89
659.2	6692.1
659.551	6677.86
659.902	6695.49
660.253	6658.65
660.604	6678.31
660.955	6677.86
661.306	6638.54
661.656	6626.56
662.007	6629.27
662.358	6590.86
662.708	6661.36
663.059	6628.37
663.409	6603.96
663.76	6639.22
664.11	6610.97
664.461	6619.56
664.811	6598.32
665.161	6601.48
665.511	6562.16
665.862	6631.08
666.212	6642.38
666.562	6658.2
666.912	6621.14
667.262	6619.33
667.612	6501.37
667.962	6569.16
668.312	6535.27
668.662	6592.21
669.011	6545.44
669.361	6558.54
669.711	6569.84
670.06	6560.8
670.41	6470.63
670.76	6535.27
671.109	6566.45
671.459	6516.74
671.808	6580.24
672.157	6573.91
672.507	6523.29
672.856	6524.87
673.205	6578.65
673.554	6512.89
673.904	6499.33
674.253	6535.04
674.602	6455.72
674.951	6413.24
675.3	6368.94
675.649	6466.57
675.998	6436.29
676.346	6430.86
676.695	6440.58
677.044	6426.12
677.393	6424.31
677.741	6444.87
678.09	6416.17
678.438	6413.01
678.787	6432.9
679.135	6490.52
679.484	6383.18
679.832	6418.88
680.181	6403.97
680.529	6461.37
680.877	6362.84
681.225	6344.54
681.573	6400.81
681.922	6314.93
682.27	6303.63
682.618	6278.32
682.966	6294.59
683.314	6293.46
683.661	6247.36
684.009	6275.84
684.357	6243.52
684.705	6211.43
685.053	6265.22
685.4	6280.58
685.748	6245.56
686.095	6243.75
686.443	6223.18
686.79	6218.66
687.138	6230.64
687.485	6161.04
687.832	6151.77
688.18	6166.01
688.527	6161.04
688.874	6130.08
689.221	6102.74
689.568	6021.38
689.915	6097.09
690.262	6049.4
690.609	5994.72
690.956	6035.17
691.303	6064.54
691.65	5983.64
691.997	5999.01
692.344	5979.57
692.69	6010.31
693.037	6015.51
693.383	5978.22
693.73	5991.33
694.077	5895.73
694.423	5900.48
694.769	5845.57
695.116	5846.24
695.462	5842.85
695.808	5803.99
696.155	5818
696.501	5764.66
696.847	5751.11
697.193	5753.37
697.539	5726.7
697.885	5663.88
698.231	5701.84
698.577	5716.3
698.923	5694.84
699.269	5686.25
699.614	5730.32
699.96	5696.87
700.306	5682.86
700.651	5671.33
700.997	5704.55
701.342	5601.05
701.688	5663.42
702.033	5516.08
702.379	5563.77
702.724	5509.08
703.069	5503.65
703.415	5432.47
703.76	5432.24
704.105	5411.23
704.45	5425.24
704.795	5417.1
705.14	5379.14
705.485	5415.75
705.83	5441.06
706.175	5435.18
706.52	5425.92
706.865	5475.18
707.209	5449.19
707.554	5406.48
707.899	5376.65
708.243	5376.65
708.588	5302.76
708.932	5288.29
709.277	5265.92
709.621	5220.95
709.966	5217.56
710.31	5218.01
710.654	5258.69
710.998	5194.96
711.342	5173.49
711.687	5198.13
712.031	5179.82
712.375	5136.21
712.719	5163.55
713.063	5204.23
713.407	5201.06
713.75	5165.36
714.094	5157.9
714.438	5152.93
714.782	5202.87
715.125	5126.04
715.469	5134.17
715.812	5085.59
716.156	5038.58
716.499	5007.4
716.843	5057.34
717.186	5011.69
717.53	5012.82
717.873	5070.9
718.216	5006.49
718.559	4995.87
718.902	4926.95
719.246	5000.84
719.589	5005.14
719.932	4978.92
720.275	4950.9
720.617	5026.15
720.96	5017.34
721.303	4987.74
721.646	4991.13
721.989	4973.5
722.331	4958.36
722.674	4930.11
723.016	4936.89
723.359	4898.47
723.701	4884.01
724.044	4861.41
724.386	4804.46
724.729	4850.56
725.071	4854.86
725.413	4777.57
725.755	4835.2
726.097	4808.08
726.439	4804.01
726.782	4796.78
727.124	4844.69
727.465	4856.21
727.807	4825.71
728.149	4816.22
728.491	4809.66
728.833	4837.01
729.175	4843.33
729.516	4767.18
729.858	4805.59
730.199	4751.36
730.541	4782.09
730.882	4742.54
731.224	4689.44
731.565	4718.36
731.906	4694.86
732.248	4590.46
732.589	4637.24
732.93	4658.93
733.271	4646.5
733.612	4678.82
733.953	4640.4
734.294	4645.15
734.635	4683.56
734.976	4650.34
735.317	4679.04
735.658	4712.04
735.999	4670
736.339	4670.91
736.68	4684.47
737.021	4676.78
737.361	4615.54
737.702	4631.81
738.042	4593.17
738.383	4602.44
738.723	4592.27
739.063	4522.66
739.404	4544.58
739.744	4515.43
740.084	4468.65
740.424	4550.01
740.764	4523.12
741.104	4496
741.444	4470.24
741.784	4456.68
742.124	4544.58
742.464	4520.4
742.804	4543.91
743.143	4537.58
743.483	4530.57
743.823	4527.18
744.162	4495.55
744.502	4549.33
744.841	4491.25
745.181	4487.18
745.52	4411.48
745.86	4492.38
746.199	4396.79
746.538	4370.35
746.877	4404.25
747.216	4377.58
747.556	4383.68
747.895	4350.92
748.234	4327.41
748.573	4356.11
748.911	4352.5
749.25	4354.08
749.589	4392.27
749.928	4362.67
750.267	4373.97
750.605	4327.64
750.944	4388.66
751.283	4396.57
751.621	4373.97
751.96	4352.05
752.298	4353.85
752.636	4338.04
752.975	4281.31
753.313	4284.7
753.651	4292.61
753.989	4259.62
754.327	4214.88
754.666	4209.68
755.004	4223.24
755.342	4221.2
755.679	4181.43
756.017	4130.81
756.355	4166.74
756.693	4129
757.031	4157.48
757.368	4149.57
757.706	4168.32
758.044	4185.05
758.381	4167.64
758.719	4165.16
759.056	4156.8
759.394	4177.36
759.731	4129.23
760.068	4149.11
760.405	4135.1
760.743	4127.65
761.08	4106.63
761.417	4080.19
761.754	4060.08
762.091	4020.76
762.428	4017.59
762.765	4008.33
763.102	3980.53
763.438	3947.54
763.775	3943.47
764.112	3917.48
764.449	3946.41
764.785	3896.69
765.122	3898.95
765.458	3915.67
765.795	3877.71
766.131	3912.51
766.467	3865.28
766.804	3891.04
767.14	3863.47
767.476	3883.13
767.812	3903.24
768.148	3844.04
768.485	3824.38
768.821	3859.4
769.157	3839.52
769.492	3805.85
769.828	3805.17
770.164	3740.99
770.5	3771.5
770.836	3718.16
771.171	3739.18
771.507	3698.96
771.842	3678.62
772.178	3647.43
772.513	3657.15
772.849	3649.47
773.184	3674.78
773.519	3643.59
773.855	3630.71
774.19	3607.21
774.525	3626.19
774.86	3565.17
775.195	3594.78
775.53	3584.84
775.865	3605.17
776.2	3552.29
776.535	3606.98
776.87	3596.59
777.205	3555.46
777.539	3557.27
777.874	3548.68
778.209	3536.7
778.543	3484.95
778.878	3457.15
779.212	3423.26
779.547	3445.18
779.881	3452.18
780.215	3404.27
780.55	3398.4
780.884	3345.29
781.218	3340.55
781.552	3366.31
781.886	3371.73
782.22	3329.47
782.554	3356.82
782.888	3301.23
783.222	3319.76
783.556	3314.11
783.889	3326.31
784.223	3343.49
784.557	3269.82
784.89	3285.63
785.224	3294.67
785.557	3292.64
785.891	3293.77
786.224	3272.3
786.558	3259.42
786.891	3207.9
787.224	3224.62
787.557	3181.68
787.891	3189.14
788.224	3162.93
788.557	3176.71
788.89	3186.2
789.223	3114.11
789.556	3091.06
789.888	3083.61
790.221	3053.32
790.554	3000.22
790.887	3035.92
791.219	3043.15
791.552	3023.72
791.884	3056.94
792.217	3031.63
792.549	2999.54
792.882	3057.17
793.214	3022.59
793.546	3028.69
793.879	3027.79
794.211	3023.49
794.543	3049.03
794.875	3018.07
795.207	3002.48
795.539	3030.5
795.871	3008.13
796.203	2986.21
796.535	2975.59
796.867	2975.81
797.198	2926.77
797.53	2929.71
797.862	2899.2
798.193	2899.43
798.525	2887.68
798.856	2818.75
799.188	2831.63
799.519	2824.4
799.85	2834.35
800.182	2822.6
800.513	2839.09
800.844	2777.85
801.175	2821.01
801.506	2866.21
801.837	2826.89
802.168	2806.32
802.499	2825.76
802.83	2793.44
803.161	2795.25
803.491	2830.05
803.822	2813.1
804.153	2800.9
804.483	2757.06
804.814	2773.33
805.145	2771.52
805.475	2740.79
805.805	2760.9
806.136	2724.74
806.466	2704.86
806.796	2678.19
807.126	2689.27
807.457	2654.24
807.787	2668.93
808.117	2647.01
808.447	2631.41
808.777	2623.96
809.107	2638.65
809.436	2634.58
809.766	2585.31
810.096	2621.24
810.426	2638.65
810.755	2634.58
811.085	2603.39
811.414	2617.85
811.744	2636.39
812.073	2600.91
812.403	2600.91
812.732	2575.14
813.061	2603.39
813.39	2594.35
813.719	2590.28
814.049	2610.85
814.378	2629.61
814.707	2579.66
815.036	2560.46
815.365	2528.37
815.693	2519.78
816.022	2544.18
816.351	2497.18
816.68	2531.76
817.008	2499.44
817.337	2489.04
817.665	2472.1
817.994	2454.47
818.322	2495.82
818.651	2468.93
818.979	2448.59
819.307	2418.09
819.636	2458.31
819.964	2461.02
820.292	2480.46
820.62	2459.67
820.948	2478.65
821.276	2490.85
821.604	2479.78
821.932	2478.2
822.259	2496.28
822.587	2465.32
822.915	2459.67
823.243	2480.68
823.57	2462.15
823.898	2449.27
824.225	2449.5
824.553	2454.47
824.88	2464.41
825.207	2456.96
825.535	2462.6
825.862	2446.33
826.189	2460.34
826.516	2462.6
826.843	2461.93
827.17	2437.07
827.497	2418.76
827.824	2406.11
828.151	2431.42
828.478	2416.96
828.805	2401.82
829.131	2422.83
829.458	2446.33
829.785	2421.48
830.111	2458.09
830.438	2473.23
830.764	2421.02
831.09	2487.01
831.417	2469.38
831.743	2446.33
832.069	2465.54
832.395	2456.96
832.722	2487.91
833.048	2482.04
833.374	2516.16
833.7	2459.44
834.026	2423.96
834.351	2411.76
834.677	2447.69
835.003	2415.83
835.329	2437.52
835.654	2408.82
835.98	2405.88
836.306	2403.85
836.631	2375.83
836.956	2413.57
837.282	2407.92
837.607	2387.35
837.932	2354.58
838.258	2318.43
838.583	2355.71
838.908	2359.1
839.233	2343.06
839.558	2354.36
839.883	2340.12
840.208	2339.9
840.533	2365.43
840.858	2367.24
841.182	2387.8
841.507	2355.04
841.832	2339.67
842.156	2381.7
842.481	2372.66
842.805	2360.91
843.13	2394.81
843.454	2346.22
843.778	2351.87
844.103	2327.02
844.427	2332.44
844.751	2331.31
845.075	2294.25
845.399	2278.2
845.723	2273.23
846.047	2288.15
846.371	2250.86
846.695	2251.08
847.019	2232.1
847.343	2225.77
847.666	2209.28
847.99	2203.18
848.313	2199.56
848.637	2167.47
848.96	2170.64
849.284	2194.82
849.607	2169.73
849.931	2183.74
850.254	2161.6
850.577	2184.87
850.9	2158.43
851.223	2158.43
851.546	2173.57
851.869	2188.04
852.192	2166.34
852.515	2174.25
852.838	2118.88
853.161	2137.87
853.483	2132.9
853.806	2140.35
854.129	2115.04
854.451	2109.39
854.774	2108.04
855.096	2102.39
855.419	2101.48
855.741	2063.29
856.063	2058.55
856.385	2068.26
856.708	2073.01
857.03	2041.82
857.352	2023.52
857.674	2036.18
857.996	1997.53
858.318	2020.58
858.64	2011.09
858.961	1993.69
859.283	1984.65
859.605	1994.59
859.926	1975.39
860.248	2002.05
860.57	2000.92
860.891	1956.63
861.212	2023.52
861.534	1983.52
861.855	1961.15
862.176	1978.1
862.498	2010.41
862.819	1984.88
863.14	1988.94
863.461	1997.31
863.782	1987.36
864.103	1966.8
864.424	1985.78
864.745	2010.87
865.065	1971.32
865.386	1997.31
865.707	1947.14
866.027	1957.53
866.348	1935.39
866.668	1938.55
866.989	1950.3
867.309	1955.27
867.63	1897.2
867.95	1895.61
868.27	1897.42
868.59	1895.16
868.91	1889.51
869.23	1914.6
869.55	1886.12
869.87	1905.56
870.19	1874.15
870.51	1904.88
870.83	1883.86
871.15	1898.55
871.469	1896.52
871.789	1876.86
872.109	1905.78
872.428	1896.52
872.748	1946.46
873.067	1880.25
873.386	1878.21
873.706	1919.79
874.025	1881.83
874.344	1888.16
874.663	1895.61
874.982	1900.81
875.301	1892.68
875.62	1887.48
875.939	1885.67
876.258	1897.2
876.577	1828.95
876.896	1843.19
877.214	1843.19
877.533	1853.58
877.852	1829.85
878.17	1848.38
878.489	1851.77
878.807	1822.4
879.125	1820.36
879.444	1829.85
879.762	1795.05
880.08	1827.82
880.398	1820.59
880.716	1811.32
881.034	1808.38
881.352	1802.74
881.67	1816.52
881.988	1813.13
882.306	1795.05
882.624	1827.14
882.941	1793.92
883.259	1789.18
883.577	1788.5
883.894	1810.87
884.212	1779.91
884.529	1779.46
884.846	1786.69
885.164	1789.85
885.481	1814.49
885.798	1799.35
886.115	1794.15
886.432	1774.04
886.75	1766.35
887.067	1774.94
887.383	1765.45
887.7	1751.66
888.017	1748.05
888.334	1761.83
888.651	1722.51
888.967	1743.3
889.284	1738.56
889.6	1753.7
889.917	1684.09
890.233	1717.31
890.55	1692.23
890.866	1682.74
891.182	1710.76
891.498	1691.55
891.815	1685
892.131	1701.49
892.447	1699.91
892.763	1666.69
893.079	1675.96
893.395	1699.46
893.71	1685.22
894.026	1650.2
894.342	1668.05
894.657	1684.55
894.973	1659.24
895.289	1662.63
895.604	1674.6
895.92	1665.11
896.235	1633.02
896.55	1640.48
896.865	1635.06
897.181	1648.61
897.496	1666.24
897.811	1647.71
898.126	1633.93
898.441	1611.78
898.756	1628.73
899.071	1628.5
899.386	1638.45
899.7	1618.56
900.015	1590.09
900.33	1592.12
900.644	1591.67
900.959	1579.46
901.273	1566.13
901.588	1534.49
901.902	1570.42
902.216	1559.13
902.531	1527.94
902.845	1556.41
903.159	1539.01
903.473	1548.5
903.787	1541.72
904.101	1514.61
904.415	1529.75
904.729	1537.43
905.042	1505.57
905.356	1534.49
905.67	1505.34
905.984	1505.79
906.297	1497.21
906.611	1510.54
906.924	1512.12
907.237	1513.25
907.551	1493.82
907.864	1491.56
908.177	1482.97
908.491	1479.81
908.804	1487.26
909.117	1501.5
909.43	1467.15
909.743	1450.2
910.056	1432.35
910.368	1471.67
910.681	1484.33
910.994	1446.13
911.307	1425.12
911.619	1435.06
911.932	1433.93
912.244	1422.41
912.557	1437.09
912.869	1415.17
913.181	1434.61
913.494	1407.04
913.806	1411.33
914.118	1405.68
914.43	1378.79
914.742	1379.92
915.054	1393.71
915.366	1362.97
915.678	1379.47
915.99	1375.18
916.302	1362.52
916.613	1330.88
916.925	1349.41
917.236	1339.47
917.548	1354.61
917.859	1360.94
918.171	1317.32
918.482	1321.84
918.794	1320.49
919.105	1294.73
919.416	1319.36
919.727	1325.69
920.038	1332.69
920.349	1312.58
920.66	1308.96
920.971	1296.99
921.282	1339.24
921.593	1321.62
921.903	1312.13
922.214	1301.05
922.525	1296.08
922.835	1273.94
923.146	1273.03
923.456	1281.84
923.767	1273.94
924.077	1240.94
924.387	1261.05
924.697	1238.46
925.008	1240.49
925.318	1233.03
925.628	1251.11
925.938	1224.22
926.248	1219.02
926.558	1226.25
926.867	1201.62
927.177	1216.99
927.487	1213.82
927.796	1187.16
928.106	1199.81
928.416	1184.9
928.725	1186.48
929.034	1215.86
929.344	1206.82
929.653	1170.21
929.962	1195.29
930.271	1161.62
930.581	1198.91
930.89	1161.4
931.199	1159.14
931.508	1169.76
931.817	1174.05
932.125	1174.95
932.434	1177.21
932.743	1133.37
933.051	1168.63
933.36	1144.22
933.669	1151.45
933.977	1144
934.286	1146.71
934.594	1144.22
934.902	1127.95
935.21	1122.53
935.519	1136.31
935.827	1108.74
936.135	1147.61
936.443	1096.31
936.751	1093.38
937.059	1089.99
937.367	1111.91
937.674	1122.53
937.982	1096.54
938.29	1090.21
938.597	1108.97
938.905	1064.22
939.213	1068.52
939.52	1066.94
939.827	1061.51
940.135	1028.52
940.442	1073.26
940.749	1074.39
941.056	1084.34
941.363	1022.19
941.67	1065.35
941.977	1048.63
942.284	1049.08
942.591	1032.36
942.898	1043.21
943.205	1039.59
943.511	1046.14
943.818	1031.46
944.125	1025.58
944.431	1020.61
944.738	1029.2
945.044	1017.22
945.35	1018.12
945.657	1024.68
945.963	1014.96
946.269	1024.9
946.575	1020.83
946.881	990.78
947.187	1008.63
947.493	991.23
947.799	997.56
948.105	1010.89
948.41	971.12
948.716	1006.82
949.022	1001.17
949.327	974.73
949.633	970.21
949.938	991.91
950.244	951.01
950.549	947.62
950.854	947.16
951.16	948.29
951.465	968.86
951.77	940.61
952.075	951.01
952.38	949.88
952.685	953.94
952.99	929.54
953.294	929.76
953.599	949.2
953.904	948.52
954.209	923.44
954.513	919.14
954.818	911.46
955.122	871.46
955.426	913.49
955.731	925.7
956.035	917.33
956.339	921.85
956.643	926.15
956.948	898.13
957.252	901.06
957.556	933.61
957.86	874.4
958.163	901.06
958.467	904
958.771	920.5
959.075	882.08
959.378	877.79
959.682	915.75
959.985	890.89
960.289	880.95
960.592	885.7
960.896	892.02
961.199	859.71
961.502	864.91
961.805	870.78
962.108	860.61
962.411	863.78
962.714	849.77
963.017	863.78
963.32	846.38
963.623	836.21
963.926	826.94
964.228	854.74
964.531	830.78
964.833	853.61
965.136	818.58
965.438	831.91
965.741	805.7
966.043	825.59
966.345	804.57
966.648	842.99
966.95	826.49
967.252	811.35
967.554	798.69
967.856	817.45
968.158	804.34
968.46	807.96
968.761	810.67
969.063	803.21
969.365	814.51
969.666	804.34
969.968	815.87
970.269	789.88
970.571	786.49
970.872	781.97
971.174	793.04
971.475	774.06
971.776	794.4
972.077	770.67
972.378	793.04
972.679	768.41
972.98	767.51
973.281	767.96
973.582	775.42
973.883	759.6
974.183	752.82
974.484	776.32
974.785	788.3
975.085	762.54
975.386	733.84
975.686	780.16
975.986	770.22
976.287	748.75
976.587	756.43
976.887	731.8
977.187	754.85
977.487	760.95
977.787	736.55
978.087	729.99
978.387	723.22
978.687	730.45
978.987	731.12
979.286	741.29
979.586	704.01
979.885	711.46
980.185	724.12
980.484	704.23
980.784	743.55
981.083	746.04
981.382	716.44
981.682	736.77
981.981	694.52
982.28	713.5
982.579	699.94
982.878	724.8
983.177	707.85
983.475	699.49
983.774	706.04
984.073	687.28
984.372	681.63
984.67	707.17
984.969	687.96
985.267	685.25
985.566	690.67
985.864	689.54
986.162	686.61
986.461	690.67
986.759	681.86
987.057	685.7
987.355	691.35
987.653	673.05
987.951	674.63
988.249	670.56
988.547	675.08
988.844	678.02
989.142	670.79
989.44	678.24
989.737	645.48
990.035	670.11
990.332	672.14
990.63	648.19
990.927	659.04
991.224	654.97
991.521	660.39
991.819	645.25
992.116	663.56
992.413	646.83
992.71	638.47
993.006	649.77
993.303	651.58
993.6	644.35
993.897	649.09
994.193	655.42
994.49	654.06
994.787	630.34
995.083	640.05
995.379	621.52
995.676	637.79
995.972	619.49
996.268	647.06
996.565	640.51
996.861	605.25
997.157	632.14
997.453	611.58
997.749	622.2
998.044	605.93
998.34	631.47
998.636	614.97
998.932	614.07
999.227	598.7
999.523	607.51
999.818	584.91
1000.114	605.93
1000.409	607.96
1000.704	579.49
1001	607.96
1001.295	598.02
1001.59	605.48
1001.885	617.68
1002.18	578.59
1002.475	593.5
1002.77	581.3
1003.065	577
1003.359	579.04
1003.654	559.83
1003.949	591.47
1004.243	585.82
1004.538	566.61
1004.832	577.46
1005.127	578.36
1005.421	584.69
1005.715	584.91
1006.009	565.93
1006.304	584.46
1006.598	555.76
1006.892	577
1007.186	572.48
1007.48	566.38
1007.773	557.57
1008.067	559.15
1008.361	566.84
1008.655	553.5
1008.948	551.47
1009.242	549.66
1009.535	542.88
1009.829	558.02
1010.122	539.72
1010.415	550.34
1010.708	537.68
1011.001	557.12
1011.295	548.98
1011.588	545.59
1011.881	561.64
1012.173	518.02
1012.466	523.45
1012.759	534.29
1013.052	528.87
1013.344	539.27
1013.637	508.98
1013.93	516.67
1014.222	541.75
1014.514	523.9
1014.807	504.69
1015.099	531.81
1015.391	531.81
1015.683	531.36
1015.976	506.27
1016.268	516.67
1016.56	524.12
1016.851	507.63
1017.143	509.21
1017.435	504.92
1017.727	510.57
1018.018	494.52
1018.31	511.92
1018.602	503.56
1018.893	494.75
1019.185	499.49
1019.476	496.55
1019.767	515.09
1020.058	483.9
1020.35	492.04
1020.641	495.88
1020.932	489.32
1021.223	509.89
1021.514	492.49
1021.804	466.95
1022.095	504.69
1022.386	478.7
1022.677	498.14
1022.967	494.75
1023.258	475.31
1023.548	485.48
1023.839	485.48
1024.129	467.85
1024.419	464.69
1024.709	461.98
1025	466.5
1025.29	490.45
1025.58	454.3
1025.87	492.71
1026.16	456.78
1026.449	461.53
1026.739	450.91
1027.029	470.57
1027.319	473.96
1027.608	447.06
1027.898	455.2
1028.187	445.71
1028.477	452.04
1028.766	449.32
1029.055	456.78
1029.344	444.58
1029.634	472.37
1029.923	453.62
1030.212	449.78
1030.501	456.56
1030.79	435.09
1031.078	463.11
1031.367	417.91
1031.656	439.16
1031.945	437.8
1032.233	458.14
1032.522	450.68
1032.81	450.91
1033.099	460.62
1033.387	434.41
1033.675	419.04
1033.963	432.15
1034.251	437.35
1034.54	443.45
1034.828	428.76
1035.116	416.1
1035.403	439.83
1035.691	425.37
1035.979	420.62
1036.267	420.17
1036.554	428.08
1036.842	419.72
1037.129	442.32
1037.417	415.43
1037.704	415.88
1037.992	406.16
1038.279	420.62
1038.566	403
1038.853	403
1039.14	403
