Data from foam2_polystyrene_foam_FLMS001491_00022.txt Node
Date: Wed Feb 08 10:57:43 GMT 2017
User: dcchb
Spectrometer: FLMS00149
Trigger mode: 0
Integration Time (sec): 2.000000E-2
Scans to average: 10
Electric dark correction enabled: true
Nonlinearity correction enabled: false
Boxcar width: 0
XAxis mode: Wavelengths
Number of Pixels in Spectrum: 2048
>>>>>Begin Spectral Data<<<<<
341.393	4.12
341.776	4.12
342.16	4.12
342.543	-55.08
342.927	-48.76
343.31	-55.76
343.693	-77
344.077	-67.06
344.46	-63.67
344.843	-58.7
345.226	-37.68
345.61	-51.92
345.993	-7.85
346.376	-17.57
346.759	20.39
347.142	34.86
347.525	66.04
347.908	58.36
348.291	74.4
348.674	79.83
349.057	103.33
349.44	125.25
349.823	145.82
350.206	175.19
350.588	220.62
350.971	240.95
351.354	231.69
351.737	255.87
352.119	280.5
352.502	275.08
352.884	284.12
353.267	302.2
353.65	305.59
354.032	319.14
354.414	323.89
354.797	313.49
355.179	334.96
355.562	353.27
355.944	335.41
356.326	338.13
356.709	354.17
357.091	354.62
357.473	384.91
357.855	367.73
358.238	358.47
358.62	363.44
359.002	359.82
359.384	373.15
359.766	368.41
360.148	361.63
360.53	365.02
360.912	356.21
361.294	368.63
361.676	354.4
362.057	348.3
362.439	346.04
362.821	372.02
363.203	372.7
363.584	355.75
363.966	361.18
364.348	350.1
364.729	372.02
365.111	336.32
365.493	359.6
365.874	362.76
366.256	372.93
366.637	338.8
367.019	336.54
367.4	364.11
367.781	355.98
368.163	358.92
368.544	362.53
368.925	342.19
369.306	360.27
369.688	381.29
370.069	358.69
370.45	370.89
370.831	365.24
371.212	386.49
371.593	363.89
371.974	370.89
372.355	374.74
372.736	361.63
373.117	375.64
373.498	369.31
373.879	369.31
374.26	365.02
374.641	369.31
375.021	355.3
375.402	378.35
375.783	404.34
376.163	396.43
376.544	425.58
376.925	397.56
377.305	409.31
377.686	394.62
378.066	408.86
378.447	412.93
378.827	415.64
379.208	431.46
379.588	392.14
379.968	417.45
380.349	437.33
380.729	394.17
381.109	441.17
381.489	418.8
381.87	436.2
382.25	414.51
382.63	441.85
383.01	445.24
383.39	455.64
383.77	429.2
384.15	426.03
384.53	448.41
384.91	461.29
385.29	481.4
385.67	479.37
386.049	465.35
386.429	472.36
386.809	484.56
387.189	476.2
387.568	487.28
387.948	463.77
388.328	489.08
388.707	500.83
389.087	492.02
389.466	504.68
389.846	493.6
390.225	528.4
390.605	527.5
390.984	526.14
391.363	520.72
391.743	536.99
392.122	518.01
392.501	534.51
392.881	560.95
393.26	557.33
393.639	552.13
394.018	548.97
394.397	536.09
394.776	578.12
395.155	567.05
395.534	578.12
395.913	579.02
396.292	607.95
396.671	600.49
397.05	597.1
397.429	581.51
397.808	586.03
398.186	600.27
398.565	613.15
398.944	611.79
399.323	614.28
399.701	633.71
400.08	624.67
400.458	621.51
400.837	640.72
401.215	674.84
401.594	634.16
401.972	645.01
402.351	675.52
402.729	671.23
403.107	666.03
403.486	681.17
403.864	673.49
404.242	698.8
404.62	689.08
404.999	700.83
405.377	727.27
405.755	701.73
406.133	740.83
406.511	738.57
406.889	724.56
407.267	759.36
407.645	778.79
408.023	760.49
408.401	774.05
408.779	783.31
409.156	794.84
409.534	811.79
409.912	799.13
410.29	822.86
410.667	836.87
411.045	877.77
411.422	857.66
411.8	834.61
412.178	852.01
412.555	881.62
412.933	875.29
413.31	909.64
413.687	916.19
414.065	913.48
414.442	928.62
414.819	926.59
415.197	931.78
415.574	955.51
415.951	975.4
416.328	1000.93
416.705	959.35
417.082	970.43
417.46	1015.17
417.837	999.58
418.214	1024.66
418.591	1023.31
418.967	1009.97
419.344	1026.02
419.721	1042.74
420.098	1042.29
420.475	1112.34
420.852	1075.73
421.228	1086.13
421.605	1096.3
421.982	1113.93
422.358	1127.03
422.735	1155.28
423.111	1119.58
423.488	1160.03
423.864	1173.58
424.241	1188.73
424.617	1207.26
424.994	1185.34
425.37	1238.44
425.746	1230.08
426.123	1247.48
426.499	1242.51
426.875	1273.7
427.251	1273.24
427.627	1287.71
428.003	1326.58
428.379	1326.8
428.756	1341.04
429.132	1343.75
429.507	1394.37
429.883	1423.07
430.259	1414.48
430.635	1404.09
431.011	1428.95
431.387	1447.93
431.763	1471.66
432.138	1508.94
432.514	1568.38
432.89	1514.37
433.265	1580.58
433.641	1573.35
434.016	1612.44
434.392	1621.03
434.767	1651.99
435.143	1657.64
435.518	1703.51
435.894	1686.79
436.269	1718.88
436.644	1734.93
437.02	1760.91
437.395	1737.86
437.77	1819.44
438.145	1808.14
438.52	1818.54
438.895	1841.14
439.271	1834.13
439.646	1891.08
440.021	1888.59
440.395	1931.76
440.77	1885.88
441.145	1906.67
441.52	1948.71
441.895	1957.52
442.27	1951.19
442.645	1974.47
443.019	1996.39
443.394	2026.22
443.769	2030.96
444.143	2052.88
444.518	2034.58
444.892	2099.21
445.267	2075.48
445.641	2101.7
446.016	2124.29
446.39	2098.76
446.764	2138.98
447.139	2179.43
447.513	2143.95
447.887	2163.84
448.262	2221.47
448.636	2233.22
449.01	2236.61
449.384	2261.69
449.758	2302.59
450.132	2285.42
450.506	2327
450.88	2346.66
451.254	2316.38
451.628	2383.27
452.002	2440.22
452.376	2428.02
452.75	2449.48
453.123	2482.25
453.497	2526.09
453.871	2565.19
454.244	2605.86
454.618	2608.58
454.992	2618.07
455.365	2589.37
455.739	2694.67
456.112	2703.26
456.486	2718.18
456.859	2749.59
457.232	2783.71
457.606	2774.22
457.979	2844.05
458.352	2860.09
458.725	2897.38
459.099	2930.37
459.472	3016.25
459.845	3009.92
460.218	3054.89
460.591	3064.83
460.964	3107.09
461.337	3165.17
461.71	3171.95
462.083	3258.73
462.456	3228.22
462.829	3286.52
463.201	3326.07
463.574	3361.1
463.947	3364.71
464.32	3431.15
464.692	3449.46
465.065	3481.77
465.438	3565.61
465.81	3604.03
466.183	3631.15
466.555	3693.07
466.928	3688.32
467.3	3731.48
467.672	3821.65
468.045	3882.44
468.417	3904.36
468.789	3897.58
469.161	3948.43
469.534	4022.55
469.906	4104.36
470.278	4138.03
470.65	4229.78
471.022	4235.2
471.394	4288.31
471.766	4340.73
472.138	4437
472.51	4528.52
472.882	4607.62
473.253	4623.66
473.625	4668.63
473.997	4777.78
474.369	4869.31
474.74	4848.74
475.112	5028.4
475.484	5046.7
475.855	5163.99
476.227	5168.51
476.598	5318.11
476.97	5365.34
477.341	5481.04
477.713	5601.49
478.084	5604.2
478.455	5752.45
478.827	5790.41
479.198	5925.55
479.569	5957.19
479.94	6108.6
480.311	6203.96
480.682	6339.1
481.053	6469.26
481.424	6569.38
481.795	6598.3
482.166	6708.81
482.537	6767.56
482.908	6924.85
483.279	7020.66
483.65	7079.42
484.021	7240.77
484.391	7339.07
484.762	7463.14
485.133	7491.61
485.503	7661.55
485.874	7762.11
486.244	7908.32
486.615	7951.26
486.985	8065.38
487.356	8176.56
487.726	8262.44
488.097	8477.12
488.467	8499.27
488.837	8687.29
489.207	8752.37
489.578	8935.64
489.948	8998.01
490.318	9150.1
490.688	9118.69
491.058	9376.76
491.428	9374.73
491.798	9511.67
492.168	9681.16
492.538	9729.29
492.908	9802.74
493.278	9977.2
493.648	10018.1
494.017	10140.13
494.387	10259.22
494.757	10334.7
495.126	10432.32
495.496	10486.79
495.866	10596.61
496.235	10703.5
496.605	10787.57
496.974	10946.66
497.344	10945.31
497.713	11002.93
498.082	11105.98
498.452	11227.33
498.821	11261.23
499.19	11359.31
499.559	11439.76
499.928	11624.84
500.298	11619.41
500.667	11776.7
501.036	11740.31
501.405	11812.63
501.774	11793.19
502.143	12000.87
502.512	11948.22
502.88	12170.36
503.249	12194.31
503.618	12219.17
503.987	12293.74
504.356	12415.1
504.724	12478.15
505.093	12626.39
505.462	12663.23
505.83	12735.31
506.199	12849.21
506.567	12995.87
506.936	12978.92
507.304	13154.74
507.672	13250.78
508.041	13237
508.409	13407.84
508.777	13492.36
509.145	13604.44
509.514	13607.61
509.882	13777.55
510.25	13886.47
510.618	13919.24
510.986	14040.14
511.354	14108.61
511.722	14209.63
512.09	14427.7
512.458	14405.33
512.826	14589.5
513.193	14653.68
513.561	14753.57
513.929	14848.48
514.297	15037.85
514.664	15111.07
515.032	15159.43
515.4	15304.06
515.767	15349.71
516.135	15414.34
516.502	15417.05
516.869	15698.85
517.237	15773.2
517.604	15806.65
517.972	16010.48
518.339	16117.6
518.706	16066.75
519.073	16306.97
519.44	16412.51
519.808	16506.06
520.175	16644.36
520.542	16843.68
520.909	16947.63
521.276	16951.48
521.643	17151.02
522.009	17264.24
522.376	17436.89
522.743	17569.76
523.11	17735.64
523.477	17916.42
523.843	18062.86
524.21	18175.4
524.577	18329.52
524.943	18384.88
525.31	18525.67
525.676	18660.81
526.043	18760.47
526.409	18933.8
526.776	19108.93
527.142	19110.51
527.508	19369.26
527.874	19435.93
528.241	19586.66
528.607	19603.16
528.973	19812.42
529.339	19802.25
529.705	20028.46
530.071	20283.14
530.437	20302.8
530.803	20428.22
531.169	20581.21
531.535	20512.06
531.901	20664.82
532.267	20806.74
532.632	20843.35
532.998	20938.04
533.364	21104.13
533.73	21057.58
534.095	21327.86
534.461	21383.9
534.826	21593.39
535.192	21700.95
535.557	21901.63
535.923	21797.68
536.288	21870.44
536.653	22024.56
537.019	21970.55
537.384	22196.99
537.749	22226.36
538.114	22243.31
538.479	22336.42
538.845	22482.86
539.21	22446.7
539.575	22565.34
539.94	22752.68
540.305	22841.94
540.67	22883.97
541.034	22973.69
541.399	23106.34
541.764	23101.37
542.129	23195.15
542.494	23354.92
542.858	23377.29
543.223	23442.38
543.587	23640.79
543.952	23538.42
544.316	23762.6
544.681	23701.58
545.045	23846.44
545.41	24038.97
545.774	24028.13
546.138	24057.05
546.503	24178.63
546.867	24231.06
547.231	24404.84
547.595	24551.5
547.959	24635.79
548.324	24637.83
548.688	24701.33
549.052	24897.93
549.416	24937.71
549.779	24925.5
550.143	25083.24
550.507	25286.17
550.871	25242.56
551.235	25268.09
551.599	25526.84
551.962	25487.52
552.326	25589.21
552.689	25720.74
553.053	25611.81
553.417	25865.82
553.78	26180.84
554.143	26098.81
554.507	26251.12
554.87	26275.98
555.234	26604.33
555.597	26578.34
555.96	26605.68
556.323	26798.22
556.686	26710.54
557.05	27066.46
557.413	27142.17
557.776	27120.7
558.139	27302.84
558.502	27350.75
558.865	27537.64
559.228	27717.75
559.59	27724.75
559.953	27712.77
560.316	28076.38
560.679	28088.81
561.041	28345.07
561.404	28502.36
561.767	28618.97
562.129	28611.96
562.492	28898.05
562.854	28756.14
563.217	28917.49
563.579	29002.68
563.941	29309.79
564.304	29415.78
564.666	29576.91
565.028	29703
565.39	29838.82
565.753	29927.63
566.115	30081.53
566.477	30143.22
566.839	30236.78
567.201	30470.22
567.563	30409.88
567.925	30675.63
568.287	30717.21
568.648	30889.87
569.01	31056.87
569.372	31149.75
569.734	31065.91
570.095	31295.73
570.457	31382.51
570.819	31486.46
571.18	31453.24
571.542	31570.98
571.903	31728.94
572.265	31968.26
572.626	31978.2
572.987	31949.5
573.349	32129.83
573.71	32366.21
574.071	32328.92
574.432	32372.31
574.794	32657.28
575.155	32489.6
575.516	32551.52
575.877	32546.55
576.238	32810.72
576.599	32923.03
576.96	32846.88
577.32	32941.11
577.681	33057.04
578.042	33058.4
578.403	33159.41
578.763	33278.5
579.124	33225.17
579.485	33445.05
579.845	33316.02
580.206	33274.44
580.566	33307.66
580.927	33363.7
581.287	33463.36
581.648	33510.36
582.008	33540.64
582.368	33577.25
582.728	33588.33
583.089	33607.08
583.449	33636.46
583.809	33687.31
584.169	33649.57
584.529	33751.49
584.889	34000.74
585.249	33759.85
585.609	33783.35
585.969	33864.02
586.329	33818.83
586.688	33937.24
587.048	33831.94
587.408	33809.79
587.768	33681.43
588.127	33749.68
588.487	33817.92
588.846	34149.44
589.206	33789
589.565	33763.46
589.925	33952.38
590.284	33860.86
590.643	33883.69
591.003	33969.33
591.362	34056.56
591.721	33869
592.08	33963.01
592.44	33877.81
592.799	34046.39
593.158	33902.44
593.517	34040.97
593.876	33996.22
594.235	33927.07
594.593	34021.99
594.952	34098.59
595.311	33876.23
595.67	34031.7
596.029	34231.92
596.387	34170.01
596.746	34266.05
597.104	34108.09
597.463	34136.33
597.822	34342.2
598.18	34247.74
598.538	34216.56
598.897	34428.3
599.255	34050.69
599.613	34642.08
599.972	34330
600.33	34639.82
600.688	34296.78
601.046	34405.03
601.404	34415.87
601.762	34530.67
602.12	34720.73
602.478	34609.32
602.836	34679.14
603.194	34384.01
603.552	34694.06
603.91	34368.87
604.268	34671.24
604.625	34582.42
604.983	34607.96
605.341	34624.46
605.698	34680.05
606.056	34743.1
606.413	34885.69
606.771	34943.54
607.128	34932.02
607.485	34888.86
607.843	34976.99
608.2	35088.63
608.557	35118.68
608.914	34969.98
609.272	35223.76
609.629	35220.15
609.986	35287.49
610.343	35117.78
610.7	35403.65
611.057	35322.97
611.414	35240.03
611.771	35279.81
612.127	35418.11
612.484	35538.11
612.841	35614.94
613.198	35406.81
613.554	35464.43
613.911	35652.45
614.267	35515.51
614.624	35567.93
614.98	35722.06
615.337	35839.11
615.693	35740.59
616.05	35701.94
616.406	35981.71
616.762	35920.24
617.118	35774.03
617.475	35891.32
617.831	35870.53
618.187	36067.58
618.543	36096.73
618.899	36199.56
619.255	36087.47
619.611	36178.54
619.967	36277.29
620.323	36451.3
620.678	36187.35
621.034	36009.51
621.39	35945.78
621.746	35980.58
622.101	36447.23
622.457	36080.46
622.812	36191.65
623.168	36323.62
623.523	36382.83
623.879	36544.41
624.234	36250.18
624.589	36421.92
624.945	36480.23
625.3	36353.45
625.655	36375.15
626.01	36442.26
626.365	36418.76
626.72	36296.96
627.075	36347.58
627.43	36364.75
627.785	36192.55
628.14	36361.59
628.495	36366.33
628.85	36369.95
629.205	36233.45
629.559	36430.51
629.914	36317.07
630.269	36337.18
630.623	36193.46
630.978	36069.84
631.332	36183.06
631.687	36167.02
632.041	36129.95
632.396	36156.17
632.75	35924.99
633.104	35907.13
633.459	35860.58
633.813	35836.4
634.167	35737.2
634.521	35735.16
634.875	35698.33
635.229	35725.44
635.583	35524.55
635.937	35715.28
636.291	35385.11
636.645	35618.78
636.999	35496.3
637.352	35590.99
637.706	35368.62
638.06	35542.4
638.413	35424.89
638.767	35305.79
639.121	35296.3
639.474	35155.97
639.828	35110.55
640.181	35239.13
640.534	35026.25
640.888	35021.06
641.241	34816.77
641.594	34938.35
641.947	34962.3
642.301	34741.97
642.654	34793.49
643.007	34835.75
643.36	34712.82
643.713	34728.86
644.066	34760.72
644.419	34550.79
644.771	34223.11
645.124	34017.47
645.477	33827.64
645.83	33584.26
646.182	33583.13
646.535	33511.94
646.888	33693.41
647.24	33427.43
647.593	33631.71
647.945	33587.65
648.298	33346.07
648.65	33303.59
649.002	33236.92
649.355	33356.69
649.707	33285.06
650.059	33315.11
650.411	33759.85
650.763	33834.2
651.115	34205.48
651.467	34135.66
651.819	34070.12
652.171	34076.67
652.523	33807.98
652.875	33830.81
653.227	33839.62
653.578	33970.91
653.93	33757.36
654.282	33655.89
654.633	33556.46
654.985	33698.38
655.337	33687.76
655.688	33719.4
656.039	33674.2
656.391	33465.84
656.742	33492.06
657.094	33502.68
657.445	33704.48
657.796	33460.42
658.147	33497.48
658.498	33335.68
658.849	33530.93
659.2	33390.14
659.551	33241.22
659.902	33449.57
660.253	33339.29
660.604	33383.36
660.955	33237.83
661.306	33453.87
661.656	33228.34
662.007	33209.35
662.358	33160.77
662.708	33239.18
663.059	33067.89
663.409	32920.55
663.76	33269.01
664.11	33097.94
664.461	33075.8
664.811	33179.07
665.161	33142.24
665.511	32994.44
665.862	32877.61
666.212	33023.37
666.562	33031.5
666.912	32903.37
667.262	32875.58
667.612	32868.34
667.962	32897.5
668.312	32858.18
668.662	32943.6
669.011	32828.8
669.361	32756.71
669.711	32867.89
670.06	32734.79
670.41	32743.15
670.76	32649.14
671.109	32874.9
671.459	32716.94
671.808	32613.21
672.157	32691.4
672.507	32484.63
672.856	32544.29
673.205	32528.01
673.554	32502.7
673.904	32499.54
674.253	32608.92
674.602	32381.13
674.951	31968.48
675.3	31946.34
675.649	32310.17
675.998	32239.43
676.346	32187.01
676.695	32321.47
677.044	31994.47
677.393	32104.3
677.741	32301.58
678.09	32020.01
678.438	32009.61
678.787	32006.45
679.135	32023.62
679.484	31835.83
679.832	31993.79
680.181	31731.65
680.529	31859.78
680.877	31871.99
681.225	31775.49
681.573	31863.63
681.922	31815.72
682.27	31784.08
682.618	31778.2
682.966	31598.32
683.314	31807.58
683.661	31720.13
684.009	31473.35
684.357	31448.72
684.705	31490.75
685.053	31407.59
685.4	31280.59
685.748	31311.55
686.095	31191.33
686.443	31182.97
686.79	31049.18
687.138	30905.23
687.485	30998.56
687.832	30699.81
688.18	30813.71
688.527	30603.32
688.874	30611.23
689.221	30633.6
689.568	30484
689.915	30356.77
690.262	30309.32
690.609	30279.94
690.956	30223.89
691.303	30240.84
691.65	30070.9
691.997	30063.9
692.344	29919.04
692.69	29836.79
693.037	30036.33
693.383	29676.34
693.73	29758.6
694.077	29490.35
694.423	29648.32
694.769	29478.6
695.116	29427.08
695.462	29522.9
695.808	29303.92
696.155	29319.74
696.501	29159.06
696.847	29218.95
697.193	28869.81
697.539	29108.9
697.885	28922.91
698.231	28716.82
698.577	28667.78
698.923	28680.21
699.269	28498.06
699.614	28472.08
699.96	28398.86
700.306	28332.87
700.651	28195.47
700.997	28227.11
701.342	28089.71
701.688	27875.03
702.033	27869.15
702.379	27895.14
702.724	27752.1
703.069	27816.05
703.415	27506.45
703.76	27536.28
704.105	27527.02
704.45	27328.15
704.795	27215.39
705.14	27148.27
705.485	27181.71
705.83	27087.93
706.175	27190.75
706.52	26981.49
706.865	26869.86
707.209	26816.53
707.554	26794.61
707.899	26826.24
708.243	26628.96
708.588	26609.07
708.932	26601.39
709.277	26415.63
709.621	26463.99
709.966	26269.87
710.31	26404.33
710.654	26197.11
710.998	26266.48
711.342	26323.21
711.687	26161.85
712.031	25957.57
712.375	25942.88
712.719	26098.81
713.063	25915.31
713.407	25949.2
713.75	25809.1
714.094	25810
714.438	25674.18
714.782	25668.53
715.125	25478.93
715.469	25457.69
715.812	25385.6
716.156	25307.64
716.499	25365.94
716.843	25372.5
717.186	25172.28
717.53	25323.01
717.873	25226.06
718.216	25281.88
718.559	25078.04
718.902	24818.61
719.246	24939.97
719.589	24848.44
719.932	24754.89
720.275	24730.03
720.617	24717.37
720.96	24791.72
721.303	24642.57
721.646	24678.73
721.989	24513.54
722.331	24691.38
722.674	24577.26
723.016	24681.89
723.359	24591.95
723.701	24652.06
724.044	24432.86
724.386	24344.73
724.729	24427.66
725.071	24339.76
725.413	24357.38
725.755	24334.56
726.097	24119.2
726.439	24049.37
726.782	23995.13
727.124	24255.24
727.465	24162.13
727.807	23950.39
728.149	23851.18
728.491	23945.87
728.833	23921.01
729.175	23774.12
729.516	23717.17
729.858	23663.16
730.199	23796.72
730.541	23660.23
730.882	23607.57
731.224	23649.83
731.565	23468.82
731.906	23483.73
732.248	23532.32
732.589	23351.76
732.93	23351.76
733.271	23352.66
733.612	23386.56
733.953	23271.53
734.294	23204.42
734.635	23133.46
734.976	23196.06
735.317	23096.85
735.658	23083.74
735.999	22982.73
736.339	23046.23
736.68	23189.73
737.021	23060.69
737.361	22894.14
737.702	22972.11
738.042	22957.64
738.383	22908.83
738.723	22818.44
739.063	22836.29
739.404	22857.76
739.744	22774.6
740.084	22661.16
740.424	22752.45
740.764	22664.55
741.104	22765.11
741.444	22623.42
741.784	22554.04
742.124	22612.8
742.464	22542.74
742.804	22486.7
743.143	22573.93
743.483	22460.03
743.823	22394.95
744.162	22499.13
744.502	22467.94
744.841	22226.14
745.181	22341.84
745.52	22186.59
745.86	22310.66
746.199	22232.69
746.538	22175.07
746.877	22256.65
747.216	22118.8
747.556	22011.91
747.895	22070.44
748.234	21933.27
748.573	21850.33
748.911	21752.93
749.25	21939.59
749.589	21717.45
749.928	21700.05
750.267	21797
750.605	21693.5
750.944	21529.89
751.283	21562.43
751.621	21623.22
751.96	21404.47
752.298	21347.07
752.636	21423.67
752.975	21325.82
753.313	21204.92
753.651	21237.69
753.989	21267.07
754.327	21110.24
754.666	21072.04
755.004	21114.53
755.342	21063.91
755.679	21049.22
756.017	20939.84
756.355	20995.89
756.693	20881.77
757.031	20882.22
757.368	20734.88
757.706	20593.19
758.044	20584.37
758.381	20631.15
758.719	20466.41
759.056	20521.78
759.394	20477.48
759.731	20289.01
760.068	20158.4
760.405	20134.67
760.743	20110.04
761.08	20086.08
761.417	20116.59
761.754	20006.99
762.091	19916.59
762.428	19860.1
762.765	19821.68
763.102	19749.37
763.438	19722.25
763.775	19751.18
764.112	19588.02
764.449	19664.85
764.785	19573.55
765.122	19408.59
765.458	19333.33
765.795	19282.04
766.131	19282.49
766.467	19233.22
766.804	19111.42
767.14	18981.03
767.476	19072.55
767.812	18976.05
768.148	18883.18
768.485	18833.01
768.821	18653.58
769.157	18646.35
769.492	18618.32
769.828	18564.77
770.164	18423.98
770.5	18491.32
770.836	18382.4
771.171	18339.01
771.507	18289.29
771.842	18084.55
772.178	18153.7
772.513	18101.28
772.849	18024.67
773.184	17972.92
773.519	17915.52
773.855	17805.46
774.19	17780.61
774.525	17651.57
774.86	17781.06
775.195	17708.29
775.53	17529.77
775.865	17475.76
776.2	17357.11
776.535	17217.68
776.87	17272.82
777.205	17103.56
777.539	17123.67
777.874	17121.87
778.209	16968.88
778.543	16946.5
778.878	16826.28
779.212	16882.32
779.547	16662.22
779.881	16786.06
780.215	16644.36
780.55	16718.26
780.884	16502.67
781.218	16455.67
781.552	16514.65
781.886	16408.66
782.22	16253.64
782.554	16215.22
782.888	16100.65
783.222	15990.82
783.556	15978.39
783.889	15918.06
784.223	15830.6
784.557	15809.36
784.89	15868.57
785.224	15751.51
785.557	15610.95
785.891	15621.34
786.224	15548.57
786.558	15543.83
786.891	15407.11
787.224	15359.65
787.557	15367.11
787.891	15347.45
788.224	15231.29
788.557	15243.27
788.89	15227.9
789.223	15137.74
789.556	15094.8
789.888	15022.26
790.221	14908.82
790.554	14879.89
790.887	14988.59
791.219	14835.82
791.552	14676.96
791.884	14683.51
792.217	14619.11
792.549	14647.81
792.882	14533.01
793.214	14423.63
793.546	14547.02
793.879	14354.71
794.211	14339.57
794.543	14344.09
794.875	14255.05
795.207	14283.97
795.539	14221.6
795.871	14091.89
796.203	14027.03
796.535	14021.38
796.867	13928.5
797.198	13907.04
797.53	13878.79
797.862	13759.02
798.193	13803.31
798.525	13715.63
798.856	13738
799.188	13547.27
799.519	13504.56
799.85	13459.82
800.182	13477.67
800.513	13526.71
800.844	13335.3
801.175	13475.63
801.506	13377.78
801.837	13251.23
802.168	13184.12
802.499	13273.38
802.83	13244
803.161	13199.71
803.491	13100.05
803.822	13099.83
804.153	13060.73
804.483	12983.44
804.814	12868.19
805.145	12890.57
805.475	12888.98
805.805	12816.89
806.136	12797.23
806.466	12833.39
806.796	12773.05
807.126	12608.76
807.457	12660.97
807.787	12592.27
808.117	12529.67
808.447	12554.08
808.777	12505.26
809.107	12534.87
809.436	12491.93
809.766	12451.25
810.096	12388.43
810.426	12365.61
810.755	12354.76
811.085	12284.03
811.414	12223.24
811.744	12281.32
812.073	12158.61
812.403	12196.12
812.732	12029.57
813.061	12106.63
813.39	11925.39
813.719	11940.99
814.049	12097.82
814.378	12003.36
814.707	11885.17
815.036	11914.32
815.365	11766.53
815.693	11700.77
816.022	11751.84
816.351	11709.81
816.68	11603.14
817.008	11722.46
817.337	11545.52
817.665	11628
817.994	11572.86
818.322	11589.81
818.651	11512.07
818.979	11495.12
819.307	11469.81
819.636	11467.33
819.964	11474.11
820.292	11488.12
820.62	11433.43
820.948	11325.41
821.276	11496.48
821.604	11465.74
821.932	11414.22
822.259	11427.1
822.587	11441.56
822.915	11437.04
823.243	11453.09
823.57	11399.3
823.898	11399.53
824.225	11407.21
824.553	11368.12
824.88	11326.76
825.207	11378.29
825.535	11378.74
825.862	11383.94
826.189	11334
826.516	11384.84
826.843	11433.43
827.17	11401.56
827.497	11480.21
827.824	11347.55
828.151	11412.64
828.478	11322.47
828.805	11487.44
829.131	11364.5
829.458	11336.48
829.785	11347.78
830.111	11350.04
830.438	11416.48
830.764	11343.71
831.09	11324.05
831.417	11313.43
831.743	11367.44
832.069	11362.47
832.395	11310.04
832.722	11292.64
833.048	11237.5
833.374	11263.04
833.7	11184.17
834.026	11293.09
834.351	11262.81
834.677	11220.1
835.003	11279.31
835.329	11192.76
835.654	11171.29
835.98	11113.21
836.306	11229.82
836.631	11094
836.956	11148.69
837.282	11150.5
837.607	11122.93
837.932	11041.57
838.258	11045.87
838.583	11048.81
838.908	10991.18
839.233	11050.61
839.558	10955.47
839.883	10913.44
840.208	10978.07
840.533	11029.37
840.858	10952.99
841.182	10985.98
841.507	11001.58
841.832	10826.21
842.156	10866.89
842.481	10896.95
842.805	10821.01
843.13	10848.36
843.454	10859.88
843.778	10789.83
844.103	10788.7
844.427	10752.99
844.751	10758.64
845.075	10673.22
845.399	10650.4
845.723	10561.59
846.047	10657.18
846.371	10535.15
846.695	10530.63
847.019	10394.81
847.343	10349.39
847.666	10315.04
847.99	10294.25
848.313	10282.5
848.637	10213.8
848.96	10192.56
849.284	10153.24
849.607	10011.32
849.931	10073.69
850.254	10053.13
850.577	9913.92
850.9	9869.63
851.223	9907.14
851.546	9822.85
851.869	9744.89
852.192	9816.07
852.515	9628.73
852.838	9692.46
853.161	9655.17
853.483	9593.02
853.806	9566.58
854.129	9579.69
854.451	9489.52
854.774	9475.51
855.096	9440.03
855.419	9439.36
855.741	9432.12
856.063	9370.66
856.385	9286.14
856.708	9340.38
857.03	9306.48
857.352	9321.62
857.674	9242.07
857.996	9241.17
858.318	9149.19
858.64	9148.97
858.961	9172.24
859.283	9198.23
859.605	9121.85
859.926	9146.93
860.248	9098.57
860.57	9061.06
860.891	9084.34
861.212	9015.41
861.534	9067.84
861.855	8988.52
862.176	8980.61
862.498	9034.85
862.819	8976.09
863.14	8927.51
863.461	8897.9
863.782	8841.86
864.103	8894.74
864.424	8802.31
864.745	8885.02
865.065	8835.76
865.386	8759.83
865.707	8816.55
866.027	8736.78
866.348	8743.1
866.668	8737.45
866.989	8747.85
867.309	8634.18
867.63	8698.36
867.95	8684.35
868.27	8603.67
868.59	8673.73
868.91	8648.42
869.23	8564.35
869.55	8551.24
869.87	8582.2
870.19	8539.27
870.51	8527.29
870.83	8532.71
871.15	8504.92
871.469	8515.76
871.789	8549.66
872.109	8443.9
872.428	8435.09
872.748	8427.63
873.067	8361.87
873.386	8418.82
873.706	8379.95
874.025	8297.01
874.344	8340.63
874.663	8425.82
874.982	8393.28
875.301	8322.78
875.62	8389.21
875.939	8308.76
876.258	8299.05
876.577	8311.25
876.896	8247.75
877.214	8294.75
877.533	8233.51
877.852	8241.87
878.17	8234.42
878.489	8190.8
878.807	8218.37
879.125	8143.12
879.444	8137.47
879.762	8135.89
880.08	8078.26
880.398	8079.84
880.716	8089.11
881.034	8061.09
881.352	8049.11
881.67	8042.1
881.988	8067.19
882.306	8058.38
882.624	8033.29
882.941	7951.03
883.259	7902.45
883.577	7869
883.894	7923.01
884.212	7925.95
884.529	7880.98
884.846	7838.95
885.164	7836.91
885.481	7932.28
885.798	7855.67
886.115	7731.83
886.432	7788.78
886.75	7746.97
887.067	7745.62
887.383	7709.46
887.7	7741.1
888.017	7698.39
888.334	7708.33
888.651	7695.22
888.967	7629.91
889.284	7645.73
889.6	7544.49
889.917	7515.79
890.233	7545.62
890.55	7473.53
890.866	7504.04
891.182	7447.54
891.498	7492.51
891.815	7431.73
892.131	7433.53
892.447	7389.47
892.763	7322.35
893.079	7351.05
893.395	7372.29
893.71	7360.54
894.026	7229.47
894.342	7260.2
894.657	7223.82
894.973	7186.99
895.289	7197.38
895.604	7207.78
895.92	7126.87
896.235	7129.59
896.55	7148.12
896.865	7095.24
897.181	7083.49
897.496	7062.02
897.811	7010.04
898.126	7009.59
898.441	6949.48
898.756	6964.39
899.071	6929.59
899.386	6855.92
899.7	6869.93
900.015	6849.37
900.33	6757.84
900.644	6774.34
900.959	6811.18
901.273	6741.12
901.588	6782.48
901.902	6637.17
902.216	6707.68
902.531	6711.52
902.845	6641.24
903.159	6590.17
903.473	6591.07
903.787	6530.05
904.101	6487.12
904.415	6502.26
904.729	6459.77
905.042	6475.14
905.356	6438.76
905.67	6456.38
905.984	6434.24
906.297	6407.57
906.611	6303.62
906.924	6370.74
907.237	6330.74
907.551	6268.14
907.864	6250.06
908.177	6210.51
908.491	6273.79
908.804	6194.24
909.117	6204.64
909.43	6097.07
909.743	6075.83
910.056	6110.63
910.368	6079.22
910.681	6037.41
910.994	6034.7
911.307	6004.19
911.619	5973.46
911.932	5932.33
912.244	5894.82
912.557	5912.9
912.869	5852.78
913.181	5865.21
913.494	5823.63
913.806	5837.42
914.118	5793.35
914.43	5768.27
914.742	5747.25
915.054	5693.01
915.366	5685.1
915.678	5628.61
915.99	5624.32
916.302	5607.14
916.613	5558.78
916.925	5566.92
917.236	5571.66
917.548	5553.81
917.859	5479.23
918.171	5496.86
918.482	5455.51
918.794	5421.16
919.105	5376.19
919.416	5356.75
919.727	5393.36
920.038	5348.84
920.349	5320.82
920.66	5322.4
920.971	5264.1
921.282	5229.07
921.593	5252.57
921.903	5239.69
922.214	5175.97
922.525	5192.01
922.835	5115.85
923.146	5093.03
923.456	5128.74
923.767	5129.87
924.077	5052.35
924.387	5008.29
924.697	5025.46
925.008	5041.05
925.318	4955.63
925.628	4973.26
925.938	4969.87
926.248	4915.86
926.558	4899.59
926.867	4848.06
927.177	4854.39
927.487	4826.6
927.796	4771.23
928.106	4788.63
928.416	4773.49
928.725	4815.75
929.034	4779.82
929.344	4738.91
929.653	4719.93
929.962	4661.85
930.271	4628.64
930.581	4643.55
930.89	4620.05
931.199	4578.24
931.508	4576.66
931.817	4587.51
932.125	4565.59
932.434	4545.7
932.743	4504.12
933.051	4472.71
933.36	4443.78
933.669	4427.28
933.977	4415.76
934.286	4421.86
934.594	4413.95
934.902	4381.18
935.21	4332.37
935.519	4342.77
935.827	4348.64
936.135	4319.26
936.443	4229.1
936.751	4221.87
937.059	4261.64
937.367	4207.4
937.674	4279.94
937.982	4245.59
938.29	4227.74
938.597	4201.98
938.905	4125.15
939.213	4114.07
939.52	4082.89
939.827	4097.8
940.135	4031.36
940.442	4071.36
940.749	4058.25
941.056	4101.42
941.363	4034.53
941.67	4063
941.977	3980.52
942.284	3991.59
942.591	3999.95
942.898	3941.2
943.205	3936.45
943.511	3923.34
943.818	3907.52
944.125	3810.13
944.431	3842.89
944.738	3833.4
945.044	3844.48
945.35	3827.07
945.657	3776.91
945.963	3733.97
946.269	3752.5
946.575	3747.08
946.881	3704.37
947.187	3726.29
947.493	3691.94
947.799	3716.12
948.105	3644.03
948.41	3599.74
948.716	3678.38
949.022	3602.22
949.327	3603.8
949.633	3581.43
949.938	3557.93
950.244	3577.59
950.549	3550.02
950.854	3559.06
951.16	3521.77
951.465	3506.86
951.77	3461.66
952.075	3498.72
952.38	3444.03
952.685	3433.41
952.99	3421.44
953.294	3391.15
953.599	3413.98
953.904	3404.71
954.209	3371.27
954.513	3356.35
954.818	3317.94
955.122	3316.13
955.426	3375.11
955.731	3297.37
956.035	3275.9
956.339	3291.95
956.643	3265.96
956.948	3236.13
957.252	3242.23
957.556	3220.99
957.86	3207.88
958.163	3170.37
958.467	3166.3
958.771	3182.35
959.075	3159.75
959.378	3131.95
959.682	3156.58
959.985	3100.54
960.289	3117.71
960.592	3074.33
960.896	3053.99
961.199	3055.57
961.502	3039.52
961.805	3078.39
962.108	3001.33
962.411	3027.55
962.714	2957.72
963.017	2961.33
963.32	2912.75
963.623	2938.74
963.926	2966.76
964.228	2946.65
964.531	2946.65
964.833	2897.16
965.136	2886.31
965.438	2884.73
965.741	2884.73
966.043	2816.71
966.345	2855.57
966.648	2812.19
966.95	2858.96
967.252	2778.74
967.554	2801.34
967.856	2767.67
968.158	2775.12
968.46	2764.73
968.761	2738.52
969.063	2767.67
969.365	2726.31
969.666	2726.09
969.968	2688.35
970.269	2683.83
970.571	2690.16
970.872	2683.83
971.174	2628.46
971.475	2658.97
971.776	2670.49
972.077	2629.59
972.378	2619.42
972.679	2604.28
972.98	2604.96
973.281	2604.06
973.582	2548.92
973.883	2557.28
974.183	2564.96
974.484	2546.43
974.785	2524.74
975.085	2507.11
975.386	2516.83
975.686	2505.53
975.986	2504.4
976.287	2462.59
976.587	2450.39
976.887	2442.93
977.187	2446.77
977.487	2461.91
977.787	2432.31
978.087	2429.82
978.387	2413.33
978.687	2382.59
978.987	2368.13
979.286	2352.76
979.586	2369.03
979.885	2382.82
980.185	2333.78
980.484	2305.76
980.784	2330.16
981.083	2350.5
981.382	2277.06
981.682	2324.52
981.981	2252.88
982.28	2268.25
982.579	2243.16
982.878	2281.58
983.177	2216.04
983.475	2248.58
983.774	2233.22
984.073	2233.44
984.372	2202.26
984.67	2182.82
984.969	2224.4
985.267	2166.78
985.566	2191.41
985.864	2164.97
986.162	2153.22
986.461	2131.75
986.759	2158.19
987.057	2110.28
987.355	2106.89
987.653	2132.43
987.951	2097.4
988.249	2064.86
988.547	2073.67
988.844	2037.74
989.142	2059.21
989.44	2071.64
989.737	2035.94
990.035	2013.56
990.332	2014.47
990.63	2012.88
990.927	2002.04
991.224	1990.74
991.521	1989.16
991.819	2018.76
992.116	1976.5
992.413	1970.4
992.71	1943.96
993.006	1952.1
993.303	1942.6
993.6	1937.18
993.897	1905.54
994.193	1947.58
994.49	1927.92
994.787	1883.85
995.083	1858.09
995.379	1844.08
995.676	1879.1
995.972	1845.66
996.268	1841.36
996.565	1829.16
996.861	1835.71
997.157	1840.01
997.453	1845.66
997.749	1799.56
998.044	1793.23
998.34	1773.57
998.636	1769.28
998.932	1760.24
999.227	1761.59
999.523	1756.85
999.818	1731.76
1000.114	1731.08
1000.409	1721.59
1000.704	1698.09
1001	1698.77
1001.295	1677.75
1001.59	1705.77
1001.885	1700.58
1002.18	1660.8
1002.475	1643.18
1002.77	1671.88
1003.065	1642.27
1003.359	1654.25
1003.654	1674.14
1003.949	1617.42
1004.243	1624.87
1004.538	1610.18
1004.832	1576.74
1005.127	1585.55
1005.421	1614.93
1005.715	1589.85
1006.009	1559.11
1006.304	1561.15
1006.598	1535.16
1006.892	1528.6
1007.186	1541.48
1007.48	1534.71
1007.773	1541.71
1008.067	1531.32
1008.361	1479.79
1008.655	1475.05
1008.948	1475.5
1009.242	1486.35
1009.535	1462.16
1009.829	1464.65
1010.122	1468.04
1010.415	1459.45
1010.708	1426.01
1011.001	1440.7
1011.295	1435.05
1011.588	1392.11
1011.881	1386.91
1012.173	1407.03
1012.466	1384.65
1012.759	1405.22
1013.052	1369.96
1013.344	1382.84
1013.637	1371.09
1013.93	1360.92
1014.222	1360.02
1014.514	1326.35
1014.807	1301.49
1015.099	1308.72
1015.391	1280.7
1015.683	1291.55
1015.976	1332.22
1016.268	1292.68
1016.56	1274.37
1016.851	1280.47
1017.143	1256.75
1017.435	1228.27
1017.727	1261.49
1018.018	1242.51
1018.31	1257.42
1018.602	1247.48
1018.893	1216.97
1019.185	1216.97
1019.476	1205
1019.767	1182.4
1020.058	1167.71
1020.35	1182.4
1020.641	1168.61
1020.932	1175.62
1021.223	1180.36
1021.514	1158.22
1021.804	1136.75
1022.095	1164.32
1022.386	1146.24
1022.677	1154.6
1022.967	1120.93
1023.258	1111.67
1023.548	1108.05
1023.839	1085.23
1024.129	1106.02
1024.419	1100.82
1024.709	1094.04
1025	1080.71
1025.29	1057.88
1025.58	1063.31
1025.87	1048.62
1026.16	1031.22
1026.449	1065.79
1026.739	1045.45
1027.029	1010.88
1027.319	1027.15
1027.608	1015.85
1027.898	1004.78
1028.187	974.49
1028.477	1024.89
1028.766	1000.03
1029.055	970.65
1029.344	1005.23
1029.634	991.89
1029.923	962.29
1030.212	970.88
1030.501	964.32
1030.79	950.99
1031.078	957.09
1031.367	940.6
1031.656	920.26
1031.945	935.63
1032.233	897.66
1032.522	935.63
1032.81	924.1
1033.099	906.7
1033.387	908.06
1033.675	889.3
1033.963	881.16
1034.251	885.23
1034.54	892.46
1034.828	876.87
1035.116	878
1035.403	874.84
1035.691	871.22
1035.979	876.42
1036.267	849.53
1036.554	829.87
1036.842	846.14
1037.129	835.29
1037.417	840.49
1037.704	827.83
1037.992	828.51
1038.279	844.55
1038.566	817.66
1038.853	817.66
1039.14	817.66
