Data from foam2_polystyrene_foam_FLMS001491_00080.txt Node
Date: Wed Feb 08 10:58:29 GMT 2017
User: dcchb
Spectrometer: FLMS00149
Trigger mode: 0
Integration Time (sec): 2.000000E-2
Scans to average: 10
Electric dark correction enabled: true
Nonlinearity correction enabled: false
Boxcar width: 0
XAxis mode: Wavelengths
Number of Pixels in Spectrum: 2048
>>>>>Begin Spectral Data<<<<<
341.393	-15.68
341.776	-15.68
342.16	-15.68
342.543	-62.68
342.927	-84.15
343.31	-65.39
343.693	-71.72
344.077	-84.6
344.46	-66.07
344.843	-55
345.226	-33.53
345.61	-2.8
345.993	-22.23
346.376	7.6
346.759	20.71
347.142	26.81
347.525	31.78
347.908	43.08
348.291	66.58
348.674	83.3
349.057	121.49
349.44	127.82
349.823	134.15
350.206	174.83
350.588	187.48
350.971	201.27
351.354	241.94
351.737	254.37
352.119	288.5
352.502	272.22
352.884	288.27
353.267	300.25
353.65	293.92
354.032	319.23
354.414	318.55
354.797	312
355.179	345.89
355.562	334.37
355.944	367.82
356.326	337.08
356.709	351.32
357.091	368.04
357.473	393.13
357.855	373.24
358.238	362.84
358.62	351.77
359.002	349.96
359.384	354.71
359.766	349.74
360.148	372.56
360.53	356.74
360.912	346.8
361.294	354.93
361.676	359.45
362.057	359
362.439	366.01
362.821	372.33
363.203	358.1
363.584	330.08
363.966	333.24
364.348	362.39
364.729	339.79
365.111	362.39
365.493	356.52
365.874	345.44
366.256	375.5
366.637	344.31
367.019	348.83
367.4	371.43
367.781	369.85
368.163	332.11
368.544	360.36
368.925	377.31
369.306	368.72
369.688	347.7
370.069	361.26
370.45	370.3
370.831	380.02
371.212	373.69
371.593	357.65
371.974	342.05
372.355	380.02
372.736	382.28
373.117	347.93
373.498	384.09
373.879	378.89
374.26	384.54
374.641	373.01
375.021	356.74
375.402	394.48
375.783	395.61
376.163	418.89
376.544	384.31
376.925	405.78
377.305	403.52
377.686	393.8
378.066	424.99
378.447	396.74
378.827	414.37
379.208	412.56
379.588	421.6
379.968	433.12
380.349	430.86
380.729	423.63
381.109	413.01
381.489	415.95
381.87	436.29
382.25	441.03
382.63	449.85
383.01	454.59
383.39	432.67
383.77	439.45
384.15	433.58
384.53	455.95
384.91	489.39
385.29	467.25
385.67	491.43
386.049	471.54
386.429	480.35
386.809	460.69
387.189	475.83
387.568	487.13
387.948	504.53
388.328	491.2
388.707	497.08
389.087	499.34
389.466	499.79
389.846	523.52
390.225	520.35
390.605	504.53
390.984	517.64
391.363	518.32
391.743	534.14
392.122	548.38
392.501	555.83
392.881	538.66
393.26	569.84
393.639	560.35
394.018	550.86
394.397	563.06
394.776	553.8
395.155	562.39
395.534	566.23
395.913	574.14
396.292	579.56
396.671	600.8
397.05	616.17
397.429	574.82
397.808	609.84
398.186	602.39
398.565	614.14
398.944	616.85
399.323	646
399.701	651.65
400.08	657.53
400.458	664.53
400.837	657.3
401.215	645.1
401.594	684.64
401.972	664.53
402.351	652.78
402.729	675.83
403.107	698.2
403.486	653.91
403.864	714.7
404.242	711.08
404.62	707.92
404.999	721.25
405.377	719.22
405.755	705.89
406.133	726
406.511	736.62
406.889	760.8
407.267	761.93
407.645	776.39
408.023	815.94
408.401	817.29
408.779	807.8
409.156	812.55
409.534	833.34
409.912	828.82
410.29	836.73
410.667	848.48
411.045	868.14
411.422	875.82
411.8	887.58
412.178	876.05
412.555	884.41
412.933	892.55
413.31	918.76
413.687	953.79
414.065	962.6
414.442	943.17
414.819	971.64
415.197	982.04
415.574	996.5
415.951	999.44
416.328	1000.79
416.705	1019.55
417.082	1030.85
417.46	1049.38
417.837	1059.77
418.214	1032.66
418.591	1055.25
418.967	1057.51
419.344	1107
419.721	1103.16
420.098	1118.98
420.475	1104.07
420.852	1106.55
421.228	1144.97
421.605	1123.5
421.982	1150.62
422.358	1166.21
422.735	1191.97
423.111	1156.04
423.488	1200.56
423.864	1203.27
424.241	1248.7
424.617	1247.34
424.994	1281.01
425.37	1292.99
425.746	1285.76
426.123	1257.96
426.499	1295.93
426.875	1319.88
427.251	1370.95
427.627	1376.6
428.003	1383.16
428.379	1409.37
428.756	1398.3
429.132	1424.06
429.507	1460.22
429.883	1457.28
430.259	1463.38
430.635	1498.86
431.011	1509.93
431.387	1535.47
431.763	1577.95
432.138	1591.51
432.514	1599.2
432.89	1600.78
433.265	1629.93
433.641	1634.9
434.016	1727.55
434.392	1728.46
434.767	1727.78
435.143	1710.15
435.518	1776.37
435.894	1770.26
436.269	1811.17
436.644	1808.91
437.02	1860.43
437.395	1849.81
437.77	1896.36
438.145	1918.96
438.52	1940.43
438.895	1946.53
439.271	1970.48
439.646	2002.12
440.021	2005.06
440.395	2040.99
440.77	2000.54
441.145	2062.69
441.52	2070.14
441.895	2077.83
442.27	2084.38
442.645	2087.32
443.019	2121.89
443.394	2131.38
443.769	2165.06
444.143	2169.12
444.518	2189.24
444.892	2221.55
445.267	2198.73
445.641	2234.88
446.016	2271.95
446.39	2280.53
446.764	2312.62
447.139	2255.45
447.513	2350.81
447.887	2357.37
448.262	2335.22
448.636	2364.82
449.01	2422.9
449.384	2441.88
449.758	2469.45
450.132	2466.52
450.506	2480.98
450.88	2503.13
451.254	2511.94
451.628	2551.03
452.002	2586.29
452.376	2619.06
452.75	2638.72
453.123	2666.74
453.497	2711.26
453.871	2706.06
454.244	2752.84
454.618	2775.66
454.992	2773.4
455.365	2796.23
455.739	2926.39
456.112	2939.72
456.486	2935.88
456.859	2962.32
457.232	3045.94
457.606	2994.86
457.979	3044.35
458.352	3099.49
458.725	3166.39
459.099	3181.3
459.472	3226.5
459.845	3255.65
460.218	3273.73
460.591	3308.08
460.964	3330.68
461.337	3427.4
461.71	3477.11
462.083	3522.76
462.456	3501.74
462.829	3535.64
463.201	3587.39
463.574	3600.5
463.947	3650.89
464.32	3777.67
464.692	3773.6
465.065	3806.82
465.438	3854.5
465.81	3911.22
466.183	3917.1
466.555	3978.57
466.928	4043.65
467.3	4047.94
467.672	4118
468.045	4206.36
468.417	4192.35
468.789	4280.03
469.161	4291.1
469.534	4425.79
469.906	4447.93
470.278	4507.59
470.65	4560.7
471.022	4640.25
471.394	4791.43
471.766	4752.33
472.138	4802.73
472.51	4886.34
472.882	4991.65
473.253	5067.13
473.625	5151.64
473.997	5264.86
474.369	5293.56
474.74	5299.21
475.112	5431.41
475.484	5487.23
475.855	5616.49
476.227	5628.47
476.598	5783.72
476.97	5857.84
477.341	5988.91
477.713	6046.76
478.084	6084.73
478.455	6302.35
478.827	6361.33
479.198	6519.97
479.569	6520.65
479.94	6696.01
480.311	6734.2
480.682	6938.26
481.053	7031.59
481.424	7135.32
481.795	7247.41
482.166	7329.44
482.537	7434.97
482.908	7576.21
483.279	7713.61
483.65	7876.77
484.021	7993.15
484.391	8054.17
484.762	8141.85
485.133	8219.13
485.503	8271.34
485.874	8498.45
486.244	8561.27
486.615	8792
486.985	8817.54
487.356	8992
487.726	9061.15
488.097	9290.52
488.467	9273.57
488.837	9474.24
489.207	9609.15
489.578	9824.29
489.948	9799.21
490.318	9955.13
490.688	10005.75
491.058	10225.18
491.428	10372.75
491.798	10400.09
492.168	10627.43
492.538	10649.58
492.908	10809.12
493.278	10963.92
493.648	10982.68
494.017	11148.77
494.387	11247.76
494.757	11351.71
495.126	11516.22
495.496	11542.89
495.866	11578.82
496.235	11763.22
496.605	11830.79
496.974	11962.76
497.344	12084.34
497.713	12099.94
498.082	12275.52
498.452	12380.61
498.821	12434.84
499.19	12515.74
499.559	12584.22
499.928	12625.12
500.298	12769.07
500.667	12925.68
501.036	12887.49
501.405	13087.03
501.774	13073.24
502.143	13163.86
502.512	13277.98
502.88	13357.3
503.249	13517.53
503.618	13573.57
503.987	13676.39
504.356	13777.63
504.724	13851.98
505.093	13888.82
505.462	14003.16
505.83	14127.45
506.199	14221.24
506.567	14534.67
506.936	14374
507.304	14672.98
507.672	14731.28
508.041	14791.62
508.409	14942.35
508.777	15030.48
509.145	15199.06
509.514	15178.27
509.882	15296.24
510.25	15330.59
510.618	15515.89
510.986	15623.46
511.354	15751.37
511.722	15879.05
512.09	16029.1
512.458	15917.69
512.826	16169.21
513.193	16220.73
513.561	16267.28
513.929	16433.83
514.297	16554.06
514.664	16741.85
515.032	16778.23
515.4	16963.54
515.767	17014.38
516.135	17201.95
516.502	17116.08
516.869	17536.4
517.237	17485.11
517.604	17497.08
517.972	17751.99
518.339	17922.83
518.706	17958.09
519.073	18069.72
519.44	18134.35
519.808	18400.34
520.175	18466.77
520.542	18645.53
520.909	18857.5
521.276	18766.65
521.643	18973.88
522.009	19138.85
522.376	19314.21
522.743	19406.64
523.11	19612.28
523.477	19825.61
523.843	19853.18
524.21	20093.4
524.577	20282.32
524.943	20440.28
525.31	20471.69
525.676	20818.12
526.043	20894.51
526.409	20977.44
526.776	21213.14
527.142	21310.77
527.508	21426.47
527.874	21506.69
528.241	21799.12
528.607	21851.77
528.973	22156.62
529.339	22111.88
529.705	22294.02
530.071	22478.87
530.437	22578.76
530.803	22765.42
531.169	22832.76
531.535	22860.78
531.901	22978.97
532.267	23118.86
532.632	23197.95
532.998	23319.3
533.364	23457.6
533.73	23504.38
534.095	23835.45
534.461	23835.45
534.826	23962.9
535.192	24093.52
535.557	24345.49
535.923	24369.9
536.288	24496.45
536.653	24689.66
537.019	24606.05
537.384	24740.73
537.749	24819.15
538.114	24953.61
538.479	24919.71
538.845	25055.75
539.21	25138.01
539.575	25274.5
539.94	25326.71
540.305	25453.94
540.67	25393.82
541.034	25604.44
541.399	25697.77
541.764	25788.39
542.129	25942.06
542.494	25860.25
542.858	26115.39
543.223	26111.55
543.587	26284.87
543.952	26355.83
544.316	26478.32
544.681	26475.6
545.045	26573.68
545.41	26695.26
545.774	26788.82
546.138	26783.62
546.503	27020
546.867	26923.05
547.231	27218.41
547.595	27180.44
547.959	27274.23
548.324	27454.33
548.688	27415.92
549.052	27538.17
549.416	27760.54
549.779	27705.18
550.143	27790.6
550.507	28010.03
550.871	28139.74
551.235	28154.43
551.599	28202.56
551.962	28516.91
552.326	28496.79
552.689	28593.29
553.053	28470.81
553.417	28623.12
553.78	29089.55
554.143	28911.25
554.507	29192.82
554.87	29100.39
555.234	29566.37
555.597	29336.32
555.96	29541.06
556.323	29757.55
556.686	29685.24
557.05	29937.89
557.413	29861.73
557.776	30199.57
558.139	30315.95
558.502	30350.53
558.865	30503.52
559.228	30722.95
559.59	30962.49
559.953	30990.29
560.316	31292.65
560.679	31219.43
561.041	31481.35
561.404	31559.76
561.767	31823.49
562.129	31793.43
562.492	32039.75
562.854	32148.45
563.217	32296.47
563.579	32270.25
563.941	32637.93
564.304	32647.42
564.666	32904.13
565.028	32888.32
565.39	33009.67
565.753	33228.19
566.115	33380.73
566.477	33484.68
566.839	33627.96
567.201	33887.84
567.563	33918.8
567.925	34095.52
568.287	34149.53
568.648	34318.11
569.01	34483.53
569.372	34661.38
569.734	34427.94
570.095	34855.95
570.457	35055.04
570.819	35049.62
571.18	35137.3
571.542	35343.39
571.903	35338.42
572.265	35345.88
572.626	35589.49
572.987	35559.88
573.349	35632.42
573.71	35665.64
574.071	35935.24
574.432	36105.41
574.794	36308.57
575.155	36177.27
575.516	36205.52
575.877	36381.33
576.238	36358.96
576.599	36496.58
576.96	36511.05
577.32	36555.79
577.681	36623.36
578.042	36756.69
578.403	36824.94
578.763	36865.39
579.124	36852.28
579.485	37136.79
579.845	37161.2
580.206	37072.84
580.566	37032.16
580.927	37139.5
581.287	37267.41
581.648	37196.23
582.008	37395.99
582.368	37248.65
582.728	37344.47
583.089	37285.26
583.449	37351.25
583.809	37386.28
584.169	37540.85
584.529	37409.33
584.889	37681.41
585.249	37480.96
585.609	37396.9
585.969	37510.79
586.329	37354.87
586.688	37542.43
587.048	37436.22
587.408	37441.42
587.768	37323.23
588.127	37454.52
588.487	37330.01
588.846	37696.33
589.206	37231.48
589.565	37378.59
589.925	37594.41
590.284	37495.43
590.643	37475.31
591.003	37430.12
591.362	37685.48
591.721	37412.72
592.08	37585.37
592.44	37751.69
592.799	37648.42
593.158	37659.04
593.517	37665.82
593.876	37552.83
594.235	37546.27
594.593	37709.43
594.952	37708.53
595.311	37611.58
595.67	37693.16
596.029	37788.3
596.387	37828.07
596.746	37898.58
597.104	37844.34
597.463	37856.55
597.822	37965.02
598.18	37722.54
598.538	37698.13
598.897	37988.52
599.255	37664.01
599.613	38161.62
599.972	37945.58
600.33	37956.88
600.688	37854.29
601.046	38022.64
601.404	38171.79
601.762	38032.36
602.12	38322.52
602.478	38278.23
602.836	38261.96
603.194	38128.18
603.552	38278.91
603.91	38152.58
604.268	38399.13
604.625	38364.1
604.983	38605.68
605.341	38278.91
605.698	38583.53
606.056	38590.54
606.413	38501.95
606.771	38697.88
607.128	38670.99
607.485	38588.73
607.843	38478.23
608.2	38710.08
608.557	38839.8
608.914	38773.13
609.272	38883.86
609.629	38951.89
609.986	39039.34
610.343	38845
610.7	39110.07
611.057	39069.4
611.414	38877.09
611.771	39057.19
612.127	39292.89
612.484	39097.64
612.841	39305.55
613.198	39231.65
613.554	39067.36
613.911	39319.11
614.267	39297.41
614.624	39317.53
614.98	39380.8
615.337	39624.86
615.693	39426
616.05	39263.06
616.406	39599.33
616.762	39478.65
617.118	39638.65
617.475	39626.22
617.831	39690.85
618.187	39809.72
618.543	39830.51
618.899	39981.69
619.255	40005.87
619.611	39837.74
619.967	40066.21
620.323	40056.49
620.678	39938.3
621.034	39958.64
621.39	39869.38
621.746	40037.96
622.101	40251.96
622.457	40029.15
622.812	40046.77
623.168	40110.95
623.523	40208.8
623.879	40232.98
624.234	39983.04
624.589	40084.29
624.945	40196.6
625.3	39993.89
625.655	40111.85
626.01	40216.26
626.365	40150.95
626.72	40084.29
627.075	40106.66
627.43	40085.87
627.785	40010.39
628.14	40208.35
628.495	40080.67
628.85	40108.47
629.205	39973.33
629.559	40235.69
629.914	39992.31
630.269	39931.52
630.623	39920.22
630.978	39733.79
631.332	39893.56
631.687	40039.77
632.041	39793.9
632.396	39916.15
632.75	39699.21
633.104	39765.88
633.459	39560.23
633.813	39557.75
634.167	39552.77
634.521	39539.89
634.875	39631.42
635.229	39333.34
635.583	39176.29
635.937	39217.19
636.291	39229.62
636.645	39214.48
636.999	39085.22
637.352	39127.25
637.706	38975.39
638.06	39065.55
638.413	38951.89
638.767	38747.15
639.121	38776.52
639.474	38594.15
639.828	38577.21
640.181	38532.91
640.534	38717.99
640.888	38514.83
641.241	38364.1
641.594	38474.16
641.947	38535.85
642.301	38439.81
642.654	38443.42
643.007	38487.04
643.36	38363.65
643.713	38212.24
644.066	38316.65
644.419	37955.53
644.771	37849.09
645.124	37464.69
645.477	37393.51
645.83	37186.28
646.182	37047.75
646.535	36936.12
646.888	36929.57
647.24	36749.68
647.593	36829.91
647.945	36813.18
648.298	36744.03
648.65	36631.49
649.002	36489.35
649.355	36598.73
649.707	36422.91
650.059	36775.45
650.411	37125.49
650.763	37115.55
651.115	37552.83
651.467	37351.25
651.819	37514.64
652.171	37414.75
652.523	37237.81
652.875	37269.67
653.227	37160.97
653.578	37238.26
653.93	37123.01
654.282	37042.78
654.633	36844.37
654.985	37070.13
655.337	37106.96
655.688	37107.64
656.039	37092.27
656.391	36864.71
656.742	37036.23
657.094	36947.19
657.445	37014.08
657.796	36824.48
658.147	36855.44
658.498	36732.51
658.849	36816.35
659.2	36653.41
659.551	36603.02
659.902	36865.84
660.253	36635.56
660.604	36769.34
660.955	36549.46
661.306	36680.31
661.656	36613.64
662.007	36635.34
662.358	36686.86
662.708	36670.82
663.059	36515.79
663.409	36398.05
663.76	36740.42
664.11	36556.92
664.461	36580.42
664.811	36643.7
665.161	36512.4
665.511	36573.42
665.862	36479.63
666.212	36600.76
666.562	36633.3
666.912	36481.44
667.262	36419.3
667.612	36471.27
667.962	36518.73
668.312	36344.95
668.662	36526.19
669.011	36471.5
669.361	36342.91
669.711	36451.16
670.06	36343.37
670.41	36251.62
670.76	36353.76
671.109	36272.63
671.459	36356.25
671.808	36148.34
672.157	36250.71
672.507	35913.77
672.856	36034.22
673.205	36017.5
673.554	36203.48
673.904	36052.3
674.253	36138.17
674.602	35958.52
674.951	35496.38
675.3	35359.44
675.649	36094.79
675.998	35893.21
676.346	35872.87
676.695	36035.58
677.044	35784.74
677.393	35887.11
677.741	35948.35
678.09	35714.46
678.438	35756.72
678.787	35785.64
679.135	35816.37
679.484	35444.41
679.832	35626.1
680.181	35450.51
680.529	35574.57
680.877	35342.04
681.225	35329.83
681.573	35526.89
681.922	35322.6
682.27	35082.61
682.618	35187.46
682.966	35063.63
683.314	35154.25
683.661	34874.7
684.009	34881.48
684.357	34685.33
684.705	34744.54
685.053	34812.11
685.4	34784.76
685.748	34561.27
686.095	34572.57
686.443	34366.24
686.79	34370.08
687.138	34314.27
687.485	34275.85
687.832	34153.14
688.18	34215.74
688.527	34065.91
688.874	34004.22
689.221	33905.92
689.568	33863.66
689.915	33743.89
690.262	33757.45
690.609	33589.31
690.956	33525.81
691.303	33546.83
691.65	33475.42
691.997	33443.1
692.344	33225.48
692.69	33161.98
693.037	33090.34
693.383	32846.51
693.73	33142.32
694.077	32812.84
694.423	32769.9
694.769	32670.69
695.116	32566.52
695.462	32459.85
695.808	32341.44
696.155	32488.1
696.501	32136.47
696.847	32289.24
697.193	32028
697.539	32168.79
697.885	31837.72
698.231	31800.89
698.577	31796.14
698.923	31851.51
699.269	31549.14
699.614	31429.37
699.96	31382.82
700.306	31578.75
700.651	31341.01
700.997	31205.42
701.342	31210.39
701.688	31098.53
702.033	30974.02
702.379	30851.99
702.724	30892.44
703.069	30796.17
703.415	30434.82
703.76	30650.86
704.105	30548.72
704.45	30484.09
704.795	30182.85
705.14	30227.82
705.485	30112.34
705.83	30118.9
706.175	30247.26
706.52	29947.15
706.865	29919.81
707.209	29859.02
707.554	29768.4
707.899	29793.93
708.243	29661.51
708.588	29636.65
708.932	29244.12
709.277	29353.27
709.621	29441.63
709.966	29201.18
710.31	29300.61
710.654	29061.3
710.998	29056.55
711.342	29000.73
711.687	28984.92
712.031	28868.53
712.375	28711.48
712.719	28766.39
713.063	28647.75
713.407	28805.49
713.75	28643
714.094	28579.05
714.438	28312.39
714.782	28436.91
715.125	28294.31
715.469	28433.97
715.812	28192.85
716.156	27962.12
716.499	28104.49
716.843	28144.03
717.186	27902.01
717.53	27898.62
717.873	27989.69
718.216	27908.79
718.559	27754.44
718.902	27463.6
719.246	27504.05
719.589	27579.53
719.932	27292.08
720.275	27422.02
720.617	27342.47
720.96	27219.31
721.303	27262.7
721.646	27298.41
721.989	27066.55
722.331	27206.21
722.674	27100.9
723.016	27153.33
723.359	27082.37
723.701	27055.7
724.044	26885.76
724.386	26769.61
724.729	26902.94
725.071	26924.41
725.413	26796.5
725.755	26728.93
726.097	26628.59
726.439	26567.13
726.782	26538.43
727.124	26608.71
727.465	26457.98
727.807	26559.67
728.149	26368.94
728.491	26321.26
728.833	26447.13
729.175	26245.1
729.516	26206.46
729.858	26262.05
730.199	26093.47
730.541	26130.08
730.882	25970.53
731.224	26170.75
731.565	25925.34
731.906	25917.65
732.248	26023.86
732.589	25775.06
732.93	25635.4
733.271	25717.88
733.612	25744.78
733.953	25724.89
734.294	25370.1
734.635	25575.97
734.976	25653.93
735.317	25548.85
735.658	25472.69
735.999	25347.5
736.339	25417.78
736.68	25411
737.021	25408.29
737.361	25150.89
737.702	25247.16
738.042	25192.25
738.383	25077.9
738.723	25118.12
739.063	25073.83
739.404	25133.49
739.744	25035.87
740.084	24909.54
740.424	24949.32
740.764	24939.6
741.104	24941.41
741.444	24788.64
741.784	24728.3
742.124	24806.49
742.464	24706.38
742.804	24702.54
743.143	24573.28
743.483	24539.61
743.823	24465.49
744.162	24422.32
744.502	24469.33
744.841	24398.82
745.181	24429.56
745.52	24386.84
745.86	24284.93
746.199	24187.3
746.538	24230.92
746.877	24310.46
747.216	24251.71
747.556	24187.3
747.895	24121.77
748.234	24145.04
748.573	24058.94
748.911	23988.44
749.25	23903.47
749.589	23854.66
749.928	23867.08
750.267	23830.48
750.605	23761.78
750.944	23667.32
751.283	23599.29
751.621	23702.57
751.96	23563.59
752.298	23517.49
752.636	23423.25
752.975	23379.19
753.313	23307.55
753.651	23348.68
753.989	23169.7
754.327	23195.24
754.666	23056.03
755.004	23078.63
755.342	23165.41
755.679	22936.04
756.017	22891.74
756.355	22856.49
756.693	22729.71
757.031	22769.71
757.368	22613.11
757.706	22585.99
758.044	22544.41
758.381	22583.05
758.719	22459.44
759.056	22461.47
759.394	22477.06
759.731	22343.06
760.068	22287.92
760.405	22133.34
760.743	22142.16
761.08	22141.03
761.417	22019.22
761.754	22037.3
762.091	21877.76
762.428	21739.91
762.765	21740.13
763.102	21806.35
763.438	21653.58
763.775	21531.55
764.112	21560.93
764.449	21457.2
764.785	21453.36
765.122	21210.43
765.458	21163.65
765.795	21193.03
766.131	21100.15
766.467	21099.47
766.804	21008.63
767.14	20866.26
767.476	20819.93
767.812	20826.49
768.148	20686.83
768.485	20538.81
768.821	20421.07
769.157	20430.79
769.492	20283.22
769.828	20458.81
770.164	20161.19
770.5	20080.52
770.836	20035.77
771.171	20066.73
771.507	19932.27
771.842	19788.32
772.178	19773.63
772.513	19805.5
772.849	19698.83
773.184	19650.25
773.519	19564.82
773.855	19492.06
774.19	19331.61
774.525	19292.52
774.86	19225.62
775.195	19264.27
775.53	19187.89
775.865	19064.05
776.2	19025.63
776.535	18799.42
776.87	18897.05
777.205	18808.01
777.539	18775.01
777.874	18819.76
778.209	18594
778.543	18577.28
778.878	18544.29
779.212	18446.89
779.547	18371.86
779.881	18398.08
780.215	18251.86
780.55	18297.97
780.884	18132.32
781.218	18085.77
781.552	18164.64
781.886	18064.53
782.22	17945.21
782.554	17876.28
782.888	17634.25
783.222	17608.04
783.556	17525.1
783.889	17584.09
784.223	17401.49
784.557	17304.32
784.89	17423.86
785.224	17291.44
785.557	17137.54
785.891	17097.77
786.224	17046.25
786.558	17123.53
786.891	16911.56
787.224	16771.9
787.557	16738.46
787.891	16924.22
788.224	16730.1
788.557	16766.93
788.89	16620.72
789.223	16632.92
789.556	16544.34
789.888	16428.64
790.221	16379.82
790.554	16256.44
790.887	16337.34
791.219	16201.75
791.552	16169.66
791.884	16069.55
792.217	15971.02
792.549	16023.45
792.882	15878.59
793.214	15912.72
793.546	15839.95
793.879	15779.16
794.211	15693.74
794.543	15695.1
794.875	15585.27
795.207	15638.15
795.539	15610.8
795.871	15545.95
796.203	15377.14
796.535	15353.41
796.867	15373.52
797.198	15268.89
797.53	15241.77
797.862	15162.68
798.193	15192.96
798.525	15086.75
798.856	15106.18
799.188	14918.39
799.519	14891.73
799.85	14827.55
800.182	14883.59
800.513	14843.59
800.844	14717.95
801.175	14726.08
801.506	14816.25
801.837	14659.42
802.168	14628.01
802.499	14531.28
802.83	14498.97
803.161	14400.67
803.491	14454.22
803.822	14491.74
804.153	14314.57
804.483	14192.08
804.814	14227.11
805.145	14174.91
805.475	14178.75
805.805	14143.5
806.136	14110.5
806.466	14089.94
806.796	14031.64
807.126	13888.82
807.457	13891.75
807.787	13846.78
808.117	13863.96
808.447	13782.6
808.777	13815.15
809.107	13720.68
809.436	13702.38
809.766	13680.46
810.096	13631.42
810.426	13517.98
810.755	13551.2
811.085	13593.91
811.414	13501.48
811.744	13452.44
812.073	13454.02
812.403	13349.85
812.732	13241.15
813.061	13296.06
813.39	13255.16
813.719	13177.42
814.049	13242.05
814.378	13133.58
814.707	13146.24
815.036	13121.6
815.365	13028.95
815.693	13013.81
816.022	13004.55
816.351	12923.64
816.68	12894.49
817.008	12927.71
817.337	12795.51
817.665	12729.75
817.994	12857.2
818.322	12839.13
818.651	12717.32
818.979	12668.06
819.307	12717.77
819.636	12649.07
819.964	12595.29
820.292	12610.66
820.62	12622.86
820.948	12489.76
821.276	12640.94
821.604	12596.42
821.932	12528.63
822.259	12540.6
822.587	12517.1
822.915	12538.57
823.243	12649.3
823.57	12500.6
823.898	12565.23
824.225	12427.39
824.553	12462.41
824.88	12449.76
825.207	12530.89
825.535	12480.94
825.862	12480.94
826.189	12367.95
826.516	12504.45
826.843	12552.13
827.17	12466.25
827.497	12421.51
827.824	12537.21
828.151	12489.98
828.478	12495.63
828.805	12549.64
829.131	12482.98
829.458	12475.75
829.785	12450.21
830.111	12492.47
830.438	12540.15
830.764	12539.25
831.09	12408.4
831.417	12384.9
831.743	12532.92
832.069	12484.56
832.395	12396.65
832.722	12448.63
833.048	12410.66
833.374	12438.01
833.7	12360.95
834.026	12328.18
834.351	12423.09
834.677	12380.61
835.003	12294.96
835.329	12314.62
835.654	12327.5
835.98	12315.52
836.306	12242.76
836.631	12310.33
836.956	12270.55
837.282	12354.17
837.607	12109.88
837.932	12107.39
838.258	12167.96
838.583	12119.37
838.908	12035.53
839.233	12004.12
839.558	12010.22
839.883	12028.53
840.208	11912.82
840.533	11948.53
840.858	11969.54
841.182	11954.4
841.507	11962.76
841.832	11793.5
842.156	11836.89
842.481	11836.67
842.805	11787.18
843.13	11753.28
843.454	11751.7
843.778	11763
844.103	11700.85
844.427	11693.17
844.751	11640.74
845.075	11639.16
845.399	11593.51
845.723	11486.39
846.047	11542.89
846.371	11463.57
846.695	11473.51
847.019	11318.94
847.343	11356.23
847.666	11287.3
847.99	11219.96
848.313	11181.32
848.637	11180.64
848.96	11130.92
849.284	11035.33
849.607	10977.48
849.931	10997.37
850.254	10944.94
850.577	10846.41
850.9	10766.19
851.223	10787.2
851.546	10683.48
851.869	10613.87
852.192	10692.52
852.515	10605.29
852.838	10575.91
853.161	10536.81
853.483	10496.36
853.806	10455.69
854.129	10452.52
854.451	10419.98
854.774	10346.08
855.096	10349.7
855.419	10251.17
855.741	10301.34
856.063	10309.47
856.385	10247.1
856.708	10169.59
857.03	10141.12
857.352	10135.02
857.674	10130.04
857.996	10074.68
858.318	9997.17
858.64	10028.58
858.961	9981.8
859.283	9887.11
859.605	9890.5
859.926	9990.39
860.248	9912.42
860.57	9840.33
860.891	9832.65
861.212	9822.93
861.534	9790.17
861.855	9732.09
862.176	9760.11
862.498	9752.88
862.819	9715.14
863.14	9690.28
863.461	9637.85
863.782	9623.17
864.103	9647.57
864.424	9607.12
864.745	9586.56
865.065	9527.57
865.386	9548.36
865.707	9596.05
866.027	9548.59
866.348	9519.21
866.668	9559.89
866.989	9512.66
867.309	9415.49
867.63	9432.66
867.95	9423.17
868.27	9396.96
868.59	9423.62
868.91	9338.43
869.23	9340.01
869.55	9271.54
869.87	9321.7
870.19	9325.32
870.51	9307.69
870.83	9304.53
871.15	9282.84
871.469	9265.43
871.789	9255.04
872.109	9255.27
872.428	9160.13
872.748	9220.69
873.067	9177.53
873.386	9172.56
873.706	9126.23
874.025	9065.44
874.344	9122.84
874.663	9088.49
874.982	9004.65
875.301	9121.71
875.62	9044.42
875.939	9020.7
876.258	9007.81
876.577	8985.44
876.896	8982.96
877.214	8972.79
877.533	8995.61
877.852	8935.95
878.17	9005.1
878.489	8956.97
878.807	8856.18
879.125	8892.11
879.444	8820.7
879.762	8841.04
880.08	8816.63
880.398	8805.11
880.716	8779.57
881.034	8705
881.352	8776.41
881.67	8691.66
881.988	8759.91
882.306	8754.49
882.624	8683.08
882.941	8655.05
883.259	8604.21
883.577	8641.95
883.894	8630.2
884.212	8564.66
884.529	8547.49
884.846	8492.12
885.164	8558.33
885.481	8514.49
885.798	8538.45
886.115	8482.18
886.432	8474.72
886.75	8472.01
887.067	8396.3
887.383	8396.98
887.7	8368.28
888.017	8366.02
888.334	8367.6
888.651	8301.17
888.967	8286.7
889.284	8228.4
889.6	8253.94
889.917	8146.37
890.233	8208.06
890.55	8185.24
890.866	8158.57
891.182	8165.12
891.498	8174.84
891.815	8056.2
892.131	8138.23
892.447	8097.1
892.763	8028.63
893.079	7998.8
893.395	7888.3
893.71	7952.47
894.026	7860.27
894.342	7936.66
894.657	7803.1
894.973	7809.65
895.289	7841.74
895.604	7820.27
895.92	7785.93
896.235	7735.53
896.55	7750.22
896.865	7684.23
897.181	7645.14
897.496	7670.9
897.811	7632.48
898.126	7548.87
898.441	7585.48
898.756	7518.36
899.071	7498.02
899.386	7479.27
899.7	7446.27
900.015	7431.58
900.33	7337.35
900.644	7315.88
900.959	7344.81
901.273	7351.36
901.588	7220.52
901.902	7214.41
902.216	7218.03
902.531	7195.43
902.845	7195.66
903.159	7145.26
903.473	7185.49
903.787	7077.92
904.101	7083.34
904.415	7090.8
904.729	7071.82
905.042	6996.12
905.356	7023.69
905.67	6938.49
905.984	6965.61
906.297	6942.33
906.611	6872.05
906.924	6890.81
907.237	6833.41
907.551	6850.36
907.864	6849.23
908.177	6770.13
908.491	6738.95
908.804	6698.04
909.117	6694.2
909.43	6638.84
909.743	6640.19
910.056	6621.89
910.368	6584.83
910.681	6507.31
910.994	6501.67
911.307	6463.02
911.619	6457.6
911.932	6494.43
912.244	6440.42
912.557	6417.15
912.869	6378.96
913.181	6351.61
913.494	6338.05
913.806	6296.7
914.118	6308.68
914.43	6208.34
914.742	6245.85
915.054	6206.98
915.366	6208.57
915.678	6180.09
915.99	6169.47
916.302	6088.34
916.613	6041.11
916.925	6080.43
917.236	6034.56
917.548	6036.14
917.859	6003.6
918.171	5974.9
918.482	5906.43
918.794	5933.54
919.105	5931.74
919.416	5856.03
919.727	5837.5
920.038	5800.89
920.349	5806.09
920.66	5774
920.971	5779.88
921.282	5779.42
921.593	5654.46
921.903	5638.86
922.214	5624.17
922.525	5611.97
922.835	5598.64
923.146	5560.67
923.456	5555.02
923.767	5512.76
924.077	5461.24
924.387	5462.14
924.697	5440.45
925.008	5409.26
925.318	5367.23
925.628	5407
925.938	5365.2
926.248	5308.25
926.558	5293.79
926.867	5254.47
927.177	5279.32
927.487	5196.61
927.796	5150.51
928.106	5158.88
928.416	5221.47
928.725	5161.14
929.034	5161.81
929.344	5149.38
929.653	5115.03
929.962	5095.83
930.271	5032.78
930.581	5000.24
930.89	4974.47
931.199	4941.71
931.508	4905.32
931.817	4935.15
932.125	4901.26
932.434	4881.82
932.743	4924.98
933.051	4795.72
933.36	4849.51
933.669	4775.61
933.977	4765.67
934.286	4737.64
934.594	4801.82
934.902	4731.54
935.21	4723.63
935.519	4691.77
935.827	4722.05
936.135	4700.36
936.443	4629.62
936.751	4609.29
937.059	4610.64
937.367	4582.62
937.674	4584.2
937.982	4530.87
938.29	4531.55
938.597	4539.68
938.905	4501.49
939.213	4487.71
939.52	4455.39
939.827	4455.39
940.135	4406.13
940.442	4381.27
940.749	4372.68
941.056	4391.66
941.363	4333.13
941.67	4333.36
941.977	4305.56
942.284	4282.29
942.591	4246.81
942.898	4247.49
943.205	4245.68
943.511	4174.72
943.818	4230.76
944.125	4202.97
944.431	4128.62
944.738	4153.03
945.044	4121.61
945.35	4149.86
945.657	4085.46
945.963	4058.79
946.269	4040.04
946.575	4049.75
946.881	4050.43
947.187	3991.45
947.493	3970.66
947.799	4001.39
948.105	3941.05
948.41	3939.92
948.716	3905.35
949.022	3915.29
949.327	3885.01
949.633	3862.86
949.938	3849.08
950.244	3881.85
950.549	3813.37
950.854	3844.33
951.16	3834.62
951.465	3784
951.77	3760.49
952.075	3754.17
952.38	3732.25
952.685	3732.47
952.99	3679.59
953.294	3712.59
953.599	3663.1
953.904	3647.73
954.209	3623.1
954.513	3584.91
954.818	3602.53
955.122	3583.32
955.426	3581.74
955.731	3536.32
956.035	3531.12
956.339	3546.26
956.643	3507.17
956.948	3486.15
957.252	3464.68
957.556	3497.22
957.86	3401.86
958.163	3425.59
958.467	3433.95
958.771	3420.16
959.075	3414.97
959.378	3372.26
959.682	3390.79
959.985	3355.31
960.289	3355.31
960.592	3292.94
960.896	3351.92
961.199	3340.17
961.502	3311.69
961.805	3274.63
962.108	3288.64
962.411	3254.52
962.714	3213.84
963.017	3211.13
963.32	3278.02
963.623	3218.81
963.926	3181.3
964.228	3177.46
964.531	3134.75
964.833	3139.72
965.136	3107.4
965.438	3099.49
965.741	3118.03
966.043	3085.48
966.345	3087.07
966.648	3059.95
966.95	3060.63
967.252	3026.28
967.554	3017.69
967.856	3048.87
968.158	2954.87
968.46	2955.54
968.761	2973.62
969.063	2941.31
969.365	2919.16
969.666	2915.09
969.968	2892.27
970.269	2898.6
970.571	2889.56
970.872	2861.76
971.174	2879.61
971.475	2862.89
971.776	2828.54
972.077	2847.52
972.378	2819.95
972.679	2808.88
972.98	2802.55
973.281	2744.7
973.582	2774.31
973.883	2778.15
974.183	2732.5
974.484	2741.76
974.785	2708.32
975.085	2684.14
975.386	2677.36
975.686	2657.25
975.986	2683.23
976.287	2643.01
976.587	2671.03
976.887	2647.98
977.187	2676.91
977.487	2630.35
977.787	2618.83
978.087	2598.94
978.387	2591.03
978.687	2615.67
978.987	2549.23
979.286	2546.74
979.586	2540.41
979.885	2516.91
980.185	2521.88
980.484	2483.24
980.784	2486.4
981.083	2481.88
981.382	2513.3
981.682	2485.95
981.981	2451.38
982.28	2445.73
982.579	2431.26
982.878	2430.36
983.177	2435.56
983.475	2414.99
983.774	2393.3
984.073	2396.91
984.372	2352.4
984.67	2340.19
984.969	2359.4
985.267	2321.44
985.566	2326.86
985.864	2358.05
986.162	2290.02
986.461	2253.42
986.759	2293.87
987.057	2267.88
987.355	2249.35
987.653	2280.08
987.951	2258.84
988.249	2241.89
988.547	2221.78
988.844	2215.45
989.142	2207.54
989.44	2194.66
989.737	2197.37
990.035	2179.52
990.332	2161.44
990.63	2155.34
990.927	2144.49
991.224	2166.19
991.521	2122.57
991.819	2086.64
992.116	2120.09
992.413	2087.77
992.71	2129.58
993.006	2083.93
993.303	2064.72
993.6	2056.13
993.897	2069.24
994.193	2080.76
994.49	2044.83
994.787	2032.4
995.083	2033.99
995.379	1996.02
995.676	2009.58
995.972	2012.29
996.268	2005.51
996.565	1968.45
996.861	1966.87
997.157	1966.19
997.453	1931.62
997.749	1954.67
998.044	1918.06
998.34	1973.87
998.636	1930.03
998.932	1915.12
999.227	1878.96
999.523	1899.75
999.818	1871.73
1000.114	1859.75
1000.409	1862.01
1000.704	1857.49
1001	1857.27
1001.295	1812.75
1001.59	1791.05
1001.885	1821.11
1002.18	1791.96
1002.475	1791.73
1002.77	1786.76
1003.065	1788.57
1003.359	1758.97
1003.654	1748.34
1003.949	1791.51
1004.243	1729.36
1004.538	1724.62
1004.832	1716.03
1005.127	1718.74
1005.421	1716.48
1005.715	1721.68
1006.009	1660.21
1006.304	1677.84
1006.598	1659.98
1006.892	1665.41
1007.186	1652.75
1007.48	1629.25
1007.773	1642.58
1008.067	1607.33
1008.361	1623.15
1008.655	1587.44
1008.948	1616.6
1009.242	1575.69
1009.535	1528.46
1009.829	1537.5
1010.122	1566.65
1010.415	1568.24
1010.708	1527.56
1011.001	1533.43
1011.295	1525.07
1011.588	1504.96
1011.881	1485.75
1012.173	1489.59
1012.466	1499.99
1012.759	1478.29
1013.052	1466.09
1013.344	1471.51
1013.637	1490.05
1013.93	1450.05
1014.222	1435.81
1014.514	1429.03
1014.807	1413.66
1015.099	1438.3
1015.391	1415.47
1015.683	1398.07
1015.976	1384.74
1016.268	1379.09
1016.56	1404.85
1016.851	1365.98
1017.143	1382.7
1017.435	1362.14
1017.727	1362.59
1018.018	1338.41
1018.31	1331.41
1018.602	1325.98
1018.893	1321.24
1019.185	1314.23
1019.476	1318.52
1019.767	1264.29
1020.058	1285.98
1020.35	1281.69
1020.641	1262.03
1020.932	1248.02
1021.223	1229.71
1021.514	1237.85
1021.804	1221.35
1022.095	1230.17
1022.386	1203.95
1022.677	1212.99
1022.967	1200.11
1023.258	1203.05
1023.548	1172.09
1023.839	1188.58
1024.129	1181.81
1024.419	1162.14
1024.709	1130.51
1025	1162.6
1025.29	1158.53
1025.58	1114.24
1025.87	1145.2
1026.16	1119.21
1026.449	1142.94
1026.739	1109.94
1027.029	1120.56
1027.319	1092.99
1027.608	1095.25
1027.898	1081.92
1028.187	1066.78
1028.477	1043.73
1028.766	1072.66
1029.055	1049.38
1029.344	1068.36
1029.634	1059.55
1029.923	1049.83
1030.212	1034.46
1030.501	1032.43
1030.79	1014.8
1031.078	1005.99
1031.367	1019.55
1031.656	999.89
1031.945	985.88
1032.233	993.79
1032.522	993.56
1032.81	966.22
1033.099	937.07
1033.387	965.54
1033.675	960.79
1033.963	940.91
1034.251	965.77
1034.54	926.22
1034.828	952.88
1035.116	921.47
1035.403	935.03
1035.691	912.43
1035.979	911.76
1036.267	907.69
1036.554	906.78
1036.842	909.04
1037.129	871.3
1037.417	888.71
1037.704	900.68
1037.992	845.77
1038.279	883.51
1038.566	856.62
1038.853	856.62
1039.14	856.62
