Data from foam_black_FLMS001491_00064.txt Node
Date: Wed Feb 08 10:44:24 GMT 2017
User: dcchb
Spectrometer: FLMS00149
Trigger mode: 0
Integration Time (sec): 2.000000E-2
Scans to average: 10
Electric dark correction enabled: true
Nonlinearity correction enabled: false
Boxcar width: 0
XAxis mode: Wavelengths
Number of Pixels in Spectrum: 2048
>>>>>Begin Spectral Data<<<<<
341.393	-7.74
341.776	-7.74
342.16	-7.74
342.543	-43.9
342.927	-71.02
343.31	-68.3
343.693	-84.35
344.077	-68.08
344.46	-64.69
344.843	-48.19
345.226	-50.22
345.61	-36.67
345.993	-23.56
346.376	-2.99
346.759	19.6
347.142	23.9
347.525	37.46
347.908	53.28
348.291	86.27
348.674	106.61
349.057	119.94
349.44	120.84
349.823	146.15
350.206	164.46
350.588	178.24
350.971	193.61
351.354	197.9
351.737	224.12
352.119	237.68
352.502	245.81
352.884	233.38
353.267	276.77
353.65	266.15
354.032	252.37
354.414	283.78
354.797	306.83
355.179	286.94
355.562	293.5
355.944	317.22
356.326	330.78
356.709	305.7
357.091	318.81
357.473	308.18
357.855	307.28
358.238	328.07
358.62	321.74
359.002	309.31
359.384	309.77
359.766	320.16
360.148	326.26
360.53	321.29
360.912	300.73
361.294	292.37
361.676	322.65
362.057	313.38
362.439	319.26
362.821	317.22
363.203	323.32
363.584	314.51
363.966	310.44
364.348	301.63
364.729	294.85
365.111	297.11
365.493	315.42
365.874	284.46
366.256	295.98
366.637	305.02
367.019	298.47
367.4	295.98
367.781	287.85
368.163	291.91
368.544	300.5
368.925	302.76
369.306	303.44
369.688	288.98
370.069	297.11
370.45	290.33
370.831	277.45
371.212	301.63
371.593	292.59
371.974	308.18
372.355	288.52
372.736	305.25
373.117	305.02
373.498	300.05
373.879	321.29
374.26	293.95
374.641	314.06
375.021	275.87
375.402	309.31
375.783	306.6
376.163	309.77
376.544	294.63
376.925	318.35
377.305	310.22
377.686	307.73
378.066	310.9
378.447	314.06
378.827	300.73
379.208	325.81
379.588	315.19
379.968	299.82
380.349	315.19
380.729	289.88
381.109	309.31
381.489	299.37
381.87	310.9
382.25	318.58
382.63	327.62
383.01	324.23
383.39	306.38
383.77	318.81
384.15	315.87
384.53	320.61
384.91	334.85
385.29	323.78
385.67	319.26
386.049	337.79
386.429	356.54
386.809	339.37
387.189	312.7
387.568	321.07
387.948	332.59
388.328	333.72
388.707	324.45
389.087	318.35
389.466	331.46
389.846	357.67
390.225	347.05
390.605	348.41
390.984	326.26
391.363	343.44
391.743	354.06
392.122	355.64
392.501	342.53
392.881	348.86
393.26	343.44
393.639	362.87
394.018	350.89
394.397	332.14
394.776	356.09
395.155	343.44
395.534	365.58
395.913	338.47
396.292	362.19
396.671	373.27
397.05	374.62
397.429	344.34
397.808	365.81
398.186	358.8
398.565	364.68
398.944	356.54
399.323	372.36
399.701	364
400.08	379.14
400.458	359.48
400.837	370.78
401.215	380.05
401.594	372.14
401.972	360.84
402.351	381.85
402.729	371.23
403.107	382.08
403.486	366.49
403.864	371.23
404.242	382.08
404.62	351.12
404.999	402.42
405.377	380.72
405.755	415.75
406.133	370.1
406.511	397.9
406.889	408.75
407.267	416.2
407.645	405.58
408.023	391.8
408.401	411.01
408.779	392.25
409.156	401.51
409.534	406.49
409.912	419.59
410.29	418.24
410.667	431.8
411.045	415.07
411.422	417.33
411.8	428.18
412.178	454.85
412.555	422.31
412.933	422.76
413.31	412.81
413.687	434.96
414.065	430.89
414.442	441.06
414.819	424.11
415.197	449.2
415.574	447.16
415.951	434.06
416.328	451.91
416.705	473.15
417.082	446.03
417.46	450.55
417.837	454.85
418.214	444.23
418.591	471.57
418.967	461.63
419.344	462.08
419.721	452.59
420.098	451.23
420.475	469.31
420.852	462.08
421.228	477.9
421.605	455.75
421.982	469.76
422.358	490.1
422.735	495.75
423.111	472.02
423.488	497.11
423.864	474.96
424.241	477.9
424.617	472.93
424.994	502.53
425.37	483.55
425.746	490.55
426.123	493.04
426.499	501.4
426.875	480.38
427.251	506.37
427.627	516.54
428.003	524.45
428.379	532.58
428.756	514.05
429.132	524.9
429.507	524
429.883	524.45
430.259	542.08
430.635	529.42
431.011	526.48
431.387	560.61
431.763	572.58
432.138	571
432.514	546.6
432.89	558.12
433.265	550.21
433.641	573.94
434.016	588.18
434.392	575.52
434.767	596.09
435.143	587.95
435.518	584.79
435.894	577.56
436.269	586.59
436.644	604.45
437.02	609.19
437.395	593.6
437.77	599.02
438.145	618.46
438.52	619.81
438.895	617.1
439.271	605.13
439.646	641.96
440.021	617.33
440.395	615.07
440.77	646.03
441.145	619.81
441.52	627.95
441.895	638.57
442.27	655.75
442.645	655.52
443.019	638.34
443.394	655.75
443.769	649.42
444.143	667.27
444.518	643.77
444.892	664.33
445.267	656.88
445.641	694.61
446.016	672.69
446.39	665.24
446.764	664.56
447.139	671.34
447.513	678.34
447.887	704.33
448.262	678.8
448.636	689.42
449.01	682.19
449.384	705.46
449.758	708.17
450.132	680.15
450.506	710.89
450.88	698.46
451.254	714.05
451.628	720.15
452.002	727.16
452.376	721.96
452.75	735.74
453.123	730.55
453.497	745.91
453.871	747.04
454.244	763.77
454.618	752.47
454.992	782.75
455.365	772.13
455.739	767.61
456.112	788.85
456.486	768.28
456.859	777.32
457.232	768.51
457.606	813.26
457.979	794.95
458.352	813.48
458.725	819.13
459.099	826.59
459.472	822.75
459.845	840.6
460.218	841.96
460.591	864.1
460.964	880.37
461.337	893.48
461.71	864.33
462.083	890.09
462.456	888.06
462.829	912.01
463.201	911.33
463.574	881.28
463.947	918.34
464.32	920.15
464.692	944.55
465.065	929.64
465.438	933.93
465.81	956.3
466.183	934.38
466.555	943.2
466.928	981.39
467.3	986.81
467.672	1009.63
468.045	997.43
468.417	1041.5
468.789	1025.45
469.161	1046.47
469.534	1054.61
469.906	1049.41
470.278	1059.8
470.65	1080.37
471.022	1079.69
471.394	1114.72
471.766	1077.66
472.138	1105.68
472.51	1140.25
472.882	1153.13
473.253	1168.95
473.625	1190.42
473.997	1194.71
474.369	1193.58
474.74	1222.51
475.112	1178.67
475.484	1255.28
475.855	1280.59
476.227	1269.97
476.598	1307.71
476.97	1275.62
477.341	1299.8
477.713	1304.09
478.084	1346.57
478.455	1382.51
478.827	1343.41
479.198	1394.48
479.569	1371.66
479.94	1425.22
480.311	1407.82
480.682	1478.32
481.053	1490.75
481.424	1469.51
481.795	1524.65
482.166	1534.59
482.537	1581.82
482.908	1575.72
483.279	1586.79
483.65	1641.48
484.021	1626.12
484.391	1666.57
484.762	1695.49
485.133	1670.18
485.503	1686.45
485.874	1731.65
486.244	1738.88
486.615	1786.79
486.985	1781.82
487.356	1810.74
487.726	1844.19
488.097	1857.75
488.467	1836.73
488.837	1885.77
489.207	1876.28
489.578	1922.6
489.948	1946.11
490.318	1950.4
490.688	1933.9
491.058	1995.15
491.428	1990.4
491.798	2017.74
492.168	2053.22
492.538	2084.41
492.908	2067.23
493.278	2093
493.648	2110.4
494.017	2112.66
494.387	2136.61
494.757	2178.19
495.126	2156.5
495.496	2168.25
495.866	2193.56
496.235	2203.5
496.605	2226.33
496.974	2283.05
497.344	2265.87
497.713	2283.5
498.082	2296.83
498.452	2316.04
498.821	2316.94
499.19	2305.87
499.559	2374.57
499.928	2366.89
500.298	2368.69
500.667	2370.73
501.036	2403.95
501.405	2438.52
501.774	2436.49
502.143	2442.82
502.512	2439.65
502.88	2479.65
503.249	2464.29
503.618	2514.91
503.987	2531.63
504.356	2512.19
504.724	2542.25
505.093	2547.45
505.462	2595.36
505.83	2571.18
506.199	2579.76
506.567	2599.42
506.936	2628.35
507.304	2627.45
507.672	2631.29
508.041	2674.68
508.409	2669.03
508.777	2672.87
509.145	2730.49
509.514	2719.87
509.882	2781.34
510.25	2743.15
510.618	2783.6
510.986	2793.99
511.354	2800.77
511.722	2855.46
512.09	2836.71
512.458	2859.3
512.826	2900.66
513.193	2901.34
513.561	2885.07
513.929	2930.71
514.297	2968
514.664	2959.64
515.032	2979.3
515.4	3016.36
515.767	3024.5
516.135	3059.3
516.502	3002.12
516.869	3069.92
517.237	3104.04
517.604	3108.56
517.972	3151.73
518.339	3154.44
518.706	3115.12
519.073	3148.11
519.44	3156.47
519.808	3208.67
520.175	3189.92
520.542	3233.3
520.909	3271.5
521.276	3247.99
521.643	3297.26
522.009	3309.24
522.376	3356.24
522.743	3389.46
523.11	3417.71
523.477	3441.89
523.843	3451.6
524.21	3480.76
524.577	3483.24
524.943	3526.63
525.31	3532.73
525.676	3592.62
526.043	3641.66
526.409	3654.08
526.776	3636.91
527.142	3652.95
527.508	3702.45
527.874	3698.15
528.241	3701.09
528.607	3750.13
528.973	3751.48
529.339	3764.36
529.705	3783.8
530.071	3812.72
530.437	3806.4
530.803	3845.94
531.169	3863.57
531.535	3886.39
531.901	3887.75
532.267	3882.78
532.632	3922.1
532.998	3940.86
533.364	3986.51
533.73	3958.03
534.095	4040.06
534.461	3988.09
534.826	4036.67
535.192	4047.97
535.557	4090.91
535.923	4109.67
536.288	4077.58
536.653	4144.02
537.019	4144.24
537.384	4156.9
537.749	4150.34
538.114	4208.65
538.479	4206.61
538.845	4216.78
539.21	4250.68
539.575	4254.97
539.94	4263.33
540.305	4271.02
540.67	4295.65
541.034	4338.36
541.399	4313.5
541.764	4304.46
542.129	4361.41
542.494	4394.4
542.858	4370.68
543.223	4383.56
543.587	4403.9
543.952	4380.85
544.316	4384.91
544.681	4420.62
545.045	4411.13
545.41	4478.02
545.774	4447.96
546.138	4443.67
546.503	4448.41
546.867	4525.25
547.231	4561.41
547.595	4597.56
547.959	4548.75
548.324	4561.86
548.688	4597.11
549.052	4601.18
549.416	4631.91
549.779	4652.48
550.143	4643.66
550.507	4735.41
550.871	4702.19
551.235	4715.98
551.599	4766.15
551.962	4775.86
552.326	4772.47
552.689	4813.6
553.053	4832.58
553.417	4788.74
553.78	4858.57
554.143	4890.89
554.507	4911.45
554.87	4888.63
555.234	4953.94
555.597	4983.54
555.96	4965.91
556.323	4992.13
556.686	4986.25
557.05	5007.95
557.413	5034.61
557.776	5023.54
558.139	5084.33
558.502	5091.11
558.865	5063.09
559.228	5105.12
559.59	5089.3
559.953	5069.41
560.316	5166.14
560.679	5189.64
561.041	5214.72
561.404	5237.55
561.767	5306.02
562.129	5288.62
562.492	5294.72
562.854	5304.21
563.217	5299.69
563.579	5363.42
563.941	5405.68
564.304	5441.61
564.666	5465.34
565.028	5473.47
565.39	5522.74
565.753	5557.76
566.115	5554.83
566.477	5551.21
566.839	5652.22
567.201	5644.77
567.563	5617.2
567.925	5683.64
568.287	5687.7
568.648	5722.96
569.01	5770.19
569.372	5785.78
569.734	5777.87
570.095	5822.16
570.457	5844.31
570.819	5843.63
571.18	5849.28
571.542	5899.68
571.903	5905.78
572.265	5871.2
572.626	5896.74
572.987	5873.01
573.349	5926.57
573.71	5886.79
574.071	6026.23
574.432	5984.64
574.794	5974.7
575.155	5992.78
575.516	6027.13
575.877	6044.53
576.238	6063.74
576.599	6026.23
576.96	6074.81
577.32	6004.53
577.681	6068.48
578.042	6163.62
578.403	6102.83
578.763	6116.84
579.124	6161.82
579.485	6144.87
579.845	6196.84
580.206	6178.31
580.566	6218.54
580.927	6224.41
581.287	6202.27
581.648	6239.55
582.008	6273
582.368	6242.94
582.728	6255.6
583.089	6287.91
583.449	6280.68
583.809	6252.89
584.169	6282.49
584.529	6264.86
584.889	6330.85
585.249	6292.89
585.609	6267.35
585.969	6313.45
586.329	6300.34
586.688	6288.37
587.048	6310.06
587.408	6281.59
587.768	6254.92
588.127	6272.32
588.487	6277.52
588.846	6265.32
589.206	6256.73
589.565	6220.34
589.925	6262.83
590.284	6254.92
590.643	6277.29
591.003	6253.56
591.362	6265.54
591.721	6240.01
592.08	6271.64
592.44	6279.78
592.799	6245.2
593.158	6269.38
593.517	6242.94
593.876	6271.87
594.235	6186
594.593	6279.55
594.952	6272.77
595.311	6261.93
595.67	6269.84
596.029	6355.03
596.387	6242.27
596.746	6319.1
597.104	6316.16
597.463	6347.35
597.822	6298.08
598.18	6306.44
598.538	6309.61
598.897	6411.98
599.255	6310.74
599.613	6390.28
599.972	6374.69
600.33	6346.44
600.688	6375.82
601.046	6376.5
601.404	6395.26
601.762	6401.36
602.12	6406.1
602.478	6482.26
602.836	6429.38
603.194	6343.96
603.552	6356.39
603.91	6354.8
604.268	6354.58
604.625	6362.04
604.983	6419.44
605.341	6424.63
605.698	6382.6
606.056	6433.22
606.413	6390.28
606.771	6384.63
607.128	6440.45
607.485	6434.58
607.843	6365.43
608.2	6399.1
608.557	6429.38
608.914	6432.09
609.272	6463.73
609.629	6430.06
609.986	6490.62
610.343	6463.05
610.7	6561.8
611.057	6487
611.414	6474.35
611.771	6492.2
612.127	6542.6
612.484	6599.54
612.841	6485.42
613.198	6525.2
613.554	6515.48
613.911	6559.77
614.267	6607.45
614.624	6527.68
614.98	6623.72
615.337	6560.45
615.693	6607.68
616.05	6582.37
616.406	6632.09
616.762	6636.15
617.118	6610.17
617.475	6655.14
617.831	6613.55
618.187	6623.5
618.543	6622.14
618.899	6670.28
619.255	6663.05
619.611	6692.42
619.967	6695.13
620.323	6720.44
620.678	6663.5
621.034	6616.72
621.39	6628.24
621.746	6633.44
622.101	6644.06
622.457	6639.54
622.812	6675.47
623.168	6615.14
623.523	6637.74
623.879	6654.23
624.234	6606.32
624.589	6691.97
624.945	6636.15
625.3	6634.12
625.655	6674.8
626.01	6672.31
626.365	6665.76
626.72	6687.68
627.075	6692.2
627.43	6698.07
627.785	6706.43
628.14	6659.88
628.495	6670.73
628.85	6672.31
629.205	6698.3
629.559	6728.81
629.914	6654.68
630.269	6654.01
630.623	6649.03
630.978	6708.24
631.332	6690.16
631.687	6692.42
632.041	6627.11
632.396	6709.6
632.75	6663.5
633.104	6586.44
633.459	6674.8
633.813	6550.51
634.167	6591.18
634.521	6603.16
634.875	6616.04
635.229	6588.7
635.583	6569.71
635.937	6541.24
636.291	6556.16
636.645	6504.18
636.999	6564.97
637.352	6491.52
637.706	6484.97
638.06	6464.63
638.413	6496.5
638.767	6448.14
639.121	6520.22
639.474	6448.36
639.828	6439.55
640.181	6470.51
640.534	6431.64
640.888	6405.88
641.241	6369.72
641.594	6366.56
641.947	6404.75
642.301	6412.43
642.654	6396.39
643.007	6399.32
643.36	6380.57
643.713	6364.97
644.066	6414.46
644.419	6298.76
644.771	6291.76
645.124	6217.41
645.477	6178.31
645.83	6122.49
646.182	6176.28
646.535	6181.93
646.888	6143.74
647.24	6114.58
647.593	6219.67
647.945	6171.76
648.298	6164.53
648.65	6147.13
649.002	6073.68
649.355	6127.01
649.707	6119.56
650.059	6164.3
650.411	6125.66
650.763	6207.46
651.115	6284.98
651.467	6235.26
651.819	6232.55
652.171	6229.61
652.523	6209.72
652.875	6178.54
653.227	6224.41
653.578	6181.93
653.93	6211.98
654.282	6192.1
654.633	6136.51
654.985	6169.27
655.337	6155.71
655.688	6145.54
656.039	6146.67
656.391	6127.24
656.742	6106.22
657.094	6170.4
657.445	6153.68
657.796	6139.44
658.147	6124.3
658.498	6045.43
658.849	6033.46
659.2	6085.66
659.551	6047.69
659.902	6082.95
660.253	6101.03
660.604	6067.13
660.955	6085.66
661.306	6031.42
661.656	6061.03
662.007	6020.58
662.358	6022.38
662.708	6018.77
663.059	6097.86
663.409	6052.89
663.76	6049.28
664.11	6094.02
664.461	6060.12
664.811	6088.82
665.161	6054.93
665.511	6096.51
665.862	6034.81
666.212	6065.32
666.562	6088.37
666.912	6061.25
667.262	6106.22
667.612	6067.13
667.962	6087.24
668.312	6117.07
668.662	6119.33
669.011	6079.11
669.361	6060.8
669.711	6078.2
670.06	6075.49
670.41	5994.81
670.76	6058.77
671.109	6013.34
671.459	6017.41
671.808	6026
672.157	6051.08
672.507	5991.2
672.856	5946
673.205	5996.17
673.554	5978.54
673.904	5972.44
674.253	5975.15
674.602	5978.54
674.951	5842.05
675.3	5873.01
675.649	5941.48
675.998	5936.28
676.346	5849.73
676.695	5926.79
677.044	5890.41
677.393	5887.47
677.741	5901.48
678.09	5872.56
678.438	5867.59
678.787	5922.05
679.135	5862.61
679.484	5836.63
679.832	5823.52
680.181	5781.71
680.529	5816.51
680.877	5814.48
681.225	5802.05
681.573	5805.44
681.922	5817.19
682.27	5808.38
682.618	5791.43
682.966	5726.12
683.314	5824.2
683.661	5727.7
684.009	5780.58
684.357	5728.15
684.705	5745.78
685.053	5737.19
685.4	5758.66
685.748	5729.51
686.095	5729.74
686.443	5735.84
686.79	5694.48
687.138	5728.61
687.485	5755.05
687.832	5653.35
688.18	5701.49
688.527	5678.21
688.874	5699.91
689.221	5697.87
689.568	5640.7
689.915	5676.86
690.262	5604.99
690.609	5607.93
690.956	5580.59
691.303	5603.19
691.65	5627.37
691.997	5597.54
692.344	5546.24
692.69	5587.37
693.037	5550.53
693.383	5486.13
693.73	5504.88
694.077	5449.29
694.423	5435.73
694.769	5441.61
695.116	5425.34
695.462	5400.25
695.808	5369.52
696.155	5321.16
696.501	5337.88
696.847	5319.8
697.193	5298.56
697.539	5270.99
697.885	5221.05
698.231	5217.89
698.577	5181.05
698.923	5203.65
699.269	5199.58
699.614	5155.06
699.96	5161.16
700.306	5163.2
700.651	5147.6
700.997	5095.18
701.342	5086.36
701.688	5102.41
702.033	5054.27
702.379	5079.36
702.724	5063.99
703.069	5085.01
703.415	5000.49
703.76	5005.01
704.105	4982.64
704.45	5002.98
704.795	4958.23
705.14	4930.21
705.485	4975.63
705.83	4970.66
706.175	4989.87
706.52	4932.24
706.865	4946.25
707.209	4972.02
707.554	4897.22
707.899	4925.01
708.243	4946.25
708.588	4921.17
708.932	4904.45
709.277	4883.66
709.621	4951.68
709.966	4891.11
710.31	4880.04
710.654	4872.36
710.998	4865.35
711.342	4887.5
711.687	4888.85
712.031	4863.54
712.375	4802.98
712.719	4834.84
713.063	4816.09
713.407	4833.71
713.75	4778.8
714.094	4742.19
714.438	4769.31
714.782	4784
715.125	4708.52
715.469	4729.08
715.812	4703.77
716.156	4628.75
716.499	4660.61
716.843	4687.73
717.186	4666.49
717.53	4651.57
717.873	4669.88
718.216	4617.22
718.559	4636.43
718.902	4626.26
719.246	4607.28
719.589	4560.95
719.932	4548.75
720.275	4577.9
720.617	4543.33
720.96	4550.11
721.303	4550.56
721.646	4522.76
721.989	4470.33
722.331	4512.37
722.674	4448.19
723.016	4486.83
723.359	4439.6
723.701	4490.22
724.044	4426.95
724.386	4430.11
724.729	4433.73
725.071	4427.62
725.413	4409.32
725.755	4439.37
726.097	4371.35
726.439	4406.16
726.782	4392.37
727.124	4399.15
727.465	4420.62
727.807	4406.83
728.149	4459.71
728.491	4373.39
728.833	4422.88
729.175	4383.56
729.516	4382.65
729.858	4352.37
730.199	4356.67
730.541	4393.05
730.882	4391.92
731.224	4375.2
731.565	4318.02
731.906	4363.9
732.248	4344.46
732.589	4350.11
732.93	4332.71
733.271	4332.94
733.612	4326.16
733.953	4317.34
734.294	4305.14
734.635	4314.41
734.976	4310.11
735.317	4291.58
735.658	4288.87
735.999	4291.36
736.339	4310.34
736.68	4273.28
737.021	4307.17
737.361	4243.22
737.702	4268.76
738.042	4260.85
738.383	4267.4
738.723	4303.33
739.063	4245.48
739.404	4194.41
739.744	4183.56
740.084	4203.45
740.424	4219.72
740.764	4219.04
741.104	4197.57
741.444	4180.4
741.784	4179.72
742.124	4161.42
742.464	4116.22
742.804	4153.28
743.143	4097.01
743.483	4094.75
743.823	4137.69
744.162	4123.22
744.502	4109.89
744.841	4092.49
745.181	4135.65
745.52	4083.9
745.86	4083
746.199	4068.09
746.538	4022.66
746.877	4054.07
747.216	4101.3
747.556	4001.42
747.895	4053.85
748.234	4035.09
748.573	4003.68
748.911	3998.71
749.25	3985.15
749.589	3966.62
749.928	3944.47
750.267	3928.43
750.605	3969.56
750.944	3955.55
751.283	3921.65
751.621	3906.96
751.96	3887.3
752.298	3886.62
752.636	3936.11
752.975	3914.42
753.313	3880.75
753.651	3908.54
753.989	3879.16
754.327	3855.44
754.666	3883.68
755.004	3892.95
755.342	3856.11
755.679	3888.65
756.017	3825.61
756.355	3848.2
756.693	3888.2
757.031	3865.83
757.368	3843.23
757.706	3892.72
758.044	3806.4
758.381	3844.36
758.719	3793.06
759.056	3830.35
759.394	3840.52
759.731	3776.57
760.068	3720.98
760.405	3787.64
760.743	3764.59
761.08	3812.5
761.417	3758.26
761.754	3781.31
762.091	3732.05
762.428	3764.36
762.765	3728.21
763.102	3731.14
763.438	3725.27
763.775	3728.66
764.112	3710.35
764.449	3714.42
764.785	3687.76
765.122	3683.69
765.458	3635.1
765.795	3676.68
766.131	3671.26
766.467	3671.03
766.804	3605.72
767.14	3540.19
767.476	3598.72
767.812	3585.61
768.148	3610.7
768.485	3580.41
768.821	3510.59
769.157	3506.07
769.492	3517.37
769.828	3504.03
770.164	3446.63
770.5	3451.38
770.836	3439.4
771.171	3436.92
771.507	3384.94
771.842	3377.71
772.178	3386.07
772.513	3377.26
772.849	3336.35
773.184	3320.99
773.519	3352.17
773.855	3323.7
774.19	3298.61
774.525	3287.77
774.86	3331.61
775.195	3271.27
775.53	3242.57
775.865	3270.37
776.2	3243.93
776.535	3215.23
776.87	3220.65
777.205	3210.25
777.539	3211.16
777.874	3167.54
778.209	3151.27
778.543	3192.18
778.878	3161.67
779.212	3167.77
779.547	3134.32
779.881	3167.09
780.215	3170.48
780.55	3156.7
780.884	3110.37
781.218	3126.87
781.552	3133.42
781.886	3119.86
782.22	3112.18
782.554	3100.88
782.888	3056.81
783.222	3021.78
783.556	3046.19
783.889	3036.7
784.223	3004.38
784.557	3009.58
784.89	3044.61
785.224	3023.14
785.557	3005.06
785.891	2998.96
786.224	3004.84
786.558	3032.18
786.891	3001.22
787.224	2994.44
787.557	2979.98
787.891	3006.42
788.224	2968
788.557	2954.44
788.89	2962.58
789.223	2942.01
789.556	2940.88
789.888	2920.32
790.221	2906.53
790.554	2875.12
790.887	2852.07
791.219	2888
791.552	2831.06
791.884	2852.07
792.217	2845.52
792.549	2826.08
792.882	2799.64
793.214	2822.24
793.546	2796.71
793.879	2774.79
794.211	2808.68
794.543	2797.38
794.875	2758.74
795.207	2770.04
795.539	2760.1
795.871	2727.1
796.203	2709.25
796.535	2682.36
796.867	2725.07
797.198	2706.31
797.53	2688.23
797.862	2673.77
798.193	2703.83
798.525	2642.36
798.856	2626.32
799.188	2637.84
799.519	2605.3
799.85	2632.87
800.182	2587.67
800.513	2605.98
800.844	2604.85
801.175	2598.52
801.506	2587.67
801.837	2572.08
802.168	2535.47
802.499	2564.4
802.83	2547.67
803.161	2523.04
803.491	2518.3
803.822	2533.89
804.153	2472.19
804.483	2462.7
804.814	2482.82
805.145	2488.92
805.475	2468.58
805.805	2452.31
806.136	2468.81
806.466	2459.31
806.796	2469.71
807.126	2445.08
807.457	2438.07
807.787	2464.06
808.117	2455.7
808.447	2397.39
808.777	2453.21
809.107	2427.45
809.436	2421.12
809.766	2456.83
810.096	2419.09
810.426	2413.89
810.755	2391.52
811.085	2412.99
811.414	2388.13
811.744	2395.13
812.073	2397.85
812.403	2373.89
812.732	2415.93
813.061	2375.02
813.39	2431.07
813.719	2359.66
814.049	2431.07
814.378	2400.78
814.707	2378.41
815.036	2394
815.365	2363.72
815.693	2365.76
816.022	2345.42
816.351	2323.5
816.68	2386.77
817.008	2358.53
817.337	2304.52
817.665	2291.63
817.994	2357.4
818.322	2356.49
818.651	2309.26
818.979	2296.61
819.307	2330.73
819.636	2317.17
819.964	2292.99
820.292	2322.14
820.62	2301.35
820.948	2280.11
821.276	2269.49
821.604	2302.93
821.932	2281.92
822.259	2268.58
822.587	2288.92
822.915	2304.74
823.243	2282.37
823.57	2283.05
823.898	2262.03
824.225	2268.13
824.553	2251.41
824.88	2278.3
825.207	2284.18
825.535	2249.15
825.862	2286.21
826.189	2244.86
826.516	2240.56
826.843	2234.91
827.17	2249.15
827.497	2258.64
827.824	2244.18
828.151	2273.78
828.478	2242.6
828.805	2278.3
829.131	2230.62
829.458	2278.08
829.785	2219.77
830.111	2258.42
830.438	2240.34
830.764	2232.43
831.09	2215.48
831.417	2238.98
831.743	2265.87
832.069	2267.68
832.395	2224.07
832.722	2236.95
833.048	2197.4
833.374	2244.63
833.7	2214.8
834.026	2244.86
834.351	2231.75
834.677	2186.33
835.003	2265.65
835.329	2224.52
835.654	2210.51
835.98	2187
836.306	2231.3
836.631	2210.05
836.956	2220.9
837.282	2219.09
837.607	2216.83
837.932	2185.87
838.258	2180.9
838.583	2194.01
838.908	2181.81
839.233	2199.21
839.558	2198.98
839.883	2194.46
840.208	2195.59
840.533	2169.83
840.858	2173.67
841.182	2175.48
841.507	2184.74
841.832	2197.17
842.156	2171.86
842.481	2194.01
842.805	2177.06
843.13	2195.82
843.454	2158.76
843.778	2202.15
844.103	2188.59
844.427	2189.94
844.751	2146.1
845.075	2146.78
845.399	2154.01
845.723	2135.03
846.047	2146.1
846.371	2129.61
846.695	2096.39
847.019	2128.48
847.343	2106.33
847.666	2088.93
847.99	2091.41
848.313	2088.02
848.637	2088.7
848.96	2103.17
849.284	2058.87
849.607	2076.27
849.931	2058.65
850.254	2023.17
850.577	2034.47
850.9	2027.01
851.223	2015.48
851.546	2052.54
851.869	1985.2
852.192	1994.92
852.515	1999.89
852.838	1978.2
853.161	1960.12
853.483	2009.61
853.806	1999.44
854.129	1985.2
854.451	1971.87
854.774	1984.98
855.096	1965.32
855.419	1943.4
855.741	1937.07
856.063	1944.53
856.385	1952.89
856.708	1939.78
857.03	1942.94
857.352	1954.02
857.674	1927.58
857.996	1921.47
858.318	1877.18
858.64	1892.55
858.961	1867.47
859.283	1889.61
859.605	1875.15
859.926	1872.44
860.248	1871.31
860.57	1874.24
860.891	1887.13
861.212	1832.66
861.534	1832.66
861.855	1840.57
862.176	1846
862.498	1832.44
862.819	1834.25
863.14	1841.48
863.461	1797.18
863.782	1786.79
864.103	1802.83
864.424	1813.23
864.745	1808.03
865.065	1814.13
865.386	1807.13
865.707	1801.93
866.027	1811.87
866.348	1815.04
866.668	1782.5
866.989	1789.05
867.309	1790.18
867.63	1800.8
867.95	1771.2
868.27	1771.65
868.59	1779.11
868.91	1781.82
869.23	1784.3
869.55	1780.69
869.87	1749.28
870.19	1785.43
870.51	1738.88
870.83	1783.63
871.15	1715.15
871.469	1762.16
871.789	1758.32
872.109	1719.9
872.428	1738.2
872.748	1742.27
873.067	1744.3
873.386	1739.56
873.706	1741.59
874.025	1742.72
874.344	1736.17
874.663	1754.47
874.982	1729.62
875.301	1738.88
875.62	1751.99
875.939	1754.93
876.258	1722.61
876.577	1722.38
876.896	1694.14
877.214	1741.82
877.533	1729.16
877.852	1727.13
878.17	1706.57
878.489	1714.7
878.807	1730.29
879.125	1692.55
879.444	1710.41
879.762	1713.8
880.08	1731.65
880.398	1725.77
880.716	1721.03
881.034	1720.58
881.352	1718.32
881.67	1712.89
881.988	1747.02
882.306	1733.01
882.624	1696.62
882.941	1671.54
883.259	1691.88
883.577	1692.55
883.894	1696.17
884.212	1677.64
884.529	1691.88
884.846	1709.05
885.164	1713.12
885.481	1719.45
885.798	1694.14
886.115	1684.19
886.432	1665.89
886.75	1677.19
887.067	1681.71
887.383	1646.23
887.7	1668.37
888.017	1663.63
888.334	1686.68
888.651	1633.57
888.967	1663.18
889.284	1641.93
889.6	1652.1
889.917	1615.04
890.233	1629.05
890.55	1613.23
890.866	1620.69
891.182	1643.29
891.498	1627.47
891.815	1620.69
892.131	1606.23
892.447	1611.88
892.763	1600.13
893.079	1572.56
893.395	1587.7
893.71	1572.33
894.026	1551.54
894.342	1549.28
894.657	1558.32
894.973	1533.24
895.289	1540.69
895.604	1540.92
895.92	1530.07
896.235	1557.19
896.55	1536.4
896.865	1545.21
897.181	1533.01
897.496	1506.57
897.811	1522.16
898.126	1489.17
898.441	1514.93
898.756	1502.05
899.071	1488.94
899.386	1522.62
899.7	1469.28
900.015	1453.46
900.33	1443.52
900.644	1464.31
900.959	1453.01
901.273	1460.92
901.588	1445.56
901.902	1421.38
902.216	1448.72
902.531	1433.13
902.845	1422.5
903.159	1427.25
903.473	1420.7
903.787	1407.82
904.101	1432.67
904.415	1386.35
904.729	1384.54
905.042	1389.96
905.356	1377.53
905.67	1396.52
905.984	1387.03
906.297	1395.39
906.611	1388.83
906.924	1366.69
907.237	1364.65
907.551	1347.93
907.864	1339.8
908.177	1351.32
908.491	1350.87
908.804	1352
909.117	1333.02
909.43	1368.5
909.743	1353.13
910.056	1321.94
910.368	1355.84
910.681	1316.07
910.994	1329.4
911.307	1346.12
911.619	1303.41
911.932	1330.98
912.244	1305.22
912.557	1302.96
912.869	1327.37
913.181	1304.32
913.494	1285.56
913.806	1282.85
914.118	1297.31
914.43	1277.65
914.742	1288.05
915.054	1278.1
915.366	1267.25
915.678	1270.19
915.99	1266.35
916.302	1265.67
916.613	1269.51
916.925	1241.49
917.236	1262.06
917.548	1278.33
917.859	1247.82
918.171	1232.91
918.482	1244.43
918.794	1242.85
919.105	1257.76
919.416	1236.3
919.727	1233.58
920.038	1228.61
920.349	1225.22
920.66	1203.08
920.971	1190.87
921.282	1220.25
921.593	1196.75
921.903	1210.76
922.214	1167.6
922.525	1215.28
922.835	1182.96
923.146	1196.75
923.456	1185.45
923.767	1203.3
924.077	1192.91
924.387	1205.34
924.697	1178.44
925.008	1156.98
925.318	1162.62
925.628	1185.68
925.938	1150.42
926.248	1177.09
926.558	1172.79
926.867	1149.29
927.177	1155.62
927.487	1143.87
927.796	1118.11
928.106	1145
928.416	1132.34
928.725	1106.58
929.034	1121.72
929.344	1124.66
929.653	1116.3
929.962	1105
930.271	1095.28
930.581	1104.77
930.89	1083.3
931.199	1086.24
931.508	1081.72
931.817	1087.82
932.125	1076.98
932.434	1061.38
932.743	1070.2
933.051	1085.79
933.36	1086.92
933.669	1048.96
933.977	1069.75
934.286	1054.61
934.594	1026.58
934.902	1029.97
935.21	1049.41
935.519	1014.15
935.827	1033.14
936.135	999.01
936.443	1027.26
936.751	1027.04
937.059	1015.74
937.367	1005.57
937.674	993.59
937.982	1005.34
938.29	994.95
938.597	988.17
938.905	991.56
939.213	979.13
939.52	954.27
939.827	961.27
940.135	965.79
940.442	985.91
940.749	963.08
941.056	950.43
941.363	970.31
941.67	985
941.977	953.59
942.284	939.13
942.591	963.31
942.898	943.2
943.205	908.17
943.511	933.7
943.818	909.98
944.125	920.82
944.431	900.94
944.738	918.11
945.044	943.2
945.35	932.12
945.657	928.73
945.963	917.66
946.269	897.77
946.575	920.82
946.881	906.59
947.187	910.43
947.493	902.29
947.799	910.43
948.105	879.02
948.41	889.41
948.716	881.5
949.022	880.6
949.327	885.57
949.633	890.09
949.938	892.58
950.244	887.6
950.549	874.5
950.854	881.05
951.16	853.71
951.465	894.16
951.77	861.39
952.075	861.62
952.38	885.8
952.685	876.76
952.99	861.16
953.294	843.76
953.599	857.77
953.904	827.72
954.209	848.06
954.513	858.68
954.818	845.12
955.122	830.66
955.426	838.11
955.731	847.38
956.035	841.96
956.339	843.54
956.643	843.31
956.948	844.22
957.252	844.67
957.556	846.47
957.86	829.07
958.163	823.88
958.467	829.3
958.771	830.66
959.075	824.78
959.378	815.97
959.682	820.03
959.985	827.27
960.289	816.42
960.592	841.73
960.896	824.33
961.199	815.52
961.502	802.63
961.805	799.92
962.108	814.84
962.411	781.17
962.714	811
963.017	792.92
963.32	809.64
963.623	764.44
963.926	780.49
964.228	815.52
964.531	787.72
964.833	773.03
965.136	791.11
965.438	774.16
965.741	768.96
966.043	760.6
966.345	796.31
966.648	770.09
966.95	765.35
967.252	756.31
967.554	774.61
967.856	754.95
968.158	742.52
968.46	752.24
968.761	750.66
969.063	723.09
969.365	745.23
969.666	734.39
969.968	747.27
970.269	719.25
970.571	704.56
970.872	751.34
971.174	739.36
971.475	760.6
971.776	734.61
972.077	705.24
972.378	732.35
972.679	747.04
972.98	722.86
973.281	708.63
973.582	721.28
973.883	699.13
974.183	713.82
974.484	703.43
974.785	715.86
975.085	668.85
975.386	710.89
975.686	673.6
975.986	703.2
976.287	703.43
976.587	681.96
976.887	691.9
977.187	689.87
977.487	688.06
977.787	676.08
978.087	656.88
978.387	687.16
978.687	683.32
978.987	674.73
979.286	664.33
979.586	679.93
979.885	641.73
980.185	664.56
980.484	670.66
980.784	681.51
981.083	689.19
981.382	652.81
981.682	658.91
981.981	640.83
982.28	648.51
982.579	640.6
982.878	657.55
983.177	652.13
983.475	626.59
983.774	664.11
984.073	636.31
984.372	656.88
984.67	627.5
984.969	651
985.267	656.88
985.566	643.54
985.864	628.18
986.162	616.42
986.461	632.92
986.759	637.21
987.057	628.63
987.355	634.28
987.653	623.66
987.951	629.98
988.249	636.54
988.547	618.46
988.844	619.59
989.142	631.79
989.44	622.53
989.737	611.68
990.035	590.44
990.332	616.42
990.63	613.03
990.927	607.61
991.224	609.87
991.521	570.32
991.819	615.75
992.116	606.48
992.413	585.69
992.71	590.21
993.006	597.44
993.303	585.46
993.6	626.59
993.897	590.44
994.193	580.95
994.49	576.88
994.787	601.74
995.083	570.32
995.379	589.98
995.676	590.66
995.972	588.63
996.268	578.91
996.565	586.59
996.861	565.35
997.157	580.49
997.453	576.88
997.749	580.72
998.044	583.88
998.34	569.19
998.636	547.27
998.932	585.01
999.227	577.56
999.523	555.64
999.818	565.8
1000.114	558.12
1000.409	555.86
1000.704	585.01
1001	566.93
1001.295	547.5
1001.59	554.96
1001.885	575.97
1002.18	561.28
1002.475	573.49
1002.77	555.41
1003.065	533.49
1003.359	555.41
1003.654	563.54
1003.949	537.33
1004.243	545.69
1004.538	573.04
1004.832	546.14
1005.127	541.17
1005.421	544.11
1005.715	554.96
1006.009	549.08
1006.304	569.42
1006.598	517.67
1006.892	526.03
1007.186	532.36
1007.48	547.27
1007.773	529.65
1008.067	525.13
1008.361	522.64
1008.655	544.56
1008.948	536.65
1009.242	519.7
1009.535	513.83
1009.829	532.13
1010.122	506.82
1010.415	512.02
1010.708	516.09
1011.001	517.22
1011.295	507.95
1011.588	494.17
1011.881	511.34
1012.173	499.37
1012.466	524.22
1012.759	497.78
1013.052	516.99
1013.344	496.88
1013.637	496.88
1013.93	461.4
1014.222	481.96
1014.514	497.78
1014.807	494.39
1015.099	504.56
1015.391	483.09
1015.683	494.85
1015.976	491
1016.268	491.46
1016.56	478.12
1016.851	484.22
1017.143	498.01
1017.435	489.65
1017.727	476.54
1018.018	462.3
1018.31	467.5
1018.602	471.57
1018.893	491.23
1019.185	491.91
1019.476	479.25
1019.767	465.92
1020.058	462.08
1020.35	467.5
1020.641	457.56
1020.932	453.49
1021.223	448.07
1021.514	460.72
1021.804	433.83
1022.095	466.15
1022.386	472.47
1022.677	436.09
1022.967	457.11
1023.258	437.22
1023.548	460.5
1023.839	449.2
1024.129	439.93
1024.419	454.39
1024.709	419.14
1025	438.12
1025.29	439.48
1025.58	443.1
1025.87	420.95
1026.16	432.25
1026.449	430.89
1026.739	449.42
1027.029	440.16
1027.319	443.1
1027.608	424.11
1027.898	424.11
1028.187	435.19
1028.477	440.38
1028.766	452.14
1029.055	424.57
1029.344	432.25
1029.634	436.77
1029.923	441.74
1030.212	433.38
1030.501	441.29
1030.79	423.44
1031.078	423.89
1031.367	442.64
1031.656	427.73
1031.945	428.18
1032.233	428.18
1032.522	406.03
1032.81	452.14
1033.099	421.85
1033.387	433.83
1033.675	433.6
1033.963	422.76
1034.251	413.04
1034.54	418.92
1034.828	417.79
1035.116	400.16
1035.403	385.92
1035.691	400.61
1035.979	413.27
1036.267	416.43
1036.554	405.81
1036.842	400.16
1037.129	386.37
1037.417	401.97
1037.704	406.94
1037.992	400.84
1038.279	399.48
1038.566	394.74
1038.853	394.74
1039.14	394.74
