Data from foam_black_FLMS001491_00076.txt Node
Date: Wed Feb 08 10:44:37 GMT 2017
User: dcchb
Spectrometer: FLMS00149
Trigger mode: 0
Integration Time (sec): 2.000000E-2
Scans to average: 10
Electric dark correction enabled: true
Nonlinearity correction enabled: false
Boxcar width: 0
XAxis mode: Wavelengths
Number of Pixels in Spectrum: 2048
>>>>>Begin Spectral Data<<<<<
341.393	-29.05
341.776	-29.05
342.16	-29.05
342.543	-65.21
342.927	-66.57
343.31	-67.7
343.693	-76.06
344.077	-53.69
344.46	-60.24
344.843	-56.85
345.226	-17.75
345.61	-40.13
345.993	-11.65
346.376	-19.34
346.759	-3.97
347.142	26.76
347.525	41.23
347.908	67.22
348.291	73.77
348.674	92.53
349.057	105.86
349.44	116.25
349.823	141.11
350.206	157.38
350.588	161.9
350.971	190.15
351.354	203.48
351.737	217.49
352.119	225.86
352.502	246.42
352.884	257.72
353.267	238.28
353.65	259.53
354.032	270.83
354.414	289.13
354.797	290.26
355.179	286.87
355.562	311.28
355.944	320.32
356.326	310.6
356.709	290.94
357.091	319.19
357.473	308.79
357.855	313.99
358.238	314.21
358.62	322.58
359.002	329.81
359.384	315.57
359.766	315.34
360.148	321.67
360.53	318.96
360.912	321.67
361.294	318.96
361.676	302.92
362.057	297.72
362.439	301.33
362.821	303.82
363.203	299.53
363.584	311.96
363.966	313.54
364.348	313.31
364.729	310.6
365.111	301.33
365.493	302.01
365.874	318.96
366.256	295.01
366.637	266.53
367.019	293.88
367.4	321.22
367.781	284.16
368.163	291.39
368.544	287.77
368.925	298.85
369.306	310.37
369.688	286.42
370.069	290.71
370.45	304.95
370.831	279.19
371.212	309.47
371.593	294.55
371.974	290.26
372.355	305.63
372.736	288.9
373.117	300.88
373.498	304.05
373.879	297.27
374.26	292.52
374.641	287.32
375.021	296.59
375.402	318.73
375.783	295.91
376.163	297.27
376.544	307.44
376.925	306.31
377.305	300.66
377.686	296.81
378.066	297.72
378.447	294.1
378.827	313.08
379.208	322.12
379.588	319.64
379.968	300.43
380.349	313.76
380.729	314.21
381.109	304.27
381.489	314.21
381.87	304.72
382.25	331.39
382.63	309.24
383.01	333.88
383.39	312.41
383.77	321.22
384.15	340.65
384.53	317.83
384.91	334.78
385.29	333.88
385.67	318.73
386.049	321.9
386.429	324.38
386.809	336.36
387.189	326.19
387.568	332.52
387.948	305.63
388.328	330.71
388.707	334.1
389.087	348.34
389.466	347.21
389.846	324.38
390.225	310.83
390.605	343.82
390.984	362.8
391.363	343.59
391.743	343.82
392.122	342.24
392.501	365.06
392.881	358.73
393.26	344.27
393.639	370.94
394.018	359.19
394.397	346.3
394.776	382.69
395.155	365.96
395.534	335.46
395.913	365.06
396.292	351.05
396.671	370.48
397.05	364.38
397.429	351.73
397.808	384.27
398.186	396.02
398.565	386.3
398.944	381.56
399.323	373.65
399.701	371.61
400.08	371.84
400.458	391.05
400.837	407.32
401.215	384.95
401.594	389.24
401.972	392.63
402.351	381.33
402.729	388.79
403.107	385.85
403.486	387.21
403.864	386.76
404.242	389.92
404.62	412.07
404.999	405.51
405.377	403.25
405.755	416.81
406.133	419.97
406.511	402.57
406.889	395.12
407.267	434.66
407.645	396.02
408.023	435.79
408.401	406.42
408.779	415.91
409.156	441.44
409.534	414.78
409.912	426.08
410.29	448.9
410.667	431.95
411.045	440.99
411.422	446.87
411.8	452.74
412.178	450.71
412.555	441.9
412.933	453.65
413.31	456.13
413.687	452.06
414.065	461.1
414.442	464.49
414.819	468.79
415.197	460.43
415.574	462.46
415.951	481.44
416.328	467.21
416.705	485.96
417.082	475.34
417.46	480.09
417.837	470.14
418.214	496.36
418.591	490.48
418.967	484.38
419.344	477.15
419.721	513.98
420.098	487.09
420.475	510.37
420.852	490.71
421.228	506.53
421.605	514.21
421.982	512.63
422.358	508.56
422.735	515.34
423.111	519.18
423.488	524.83
423.864	504.49
424.241	533.64
424.617	538.62
424.994	525.51
425.37	523.02
425.746	549.24
426.123	545.4
426.499	570.48
426.875	573.42
427.251	555.11
427.627	561.44
428.003	544.04
428.379	606.41
428.756	572.74
429.132	575
429.507	608.22
429.883	572.29
430.259	607.09
430.635	603.02
431.011	585.85
431.387	605.73
431.763	624.94
432.138	626.3
432.514	638.95
432.89	624.72
433.265	642.34
433.641	665.39
434.016	660.87
434.392	659.29
434.767	663.36
435.143	640.99
435.518	669.01
435.894	670.14
436.269	674.21
436.644	675.79
437.02	684.6
437.395	699.29
437.77	717.14
438.145	701.78
438.52	700.87
438.895	717.37
439.271	724.37
439.646	713.98
440.021	708.78
440.395	721.89
440.77	709.68
441.145	716.46
441.52	711.04
441.895	738.16
442.27	721.66
442.645	720.08
443.019	739.06
443.394	738.38
443.769	746.75
444.143	718.5
444.518	764.82
444.892	766.86
445.267	770.02
445.641	756.24
446.016	772.06
446.39	762.34
446.764	793.75
447.139	802.34
447.513	796.69
447.887	786.74
448.262	800.3
448.636	806.86
449.01	803.69
449.384	789
449.758	845.5
450.132	826.07
450.506	814.99
450.88	837.82
451.254	809.34
451.628	853.64
452.002	870.81
452.376	852.51
452.75	844.82
453.123	874.65
453.497	885.73
453.871	882.11
454.244	870.13
454.618	900.19
454.992	912.39
455.365	911.04
455.739	920.98
456.112	951.49
456.486	957.36
456.859	970.47
457.232	949.68
457.606	966.18
457.979	976.34
458.352	969.11
458.725	989.9
459.099	982.45
459.472	1005.5
459.845	987.64
460.218	1015.44
460.591	1017.93
460.964	1014.76
461.337	1043.24
461.71	1078.04
462.083	1067.64
462.456	1072.39
462.829	1069.22
463.201	1094.53
463.574	1090.24
463.947	1107.19
464.32	1118.26
464.692	1136.79
465.065	1141.31
465.438	1158.26
465.81	1170.69
466.183	1166.85
466.555	1217.92
466.928	1208.2
467.3	1231.7
467.672	1242.1
468.045	1286.62
468.417	1254.53
468.789	1239.84
469.161	1271.7
469.534	1317.58
469.906	1302.44
470.278	1313.74
470.65	1315.77
471.022	1311.25
471.394	1370.01
471.766	1380.4
472.138	1362.1
472.51	1422.43
472.882	1419.5
473.253	1466.73
473.625	1470.79
473.997	1459.27
474.369	1510.57
474.74	1511.7
475.112	1514.86
475.484	1554.86
475.855	1582.43
476.227	1588.76
476.598	1626.27
476.97	1641.86
477.341	1649.55
477.713	1656.55
478.084	1680.05
478.455	1735.42
478.827	1768.41
479.198	1773.16
479.569	1819.26
479.94	1819.94
480.311	1845.47
480.682	1862.42
481.053	1897.45
481.424	1949.88
481.795	1978.13
482.166	1981.29
482.537	2019.71
482.908	2055.64
483.279	2065.81
483.65	2112.81
484.021	2139.7
484.391	2129.31
484.762	2168.86
485.133	2185.35
485.503	2212.92
485.874	2222.64
486.244	2254.05
486.615	2296.76
486.985	2361.17
487.356	2360.49
487.726	2391.45
488.097	2442.75
488.467	2411.11
488.837	2524.78
489.207	2498.11
489.578	2508.73
489.948	2537.66
490.318	2596.19
490.688	2593.93
491.058	2597.54
491.428	2656.98
491.798	2677.32
492.168	2742.4
492.538	2739.01
492.908	2765.9
493.278	2774.94
493.648	2823.3
494.017	2813.81
494.387	2854.49
494.757	2896.29
495.126	2859.23
495.496	2868.72
495.866	2949.17
496.235	2945.11
496.605	2963.86
496.974	2987.82
497.344	3021.04
497.713	3031.66
498.082	3019.23
498.452	3050.19
498.821	3113.69
499.19	3130.86
499.559	3152.11
499.928	3187.36
500.298	3188.26
500.667	3242.05
501.036	3282.5
501.405	3263.06
501.774	3259.22
502.143	3314.59
502.512	3312.78
502.88	3380.35
503.249	3341.03
503.618	3405.21
503.987	3419.44
504.356	3427.58
504.724	3470.74
505.093	3471.65
505.462	3500.8
505.83	3504.41
506.199	3549.38
506.567	3579.67
506.936	3615.37
507.304	3629.61
507.672	3645.2
508.041	3640.91
508.409	3681.13
508.777	3696.5
509.145	3738.31
509.514	3744.63
509.882	3791.86
510.25	3756.16
510.618	3758.42
510.986	3786.44
511.354	3842.71
511.722	3872.99
512.09	3920.9
512.458	3910.05
512.826	3955.93
513.193	3954.8
513.561	4005.64
513.929	3974.23
514.297	4037.28
514.664	4014
515.032	4075.92
515.4	4132.42
515.767	4129.93
516.135	4171.29
516.502	4147.11
516.869	4207.9
517.237	4264.85
517.604	4267.11
517.972	4278.63
518.339	4321.34
518.706	4372.87
519.073	4381.68
519.44	4387.78
519.808	4476.37
520.175	4453.32
520.542	4523.6
520.909	4485.86
521.276	4548.91
521.643	4564.05
522.009	4664.38
522.376	4666.64
522.743	4665.74
523.11	4716.13
523.477	4731.73
523.843	4745.74
524.21	4792.97
524.577	4829.8
524.943	4888.11
525.31	4910.48
525.676	4984.83
526.043	4984.83
526.409	4973.75
526.776	5030.7
527.142	5047.42
527.508	5053.75
527.874	5165.39
528.241	5218.94
528.607	5219.85
528.973	5285.61
529.339	5248.32
529.705	5279.51
530.071	5380.52
530.437	5392.5
530.803	5401.76
531.169	5407.87
531.535	5407.19
531.901	5499.84
532.267	5507.52
532.632	5540.07
532.998	5586.17
533.364	5611.93
533.73	5665.71
534.095	5659.39
534.461	5700.51
534.826	5698.93
535.192	5689.89
535.557	5753.39
535.923	5747.07
536.288	5782.09
536.653	5788.42
537.019	5791.36
537.384	5873.16
537.749	5913.84
538.114	5927.4
538.479	5912.03
538.845	5990.9
539.21	5919.04
539.575	5964.24
539.94	6001.07
540.305	5975.53
540.67	6031.8
541.034	6073.84
541.399	6089.2
541.764	6116.77
542.129	6089.2
542.494	6172.82
542.858	6161.29
543.223	6196.55
543.587	6183.21
543.952	6142.31
544.316	6248.3
544.681	6179.37
545.045	6244.68
545.41	6262.08
545.774	6269.31
546.138	6304.34
546.503	6311.57
546.867	6291.01
547.231	6339.37
547.595	6317.22
547.959	6377.78
548.324	6379.37
548.688	6380.5
549.052	6461.17
549.416	6454.17
549.779	6435.86
550.143	6448.52
550.507	6564.22
550.871	6566.25
551.235	6559.47
551.599	6693.48
551.962	6595.41
552.326	6656.2
552.689	6722.18
553.053	6686.93
553.417	6765.57
553.78	6777.1
554.143	6760.37
554.507	6831.56
554.87	6867.94
555.234	6876.3
555.597	6892.12
555.96	6933.02
556.323	6977.54
556.686	6984.55
557.05	7086.92
557.413	7081.49
557.776	7109.52
558.139	7206.46
558.502	7153.81
558.865	7230.19
559.228	7308.83
559.59	7243.07
559.953	7336.86
560.316	7378.66
560.679	7344.54
561.041	7390.64
561.404	7502.05
561.767	7556.06
562.129	7503.63
562.492	7610.52
562.854	7601.03
563.217	7655.94
563.579	7615.94
563.941	7763.28
564.304	7732.55
564.666	7735.04
565.028	7776.62
565.39	7812.55
565.753	7880.12
566.115	7874.69
566.477	7904.3
566.839	7928.25
567.201	7995.82
567.563	7961.02
567.925	8070.62
568.287	8008.93
568.648	8078.98
569.01	8117.63
569.372	8170.51
569.734	8115.37
570.095	8214.8
570.457	8286.21
570.819	8304.06
571.18	8287.56
571.542	8297.96
571.903	8331.86
572.265	8373.66
572.626	8361.01
572.987	8377.73
573.349	8468.8
573.71	8445.75
574.071	8520.78
574.432	8537.5
574.794	8597.84
575.155	8578.63
575.516	8533.21
575.877	8619.31
576.238	8681.23
576.599	8677.61
576.96	8638.74
577.32	8718.06
577.681	8782.24
578.042	8771.62
578.403	8765.74
578.763	8732.07
579.124	8744.05
579.485	8778.85
579.845	8888.9
580.206	8874.44
580.566	8851.84
580.927	8839.64
581.287	9009.13
581.648	8869.92
582.008	8944.5
582.368	8977.72
582.728	8978.85
583.089	8973.2
583.449	8975.68
583.809	8955.34
584.169	8993.99
584.529	8959.41
584.889	9088.9
585.249	8927.32
585.609	9008.68
585.969	9038.73
586.329	8997.38
586.688	9045.51
587.048	8990.82
587.408	8955.57
587.768	8963.7
588.127	9008.22
588.487	8941.33
588.846	9076.7
589.206	8950.15
589.565	9006.19
589.925	8995.34
590.284	9015.91
590.643	9030.14
591.003	9028.11
591.362	9064.27
591.721	9022.01
592.08	9020.65
592.44	9022.91
592.799	9038.51
593.158	9028.56
593.517	8952.86
593.876	9002.57
594.235	8994.89
594.593	8993.31
594.952	8986.3
595.311	8963.03
595.67	8930.26
596.029	9043.93
596.387	9041.67
596.746	9071.72
597.104	8949.02
597.463	9019.52
597.822	9070.37
598.18	9017.71
598.538	9060.43
598.897	9091.39
599.255	9029.69
599.613	9191.95
599.972	9084.15
600.33	9071.95
600.688	8971.16
601.046	9153.3
601.404	9137.26
601.762	9153.3
602.12	9198.5
602.478	9112.18
602.836	9149.01
603.194	9170.48
603.552	9246.86
603.91	9172.29
604.268	9174.32
604.625	9168.9
604.983	9207.31
605.341	9163.47
605.698	9174.77
606.056	9268.78
606.413	9232.4
606.771	9260.87
607.128	9231.49
607.485	9225.84
607.843	9237.14
608.2	9231.95
608.557	9264.04
608.914	9285.5
609.272	9365.28
609.629	9325.73
609.986	9405.73
610.343	9315.56
610.7	9431.72
611.057	9379.51
611.414	9326.18
611.771	9329.57
612.127	9391.04
612.484	9362.11
612.841	9432.17
613.198	9417.03
613.554	9410.7
613.911	9479.85
614.267	9463.8
614.624	9447.99
614.98	9421.32
615.337	9505.39
615.693	9448.44
616.05	9448.21
616.406	9431.26
616.762	9490.24
617.118	9449.12
617.475	9467.42
617.831	9513.75
618.187	9507.87
618.543	9436.69
618.899	9478.95
619.255	9523.46
619.611	9501.09
619.967	9550.58
620.323	9536.57
620.678	9544.03
621.034	9471.94
621.39	9486.4
621.746	9505.39
622.101	9580.86
622.457	9471.04
622.812	9533.86
623.168	9633.07
623.523	9519.62
623.879	9621.54
624.234	9504.71
624.589	9617.93
624.945	9571.15
625.3	9560.3
625.655	9603.69
626.01	9549.45
626.365	9526.4
626.72	9493.86
627.075	9621.09
627.43	9569.11
627.785	9509.45
628.14	9626.29
628.495	9690.92
628.85	9588.32
629.205	9609.56
629.559	9618.38
629.914	9581.99
630.269	9657.02
630.623	9613.63
630.978	9652.27
631.332	9683.01
631.687	9650.24
632.041	9650.69
632.396	9677.13
632.75	9567.3
633.104	9621.77
633.459	9507.65
633.813	9537.25
634.167	9624.93
634.521	9603.24
634.875	9645.95
635.229	9612.5
635.583	9542.45
635.937	9572.28
636.291	9628.77
636.645	9575.89
636.999	9586.51
637.352	9568.66
637.706	9493.86
638.06	9516.91
638.413	9472.39
638.767	9549.68
639.121	9473.3
639.474	9452.73
639.828	9487.31
640.181	9436.91
640.534	9464.71
640.888	9444.14
641.241	9427.87
641.594	9395.11
641.947	9428.78
642.301	9342.23
642.654	9383.35
643.007	9410.47
643.36	9386.97
643.713	9307.2
644.066	9409.79
644.419	9297.26
644.771	9245.05
645.124	9114.66
645.477	9107.66
645.83	9036.92
646.182	8989.02
646.535	8990.6
646.888	8974.33
647.24	8878.96
647.593	9019.3
647.945	9012.29
648.298	8950.82
648.65	8902.92
649.002	8821.34
649.355	8945.17
649.707	8849.81
650.059	8906.08
650.411	9012.97
650.763	8993.31
651.115	9103.81
651.467	9044.38
651.819	8960.77
652.171	9014.1
652.523	9014.1
652.875	9017.04
653.227	8952.63
653.578	9000.99
653.93	9034.21
654.282	8958.73
654.633	8996.02
654.985	8929.58
655.337	8959.41
655.688	8948.34
656.039	9008
656.391	9030.37
656.742	8956.7
657.094	8952.63
657.445	8951.28
657.796	8968
658.147	8955.57
658.498	8893.88
658.849	8985.17
659.2	8930.03
659.551	8960.09
659.902	8940.43
660.253	8918.96
660.604	8937.27
660.955	8923.48
661.306	8952.41
661.656	8928.9
662.007	8857.72
662.358	8899.07
662.708	8956.7
663.059	8897.49
663.409	8817.04
663.76	8887.1
664.11	8942.91
664.461	8900.2
664.811	8949.92
665.161	8866.98
665.511	8936.59
665.862	8860.43
666.212	8865.63
666.562	8923.93
666.912	8896.14
667.262	8847.32
667.612	8826.31
667.962	8851.39
668.312	8787.21
668.662	8899.3
669.011	8847.55
669.361	8805.74
669.711	8822.01
670.06	8763.03
670.41	8746.08
670.76	8755.8
671.109	8760.09
671.459	8822.24
671.808	8808.91
672.157	8767.55
672.507	8738.63
672.856	8746.31
673.205	8716.71
673.554	8750.38
673.904	8701.11
674.253	8716.03
674.602	8657.72
674.951	8528.69
675.3	8525.75
675.649	8626.99
675.998	8626.99
676.346	8602.81
676.695	8619.08
677.044	8589.93
677.393	8588.57
677.741	8580.89
678.09	8539.76
678.438	8484.85
678.787	8581.12
679.135	8570.72
679.484	8490.27
679.832	8551.74
680.181	8497.28
680.529	8454.11
680.877	8468.12
681.225	8448.01
681.573	8513.55
681.922	8396.71
682.27	8377.05
682.618	8431.06
682.966	8427.22
683.314	8422.25
683.661	8427.45
684.009	8409.37
684.357	8304.97
684.705	8311.97
685.053	8262.93
685.4	8375.92
685.748	8326.43
686.095	8240.79
686.443	8246.66
686.79	8216.83
687.138	8246.89
687.485	8200.79
687.832	8226.32
688.18	8207.11
688.527	8189.49
688.874	8196.27
689.221	8113.78
689.568	8128.92
689.915	8102.26
690.262	8166.66
690.609	8095.71
690.956	8098.19
691.303	8150.17
691.65	8091.19
691.997	8078.53
692.344	8071.3
692.69	8092.77
693.037	8105.42
693.383	8012.32
693.73	8024.07
694.077	8014.13
694.423	7936.16
694.769	7885.09
695.116	7940.68
695.462	7977.97
695.808	7855.49
696.155	7953.11
696.501	7878.76
696.847	7862.49
697.193	7695.49
697.539	7810.29
697.885	7704.08
698.231	7707.92
698.577	7681.48
698.923	7770.74
699.269	7699.11
699.614	7631.99
699.96	7582.27
700.306	7674.47
700.651	7607.13
700.997	7539.34
701.342	7591.09
701.688	7564.42
702.033	7619.33
702.379	7563.74
702.724	7468.83
703.069	7450.3
703.415	7373.46
703.76	7451.2
704.105	7451.65
704.45	7439
704.795	7378.66
705.14	7371.66
705.485	7361.71
705.83	7233.81
706.175	7281.49
706.52	7254.15
706.865	7272.22
707.209	7285.33
707.554	7174.37
707.899	7255.95
708.243	7167.14
708.588	7093.92
708.932	7105
709.277	7105
709.621	7131.44
709.966	6988.39
710.31	7056.64
710.654	6983.64
710.998	6999.01
711.342	7027.03
711.687	6988.16
712.031	6978.67
712.375	6948.62
712.719	6966.47
713.063	6970.99
713.407	6916.98
713.75	6849.64
714.094	6872.91
714.438	6776.19
714.782	6833.37
715.125	6790.88
715.469	6808.28
715.812	6754.72
716.156	6775.29
716.499	6768.51
716.843	6806.25
717.186	6726.48
717.53	6707.04
717.873	6720.6
718.216	6760.37
718.559	6669.3
718.902	6616.87
719.246	6660.94
719.589	6612.58
719.932	6590.21
720.275	6635.63
720.617	6625.24
720.96	6616.65
721.303	6598.8
721.646	6632.01
721.989	6575.75
722.331	6561.96
722.674	6530.1
723.016	6556.99
723.359	6543.43
723.701	6563.09
724.044	6510.44
724.386	6508.18
724.729	6578.68
725.071	6524.9
725.413	6493.94
725.755	6454.39
726.097	6435.18
726.439	6469.53
726.782	6469.76
727.124	6496.65
727.465	6473.37
727.807	6454.39
728.149	6491
728.491	6392.25
728.833	6492.58
729.175	6441.74
729.516	6492.58
729.858	6498.01
730.199	6390.89
730.541	6422.08
730.882	6444
731.224	6384.34
731.565	6396.09
731.906	6424.56
732.248	6414.85
732.589	6399.25
732.93	6366.03
733.271	6388.41
733.612	6426.6
733.953	6399.25
734.294	6343.21
734.635	6333.27
734.976	6388.18
735.317	6345.92
735.658	6351.57
735.999	6331.68
736.339	6320.38
736.68	6340.95
737.021	6355.86
737.361	6336.88
737.702	6300.95
738.042	6312.48
738.383	6314.06
738.723	6348.41
739.063	6328.07
739.404	6312.02
739.744	6275.19
740.084	6207.17
740.424	6268.41
740.764	6233.16
741.104	6270.67
741.444	6239.93
741.784	6213.04
742.124	6226.38
742.464	6234.96
742.804	6154.29
743.143	6131.01
743.483	6200.39
743.823	6117.45
744.162	6151.35
744.502	6157.23
744.841	6149.99
745.181	6170.78
745.52	6077.91
745.86	6127.85
746.199	6094.18
746.538	6102.09
746.877	6112.93
747.216	6153.38
747.556	6060.05
747.895	6010.79
748.234	5954.52
748.573	6029.32
748.911	6010.56
749.25	6003.56
749.589	5979.38
749.928	5996.1
750.267	5930.11
750.605	5969.43
750.944	5942.99
751.283	5879.27
751.621	5920.17
751.96	5861.64
752.298	5864.58
752.636	5890.79
752.975	5805.14
753.313	5816.67
753.651	5815.09
753.989	5803.79
754.327	5769.66
754.666	5725.37
755.004	5742.09
755.342	5743.9
755.679	5746.61
756.017	5695.99
756.355	5730.57
756.693	5646.5
757.031	5679.5
757.368	5606.96
757.706	5646.96
758.044	5626.84
758.381	5585.94
758.719	5600.4
759.056	5606.51
759.394	5572.16
759.731	5531.25
760.068	5501.2
760.405	5530.57
760.743	5498.94
761.08	5486.96
761.417	5460.07
761.754	5388.21
762.091	5424.14
762.428	5462.1
762.765	5389.11
763.102	5445.61
763.438	5400.86
763.775	5336.46
764.112	5360.41
764.449	5382.56
764.785	5370.35
765.122	5290.58
765.458	5299.39
765.795	5322.9
766.131	5277.93
766.467	5284.71
766.804	5256.01
767.14	5228.21
767.476	5232.28
767.812	5221.43
768.148	5201.77
768.485	5122.68
768.821	5115.67
769.157	5150.92
769.492	5137.36
769.828	5142.56
770.164	5070.47
770.5	5056.69
770.836	5061.21
771.171	5046.29
771.507	5046.29
771.842	4990.25
772.178	4968.78
772.513	5013.3
772.849	4968.33
773.184	4915.9
773.519	4907.31
773.855	4908.9
774.19	4929.01
774.525	4855.79
774.86	4867.99
775.195	4880.87
775.53	4882.68
775.865	4806.3
776.2	4794.78
776.535	4758.84
776.87	4782.8
777.205	4768.34
777.539	4755.91
777.874	4752.52
778.209	4696.7
778.543	4702.8
778.878	4681.78
779.212	4699.86
779.547	4642.69
779.881	4647.43
780.215	4643.14
780.55	4646.98
780.884	4625.97
781.218	4606.98
781.552	4639.75
781.886	4534.89
782.22	4516.59
782.554	4520.66
782.888	4470.49
783.222	4493.99
783.556	4439.76
783.889	4471.17
784.223	4394.79
784.557	4371.51
784.89	4352.53
785.224	4377.16
785.557	4384.16
785.891	4319.53
786.224	4316.37
786.558	4339.19
786.891	4311.17
787.224	4237.95
787.557	4217.39
787.891	4185.75
788.224	4190.72
788.557	4205.86
788.89	4210.84
789.223	4207.9
789.556	4122.7
789.888	4152.76
790.221	4100.78
790.554	4103.27
790.887	4126.32
791.219	4082.7
791.552	4052.87
791.884	4072.08
792.217	4031.63
792.549	4008.81
792.882	3999.32
793.214	3941.01
793.546	4002.71
793.879	3944.4
794.211	3917.74
794.543	3944.85
794.875	3877.06
795.207	3907.79
795.539	3923.61
795.871	3868.92
796.203	3844.07
796.535	3853.33
796.867	3786.89
797.198	3828.25
797.53	3800.9
797.862	3800.9
798.193	3761.36
798.525	3746.22
798.856	3725.65
799.188	3739.89
799.519	3755.25
799.85	3661.47
800.182	3656.73
800.513	3696.27
800.844	3668.25
801.175	3649.72
801.506	3674.58
801.837	3648.59
802.168	3632.32
802.499	3632.77
802.83	3609.72
803.161	3564.98
803.491	3631.87
803.822	3562.94
804.153	3602.26
804.483	3562.72
804.814	3567.69
805.145	3541.02
805.475	3534.24
805.805	3544.19
806.136	3566.56
806.466	3553.9
806.796	3573.11
807.126	3494.47
807.457	3483.17
807.787	3474.81
808.117	3509.39
808.447	3504.64
808.777	3509.39
809.107	3463.96
809.436	3492.44
809.766	3505.09
810.096	3451.53
810.426	3444.75
810.755	3456.96
811.085	3450.4
811.414	3440.46
811.744	3442.49
812.073	3457.18
812.403	3426
812.732	3423.06
813.061	3467.35
813.39	3365.43
813.719	3363.63
814.049	3389.16
814.378	3380.35
814.707	3396.62
815.036	3379.9
815.365	3390.97
815.693	3350.97
816.022	3361.37
816.351	3364.53
816.68	3292.89
817.008	3354.59
817.337	3332.89
817.665	3307.58
817.994	3288.6
818.322	3308.03
818.651	3282.27
818.979	3274.82
819.307	3282.05
819.636	3277.53
819.964	3267.13
820.292	3282.27
820.62	3305.1
820.948	3206.34
821.276	3192.11
821.604	3270.3
821.932	3271.65
822.259	3289.96
822.587	3296.28
822.915	3263.97
823.243	3264.87
823.57	3268.26
823.898	3294.02
824.225	3240.47
824.553	3256.74
824.88	3265.55
825.207	3248.6
825.535	3240.47
825.862	3269.84
826.189	3264.65
826.516	3252.89
826.843	3246.57
827.17	3280.69
827.497	3275.04
827.824	3222.39
828.151	3268.71
828.478	3231.2
828.805	3312.78
829.131	3283.63
829.458	3237.53
829.785	3273.23
830.111	3255.83
830.438	3250.18
830.764	3268.04
831.09	3268.26
831.417	3260.35
831.743	3259.67
832.069	3248.15
832.395	3226.91
832.722	3225.55
833.048	3197.75
833.374	3246.12
833.7	3234.82
834.026	3253.8
834.351	3223.06
834.677	3216.96
835.003	3190.52
835.329	3224.42
835.654	3201.14
835.98	3197.08
836.306	3188.49
836.631	3183.52
836.956	3190.07
837.282	3211.31
837.607	3199.79
837.932	3147.59
838.258	3176.96
838.583	3188.26
838.908	3157.08
839.233	3146.68
839.558	3209.73
839.883	3140.36
840.208	3149.85
840.533	3160.24
840.858	3117.76
841.182	3140.13
841.507	3145.55
841.832	3107.81
842.156	3127.93
842.481	3156.4
842.805	3137.42
843.13	3100.58
843.454	3078.89
843.778	3119.34
844.103	3078.44
844.427	3052.67
844.751	3084.54
845.075	3063.75
845.399	3038.44
845.723	3075.72
846.047	3023.52
846.371	3037.53
846.695	3042.28
847.019	2995.95
847.343	2962.96
847.666	3008.83
847.99	2969.29
848.313	2957.31
848.637	2951.89
848.96	2957.08
849.284	2956.18
849.607	2915.5
849.931	2901.27
850.254	2930.64
850.577	2876.86
850.9	2898.78
851.223	2883.86
851.546	2861.72
851.869	2845.9
852.192	2909.85
852.515	2849.29
852.838	2828.05
853.161	2856.29
853.483	2847.26
853.806	2855.84
854.129	2824.66
854.451	2810.65
854.774	2829.63
855.096	2761.83
855.419	2763.87
855.741	2798.44
856.063	2749.63
856.385	2733.13
856.708	2751.21
857.03	2776.52
857.352	2723.64
857.674	2748.95
857.996	2729.07
858.318	2729.97
858.64	2728.61
858.961	2685.45
859.283	2707.37
859.605	2700.14
859.926	2683.42
860.248	2687.94
860.57	2659.46
860.891	2689.29
861.212	2708.5
861.534	2659.69
861.855	2676.41
862.176	2680.93
862.498	2625.57
862.819	2673.7
863.14	2678.22
863.461	2614.49
863.782	2633.25
864.103	2638.67
864.424	2635.74
864.745	2621.27
865.065	2615.4
865.386	2638.45
865.707	2631.22
866.027	2629.63
866.348	2599.58
866.668	2615.4
866.989	2654.49
867.309	2593.7
867.63	2622.63
867.95	2609.07
868.27	2596.64
868.59	2584.44
868.91	2594.38
869.23	2611.33
869.55	2591.22
869.87	2587.83
870.19	2561.61
870.51	2551.44
870.83	2547.83
871.15	2550.54
871.469	2572.01
871.789	2518.9
872.109	2536.08
872.428	2524.1
872.748	2527.26
873.067	2551.44
873.386	2545.79
873.706	2534.95
874.025	2542.18
874.344	2504.67
874.663	2525.46
874.982	2497.21
875.301	2533.37
875.62	2501.28
875.939	2484.1
876.258	2496.76
876.577	2492.01
876.896	2476.42
877.214	2474.38
877.533	2423.76
877.852	2462.41
878.17	2468.73
878.489	2470.99
878.807	2486.14
879.125	2456.76
879.444	2440.03
879.762	2394.61
880.08	2406.59
880.398	2420.6
880.716	2436.42
881.034	2418.11
881.352	2402.52
881.67	2408.85
881.988	2409.98
882.306	2390.54
882.624	2391.9
882.941	2375.86
883.259	2381.28
883.577	2386.93
883.894	2351.45
884.212	2325.01
884.529	2325.69
884.846	2333.82
885.164	2308.74
885.481	2321.85
885.798	2340.83
886.115	2296.54
886.432	2311.9
886.75	2288.85
887.067	2313.03
887.383	2333.82
887.7	2287.5
888.017	2272.13
888.334	2295.41
888.651	2280.49
888.967	2248.4
889.284	2230.55
889.6	2212.02
889.917	2215.63
890.233	2258.12
890.55	2217.67
890.866	2213.6
891.182	2210.21
891.498	2184.9
891.815	2183.77
892.131	2186.93
892.447	2187.61
892.763	2206.14
893.079	2178.8
893.395	2167.95
893.71	2166.6
894.026	2151.45
894.342	2147.39
894.657	2149.42
894.973	2146.48
895.289	2151.23
895.604	2128.4
895.92	2097.67
896.235	2139.25
896.55	2085.92
896.865	2111.68
897.181	2085.24
897.496	2121.63
897.811	2070.1
898.126	2124.11
898.441	2061.97
898.756	2093.83
899.071	2054.28
899.386	2064.9
899.7	2036.2
900.015	2046.37
900.33	1998.69
900.644	2014.51
900.959	1997.79
901.273	2018.58
901.588	1982.19
901.902	2012.02
902.216	1984.68
902.531	2044.79
902.845	1951.91
903.159	1984.23
903.473	1960.95
903.787	1997.11
904.101	1957.56
904.415	1946.94
904.729	1943.78
905.042	1932.93
905.356	1920.27
905.67	1925.92
905.984	1909.65
906.297	1914.17
906.611	1888.41
906.924	1927.73
907.237	1936.32
907.551	1918.01
907.864	1916.43
908.177	1881.86
908.491	1884.34
908.804	1878.02
909.117	1861.07
909.43	1864
909.743	1834.85
910.056	1848.41
910.368	1832.82
910.681	1861.97
910.994	1833.5
911.307	1848.86
911.619	1801.86
911.932	1808.41
912.244	1810.45
912.557	1785.81
912.869	1811.58
913.181	1803.89
913.494	1777
913.806	1794.63
914.118	1762.99
914.43	1762.31
914.742	1779.26
915.054	1755.08
915.366	1729.77
915.678	1728.64
915.99	1734.97
916.302	1703.78
916.613	1731.13
916.925	1721.41
917.236	1706.49
917.548	1705.14
917.859	1729.54
918.171	1710.79
918.482	1694.29
918.794	1703.1
919.105	1672.15
919.416	1693.16
919.727	1684.35
920.038	1668.76
920.349	1656.55
920.66	1640.73
920.971	1647.97
921.282	1657
921.593	1626.04
921.903	1611.36
922.214	1623.78
922.525	1601.64
922.835	1593.73
923.146	1605.93
923.456	1599.15
923.767	1597.57
924.077	1594.86
924.387	1583.33
924.697	1592.15
925.008	1576.55
925.318	1569.1
925.628	1568.87
925.938	1553.96
926.248	1570.68
926.558	1550.34
926.867	1581.53
927.177	1577.68
927.487	1526.84
927.796	1556.44
928.106	1538.82
928.416	1530
928.725	1541.98
929.034	1506.05
929.344	1560.06
929.653	1523.9
929.962	1509.21
930.271	1477.12
930.581	1492.49
930.89	1488.42
931.199	1486.39
931.508	1477.8
931.817	1459.95
932.125	1478.03
932.434	1461.3
932.743	1475.54
933.051	1444.13
933.36	1467.4
933.669	1437.12
933.977	1417.91
934.286	1443.45
934.594	1450
934.902	1430.8
935.21	1381.98
935.519	1401.87
935.827	1394.41
936.135	1390.8
936.443	1418.59
936.751	1357.58
937.059	1380.4
937.367	1383.57
937.674	1376.11
937.982	1375.43
938.29	1373.17
938.597	1379.27
938.905	1334.3
939.213	1353.74
939.52	1333.85
939.827	1335.88
940.135	1345.15
940.442	1351.25
940.749	1299.73
941.056	1308.31
941.363	1317.58
941.67	1341.53
941.977	1324.13
942.284	1276.9
942.591	1322.55
942.898	1265.15
943.205	1289.33
943.511	1298.6
943.818	1271.25
944.125	1280.97
944.431	1296.11
944.738	1263.57
945.044	1262.21
945.35	1290.23
945.657	1265.38
945.963	1262.66
946.269	1240.29
946.575	1239.39
946.881	1230.12
947.187	1237.58
947.493	1217.02
947.799	1225.38
948.105	1219.05
948.41	1239.84
948.716	1235.09
949.022	1231.03
949.327	1174.98
949.633	1217.24
949.938	1210.91
950.244	1183.12
950.549	1181.99
950.854	1181.99
951.16	1186.51
951.465	1159.16
951.77	1178.37
952.075	1159.62
952.38	1152.38
952.685	1172.72
952.99	1166.62
953.294	1176.11
953.599	1143.8
953.904	1143.8
954.209	1136.79
954.513	1157.58
954.818	1119.84
955.122	1135.89
955.426	1140.86
955.731	1132.72
956.035	1123.69
956.339	1112.84
956.643	1105.15
956.948	1083.23
957.252	1101.76
957.556	1125.72
957.86	1113.29
958.163	1121.88
958.467	1077.81
958.771	1078.04
959.075	1093.18
959.378	1070.35
959.682	1086.62
959.985	1077.58
960.289	1075.1
960.592	1061.31
960.896	1097.7
961.199	1053.63
961.502	1075.55
961.805	1068.77
962.108	1026.29
962.411	1074.42
962.714	1039.85
963.017	1062.44
963.32	1050.69
963.623	1028.77
963.926	1049.56
964.228	1020.19
964.531	1035.1
964.833	1015.21
965.136	1000.07
965.438	1018.6
965.741	1033.74
966.043	1001.65
966.345	984.71
966.648	1000.75
966.95	1003.01
967.252	1006.85
967.554	979.06
967.856	984.03
968.158	964.59
968.46	985.16
968.761	981.77
969.063	970.92
969.365	963.46
969.666	978.83
969.968	946.06
970.269	975.44
970.571	969.11
970.872	936.57
971.174	944.48
971.475	923.69
971.776	953.29
972.077	937.02
972.378	957.14
972.679	952.39
972.98	948.1
973.281	948.1
973.582	918.27
973.883	934.99
974.183	931.83
974.484	925.05
974.785	908.55
975.085	905.84
975.386	931.37
975.686	915.56
975.986	908.78
976.287	931.15
976.587	918.27
976.887	888.21
977.187	899.51
977.487	901.09
977.787	883.69
978.087	878.27
978.387	899.28
978.687	876.46
978.987	880.75
979.286	880.75
979.586	886.86
979.885	880.3
980.185	876.91
980.484	898.38
980.784	869.91
981.083	858.61
981.382	874.65
981.682	853.86
981.981	871.71
982.28	857.03
982.579	835.33
982.878	843.92
983.177	876.69
983.475	838.04
983.774	836.46
984.073	862.68
984.372	847.31
984.67	828.78
984.969	833.75
985.267	820.64
985.566	831.72
985.864	820.19
986.162	813.41
986.461	822
986.759	829.46
987.057	793.75
987.355	808.89
987.653	804.15
987.951	820.87
988.249	789.23
988.547	800.3
988.844	802.11
989.142	822.9
989.44	793.3
989.737	807.76
990.035	785.39
990.332	772.06
990.63	764.15
990.927	804.15
991.224	797.59
991.521	771.83
991.819	793.07
992.116	761.66
992.413	773.64
992.71	752.85
993.006	769.34
993.303	753.53
993.6	772.96
993.897	770.47
994.193	783.58
994.49	755.56
994.787	775.67
995.083	751.27
995.379	756.24
995.676	733.19
995.972	729.57
996.268	743.13
996.565	751.94
996.861	745.62
997.157	738.61
997.453	744.49
997.749	713.75
998.044	722.11
998.34	723.7
998.636	731.38
998.932	718.95
999.227	699.97
999.523	710.36
999.818	733.64
1000.114	716.92
1000.409	676.69
1000.704	681.66
1001	692.06
1001.295	695.22
1001.59	666.75
1001.885	684.83
1002.18	667.43
1002.475	684.6
1002.77	689.57
1003.065	689.8
1003.359	697.03
1003.654	678.73
1003.949	674.43
1004.243	668.1
1004.538	674.43
1004.832	681.89
1005.127	668.33
1005.421	646.18
1005.715	665.39
1006.009	665.39
1006.304	640.08
1006.598	656.8
1006.892	636.92
1007.186	643.92
1007.48	633.98
1007.773	611.83
1008.067	645.28
1008.361	669.23
1008.655	634.66
1008.948	615.68
1009.242	640.08
1009.535	631.95
1009.829	604.38
1010.122	632.17
1010.415	618.61
1010.708	623.59
1011.001	619.74
1011.295	582.68
1011.588	609.8
1011.881	610.25
1012.173	605.73
1012.466	584.49
1012.759	601.66
1013.052	609.12
1013.344	586.52
1013.637	585.39
1013.93	574.1
1014.222	582.23
1014.514	596.47
1014.807	592.4
1015.099	581.33
1015.391	574.55
1015.683	573.64
1015.976	609.12
1016.268	580.2
1016.56	564.6
1016.851	542.01
1017.143	567.77
1017.435	553.76
1017.727	567.77
1018.018	575.9
1018.31	550.82
1018.602	559.41
1018.893	554.89
1019.185	541.78
1019.476	551.5
1019.767	535.68
1020.058	540.88
1020.35	534.77
1020.641	551.04
1020.932	542.46
1021.223	523.02
1021.514	516.47
1021.804	547.88
1022.095	525.73
1022.386	541.55
1022.677	542.01
1022.967	531.84
1023.258	512.63
1023.548	546.07
1023.839	510.14
1024.129	525.96
1024.419	516.47
1024.709	527.99
1025	526.19
1025.29	512.18
1025.58	505.17
1025.87	518.96
1026.16	512.63
1026.449	499.29
1026.739	497.03
1027.029	507.43
1027.319	507.66
1027.608	477.15
1027.898	506.75
1028.187	464.95
1028.477	490.71
1028.766	485.96
1029.055	501.1
1029.344	475.11
1029.634	467.66
1029.923	480.31
1030.212	501.55
1030.501	486.41
1030.79	464.72
1031.078	457.94
1031.367	491.84
1031.656	466.08
1031.945	471.5
1032.233	483.02
1032.522	477.6
1032.81	455.91
1033.099	501.33
1033.387	465.62
1033.675	462.46
1033.963	496.58
1034.251	476.02
1034.54	451.61
1034.828	462.23
1035.116	461.78
1035.403	447.32
1035.691	454.32
1035.979	462.46
1036.267	455
1036.554	454.32
1036.842	445.74
1037.129	445.28
1037.417	443.93
1037.704	421.1
1037.992	443.25
1038.279	463.59
1038.566	433.99
1038.853	433.99
1039.14	433.99
