Data from foam2_polystyrene_foam_FLMS001491_00099.txt Node
Date: Wed Feb 08 10:58:48 GMT 2017
User: dcchb
Spectrometer: FLMS00149
Trigger mode: 0
Integration Time (sec): 2.000000E-2
Scans to average: 10
Electric dark correction enabled: true
Nonlinearity correction enabled: false
Boxcar width: 0
XAxis mode: Wavelengths
Number of Pixels in Spectrum: 2048
>>>>>Begin Spectral Data<<<<<
341.393	-5.2
341.776	-5.2
342.16	-5.2
342.543	-48.59
342.927	-52.2
343.31	-71.18
343.693	-55.59
344.077	-72.54
344.46	-48.81
344.843	-47.46
345.226	-45.87
345.61	-55.82
345.993	-36.61
346.376	-14.46
346.759	3.16
347.142	23.95
347.525	46.1
347.908	63.05
348.291	79.32
348.674	116.61
349.057	116.16
349.44	138.53
349.823	122.26
350.206	153.44
350.588	191.86
350.971	196.61
351.354	221.46
351.737	218.3
352.119	253.33
352.502	258.98
352.884	278.18
353.267	282.48
353.65	293.33
354.032	289.03
354.414	334.91
354.797	297.17
355.179	323.38
355.562	338.97
355.944	316.83
356.326	334.23
356.709	328.35
357.091	321.35
357.473	349.6
357.855	355.7
358.238	350.5
358.62	346.43
359.002	346.21
359.384	349.6
359.766	347.79
360.148	350.95
360.53	374
360.912	345.75
361.294	323.38
361.676	347.79
362.057	343.04
362.439	330.39
362.821	331.74
363.203	350.5
363.584	340.33
363.966	333.1
364.348	319.31
364.729	297.85
365.111	331.06
365.493	329.93
365.874	330.84
366.256	320.22
366.637	322.03
367.019	338.07
367.4	332.65
367.781	312.76
368.163	346.21
368.544	316.6
368.925	325.42
369.306	335.58
369.688	325.87
370.069	338.52
370.45	334.45
370.831	342.82
371.212	331.06
371.593	321.57
371.974	353.89
372.355	329.48
372.736	335.81
373.117	341.23
373.498	340.1
373.879	337.39
374.26	338.97
374.641	352.53
375.021	308.92
375.402	346.21
375.783	352.76
376.163	371.29
376.544	357.96
376.925	366.77
377.305	348.47
377.686	350.95
378.066	349.6
378.447	359.76
378.827	365.41
379.208	353.21
379.588	372.19
379.968	363.61
380.349	377.62
380.729	380.33
381.109	389.82
381.489	396.83
381.87	371.29
382.25	388.46
382.63	381.91
383.01	383.04
383.39	389.14
383.77	381.46
384.15	385.75
384.53	387.33
384.91	407.22
385.29	404.96
385.67	416.03
386.049	425.98
386.429	417.62
386.809	423.94
387.189	415.36
387.568	421.68
387.948	420.55
388.328	422.59
388.707	427.56
389.087	442.02
389.466	401.35
389.846	439.54
390.225	449.71
390.605	456.03
390.984	455.13
391.363	444.28
391.743	456.71
392.122	476.82
392.501	453.32
392.881	453.32
393.26	454.23
393.639	478.86
394.018	466.2
394.397	457.16
394.776	475.02
395.155	485.18
395.534	503.26
395.913	486.31
396.292	483.83
396.671	497.16
397.05	511.62
397.429	514.56
397.808	475.02
398.186	494.68
398.565	499.87
398.944	498.97
399.323	534
399.701	519.31
400.08	529.48
400.458	526.09
400.837	535.13
401.215	551.17
401.594	554.56
401.972	533.55
402.351	545.75
402.729	571.06
403.107	562.92
403.486	568.57
403.864	555.01
404.242	555.01
404.62	558.18
404.999	581.91
405.377	589.36
405.755	592.07
406.133	594.79
406.511	600.44
406.889	622.13
407.267	618.74
407.645	626.42
408.023	670.72
408.401	626.2
408.779	639.31
409.156	656.25
409.534	629.14
409.912	656.71
410.29	674.11
410.667	672.98
411.045	681.34
411.422	666.2
411.8	661.45
412.178	697.16
412.555	710.72
412.933	703.26
413.31	721.56
413.687	724.5
414.065	726.31
414.442	722.92
414.819	734.67
415.197	748.68
415.574	750.71
415.951	775.35
416.328	780.32
416.705	771.73
417.082	782.13
417.46	785.97
417.837	794.33
418.214	786.65
418.591	839.98
418.967	813.09
419.344	808.79
419.721	851.73
420.098	822.35
420.475	849.24
420.852	848.57
421.228	864.38
421.605	856.02
421.982	842.24
422.358	876.81
422.735	887.66
423.111	895.57
423.488	909.58
423.864	908.68
424.241	929.24
424.617	927.89
424.994	952.52
425.37	960.88
425.746	954.33
426.123	950.48
426.499	980.77
426.875	968.79
427.251	979.64
427.627	1018.28
428.003	1002.91
428.379	1021.67
428.756	1049.24
429.132	1048.11
429.507	1061.67
429.883	1080.65
430.259	1096.02
430.635	1075.9
431.011	1097.82
431.387	1124.04
431.763	1158.16
432.138	1169.01
432.514	1178.95
432.89	1172.17
433.265	1192.74
433.641	1244.26
434.016	1220.98
434.392	1248.1
434.767	1259.63
435.143	1268.22
435.518	1298.27
435.894	1278.16
436.269	1292.85
436.644	1304.37
437.02	1321.32
437.395	1352.73
437.77	1355.22
438.145	1364.26
438.52	1399.74
438.895	1403.58
439.271	1419.17
439.646	1442.67
440.021	1448.1
440.395	1449.68
440.77	1426.18
441.145	1480.19
441.52	1501.66
441.895	1497.14
442.27	1504.14
442.645	1498.04
443.019	1564.25
443.394	1571.26
443.769	1541.2
444.143	1552.95
444.518	1597.92
444.892	1590.69
445.267	1599.28
445.641	1605.16
446.016	1611.94
446.39	1655.55
446.764	1644.7
447.139	1652.84
447.513	1637.7
447.887	1671.82
448.262	1719.05
448.636	1711.82
449.01	1741.65
449.384	1751.37
449.758	1749.11
450.132	1789.33
450.506	1773.06
450.88	1775.77
451.254	1784.13
451.628	1838.37
452.002	1840.18
452.376	1839.05
452.75	1861.65
453.123	1889.44
453.497	1904.36
453.871	1918.14
454.244	1955.65
454.618	1971.7
454.992	1974.86
455.365	1991.59
455.739	2041.75
456.112	2087.63
456.486	2084.69
456.859	2098.02
457.232	2124.92
457.606	2128.53
457.979	2145.71
458.352	2190.9
458.725	2198.36
459.099	2243.1
459.472	2246.49
459.845	2275.87
460.218	2292.6
460.591	2299.37
460.964	2274.97
461.337	2378.24
461.71	2367.62
462.083	2444.23
462.456	2457.11
462.829	2460.95
463.201	2480.16
463.574	2490.56
463.947	2520.16
464.32	2580.95
464.692	2593.38
465.065	2582.76
465.438	2654.17
465.81	2687.39
466.183	2725.13
466.555	2724.9
466.928	2802.41
467.3	2790.21
467.672	2817.55
468.045	2874.73
468.417	2862.98
468.789	2897.55
469.161	2933.71
469.534	2973.71
469.906	3040.37
470.278	3061.39
470.65	3112.01
471.022	3189.75
471.394	3206.47
471.766	3224.77
472.138	3279.46
472.51	3309.74
472.882	3366.01
473.253	3382.28
473.625	3486.91
473.997	3541.15
474.369	3572.34
474.74	3548.61
475.112	3638.1
475.484	3720.58
475.855	3740.92
476.227	3795.15
476.598	3884.64
476.97	3911.76
477.341	4020.91
477.713	4060.46
478.084	4097.07
478.455	4192.21
478.827	4232.66
479.198	4328.25
479.569	4403.5
479.94	4450.73
480.311	4473.33
480.682	4598.98
481.053	4678.52
481.424	4813.66
481.795	4831.06
482.166	4860.66
482.537	4949.25
482.908	5044.16
483.279	5062.69
483.65	5147.89
484.021	5330.71
484.391	5313.08
484.762	5384.72
485.133	5420.87
485.503	5498.39
485.874	5629.23
486.244	5739.51
486.615	5815.89
486.985	5853.41
487.356	5895.66
487.726	6011.37
488.097	6112.61
488.467	6153.06
488.837	6307.4
489.207	6397.57
489.578	6453.16
489.948	6513.05
490.318	6513.28
490.688	6539.49
491.058	6743.55
491.428	6821.52
491.798	6876.43
492.168	6976.54
492.538	7007.73
492.908	7105.8
493.278	7218.57
493.648	7217.44
494.017	7316.42
494.387	7381.95
494.757	7445
495.126	7526.13
495.496	7572.46
495.866	7590.53
496.235	7723.41
496.605	7798.89
496.974	7855.16
497.344	7924.09
497.713	7947.81
498.082	8014.25
498.452	8140.8
498.821	8080.24
499.19	8205.43
499.559	8224.87
499.928	8297.86
500.298	8401.81
500.667	8497.4
501.036	8519.32
501.405	8492.66
501.774	8594.12
502.143	8652.43
502.512	8673.9
502.88	8755.25
503.249	8839.99
503.618	8869.6
503.987	8909.6
504.356	8992.08
504.724	9010.38
505.093	9148.46
505.462	9148.23
505.83	9201.79
506.199	9314.56
506.567	9384.84
506.936	9406.31
507.304	9545.51
507.672	9551.84
508.041	9633.87
508.409	9741.89
508.777	9815.34
509.145	9850.14
509.514	9937.82
509.882	9964.03
510.25	10009.91
510.618	10087.87
510.986	10140.52
511.354	10233.4
511.722	10235.66
512.09	10391.82
512.458	10436.56
512.826	10489.44
513.193	10530.12
513.561	10646.27
513.929	10695.54
514.297	10836.55
514.664	10869.09
515.032	10879.04
515.4	11010.78
515.767	11017.34
516.135	11159.71
516.502	11095.98
516.869	11286.93
517.237	11310.66
517.604	11355.41
517.972	11483.09
518.339	11501.39
518.706	11661.61
519.073	11735.06
519.44	11738.67
519.808	11922.4
520.175	11861.83
520.542	12079.91
520.909	12130.53
521.276	12178.21
521.643	12255.95
522.009	12374.82
522.376	12515.83
522.743	12593.57
523.11	12682.15
523.477	12751.08
523.843	12857.97
524.21	12961.92
524.577	13091.86
524.943	13109.03
525.31	13229.03
525.676	13365.98
526.043	13430.61
526.409	13530.04
526.776	13689.81
527.142	13668.57
527.508	13726.64
527.874	13924.15
528.241	13989.91
528.607	13998.28
528.973	14138.16
529.339	14236.46
529.705	14249.79
530.071	14424.71
530.437	14395.55
530.803	14578.6
531.169	14694.75
531.535	14595.1
531.901	14662.21
532.267	14739.05
532.632	14879.16
532.998	14975.2
533.364	14997.57
533.73	15101.75
534.095	15193.95
534.461	15235.31
534.826	15324.12
535.192	15391.46
535.557	15474.4
535.923	15535.64
536.288	15564.79
536.653	15638.91
537.019	15631.45
537.384	15725.46
537.749	15793.26
538.114	15811.11
538.479	15789.42
538.845	15913.48
539.21	15997.09
539.575	16048.62
539.94	16115.28
540.305	16240.93
540.67	16232.12
541.034	16296.75
541.399	16315.05
541.764	16382.17
542.129	16438.44
542.494	16539.68
542.858	16598.43
543.223	16597.98
543.587	16694.7
543.952	16698.77
544.316	16836.85
544.681	16742.61
545.045	16842.49
545.41	16903.28
545.774	17064.18
546.138	17093.11
546.503	17060.57
546.867	17067.12
547.231	17259.89
547.595	17281.13
547.959	17325.42
548.324	17358.87
548.688	17454
549.052	17531.52
549.416	17638.41
549.779	17549.82
550.143	17677.95
550.507	17827.33
550.871	17826.2
551.235	17790.27
551.599	18015.35
551.962	17995.01
552.326	18026.42
552.689	18222.35
553.053	18202.01
553.417	18217.83
553.78	18515.9
554.143	18394.77
554.507	18582.56
554.87	18622.11
555.234	18828.43
555.597	18659.85
555.96	18851.26
556.323	18897.58
556.686	18797.47
557.05	19104.13
557.413	19192.94
557.776	19165.6
558.139	19270
558.502	19328.31
558.865	19503.89
559.228	19674.74
559.59	19691.23
559.953	19636.32
560.316	19971.23
560.679	19860.72
561.041	19959.7
561.404	20182.29
561.767	20222.07
562.129	20215.74
562.492	20415.28
562.854	20414.83
563.217	20426.81
563.579	20514.71
563.941	20747.48
564.304	20846.46
564.666	20973.23
565.028	21173.91
565.39	21119.67
565.753	21197.41
566.115	21281.7
566.477	21365.09
566.839	21561.24
567.201	21650.28
567.563	21605.76
567.925	21766.66
568.287	21722.82
568.648	21882.81
569.01	21973.43
569.372	22093.43
569.734	22048.01
570.095	22307.89
570.457	22320.09
570.819	22363.93
571.18	22418.85
571.542	22546.75
571.903	22582.46
572.265	22672.62
572.626	22789.23
572.987	22770.7
573.349	22857.48
573.71	22929.57
574.071	22997.14
574.432	23083.23
574.794	23230.58
575.155	23161.65
575.516	23264.25
575.877	23233.51
576.238	23403
576.599	23423.11
576.96	23379.5
577.32	23525.71
577.681	23591.92
578.042	23646.38
578.403	23579.72
578.763	23635.99
579.124	23685.48
579.485	23826.49
579.845	23843.67
580.206	23845.93
580.566	24036.2
580.927	23952.14
581.287	23977.67
581.648	23765.48
582.008	24110.55
582.368	23901.97
582.728	24042.31
583.089	23968.18
583.449	23980.16
583.809	24058.35
584.169	24215.86
584.529	24141.51
584.889	24254.28
585.249	24054.73
585.609	24107.16
585.969	24157.33
586.329	24154.62
586.688	24231.45
587.048	24236.88
587.408	24173.83
587.768	24302.86
588.127	24202.3
588.487	24136.77
588.846	24368.17
589.206	24204.79
589.565	24301.73
589.925	24438.45
590.284	24258.57
590.643	24241.4
591.003	24346.93
591.362	24378.57
591.721	24430.77
592.08	24197.33
592.44	24397.1
592.799	24382.86
593.158	24415.4
593.517	24407.95
593.876	24396.42
594.235	24495.18
594.593	24468.96
594.952	24482.07
595.311	24334.05
595.67	24392.13
596.029	24593.03
596.387	24578.79
596.746	24532.91
597.104	24507.6
597.463	24535.85
597.822	24525.68
598.18	24551.22
598.538	24618.79
598.897	24741.72
599.255	24456.08
599.613	24879.8
599.972	24696.3
600.33	24730.2
600.688	24625.34
601.046	24772.91
601.404	24762.29
601.762	24747.82
602.12	24976.74
602.478	24851.32
602.836	24829.4
603.194	24802.29
603.552	24833.25
603.91	24762.51
604.268	24938.78
604.625	24883.64
604.983	24953.47
605.341	24867.59
605.698	25031.66
606.056	24958.67
606.413	24988.95
606.771	24993.69
607.128	25148.49
607.485	25019.23
607.843	24906.69
608.2	25016.97
608.557	25161.37
608.914	25107.36
609.272	25284.31
609.629	25293.8
609.986	25277.98
610.343	25196.17
610.7	25364.08
611.057	25282.95
611.414	25320.01
611.771	25278.88
612.127	25423.06
612.484	25407.02
612.841	25540.8
613.198	25451.76
613.554	25371.76
613.911	25493.79
614.267	25460.8
614.624	25482.72
614.98	25624.19
615.337	25641.81
615.693	25630.29
616.05	25615.15
616.406	25739.21
616.762	25674.35
617.118	25576.95
617.475	25644.52
617.831	25675.03
618.187	25710.06
618.543	25782.6
618.899	25851.52
619.255	25827.12
619.611	25721.13
619.967	25877.29
620.323	25881.13
620.678	25843.16
621.034	25679.1
621.39	25599.33
621.746	25658.99
622.101	26004.29
622.457	25926.32
622.812	25906.44
623.168	25795.71
623.523	25853.11
623.879	25900.34
624.234	25745.54
624.589	25881.58
624.945	25791.64
625.3	25771.75
625.655	25784.41
626.01	25783.5
626.365	25882.48
626.72	25761.81
627.075	25737.63
627.43	25771.98
627.785	25592.1
628.14	25729.72
628.495	25589.84
628.85	25631.64
629.205	25567.92
629.559	25725.65
629.914	25568.37
630.269	25619.44
630.623	25436.85
630.978	25471.19
631.332	25448.37
631.687	25565.2
632.041	25444.3
632.396	25510.74
632.75	25311.2
633.104	25418.99
633.459	25244.08
633.813	25220.13
634.167	25241.82
634.521	25205.66
634.875	25262.39
635.229	25134.03
635.583	25086.57
635.937	25155.72
636.291	25144.65
636.645	25045.44
636.999	24952.11
637.352	25128.15
637.706	24776.3
638.06	24983.75
638.413	24856.75
638.767	24872.11
639.121	24860.14
639.474	24677.32
639.828	24814.94
640.181	24791.66
640.534	24730.2
640.888	24714.38
641.241	24567.49
641.594	24523.42
641.947	24553.48
642.301	24514.61
642.654	24559.13
643.007	24537.89
643.36	24466.93
643.713	24365.01
644.066	24384.67
644.419	24276.42
644.771	24071.46
645.124	23869.88
645.477	23901.07
645.83	23694.29
646.182	23553.96
646.535	23498.14
646.888	23588.31
647.24	23350.8
647.593	23601.87
647.945	23492.49
648.298	23339.5
648.65	23384.47
649.002	23229.67
649.355	23316.22
649.707	23264.92
650.059	23311.48
650.411	23617.91
650.763	23746.04
651.115	23987.84
651.467	23896.09
651.819	23844.34
652.171	23798.47
652.523	23750.56
652.875	23677.12
653.227	23587.85
653.578	23737.91
653.93	23609.77
654.282	23516.44
654.633	23472.6
654.985	23491.13
655.337	23562.54
655.688	23494.52
656.039	23571.36
656.391	23340.86
656.742	23486.16
657.094	23377.69
657.445	23537.69
657.796	23365.26
658.147	23335.66
658.498	23337.47
658.849	23388.54
659.2	23380.4
659.551	23150.35
659.902	23292.04
660.253	23283.91
660.604	23265.83
660.955	23215.66
661.306	23330.46
661.656	23264.47
662.007	23292.95
662.358	23297.92
662.708	23271.03
663.059	23255.43
663.409	22991.71
663.76	23217.69
664.11	23138.6
664.461	23321.65
664.811	23158.49
665.161	23152.16
665.511	23045.95
665.862	23185.38
666.212	23165.94
666.562	23032.39
666.912	23062.9
667.262	23033.52
667.612	23097.02
667.962	23078.04
668.312	23055.89
668.662	23126.62
669.011	23133.85
669.361	23017.25
669.711	22914.2
670.06	22915.56
670.41	22840.76
670.76	22862.68
671.109	23027.42
671.459	22982.9
671.808	22937.02
672.157	22945.84
672.507	22866.29
672.856	22754.2
673.205	22805.28
673.554	22879.17
673.904	22834.43
674.253	22948.1
674.602	22760.98
674.951	22527.32
675.3	22426.08
675.649	22798.72
675.998	22694.77
676.346	22727.31
676.695	22841.21
677.044	22596.69
677.393	22719.85
677.741	22713.98
678.09	22699.29
678.438	22462.69
678.787	22598.05
679.135	22705.62
679.484	22477.38
679.832	22613.42
680.181	22384.95
680.529	22493.19
680.877	22407.09
681.225	22411.84
681.573	22575
681.922	22341.11
682.27	22204.39
682.618	22338.62
682.966	22235.8
683.314	22342.24
683.661	22203.03
684.009	22043.04
684.357	22078.06
684.705	21999.42
685.053	22057.5
685.4	21936.82
685.748	21895.47
686.095	21870.16
686.443	21742.93
686.79	21721.01
687.138	21890.27
687.485	21772.08
687.832	21755.13
688.18	21657.28
688.527	21542.71
688.874	21647.11
689.221	21509.49
689.568	21579.55
689.915	21404.18
690.262	21511.75
690.609	21379.78
690.956	21327.8
691.303	21183.17
691.65	21205.09
691.997	21142.27
692.344	20968.26
692.69	21007.81
693.037	20976.85
693.383	20915.61
693.73	21041.03
694.077	20797.65
694.423	20808.04
694.769	20795.16
695.116	20783.86
695.462	20636.97
695.808	20565.56
696.155	20608.05
696.501	20481.72
696.847	20576.63
697.193	20425
697.539	20479.69
697.885	20296.87
698.231	20247.15
698.577	20191.11
698.923	20190.2
699.269	20123.99
699.614	20074.73
699.96	20026.37
700.306	19931.45
700.651	19810.55
700.997	19775.07
701.342	19863.21
701.688	19776.88
702.033	19775.3
702.379	19721.97
702.724	19713.15
703.069	19604.68
703.415	19503.22
703.76	19430.45
704.105	19503.89
704.45	19390.9
704.795	19277.69
705.14	19282.43
705.485	19164.24
705.83	19140.51
706.175	19159.5
706.52	19019.16
706.865	18959.28
707.209	18896.9
707.554	18829.56
707.899	18998.82
708.243	18822.78
708.588	18794.53
708.932	18703.24
709.277	18686.74
709.621	18716.57
709.966	18546.63
710.31	18596.57
710.654	18407.43
710.998	18443.81
711.342	18471.6
711.687	18434.77
712.031	18293.53
712.375	18205.62
712.719	18291.04
713.063	18230.71
713.407	18205.4
713.75	18218.73
714.094	18142.35
714.438	18170.37
714.782	18236.36
715.125	18102.35
715.469	18104.61
715.812	17907.33
716.156	17818.97
716.499	17896.03
716.843	17973.76
717.186	17797.27
717.53	17798.63
717.873	17709.59
718.216	17682.25
718.559	17583.49
718.902	17541.46
719.246	17514.34
719.589	17479.09
719.932	17414.46
720.275	17563.38
720.617	17429.6
720.96	17374.68
721.303	17518.18
721.646	17389.6
721.989	17411.75
722.331	17455.81
722.674	17402.25
723.016	17321.8
723.359	17296.27
723.701	17304.4
724.044	17188.47
724.386	17102.83
724.729	17188.7
725.071	17045.65
725.413	16981.93
725.755	16981.02
726.097	16966.33
726.439	16860.57
726.782	17011.3
727.124	16933.34
727.465	16944.19
727.807	16827.35
728.149	16813.8
728.491	16795.94
728.833	16796.39
729.175	16890.63
729.516	16622.39
729.858	16655.38
730.199	16677.53
730.541	16558.66
730.882	16598.89
731.224	16615.38
731.565	16548.27
731.906	16447.48
732.248	16501.71
732.589	16407.25
732.93	16388.95
733.271	16280.02
733.612	16345.56
733.953	16431.88
734.294	16268.95
734.635	16291.1
734.976	16258.1
735.317	16145.56
735.658	16203.64
735.999	16187.15
736.339	16095.17
736.68	16175.85
737.021	16040.71
737.361	16065.11
737.702	16133.14
738.042	16015.85
738.383	16025.34
738.723	15941.5
739.063	15900.15
739.404	15929.52
739.744	15897.21
740.084	15871.22
740.424	15837.1
740.764	15775.18
741.104	15903.54
741.444	15667.38
741.784	15691.56
742.124	15696.54
742.464	15624.67
742.804	15627.61
743.143	15603.43
743.483	15616.31
743.823	15485.47
744.162	15428.07
744.502	15581.51
744.841	15447.96
745.181	15556.43
745.52	15457.67
745.86	15382.19
746.199	15338.35
746.538	15327.96
746.877	15399.82
747.216	15367.28
747.556	15210.45
747.895	15352.14
748.234	15230.33
748.573	15122.54
748.911	15087.29
749.25	15010.68
749.589	15009.77
749.928	14988.76
750.267	15000.51
750.605	15061.3
750.944	14898.82
751.283	14956.22
751.621	14905.82
751.96	14901.3
752.298	14866.05
752.636	14814.07
752.975	14772.94
753.313	14715.77
753.651	14751.48
753.989	14632.84
754.327	14619.28
754.666	14593.51
755.004	14576.34
755.342	14579.73
755.679	14536.57
756.017	14401.66
756.355	14405.5
756.693	14388.77
757.031	14358.72
757.368	14325.95
757.706	14248.89
758.044	14220.64
758.381	14204.82
758.719	14156.92
759.056	14143.81
759.394	14030.59
759.731	13991.72
760.068	13926.87
760.405	14027.65
760.743	13936.13
761.08	13880.99
761.417	13893.87
761.754	13854.32
762.091	13782.01
762.428	13817.94
762.765	13683.93
763.102	13709.47
763.438	13601.22
763.775	13505.41
764.112	13449.14
764.449	13486.2
764.785	13400.33
765.122	13341.8
765.458	13248.24
765.795	13225.87
766.131	13178.64
766.467	13167.56
766.804	13142.93
767.14	13076.04
767.476	13141.8
767.812	12985.65
768.148	13041.01
768.485	12888.02
768.821	12890.96
769.157	12798.76
769.492	12853.9
769.828	12818.65
770.164	12647.8
770.5	12649.84
770.836	12669.27
771.171	12510.41
771.507	12554.7
771.842	12481.71
772.178	12487.13
772.513	12390.41
772.849	12348.38
773.184	12228.38
773.519	12292.11
773.855	12172.56
774.19	12146.35
774.525	12067.93
774.86	12123.98
775.195	12052.56
775.53	12091.66
775.865	11982.74
776.2	11900.03
776.535	11732.12
776.87	11819.12
777.205	11815.73
777.539	11747.94
777.874	11741.39
778.209	11587.72
778.543	11679.24
778.878	11467.95
779.212	11487.16
779.547	11446.25
779.881	11458
780.215	11382.75
780.55	11440.38
780.884	11319.7
781.218	11233.6
781.552	11312.47
781.886	11244
782.22	11170.55
782.554	11030.9
782.888	10981.63
783.222	10986.15
783.556	10950.9
783.889	10902.99
784.223	10854.86
784.557	10724.92
784.89	10776.67
785.224	10710.68
785.557	10670.68
785.891	10624.81
786.224	10673.17
786.558	10627.74
786.891	10526.5
787.224	10523.11
787.557	10448.54
787.891	10389.78
788.224	10412.83
788.557	10410.57
788.89	10444.47
789.223	10373.74
789.556	10259.84
789.888	10256.45
790.221	10202.9
790.554	10114.08
790.887	10156.12
791.219	10109.56
791.552	10029.34
791.884	9997.03
792.217	9924.03
792.549	9948.66
792.882	9911.15
793.214	9889.91
793.546	9853.3
793.879	9770.14
794.211	9787.99
794.543	9743.02
794.875	9732.4
795.207	9740.08
795.539	9639.07
795.871	9700.54
796.203	9597.94
796.535	9482.91
796.867	9457.15
797.198	9446.98
797.53	9471.39
797.862	9463.48
798.193	9403.14
798.525	9354.56
798.856	9411.96
799.188	9250.83
799.519	9248.34
799.85	9186.88
800.182	9290.15
800.513	9278.17
800.844	9090.83
801.175	9194.33
801.506	9204.96
801.837	9083.6
802.168	9019.2
802.499	9035.69
802.83	8984.62
803.161	9012.42
803.491	8921.12
803.822	8948.24
804.153	8950.95
804.483	8816.94
804.814	8794.12
805.145	8819.66
805.475	8851.29
805.805	8757.06
806.136	8671.41
806.466	8770.84
806.796	8691.75
807.126	8658.76
807.457	8608.59
807.787	8642.48
808.117	8612.88
808.447	8604.97
808.777	8606.33
809.107	8581.92
809.436	8533.79
809.766	8461.47
810.096	8393.45
810.426	8425.54
810.755	8402.72
811.085	8394.58
811.414	8353.23
811.744	8343.06
812.073	8291.76
812.403	8256.28
812.732	8266
813.061	8267.81
813.39	8239.33
813.719	8184.64
814.049	8220.57
814.378	8199.11
814.707	8149.39
815.036	8171.54
815.365	8077.3
815.693	8020.13
816.022	8068.04
816.351	8053.35
816.68	8010.86
817.008	7981.03
817.337	7914.37
817.665	7954.37
817.994	8007.93
818.322	7959.79
818.651	7852
818.979	7853.8
819.307	7846.35
819.636	7800.25
819.964	7868.04
820.292	7855.61
820.62	7812
820.948	7763.86
821.276	7772.23
821.604	7797.31
821.932	7802.28
822.259	7797.08
822.587	7836.4
822.915	7837.08
823.243	7878.21
823.57	7763.41
823.898	7738.33
824.225	7782.62
824.553	7717.99
824.88	7754.37
825.207	7748.72
825.535	7701.27
825.862	7755.95
826.189	7732.23
826.516	7754.37
826.843	7779
827.17	7747.37
827.497	7757.31
827.824	7829.85
828.151	7786.69
828.478	7755.5
828.805	7823.75
829.131	7721.38
829.458	7764.32
829.785	7744.2
830.111	7766.58
830.438	7797.99
830.764	7758.67
831.09	7744.2
831.417	7721.15
831.743	7813.35
832.069	7740.14
832.395	7723.64
832.722	7740.81
833.048	7703.53
833.374	7728.38
833.7	7637.99
834.026	7702.85
834.351	7682.28
834.677	7656.97
835.003	7670.98
835.329	7639.57
835.654	7683.87
835.98	7672.34
836.306	7675.96
836.631	7537.65
836.956	7663.08
837.282	7644.54
837.607	7565.22
837.932	7597.99
838.258	7558.45
838.583	7619.23
838.908	7461.5
839.233	7480.93
839.558	7512.8
839.883	7508.73
840.208	7435.28
840.533	7434.15
840.858	7453.59
841.182	7457.21
841.507	7397.32
841.832	7371.56
842.156	7385.79
842.481	7374.95
842.805	7308.51
843.13	7317.32
843.454	7319.36
843.778	7267.83
844.103	7275.97
844.427	7271.9
844.751	7273.93
845.075	7265.8
845.399	7242.97
845.723	7174.73
846.047	7215.18
846.371	7148.96
846.695	7181.51
847.019	7071.68
847.343	7043.43
847.666	7038.01
847.99	7096.31
848.313	6970.44
848.637	6931.57
848.96	6966.37
849.284	6927.28
849.607	6849.76
849.931	6901.74
850.254	6839.82
850.577	6807.96
850.9	6713.95
851.223	6773.38
851.546	6700.39
851.869	6644.12
852.192	6715.98
852.515	6596.44
852.838	6636.44
853.161	6574.29
853.483	6540.39
853.806	6561.64
854.129	6492.26
854.451	6479.15
854.774	6505.37
855.096	6504.91
855.419	6460.17
855.741	6421.3
856.063	6423.11
856.385	6409.1
856.708	6379.49
857.03	6363.22
857.352	6409.55
857.674	6367.52
857.996	6319.16
858.318	6244.36
858.64	6285.48
858.961	6237.8
859.283	6262.43
859.605	6210.01
859.926	6202.77
860.248	6158.26
860.57	6159.39
860.891	6132.95
861.212	6139.27
861.534	6160.97
861.855	6063.34
862.176	6075.32
862.498	6106.96
862.819	6050.01
863.14	6091.59
863.461	6106.96
863.782	6033.97
864.103	6022.67
864.424	6045.04
864.745	6053.4
865.065	6031.71
865.386	5973.85
865.707	6031.25
866.027	5977.7
866.348	5984.93
866.668	6020.63
866.989	5922.78
867.309	5926.85
867.63	5947.87
867.95	5913.74
868.27	5944.25
868.59	5943.57
868.91	5970.46
869.23	5931.82
869.55	5870.35
869.87	5878.94
870.19	5841.2
870.51	5844.82
870.83	5843.24
871.15	5816.12
871.469	5843.91
871.789	5810.92
872.109	5815.89
872.428	5730.24
872.748	5796.46
873.067	5781.32
873.386	5837.36
873.706	5765.5
874.025	5780.41
874.344	5758.72
874.663	5786.97
874.982	5786.51
875.301	5760.07
875.62	5736.12
875.939	5757.81
876.258	5758.72
876.577	5679.4
876.896	5671.04
877.214	5641.66
877.533	5695.9
877.852	5668.55
878.17	5704.03
878.489	5659.96
878.807	5633.98
879.125	5621.77
879.444	5595.56
879.762	5580.87
880.08	5587.88
880.398	5574.09
880.716	5590.59
881.034	5552.4
881.352	5559.18
881.67	5525.05
881.988	5553.98
882.306	5531.61
882.624	5497.93
882.941	5484.38
883.259	5480.53
883.577	5487.09
883.894	5430.82
884.212	5480.08
884.529	5442.79
884.846	5429.69
885.164	5391.04
885.481	5405.73
885.798	5428.33
886.115	5353.98
886.432	5387.65
886.75	5323.93
887.067	5344.04
887.383	5306.3
887.7	5310.82
888.017	5306.3
888.334	5312.85
888.651	5283.02
888.967	5282.8
889.284	5235.12
889.6	5262.23
889.917	5164.16
890.233	5184.5
890.55	5200.77
890.866	5198.73
891.182	5189.47
891.498	5136.14
891.815	5121.9
892.131	5114.44
892.447	5132.97
892.763	5103.59
893.079	5019.98
893.395	5039.42
893.71	5047.1
894.026	5059.75
894.342	5014.11
894.657	4982.47
894.973	4987.67
895.289	4989.02
895.604	4952.86
895.92	4932.3
896.235	4964.84
896.55	4916.03
896.865	4896.82
897.181	4888.91
897.496	4910.61
897.811	4881.45
898.126	4847.33
898.441	4860.44
898.756	4826.54
899.071	4802.59
899.386	4785.41
899.7	4775.69
900.015	4759.65
900.33	4734.34
900.644	4686.88
900.959	4723.49
901.273	4700.89
901.588	4621.35
901.902	4668.13
902.216	4623.83
902.531	4645.98
902.845	4597.62
903.159	4585.87
903.473	4617.05
903.787	4521.69
904.101	4519.66
904.415	4542.25
904.729	4521.01
905.042	4457.28
905.356	4483.95
905.67	4468.81
905.984	4457.28
906.297	4434.23
906.611	4457.06
906.924	4402.6
907.237	4403.05
907.551	4388.81
907.864	4391.3
908.177	4381.81
908.491	4350.62
908.804	4323.28
909.117	4319.66
909.43	4279.44
909.743	4292.32
910.056	4235.37
910.368	4179.78
910.681	4192.43
910.994	4202.6
911.307	4150.17
911.619	4108.59
911.932	4187.91
912.244	4121.47
912.557	4132.55
912.869	4072.21
913.181	4090.74
913.494	4110.17
913.806	4050.97
914.118	4050.06
914.43	4004.87
914.742	3998.09
915.054	3972.32
915.366	3959.44
915.678	3975.26
915.99	3948.14
916.302	3915.6
916.613	3921.93
916.925	3862.72
917.236	3918.32
917.548	3879.67
917.859	3876.73
918.171	3806.68
918.482	3820.24
918.794	3805.78
919.105	3807.13
919.416	3721.03
919.727	3787.92
920.038	3757.19
920.349	3755.61
920.66	3713.35
920.971	3723.29
921.282	3709.28
921.593	3717.42
921.903	3683.52
922.214	3680.13
922.525	3651.66
922.835	3623.18
923.146	3582.73
923.456	3560.13
923.767	3571.43
924.077	3536.18
924.387	3532.34
924.697	3542.51
925.008	3556.06
925.318	3516.07
925.628	3489.17
925.938	3483.75
926.248	3436.52
926.558	3420.25
926.867	3432.45
927.177	3435.62
927.487	3399.23
927.796	3347.71
928.106	3375.05
928.416	3385.22
928.725	3348.16
929.034	3329.4
929.344	3323.08
929.653	3319.01
929.962	3325.79
930.271	3336.18
930.581	3253.93
930.89	3283.53
931.199	3262.51
931.508	3219.8
931.817	3216.19
932.125	3217.54
932.434	3205.79
932.743	3187.71
933.051	3171.44
933.36	3163.53
933.669	3145
933.977	3087.83
934.286	3093.48
934.594	3132.8
934.902	3091.9
935.21	3059.81
935.519	3062.97
935.827	3085.57
936.135	3003.08
936.443	3038.34
936.751	2973.48
937.059	3015.51
937.367	3005.12
937.674	2947.95
937.982	2983.42
938.29	2971.9
938.597	2950.88
938.905	2911.79
939.213	2903.43
939.52	2883.54
939.827	2895.74
940.135	2894.61
940.442	2863.43
940.749	2878.57
941.056	2844.67
941.363	2859.13
941.67	2820.26
941.977	2803.77
942.284	2796.08
942.591	2760.15
942.898	2730.55
943.205	2790.66
943.511	2754.28
943.818	2720.61
944.125	2748.63
944.431	2719.7
944.738	2694.17
945.044	2689.87
945.35	2683.55
945.657	2631.57
945.963	2689.42
946.269	2671.12
946.575	2620.27
946.881	2631.12
947.187	2626.15
947.493	2617.78
947.799	2585.47
948.105	2588.63
948.41	2547.73
948.716	2542.08
949.022	2544.34
949.327	2587.95
949.633	2513.38
949.938	2539.14
950.244	2494.85
950.549	2482.19
950.854	2486.26
951.16	2494.17
951.465	2498.24
951.77	2428.41
952.075	2459.6
952.38	2430.9
952.685	2444.68
952.99	2433.16
953.294	2387.28
953.599	2379.15
953.904	2442.2
954.209	2396.1
954.513	2374.17
954.818	2368.75
955.122	2354.29
955.426	2336.66
955.731	2327.62
956.035	2310.9
956.339	2329.2
956.643	2323.33
956.948	2283.33
957.252	2252.14
957.556	2268.87
957.86	2260.51
958.163	2279.49
958.467	2266.61
958.771	2273.16
959.075	2240.85
959.378	2233.16
959.682	2233.39
959.985	2229.77
960.289	2202.43
960.592	2190.22
960.896	2184.12
961.199	2158.59
961.502	2126.27
961.805	2136.22
962.108	2116.1
962.411	2145.48
962.714	2121.98
963.017	2096.89
963.32	2110.9
963.623	2101.64
963.926	2093.73
964.228	2058.48
964.531	2063.9
964.833	2050.34
965.136	2031.13
965.438	2064.58
965.741	2039.49
966.043	2047.86
966.345	1990.91
966.648	2033.17
966.95	1999.95
967.252	1998.37
967.554	1974.64
967.856	1972.83
968.158	1952.72
968.46	1942.1
968.761	1963.79
969.063	1945.49
969.365	1909.78
969.666	1942.77
969.968	1920.63
970.269	1955.2
970.571	1918.14
970.872	1927.63
971.174	1910.68
971.475	1894.64
971.776	1874.53
972.077	1856
972.378	1859.39
972.679	1867.52
972.98	1843.12
973.281	1839.95
973.582	1860.74
973.883	1841.08
974.183	1810.8
974.484	1850.35
974.785	1820.07
975.085	1798.82
975.386	1794.76
975.686	1796.56
975.986	1782.33
976.287	1766.51
976.587	1762.21
976.887	1752.95
977.187	1743.01
977.487	1763.34
977.787	1708.66
978.087	1713.85
978.387	1718.6
978.687	1713.4
978.987	1736
979.286	1684.7
979.586	1680.63
979.885	1692.61
980.185	1664.14
980.484	1656.68
980.784	1671.59
981.083	1645.15
981.382	1640.86
981.682	1625.49
981.981	1634.76
982.28	1633.86
982.579	1616.91
982.878	1607.42
983.177	1602.67
983.475	1612.16
983.774	1580.98
984.073	1586.62
984.372	1592.73
984.67	1618.71
984.969	1599.51
985.267	1570.35
985.566	1557.02
985.864	1566.96
986.162	1543.24
986.461	1522.67
986.759	1533.74
987.057	1505.5
987.355	1499.4
987.653	1505.5
987.951	1508.21
988.249	1524.93
988.547	1525.38
988.844	1479.06
989.142	1471.15
989.44	1475.89
989.737	1467.08
990.035	1441.09
990.332	1462.79
990.63	1474.54
990.927	1447.19
991.224	1441.54
991.521	1452.39
991.819	1436.57
992.116	1432.96
992.413	1407.87
992.71	1434.09
993.006	1381.66
993.303	1420.3
993.6	1394.54
993.897	1404.93
994.193	1385.95
994.49	1359.51
994.787	1379.17
995.083	1354.99
995.379	1359.74
995.676	1362.68
995.972	1355.67
996.268	1340.3
996.565	1362.45
996.861	1295.79
997.157	1307.76
997.453	1319.51
997.749	1307.99
998.044	1294.43
998.34	1314.09
998.636	1269.12
998.932	1289.68
999.227	1265.28
999.523	1296.01
999.818	1277.93
1000.114	1280.64
1000.409	1258.5
1000.704	1262.34
1001	1255.79
1001.295	1239.74
1001.59	1250.36
1001.885	1244.94
1002.18	1242.68
1002.475	1216.92
1002.77	1217.14
1003.065	1203.36
1003.359	1206.97
1003.654	1213.98
1003.949	1176.01
1004.243	1187.31
1004.538	1178.05
1004.832	1160.2
1005.127	1176.47
1005.421	1163.13
1005.715	1157.03
1006.009	1163.59
1006.304	1157.48
1006.598	1154.32
1006.892	1148.9
1007.186	1129.24
1007.48	1124.04
1007.773	1109.35
1008.067	1135.11
1008.361	1094.21
1008.655	1098.5
1008.948	1097.82
1009.242	1088.56
1009.535	1067.99
1009.829	1093.76
1010.122	1077.94
1010.415	1096.24
1010.708	1048.33
1011.001	1053.76
1011.295	1043.59
1011.588	1064.38
1011.881	1035.45
1012.173	1045.85
1012.466	1040.65
1012.759	1032.97
1013.052	1038.62
1013.344	1024.38
1013.637	1028.9
1013.93	1025.51
1014.222	985.51
1014.514	984.83
1014.807	1015.57
1015.099	1008.34
1015.391	989.58
1015.683	976.02
1015.976	959.75
1016.268	977.6
1016.56	960.65
1016.851	942.12
1017.143	956.59
1017.435	962.91
1017.727	942.57
1018.018	928.56
1018.31	929.02
1018.602	922.46
1018.893	932.63
1019.185	923.14
1019.476	895.8
1019.767	891.28
1020.058	895.34
1020.35	891.28
1020.641	872.29
1020.932	893.31
1021.223	891.73
1021.514	849.92
1021.804	863.93
1022.095	881.56
1022.386	861.22
1022.677	850.37
1022.967	846.53
1023.258	833.42
1023.548	844.95
1023.839	856.47
1024.129	817.61
1024.419	840.66
1024.709	805.4
1025	824.16
1025.29	820.77
1025.58	799.98
1025.87	821.67
1026.16	814.67
1026.449	792.52
1026.739	791.84
1027.029	790.49
1027.319	787.55
1027.608	782.8
1027.898	773.99
1028.187	766.99
1028.477	760.88
1028.766	788.68
1029.055	771.96
1029.344	791.62
1029.634	771.73
1029.923	763.37
1030.212	735.8
1030.501	750.71
1030.79	731.51
1031.078	738.96
1031.367	748.68
1031.656	716.82
1031.945	739.87
1032.233	728.34
1032.522	712.52
1032.81	720.21
1033.099	700.09
1033.387	709.81
1033.675	699.19
1033.963	676.59
1034.251	689.47
1034.54	705.29
1034.828	666.42
1035.116	682.24
1035.403	685.18
1035.691	665.29
1035.979	673.2
1036.267	688.8
1036.554	645.63
1036.842	645.18
1037.129	661.9
1037.417	655.8
1037.704	674.11
1037.992	652.86
1038.279	649.93
1038.566	626.42
1038.853	626.42
1039.14	626.42
