Data from foam_black_FLMS001491_00077.txt Node
Date: Wed Feb 08 10:44:37 GMT 2017
User: dcchb
Spectrometer: FLMS00149
Trigger mode: 0
Integration Time (sec): 2.000000E-2
Scans to average: 10
Electric dark correction enabled: true
Nonlinearity correction enabled: false
Boxcar width: 0
XAxis mode: Wavelengths
Number of Pixels in Spectrum: 2048
>>>>>Begin Spectral Data<<<<<
341.393	-26.65
341.776	-26.65
342.16	-26.65
342.543	-21.23
342.927	-60.78
343.31	-68.91
343.693	-65.07
344.077	-59.65
344.46	-70.94
344.843	-58.29
345.226	-44.96
345.61	-24.84
345.993	-6.31
346.376	-5.41
346.759	-7.44
347.142	34.59
347.525	48.6
347.908	61.26
348.291	74.59
348.674	98.54
349.057	94.25
349.44	146.68
349.823	138.99
350.206	160.01
350.588	177.41
350.971	222.38
351.354	193.68
351.737	206.11
352.119	209.73
352.502	245.66
352.884	230.74
353.267	243.62
353.65	263.28
354.032	266.67
354.414	282.04
354.797	294.02
355.179	284.98
355.562	293.11
355.944	314.36
356.326	308.71
356.709	305.32
357.091	300.8
357.473	316.84
357.855	329.27
358.238	316.16
358.62	339.67
359.002	320.91
359.384	327.01
359.766	322.04
360.148	319.33
360.53	323.62
360.912	318.2
361.294	319.33
361.676	302.83
362.057	329.5
362.439	320.68
362.821	307.8
363.203	328.14
363.584	292.66
363.966	303.96
364.348	302.83
364.729	315.26
365.111	289.72
365.493	288.82
365.874	293.79
366.256	304.19
366.637	295.15
367.019	300.35
367.4	295.37
367.781	309.16
368.163	287.92
368.544	293.57
368.925	289.5
369.306	302.15
369.688	296.5
370.069	293.79
370.45	288.82
370.831	289.72
371.212	312.32
371.593	288.37
371.974	274.36
372.355	305.32
372.736	284.3
373.117	298.76
373.498	279.55
373.879	288.37
374.26	291.31
374.641	307.8
375.021	308.71
375.402	294.92
375.783	301.7
376.163	309.61
376.544	321.59
376.925	340.34
377.305	300.35
377.686	301.25
378.066	313.9
378.447	308.93
378.827	325.66
379.208	328.14
379.588	307.35
379.968	318.65
380.349	329.5
380.729	294.47
381.109	312.32
381.489	310.97
381.87	326.33
382.25	336.28
382.63	319.78
383.01	310.74
383.39	304.19
383.77	318.2
384.15	349.16
384.53	326.33
384.91	344.41
385.29	333.34
385.67	303.96
386.049	331.76
386.429	344.64
386.809	324.53
387.189	328.59
387.568	337.41
387.948	321.14
388.328	346.9
388.707	338.99
389.087	354.13
389.466	348.48
389.846	336.28
390.225	344.64
390.605	337.63
390.984	351.87
391.363	355.49
391.743	373.34
392.122	370.4
392.501	354.81
392.881	360.68
393.26	360.23
393.639	340.8
394.018	352.77
394.397	372.43
394.776	340.34
395.155	360
395.534	365.65
395.913	371.08
396.292	374.47
396.671	360.46
397.05	350.51
397.429	376.05
397.808	375.82
398.186	369.27
398.565	374.24
398.944	384.64
399.323	366.33
399.701	376.5
400.08	376.95
400.458	363.39
400.837	388.48
401.215	395.94
401.594	399.78
401.972	409.95
402.351	398.87
402.729	382.38
403.107	392.77
403.486	377.86
403.864	374.69
404.242	385.09
404.62	394.58
404.999	392.09
405.377	400.68
405.755	388.48
406.133	425.31
406.511	430.96
406.889	416.27
407.267	409.72
407.645	427.8
408.023	438.42
408.401	433.45
408.779	416.95
409.156	427.35
409.534	426.67
409.912	433.68
410.29	415.14
410.667	444.52
411.045	417.86
411.422	450.62
411.8	420.12
412.178	431.19
412.555	451.98
412.933	430.74
413.31	466.67
413.687	468.48
414.065	445.43
414.442	461.7
414.819	449.27
415.197	450.85
415.574	478.42
415.951	489.04
416.328	467.8
416.705	469.38
417.082	457.86
417.46	491.53
417.837	491.75
418.214	488.59
418.591	498.98
418.967	493.79
419.344	473.67
419.721	485.65
420.098	503.96
420.475	498.76
420.852	496.72
421.228	510.96
421.605	506.89
421.982	501.02
422.358	505.09
422.735	527.91
423.111	524.07
423.488	527.91
423.864	551.41
424.241	546.44
424.617	524.07
424.994	541.47
425.37	542.82
425.746	538.08
426.123	544.41
426.499	550.06
426.875	558.42
427.251	553.45
427.627	570.39
428.003	570.62
428.379	587.34
428.756	574.69
429.132	596.38
429.507	587.34
429.883	578.98
430.259	599.09
430.635	593.44
431.011	591.86
431.387	641.35
431.763	613.56
432.138	617.4
432.514	610.39
432.89	609.04
433.265	635.48
433.641	621.47
434.016	643.16
434.392	647
434.767	668.47
435.143	658.53
435.518	677.06
435.894	664.4
436.269	649.49
436.644	683.84
437.02	682.26
437.395	692.88
437.77	698.3
438.145	678.19
438.52	684.29
438.895	717.51
439.271	696.27
439.646	705.76
440.021	733.33
440.395	715.25
440.77	699.43
441.145	718.19
441.52	733.55
441.895	721.13
442.27	728.36
442.645	743.27
443.019	736.72
443.394	734.91
443.769	741.92
444.143	742.14
444.518	766.1
444.892	765.19
445.267	767.68
445.641	750.73
446.016	791.41
446.39	798.64
446.764	770.16
447.139	780.78
447.513	801.8
447.887	774.46
448.262	784.63
448.636	807.22
449.01	808.13
449.384	813.78
449.758	813.78
450.132	844.29
450.506	832.76
450.88	811.97
451.254	844.06
451.628	851.74
452.002	852.87
452.376	875.92
452.75	868.24
453.123	860.33
453.497	890.61
453.871	872.76
454.244	875.47
454.618	892.87
454.992	886.77
455.365	893.78
455.739	925.19
456.112	889.26
456.486	942.59
456.859	954.11
457.232	961.57
457.606	970.61
457.979	958.86
458.352	983.49
458.725	976.26
459.099	979.88
459.472	1013.55
459.845	1025.07
460.218	1032.53
460.591	1025.3
460.964	1042.92
461.337	1030.27
461.71	1075.01
462.083	1068.91
462.456	1086.77
462.829	1065.75
463.201	1071.17
463.574	1094.45
463.947	1126.09
464.32	1123.83
464.692	1159.31
465.065	1121.34
465.438	1155.24
465.81	1156.59
466.183	1207.89
466.555	1202.92
466.928	1163.15
467.3	1230.94
467.672	1209.7
468.045	1224.84
468.417	1253.54
468.789	1276.36
469.161	1266.65
469.534	1291.73
469.906	1312.07
470.278	1306.42
470.65	1333.31
471.022	1358.85
471.394	1385.74
471.766	1382.58
472.138	1407.21
472.51	1405.4
472.882	1456.02
473.253	1458.73
473.625	1455.57
473.997	1464.38
474.369	1478.62
474.74	1514.32
475.112	1555.91
475.484	1536.24
475.855	1547.09
476.227	1602.46
476.598	1637.49
476.97	1647.2
477.341	1661.67
477.713	1662.12
478.084	1690.37
478.455	1718.84
478.827	1737.82
479.198	1785.5
479.569	1771.49
479.94	1835.45
480.311	1847.2
480.682	1893.98
481.053	1902.11
481.424	1940.75
481.795	1981.43
482.166	1966.29
482.537	2033.41
482.908	2046.51
483.279	2051.71
483.65	2097.81
484.021	2117.7
484.391	2152.73
484.762	2141.88
485.133	2161.99
485.503	2221.88
485.874	2243.34
486.244	2260.52
486.615	2323.79
486.985	2311.14
487.356	2378.03
487.726	2374.41
488.097	2430.23
488.467	2436.79
488.837	2491.25
489.207	2518.14
489.578	2532.83
489.948	2573.28
490.318	2550.91
490.688	2617.8
491.058	2615.54
491.428	2691.02
491.798	2670
492.168	2707.97
492.538	2697.57
492.908	2769.88
493.278	2821.63
493.648	2760.17
494.017	2843.1
494.387	2839.71
494.757	2881.97
495.126	2882.2
495.496	2898.92
495.866	2895.31
496.235	2961.52
496.605	2978.92
496.974	3021.63
497.344	2994.51
497.713	3068.18
498.082	3031.12
498.452	3087.62
498.821	3126.71
499.19	3137.33
499.559	3150.67
499.928	3172.13
500.298	3221.85
500.667	3246.71
501.036	3239.25
501.405	3295.07
501.774	3260.72
502.143	3300.72
502.512	3340.94
502.88	3392.69
503.249	3408.06
503.618	3393.82
503.987	3417.55
504.356	3445.57
504.724	3477.89
505.093	3498.45
505.462	3488.74
505.83	3517.89
506.199	3571.9
506.567	3549.75
506.936	3599.24
507.304	3622.97
507.672	3650.77
508.041	3667.94
508.409	3687.6
508.777	3746.13
509.145	3719.92
509.514	3705.23
509.882	3755.4
510.25	3807.82
510.618	3796.75
510.986	3792
511.354	3856.41
511.722	3887.37
512.09	3900.48
512.458	3888.27
512.826	3962.85
513.193	3969.18
513.561	4003.75
513.929	3996.07
514.297	3993.36
514.664	4064.09
515.032	4106.57
515.4	4164.42
515.767	4107.25
516.135	4158.55
516.502	4170.3
516.869	4239.45
517.237	4281.48
517.604	4267.02
517.972	4274.93
518.339	4334.59
518.706	4331.43
519.073	4352.89
519.44	4375.27
519.808	4466.11
520.175	4477.18
520.542	4530.29
520.909	4488.48
521.276	4583.85
521.643	4619.33
522.009	4605.32
522.376	4711.08
522.743	4665.43
523.11	4765.31
523.477	4744.07
523.843	4751.75
524.21	4812.99
524.577	4887.12
524.943	4901.35
525.31	4916.95
525.676	4944.97
526.043	4961.92
526.409	5009.37
526.776	5090.73
527.142	5059.09
527.508	5099.09
527.874	5161.91
528.241	5186.32
528.607	5208.92
528.973	5264.73
529.339	5255.92
529.705	5296.15
530.071	5366.88
530.437	5385.41
530.803	5398.74
531.169	5487.78
531.535	5516.25
531.901	5528.46
532.267	5540.43
532.632	5581.11
532.998	5565.52
533.364	5599.41
533.73	5600.77
534.095	5657.27
534.461	5708.56
534.826	5711.28
535.192	5762.12
535.557	5779.52
535.923	5772.74
536.288	5773.65
536.653	5850.71
537.019	5823.36
537.384	5866.53
537.749	5939.74
538.114	5880.99
538.479	5982.91
538.845	5924.83
539.21	5953.98
539.575	5987.88
539.94	6020.19
540.305	6057.48
540.67	6048.89
541.034	6090.25
541.399	6079.63
541.764	6136.12
542.129	6120.08
542.494	6131.6
542.858	6132.96
543.223	6132.73
543.587	6213.18
543.952	6192.39
544.316	6214.31
544.681	6227.42
545.045	6265.61
545.41	6298.83
545.774	6316.23
546.138	6286.18
546.503	6332.28
546.867	6357.81
547.231	6377.47
547.595	6359.17
547.959	6383.58
548.324	6469.45
548.688	6458.15
549.052	6452.27
549.416	6492.5
549.779	6501.09
550.143	6476.68
550.507	6578.37
550.871	6614.08
551.235	6606.85
551.599	6637.35
551.962	6676.67
552.326	6727.29
552.689	6675.77
553.053	6738.37
553.417	6682.32
553.78	6844.35
554.143	6902.21
554.507	6843.68
554.87	6872.15
555.234	6950.79
555.597	6978.59
555.96	6948.08
556.323	6994.86
556.686	7073.73
557.05	7078.7
557.413	7083.67
557.776	7113.5
558.139	7135.65
558.502	7169.54
558.865	7209.32
559.228	7294.74
559.59	7272.82
559.953	7355.98
560.316	7388.07
560.679	7367.5
561.041	7473.49
561.404	7503.32
561.767	7527.5
562.129	7500.61
562.492	7626.93
562.854	7607.27
563.217	7600.04
563.579	7638.01
563.941	7676.65
564.304	7707.61
564.666	7807.04
565.028	7805.46
565.39	7830.54
565.753	7862.41
566.115	7892.69
566.477	7925.23
566.839	7962.29
567.201	7954.61
567.563	7984.66
567.925	8035.74
568.287	8011.33
568.648	8088.62
569.01	8167.93
569.372	8175.17
569.734	8160.7
570.095	8205.45
570.457	8282.51
570.819	8291.1
571.18	8299.46
571.542	8311.89
571.903	8388.72
572.265	8416.06
572.626	8403.86
572.987	8448.61
573.349	8403.86
573.71	8501.71
574.071	8512.33
574.432	8588.94
574.794	8626.68
575.155	8683.18
575.516	8630.07
575.877	8692.44
576.238	8713.68
576.599	8681.82
576.96	8762.5
577.32	8764.76
577.681	8776.96
578.042	8779.44
578.403	8792.78
578.763	8788.26
579.124	8872.1
579.485	8827.8
579.845	8883.85
580.206	8881.59
580.566	8930.63
580.927	8922.49
581.287	8935.82
581.648	8950.97
582.008	8948.48
582.368	9004.3
582.728	9045.43
583.089	8929.95
583.449	8954.35
583.809	9049.49
584.169	8994.35
584.529	9028.25
584.889	9078.19
585.249	8931.3
585.609	8968.14
585.969	9058.53
586.329	9004.52
586.688	9039.32
587.048	9028.93
587.408	9033.67
587.768	9029.61
588.127	8959.78
588.487	9000.68
588.846	9089.27
589.206	9012.66
589.565	9038.87
589.925	9059.44
590.284	9054.47
590.643	9007.23
591.003	9018.08
591.362	9082.04
591.721	9038.42
592.08	9078.42
592.44	9047.23
592.799	9113.67
593.158	9037.74
593.517	9017.18
593.876	9047.23
594.235	8979.21
594.593	9049.04
594.952	9094.69
595.311	9014.24
595.67	9048.14
596.029	9060.57
596.387	9095.82
596.746	9089.49
597.104	9022.6
597.463	9005.65
597.822	9108.02
598.18	8983.05
598.538	9017.18
598.897	9167.91
599.255	9014.92
599.613	9126.1
599.972	9121.36
600.33	9130.62
600.688	9096.05
601.046	9121.13
601.404	9138.08
601.762	9141.92
602.12	9134.46
602.478	9223.95
602.836	9160.9
603.194	9143.95
603.552	9131.98
603.91	9161.13
604.268	9188.7
604.625	9201.35
604.983	9221.47
605.341	9196.38
605.698	9264.4
606.056	9280.45
606.413	9231.64
606.771	9333.78
607.128	9251.07
607.485	9242.26
607.843	9266.21
608.2	9357.06
608.557	9330.62
608.914	9292.2
609.272	9393.44
609.629	9356.38
609.986	9320.67
610.343	9381.46
610.7	9324.97
611.057	9366.1
611.414	9347.79
611.771	9363.16
612.127	9389.15
612.484	9420.11
612.841	9452.19
613.198	9343.5
613.554	9375.81
613.911	9475.25
614.267	9496.71
614.624	9458.07
614.98	9500.33
615.337	9555.7
615.693	9443.16
616.05	9452.19
616.406	9559.76
616.762	9501.46
617.118	9425.98
617.475	9461.01
617.831	9479.99
618.187	9460.33
618.543	9512.76
618.899	9553.44
619.255	9511.4
619.611	9523.61
619.967	9583.94
620.323	9566.77
620.678	9531.51
621.034	9520.67
621.39	9489.48
621.746	9475.92
622.101	9626.43
622.457	9546.88
622.812	9613.09
623.168	9555.24
623.523	9621
623.879	9655.58
624.234	9551.4
624.589	9559.54
624.945	9534.68
625.3	9634.34
625.655	9562.02
626.01	9595.69
626.365	9560.67
626.72	9633.89
627.075	9559.08
627.43	9661.68
627.785	9593.66
628.14	9687.67
628.495	9695.8
628.85	9633.21
629.205	9606.09
629.559	9719.08
629.914	9610.61
630.269	9605.19
630.623	9636.6
630.978	9591.85
631.332	9729.48
631.687	9733.09
632.041	9690.38
632.396	9752.53
632.75	9669.14
633.104	9561.57
633.459	9601.34
633.813	9555.92
634.167	9581.23
634.521	9588.46
634.875	9625.52
635.229	9653.32
635.583	9607.9
635.937	9706.2
636.291	9556.6
636.645	9590.5
636.999	9590.95
637.352	9624.85
637.706	9461.46
638.06	9540.1
638.413	9529.48
638.767	9526.77
639.121	9447.9
639.474	9439.54
639.828	9557.73
640.181	9531.06
640.534	9479.76
640.888	9470.05
641.241	9410.61
641.594	9443.16
641.947	9414.68
642.301	9421.01
642.654	9363.84
643.007	9327.45
643.36	9348.47
643.713	9344.63
644.066	9435.7
644.419	9314.35
644.771	9357.96
645.124	9080.45
645.477	9132.2
645.83	9068.48
646.182	9033.9
646.535	9025.99
646.888	9072.32
647.24	8963.85
647.593	8997.07
647.945	9013.56
648.298	9009.49
648.65	8963.85
649.002	8847.92
649.355	8896.96
649.707	8906.67
650.059	8937.18
650.411	9025.09
650.763	8968.82
651.115	9131.3
651.467	9043.62
651.819	9077.52
652.171	9025.99
652.523	8966.78
652.875	9037.06
653.227	9000.91
653.578	8988.03
653.93	9020.79
654.282	8949.84
654.633	8939.67
654.985	9022.6
655.337	8972.89
655.688	8967.01
656.039	8977.86
656.391	8983.05
656.742	8982.15
657.094	8980.57
657.445	9025.99
657.796	9020.57
658.147	8941.02
658.498	8979.89
658.849	8991.64
659.2	8994.58
659.551	8856.05
659.902	8914.58
660.253	8875.26
660.604	8994.35
660.955	8938.76
661.306	8991.87
661.656	9013.56
662.007	8921.36
662.358	8899.67
662.708	8950.74
663.059	8905.54
663.409	8903.06
663.76	8976.95
664.11	8916.16
664.461	8942.83
664.811	8947.12
665.161	8854.02
665.511	8893.34
665.862	8923.85
666.212	8866.67
666.562	8956.61
666.912	8965.43
667.262	8831.42
667.612	8863.28
667.962	8870.74
668.312	8868.93
668.662	8855.6
669.011	8884.75
669.361	8812.66
669.711	8809.95
670.06	8825.54
670.41	8832.32
670.76	8754.59
671.109	8810.4
671.459	8810.18
671.808	8796.84
672.157	8848.14
672.507	8835.49
672.856	8736.73
673.205	8725.43
673.554	8761.14
673.904	8732.44
674.253	8753.68
674.602	8679.11
674.951	8499.23
675.3	8555.5
675.649	8600.69
675.998	8650.63
676.346	8631.2
676.695	8627.58
677.044	8643.63
677.393	8614.48
677.741	8582.39
678.09	8560.92
678.438	8558.66
678.787	8590.75
679.135	8555.72
679.484	8556.4
679.832	8525.21
680.181	8499.23
680.529	8531.32
680.877	8452
681.225	8423.52
681.573	8481.37
681.922	8446.57
682.27	8359.79
682.618	8437.76
682.966	8487.7
683.314	8441.15
683.661	8392.56
684.009	8370.64
684.357	8359.34
684.705	8371.55
685.053	8330.64
685.4	8311.21
685.748	8331.55
686.095	8326.8
686.443	8253.13
686.79	8291.1
687.138	8246.58
687.485	8218.1
687.832	8259.68
688.18	8223.75
688.527	8212.23
688.874	8184.88
689.221	8186.69
689.568	8153.02
689.915	8137.65
690.262	8139.69
690.609	8108.28
690.956	8159.8
691.303	8133.13
691.65	8087.03
691.997	8174.71
692.344	8110.76
692.69	8030.31
693.037	8091.78
693.383	7984.21
693.73	8070.99
694.077	8074.15
694.423	7963.42
694.769	7953.03
695.116	7948.96
695.462	7905.57
695.808	7865.8
696.155	7926.13
696.501	7829.19
696.847	7852.46
697.193	7828.96
697.539	7832.35
697.885	7719.59
698.231	7782.41
698.577	7719.59
698.923	7723.43
699.269	7671.22
699.614	7610.66
699.96	7632.13
700.306	7736.99
700.651	7666.48
700.997	7669.42
701.342	7539.7
701.688	7603.43
702.033	7579.48
702.379	7588.52
702.724	7544.22
703.069	7533.83
703.415	7451.12
703.76	7474.85
704.105	7436.65
704.45	7413.38
704.795	7370.67
705.14	7398.24
705.485	7362.08
705.83	7320.05
706.175	7316.21
706.52	7275.98
706.865	7267.17
707.209	7240.95
707.554	7232.37
707.899	7203.21
708.243	7185.59
708.588	7144.91
708.932	7184.23
709.277	7094.29
709.621	7126.15
709.966	7009.55
710.31	7049.77
710.654	7012.71
710.998	7027.63
711.342	7040.51
711.687	6999.15
712.031	6996.21
712.375	6970
712.719	6941.75
713.063	6917.57
713.407	6958.02
713.75	6948.76
714.094	6841.64
714.438	6862.66
714.782	6890.91
715.125	6827.18
715.469	6810.46
715.812	6795.09
716.156	6761.19
716.499	6753.28
716.843	6829.21
717.186	6737.24
717.53	6723.23
717.873	6782.43
718.216	6756.45
718.559	6678.71
718.902	6604.36
719.246	6659.73
719.589	6674.41
719.932	6624.92
720.275	6633.51
720.617	6649.78
720.96	6615.66
721.303	6629.67
721.646	6575.21
721.989	6563.91
722.331	6556.68
722.674	6515.55
723.016	6609.33
723.359	6586.06
723.701	6523.23
724.044	6547.86
724.386	6466.06
724.729	6610.46
725.071	6494.98
725.413	6557.36
725.755	6554.64
726.097	6498.6
726.439	6505.61
726.782	6525.49
727.124	6458.83
727.465	6507.64
727.807	6480.75
728.149	6425.83
728.491	6490.92
728.833	6446.62
729.175	6483.01
729.516	6400.52
729.858	6408.66
730.199	6424.7
730.541	6436.68
730.882	6393.52
731.224	6472.61
731.565	6398.94
731.906	6407.3
732.248	6437.81
732.589	6433.29
732.93	6357.36
733.271	6434.87
733.612	6476.23
733.953	6420.86
734.294	6394.2
734.635	6406.63
734.976	6440.75
735.317	6319.85
735.658	6385.83
735.999	6382.22
736.339	6343.12
736.68	6363.46
737.021	6378.15
737.361	6359.17
737.702	6384.93
738.042	6316.68
738.383	6351.26
738.723	6332.95
739.063	6370.24
739.404	6353.97
739.744	6320.3
740.084	6268.78
740.424	6279.4
740.764	6259.51
741.104	6281.43
741.444	6219.29
741.784	6232.17
742.124	6234.88
742.464	6168.89
742.804	6184.03
743.143	6192.39
743.483	6157.37
743.823	6166.41
744.162	6176.35
744.502	6141.32
744.841	6104.94
745.181	6144.26
745.52	6082.11
745.86	6143.36
746.199	6096.58
746.538	6090.02
746.877	6110.14
747.216	6051.38
747.556	6039.4
747.895	6097.03
748.234	6043.92
748.573	6059.06
748.911	5997.6
749.25	5993.3
749.589	6000.31
749.928	5904.27
750.267	6008.67
750.605	5980.87
750.944	5953.98
751.283	5886.41
751.621	5925.51
751.96	5842.35
752.298	5868.79
752.636	5837.15
752.975	5864.72
753.313	5753.08
753.651	5863.14
753.989	5837.83
754.327	5693.2
754.666	5760.77
755.004	5755.34
755.342	5722.35
755.679	5720.77
756.017	5692.75
756.355	5724.61
756.693	5621.56
757.031	5634.67
757.368	5658.85
757.706	5658.17
758.044	5641.45
758.381	5595.35
758.719	5612.3
759.056	5604.16
759.394	5569.13
759.731	5565.07
760.068	5548.12
760.405	5507.44
760.743	5476.48
761.08	5521
761.417	5465.41
761.754	5461.34
762.091	5421.57
762.428	5504.28
762.765	5389.02
763.102	5432.41
763.438	5395.35
763.775	5388.35
764.112	5350.61
764.449	5403.04
764.785	5385.41
765.122	5283.94
765.458	5278.52
765.795	5318.52
766.131	5277.84
766.467	5295.02
766.804	5245.07
767.14	5219.54
767.476	5258.63
767.812	5185.19
768.148	5193.55
768.485	5195.36
768.821	5146.09
769.157	5146.32
769.492	5113.1
769.828	5134.79
770.164	5111.74
770.5	5102.25
770.836	5113.55
771.171	5064.97
771.507	5059.32
771.842	5034.91
772.178	5033.33
772.513	5010.28
772.849	4940.68
773.184	4931.86
773.519	4994.91
773.855	4893.22
774.19	4938.87
774.525	4883.95
774.86	4899.09
775.195	4857.97
775.53	4878.76
775.865	4881.69
776.2	4787.46
776.535	4769.83
776.87	4814.35
777.205	4772.77
777.539	4770.74
777.874	4752.88
778.209	4728.93
778.543	4705.65
778.878	4695.48
779.212	4676.5
779.547	4646.67
779.881	4702.04
780.215	4626.56
780.55	4638.31
780.884	4622.72
781.218	4612.77
781.552	4612.1
781.886	4528.48
782.22	4521.48
782.554	4536.39
782.888	4566
783.222	4467.02
783.556	4441.48
783.889	4446.45
784.223	4411.65
784.557	4419.11
784.89	4402.16
785.224	4316.28
785.557	4352.89
785.891	4309.51
786.224	4306.34
786.558	4307.25
786.891	4285.78
787.224	4249.17
787.557	4279
787.891	4213.91
788.224	4189.06
788.557	4239.22
788.89	4230.86
789.223	4203.07
789.556	4159.45
789.888	4083.75
790.221	4118.32
790.554	4081.04
790.887	4068.61
791.219	4096.4
791.552	4056.18
791.884	4078.32
792.217	4001.72
792.549	4017.99
792.882	3986.58
793.214	3928.05
793.546	3985.45
793.879	3973.69
794.211	3925.56
794.543	3908.84
794.875	3912
795.207	3915.84
795.539	3914.94
795.871	3890.08
796.203	3808.95
796.535	3830.42
796.867	3835.17
797.198	3839.69
797.53	3780.03
797.862	3802.17
798.193	3780.03
798.525	3749.29
798.856	3796.52
799.188	3742.06
799.519	3750.2
799.85	3701.39
800.182	3732.8
800.513	3711.1
800.844	3650.99
801.175	3681.5
801.506	3663.42
801.837	3612.35
802.168	3668.84
802.499	3623.2
802.83	3655.29
803.161	3599.69
803.491	3622.74
803.822	3612.57
804.153	3620.94
804.483	3580.48
804.814	3540.03
805.145	3542.07
805.475	3531.67
805.805	3515.4
806.136	3508.85
806.466	3528.06
806.796	3533.48
807.126	3520.6
807.457	3466.82
807.787	3469.53
808.117	3490.77
808.447	3494.84
808.777	3512.01
809.107	3498.91
809.436	3467.95
809.766	3458
810.096	3472.01
810.426	3472.01
810.755	3453.03
811.085	3466.82
811.414	3426.82
811.744	3398.57
812.073	3410.77
812.403	3429.3
812.732	3411.9
813.061	3418
813.39	3401.73
813.719	3411.45
814.049	3405.57
814.378	3380.26
814.707	3381.39
815.036	3371.45
815.365	3333.71
815.693	3349.53
816.022	3370.32
816.351	3329.19
816.68	3328.97
817.008	3350.66
817.337	3285.58
817.665	3282.19
817.994	3344.56
818.322	3311.79
818.651	3284.9
818.979	3287.84
819.307	3307.5
819.636	3298.23
819.964	3269.31
820.292	3317.44
820.62	3264.11
820.948	3274.96
821.276	3272.47
821.604	3253.94
821.932	3288.29
822.259	3306.37
822.587	3329.64
822.915	3228.63
823.243	3249.42
823.57	3268.63
823.898	3281.06
824.225	3273.83
824.553	3278.8
824.88	3254.39
825.207	3255.3
825.535	3255.52
825.862	3230.66
826.189	3229.53
826.516	3299.14
826.843	3294.62
827.17	3275.41
827.497	3295.29
827.824	3270.66
828.151	3274.73
828.478	3285.13
828.805	3272.02
829.131	3215.52
829.458	3288.52
829.785	3263.43
830.111	3254.17
830.438	3335.07
830.764	3295.29
831.09	3221.62
831.417	3254.17
831.743	3233.6
832.069	3263.21
832.395	3224.79
832.722	3216.88
833.048	3231.79
833.374	3247.84
833.7	3239.48
834.026	3234.05
834.351	3217.33
834.677	3212.81
835.003	3247.84
835.329	3202.87
835.654	3196.09
835.98	3189.53
836.306	3210.78
836.631	3199.25
836.956	3215.75
837.282	3258.91
837.607	3171
837.932	3166.26
838.258	3137.56
838.583	3171.46
838.908	3169.87
839.233	3172.36
839.558	3158.8
839.883	3163.32
840.208	3142.76
840.533	3131.23
840.858	3165.13
841.182	3148.41
841.507	3142.3
841.832	3095.07
842.156	3146.82
842.481	3103.21
842.805	3125.36
843.13	3120.84
843.454	3105.7
843.778	3119.48
844.103	3083.77
844.427	3105.24
844.751	3093.49
845.075	3060.05
845.399	3067.28
845.723	3033.15
846.047	3041.29
846.371	3041.74
846.695	2985.25
847.019	3025.25
847.343	2999.03
847.666	3014.62
847.99	2962.65
848.313	2971.46
848.637	2958.81
848.96	2960.39
849.284	2952.93
849.607	2918.58
849.931	2942.31
850.254	2895.08
850.577	2878.36
850.9	2898.92
851.223	2870
851.546	2889.43
851.869	2875.64
852.192	2874.29
852.515	2905.7
852.838	2835.87
853.161	2866.61
853.483	2840.84
853.806	2817.57
854.129	2818.25
854.451	2780.73
854.774	2806.72
855.096	2780.73
855.419	2768.3
855.741	2749.09
856.063	2757
856.385	2788.64
856.708	2746.61
857.03	2757.91
857.352	2770.56
857.674	2762.88
857.996	2750.22
858.318	2749.09
858.64	2720.62
858.961	2701.19
859.283	2700.73
859.605	2718.13
859.926	2686.95
860.248	2716.78
860.57	2677.68
860.891	2720.62
861.212	2661.19
861.534	2701.41
861.855	2639.04
862.176	2665.25
862.498	2651.02
862.819	2677.23
863.14	2651.47
863.461	2653.5
863.782	2620.28
864.103	2654.86
864.424	2662.99
864.745	2660.28
865.065	2620.51
865.386	2650.57
865.707	2613.05
866.027	2618.02
866.348	2599.27
866.668	2639.27
866.989	2612.6
867.309	2572.83
867.63	2554.3
867.95	2619.38
868.27	2614.18
868.59	2579.61
868.91	2578.7
869.23	2591.13
869.55	2568.76
869.87	2583.22
870.19	2588.65
870.51	2584.58
870.83	2544.13
871.15	2564.69
871.469	2542.32
871.789	2599.95
872.109	2536.9
872.428	2557.46
872.748	2536.67
873.067	2519.95
873.386	2552.49
873.706	2549.1
874.025	2517.46
874.344	2510.91
874.663	2518.82
874.982	2481.76
875.301	2478.37
875.62	2486.73
875.939	2465.03
876.258	2498.03
876.577	2513.39
876.896	2476.79
877.214	2451.25
877.533	2482.21
877.852	2463.45
878.17	2488.99
878.489	2455.32
878.807	2508.65
879.125	2461.64
879.444	2453.96
879.762	2408.09
880.08	2420.97
880.398	2407.18
880.716	2460.29
881.034	2430.01
881.352	2413.96
881.67	2386.39
881.988	2400.85
882.306	2382.78
882.624	2375.09
882.941	2353.4
883.259	2366.73
883.577	2371.93
883.894	2341.2
884.212	2350.91
884.529	2313.63
884.846	2324.7
885.164	2330.57
885.481	2305.26
885.798	2321.31
886.115	2323.34
886.432	2309.11
886.75	2313.85
887.067	2335.32
887.383	2311.59
887.7	2281.76
888.017	2265.27
888.334	2297.35
888.651	2259.62
888.967	2260.97
889.284	2239.96
889.6	2275.66
889.917	2246.28
890.233	2242.89
890.55	2220.97
890.866	2220.52
891.182	2248.99
891.498	2239.5
891.815	2234.76
892.131	2209.22
892.447	2224.36
892.763	2200.41
893.079	2186.62
893.395	2125.83
893.71	2153.4
894.026	2189.56
894.342	2159.28
894.657	2142.78
894.973	2159.05
895.289	2141.65
895.604	2139.17
895.92	2156.57
896.235	2103.91
896.55	2110.02
896.865	2129.9
897.181	2077.02
897.496	2085.38
897.811	2097.59
898.126	2078.38
898.441	2076.8
898.756	2077.93
899.071	2087.64
899.386	2041.32
899.7	2027.53
900.015	2042.45
900.33	2006.74
900.644	2013.52
900.959	2024.14
901.273	1999.96
901.588	1998.38
901.902	2009.68
902.216	1996.8
902.531	2004.93
902.845	1979.4
903.159	1994.31
903.473	1961.32
903.787	1975.1
904.101	1962.22
904.415	1935.1
904.729	1958.61
905.042	1942.11
905.356	1907.76
905.67	1950.92
905.984	1931.94
906.297	1912.96
906.611	1912.96
906.924	1925.84
907.237	1926.97
907.551	1905.5
907.864	1891.72
908.177	1878.38
908.491	1891.26
908.804	1908.21
909.117	1891.94
909.43	1860.08
909.743	1851.26
910.056	1832.96
910.368	1857.37
910.681	1808.55
910.994	1821.89
911.307	1867.08
911.619	1791.38
911.932	1807.2
912.244	1819.4
912.557	1811.04
912.869	1833.41
913.181	1778.27
913.494	1787.54
913.806	1780.98
914.118	1764.94
914.43	1786.86
914.742	1777.82
915.054	1745.73
915.366	1732.62
915.678	1751.61
915.99	1749.12
916.302	1721.1
916.613	1693.98
916.925	1729.91
917.236	1738.27
917.548	1711.83
917.859	1711.83
918.171	1699.63
918.482	1698.5
918.794	1671.61
919.105	1675.68
919.416	1676.13
919.727	1704.83
920.038	1695.79
920.349	1686.75
920.66	1658.73
920.971	1656.24
921.282	1617.37
921.593	1637.94
921.903	1670.7
922.214	1637.94
922.525	1569.69
922.835	1606.07
923.146	1603.81
923.456	1582.57
923.767	1616.92
924.077	1623.93
924.387	1603.81
924.697	1615.79
925.008	1577.6
925.318	1582.12
925.628	1602.68
925.938	1565.17
926.248	1560.43
926.558	1536.02
926.867	1590.71
927.177	1542.35
927.487	1538.05
927.796	1550.93
928.106	1540.09
928.416	1529.47
928.725	1535.79
929.034	1549.13
929.344	1516.36
929.653	1524.49
929.962	1545.06
930.271	1510.26
930.581	1471.16
930.89	1515.68
931.199	1470.71
931.508	1465.51
931.817	1478.62
932.125	1487.43
932.434	1465.74
932.743	1459.64
933.051	1463.93
933.36	1456.02
933.669	1437.49
933.977	1447.66
934.286	1408.11
934.594	1416.47
934.902	1416.47
935.21	1406.98
935.519	1428.45
935.827	1411.95
936.135	1406.08
936.443	1386.64
936.751	1405.17
937.059	1378.28
937.367	1397.04
937.674	1385.29
937.982	1396.81
938.29	1367.44
938.597	1355.91
938.905	1336.93
939.213	1354.33
939.52	1345.06
939.827	1370.83
940.135	1316.82
940.442	1339.64
940.749	1321.11
941.056	1317.04
941.363	1319.53
941.67	1346.87
941.977	1322.24
942.284	1278.85
942.591	1296.25
942.898	1289.02
943.205	1266.2
943.511	1293.99
943.818	1308.23
944.125	1275.91
944.431	1259.19
944.738	1270.94
945.044	1260.77
945.35	1266.42
945.657	1276.59
945.963	1235.24
946.269	1283.14
946.575	1250.6
946.881	1242.02
947.187	1240.66
947.493	1229.36
947.799	1227.78
948.105	1239.53
948.41	1201.79
948.716	1210.6
949.022	1207.67
949.327	1204.5
949.633	1208.8
949.938	1226.2
950.244	1219.87
950.549	1183.03
950.854	1189.36
951.16	1187.78
951.465	1200.21
951.77	1168.57
952.075	1185.52
952.38	1169.47
952.685	1195.69
952.99	1133.09
953.294	1159.53
953.599	1161.11
953.904	1165.63
954.209	1149.36
954.513	1124.73
954.818	1141
955.122	1154.79
955.426	1118.63
955.731	1139.19
956.035	1116.82
956.339	1105.97
956.643	1107.78
956.948	1119.08
957.252	1102.81
957.556	1106.65
957.86	1123.6
958.163	1111.4
958.467	1090.61
958.771	1112.75
959.075	1074.79
959.378	1090.15
959.682	1068.46
959.985	1075.69
960.289	1058.74
960.592	1049.48
960.896	1073.21
961.199	1077.27
961.502	1040.21
961.805	1054.9
962.108	1031.17
962.411	1054.9
962.714	1024.17
963.017	1049.48
963.32	1053.32
963.623	1038.63
963.926	1032.76
964.228	1050.16
964.531	1029.14
964.833	1013.32
965.136	1023.94
965.438	1007.45
965.741	1034.11
966.043	1006.99
966.345	1013.77
966.648	986.2
966.95	985.98
967.252	1002.93
967.554	987.33
967.856	1012.42
968.158	985.07
968.46	992.3
968.761	985.75
969.063	956.6
969.365	974
969.666	954.79
969.968	995.02
970.269	970.38
970.571	971.29
970.872	937.84
971.174	955.02
971.475	963.15
971.776	962.7
972.077	937.84
972.378	950.95
972.679	948.46
972.98	929.71
973.281	959.54
973.582	932.19
973.883	933.77
974.183	938.52
974.484	933.1
974.785	944.85
975.085	955.92
975.386	928.35
975.686	938.29
975.986	929.48
976.287	899.2
976.587	894.91
976.887	906.66
977.187	892.87
977.487	901.01
977.787	879.54
978.087	906.2
978.387	881.35
978.687	890.84
978.987	894
979.286	879.31
979.586	878.64
979.885	907.56
980.185	861.91
980.484	883.15
980.784	862.14
981.083	849.26
981.382	871.63
981.682	870.73
981.981	863.49
982.28	861.23
982.579	844.96
982.878	877.96
983.177	856.94
983.475	847.68
983.774	855.13
984.073	844.96
984.372	824.85
984.67	848.13
984.969	831.86
985.267	848.81
985.566	823.95
985.864	854.91
986.162	819.88
986.461	820.78
986.759	815.59
987.057	842.93
987.355	807.9
987.653	828.47
987.951	831.4
988.249	827.56
988.547	804.29
988.844	797.73
989.142	787.79
989.44	807.68
989.737	799.77
990.035	790.95
990.332	798.86
990.63	790.73
990.927	779.88
991.224	783.04
991.521	761.58
991.819	777.85
992.116	769.94
992.413	773.78
992.71	756.6
993.006	771.52
993.303	753.89
993.6	748.47
993.897	766.32
994.193	740.11
994.49	763.16
994.787	744.63
995.083	749.15
995.379	742.82
995.676	775.13
995.972	763.16
996.268	734.23
996.565	726.32
996.861	751.86
997.157	745.76
997.453	752.31
997.749	740.79
998.044	719.32
998.34	724.29
998.636	739.43
998.932	701.01
999.227	719.09
999.523	740.56
999.818	728.13
1000.114	716.38
1000.409	680
1000.704	712.54
1001	712.99
1001.295	685.65
1001.59	685.19
1001.885	696.04
1002.18	687.68
1002.475	687.91
1002.77	676.61
1003.065	707.34
1003.359	704.63
1003.654	670.96
1003.949	647.45
1004.243	670.05
1004.538	662.37
1004.832	666.21
1005.127	652.2
1005.421	657.85
1005.715	660.56
1006.009	652.88
1006.304	656.72
1006.598	654.01
1006.892	663.5
1007.186	614.91
1007.48	633.9
1007.773	650.17
1008.067	670.05
1008.361	649.71
1008.655	638.87
1008.948	658.08
1009.242	641.81
1009.535	642.03
1009.829	621.47
1010.122	632.54
1010.415	634.35
1010.708	602.71
1011.001	613.33
1011.295	629.38
1011.588	609.49
1011.881	614.69
1012.173	594.12
1012.466	608.59
1012.759	604.52
1013.052	600.45
1013.344	583.28
1013.637	597.29
1013.93	582.82
1014.222	612.2
1014.514	582.6
1014.807	574.91
1015.099	601.13
1015.391	601.81
1015.683	576.5
1015.976	587.57
1016.268	583.95
1016.56	571.52
1016.851	575.37
1017.143	576.04
1017.435	559.77
1017.727	579.43
1018.018	575.82
1018.31	575.82
1018.602	562.71
1018.893	543.73
1019.185	550.73
1019.476	550.96
1019.767	556.38
1020.058	547.34
1020.35	534.69
1020.641	541.92
1020.932	549.38
1021.223	552.09
1021.514	504.63
1021.804	529.49
1022.095	529.94
1022.386	528.81
1022.677	514.58
1022.967	529.72
1023.258	545.54
1023.548	531.75
1023.839	523.39
1024.129	517.97
1024.419	530.85
1024.709	519.1
1025	543.73
1025.29	504.86
1025.58	498.31
1025.87	505.76
1026.16	488.59
1026.449	507.35
1026.739	501.24
1027.029	509.38
1027.319	507.35
1027.608	494.24
1027.898	482.49
1028.187	484.07
1028.477	496.27
1028.766	498.76
1029.055	479.55
1029.344	477.97
1029.634	498.53
1029.923	499.44
1030.212	506.67
1030.501	475.48
1030.79	476.84
1031.078	475.26
1031.367	467.8
1031.656	471.64
1031.945	493.11
1032.233	475.03
1032.522	470.96
1032.81	452.43
1033.099	473.67
1033.387	453.34
1033.675	454.24
1033.963	459.44
1034.251	476.16
1034.54	468.93
1034.828	444.97
1035.116	473.67
1035.403	457.4
1035.691	454.47
1035.979	453.56
1036.267	444.3
1036.554	463.96
1036.842	467.35
1037.129	443.84
1037.417	448.14
1037.704	425.77
1037.992	419.66
1038.279	441.81
1038.566	430.29
1038.853	430.29
1039.14	430.29
