Data from foam1_polythene_foam_FLMS001491_00085.txt Node
Date: Wed Feb 08 10:55:30 GMT 2017
User: dcchb
Spectrometer: FLMS00149
Trigger mode: 0
Integration Time (sec): 2.000000E-2
Scans to average: 10
Electric dark correction enabled: true
Nonlinearity correction enabled: false
Boxcar width: 0
XAxis mode: Wavelengths
Number of Pixels in Spectrum: 2048
>>>>>Begin Spectral Data<<<<<
341.393	5.1
341.776	5.1
342.16	5.1
342.543	-52.3
342.927	-62.47
343.31	-87.55
343.693	-69.7
344.077	-70.15
344.46	-54.79
344.843	-83.49
345.226	-42.81
345.61	-20.66
345.993	-3.49
346.376	4.42
346.759	3.52
347.142	38.09
347.525	34.7
347.908	65.66
348.291	85.55
348.674	95.49
349.057	105.21
349.44	114.7
349.823	139.11
350.206	159.44
350.588	191.53
350.971	192.66
351.354	202.16
351.737	214.13
352.119	235.83
352.502	234.7
352.884	262.04
353.267	242.15
353.65	289.16
354.032	303.17
354.414	289.39
354.797	279.22
355.179	312.21
355.562	311.08
355.944	319.67
356.326	321.7
356.709	324.19
357.091	320.8
357.473	319.44
357.855	346.56
358.238	305.43
358.62	321.02
359.002	306.56
359.384	316.28
359.766	323.51
360.148	324.19
360.53	316.73
360.912	317.86
361.294	307.01
361.676	317.41
362.057	328.03
362.439	312.44
362.821	317.18
363.203	320.57
363.584	292.1
363.966	326.45
364.348	315.83
364.729	332.32
365.111	299.33
365.493	295.49
365.874	302.04
366.256	298.65
366.637	285.32
367.019	303.17
367.4	327.12
367.781	311.98
368.163	294.58
368.544	307.46
368.925	316.95
369.306	300.91
369.688	312.44
370.069	297.75
370.45	295.49
370.831	295.26
371.212	301.36
371.593	301.81
371.974	302.04
372.355	307.69
372.736	327.58
373.117	295.26
373.498	307.46
373.879	302.49
374.26	297.07
374.641	304.98
375.021	297.75
375.402	312.66
375.783	304.3
376.163	307.01
376.544	315.6
376.925	338.42
377.305	316.05
377.686	315.6
378.066	313.34
378.447	312.66
378.827	336.84
379.208	334.13
379.588	312.44
379.968	317.86
380.349	326.9
380.729	340.91
381.109	334.13
381.489	331.87
381.87	336.62
382.25	331.64
382.63	330.51
383.01	324.41
383.39	339.33
383.77	319.44
384.15	343.39
384.53	339.78
384.91	333
385.29	318.54
385.67	349.95
386.049	346.33
386.429	347.01
386.809	341.59
387.189	331.87
387.568	330.51
387.948	354.24
388.328	356.28
388.707	376.61
389.087	359.44
389.466	361.25
389.846	377.52
390.225	368.25
390.605	365.09
390.984	345.88
391.363	388.37
391.743	365.32
392.122	369.16
392.501	356.73
392.881	362.15
393.26	390.17
393.639	354.92
394.018	353.34
394.397	376.39
394.776	367.58
395.155	373.22
395.534	370.29
395.913	354.69
396.292	388.37
396.671	380.23
397.05	375.26
397.429	381.36
397.808	379.33
398.186	399.21
398.565	387.69
398.944	361.93
399.323	389.72
399.701	399.89
400.08	399.89
400.458	405.31
400.837	388.82
401.215	391.98
401.594	384.07
401.972	433.11
402.351	416.61
402.729	406.22
403.107	391.08
403.486	418.2
403.864	423.84
404.242	439.21
404.62	412.09
404.999	440.79
405.377	403.51
405.755	404.41
406.133	410.51
406.511	433.11
406.889	449.83
407.267	429.27
407.645	432.21
408.023	455.26
408.401	438.08
408.779	426.56
409.156	454.13
409.534	462.26
409.912	450.28
410.29	449.83
410.667	459.1
411.045	488.25
411.422	457.06
411.8	455.93
412.178	471.53
412.555	496.16
412.933	473.11
413.31	464.97
413.687	476.5
414.065	471.53
414.442	495.93
414.819	505.65
415.197	513.79
415.574	515.59
415.951	501.81
416.328	516.72
416.705	482.15
417.082	499.32
417.46	503.84
417.837	525.99
418.214	540.45
418.591	512.88
418.967	529.38
419.344	524.41
419.721	518.53
420.098	535.71
420.475	558.3
420.852	560.79
421.228	522.6
421.605	549.04
421.982	545.42
422.358	565.31
422.735	563.95
423.111	555.37
423.488	552.2
423.864	582.03
424.241	569.83
424.617	575.25
424.994	593.56
425.37	601.92
425.746	572.54
426.123	589.49
426.499	590.39
426.875	592.65
427.251	601.92
427.627	601.92
428.003	609.6
428.379	611.64
428.756	627.46
429.132	632.65
429.507	649.6
429.883	641.69
430.259	657.74
430.635	637.17
431.011	641.47
431.387	686.66
431.763	666.78
432.138	686.21
432.514	681.24
432.89	690.73
433.265	686.44
433.641	709.71
434.016	710.16
434.392	719.66
434.767	707.23
435.143	743.84
435.518	722.59
435.894	740.22
436.269	743.84
436.644	743.38
437.02	774.12
437.395	763.95
437.77	794.23
438.145	761.01
438.52	799.43
438.895	794
439.271	790.84
439.646	825.42
440.021	829.26
440.395	812.31
440.77	810.5
441.145	816.38
441.52	830.16
441.895	821.8
442.27	842.14
442.645	843.27
443.019	853.66
443.394	858.64
443.769	879.43
444.143	903.61
444.518	876.49
444.892	878.3
445.267	885.53
445.641	918.75
446.016	936.37
446.39	937.05
446.764	915.13
447.139	914.68
447.513	937.5
447.887	941.8
448.262	927.56
448.636	933.21
449.01	968.24
449.384	972.98
449.758	956.26
450.132	975.47
450.506	968.24
450.88	986.32
451.254	986.09
451.628	1019.99
452.002	1032.42
452.376	1036.71
452.75	1026.77
453.123	1038.07
453.497	1055.01
453.871	1064.28
454.244	1097.27
454.618	1075.35
454.992	1097.95
455.365	1099.31
455.739	1102.47
456.112	1109.7
456.486	1090.04
456.859	1120.78
457.232	1156.03
457.606	1145.18
457.979	1116.93
458.352	1177.05
458.725	1172.3
459.099	1179.53
459.472	1198.97
459.845	1202.58
460.218	1208.23
460.591	1201
460.964	1216.82
461.337	1220.66
461.71	1261.34
462.083	1267.89
462.456	1249.36
462.829	1262.01
463.201	1258.63
463.574	1266.31
463.947	1280.55
464.32	1314.44
464.692	1347.66
465.065	1324.16
465.438	1321
465.81	1334.78
466.183	1390.15
466.555	1384.72
466.928	1390.37
467.3	1386.53
467.672	1390.15
468.045	1464.95
468.417	1446.64
468.789	1470.6
469.161	1449.81
469.534	1510.82
469.906	1499.97
470.278	1527.32
470.65	1544.27
471.022	1560.99
471.394	1586.75
471.766	1589.46
472.138	1587.43
472.51	1642.34
472.882	1633.08
473.253	1635.56
473.625	1684.83
473.997	1682.57
474.369	1728.9
474.74	1730.25
475.112	1751.95
475.484	1747.88
475.855	1785.39
476.227	1825.62
476.598	1878.04
476.97	1879.85
477.341	1928.89
477.713	1918.27
478.084	1960.3
478.455	1995.33
478.827	1988.32
479.198	2045.72
479.569	2091.6
479.94	2108.09
480.311	2110.13
480.682	2165.04
481.053	2193.29
481.424	2237.58
481.795	2255.89
482.166	2275.55
482.537	2299.5
482.908	2334.75
483.279	2353.74
483.65	2371.59
484.021	2452.49
484.391	2475.99
484.762	2487.75
485.133	2518.03
485.503	2562.09
485.874	2590.34
486.244	2618.36
486.615	2644.13
486.985	2682.99
487.356	2720.06
487.726	2742.2
488.097	2789.66
488.467	2812.03
488.837	2839.6
489.207	2918.69
489.578	2928.86
489.948	2971.35
490.318	2985.36
490.688	3020.61
491.058	3036.66
491.428	3090.22
491.798	3128.41
492.168	3197.56
492.538	3136.54
492.908	3224
493.278	3234.39
493.648	3280.72
494.017	3329.76
494.387	3345.58
494.757	3349.42
495.126	3410.21
495.496	3420.6
495.866	3457.66
496.235	3483.88
496.605	3474.61
496.974	3501.28
497.344	3518
497.713	3567.72
498.082	3586.7
498.452	3603.87
498.821	3716.64
499.19	3696.08
499.559	3732.01
499.928	3742.18
500.298	3762.74
500.667	3791.44
501.036	3766.58
501.405	3848.84
501.774	3831.44
502.143	3867.6
502.512	3885.67
502.88	3943.07
503.249	3976.07
503.618	4066.01
503.987	3998.44
504.356	4051.09
504.724	4059
505.093	4106.01
505.462	4097.87
505.83	4101.71
506.199	4145.55
506.567	4154.14
506.936	4159.79
507.304	4205.21
507.672	4257.42
508.041	4316.62
508.409	4365.44
508.777	4397.53
509.145	4440.24
509.514	4459.9
509.882	4487.92
510.25	4464.87
510.618	4483.4
510.986	4467.81
511.354	4556.84
511.722	4575.83
512.09	4632.1
512.458	4603.85
512.826	4680
513.193	4721.36
513.561	4814.69
513.929	4780.34
514.297	4800.23
514.664	4855.82
515.032	4870.28
515.4	4907.12
515.767	4866.67
516.135	4896.27
516.502	4908.7
516.869	4973.56
517.237	5003.61
517.604	5054.91
517.972	5179.2
518.339	5227.33
518.706	5224.85
519.073	5275.69
519.44	5268.92
519.808	5328.12
520.175	5344.39
520.542	5369.03
520.909	5353.88
521.276	5418.97
521.643	5480.43
522.009	5485.18
522.376	5535.12
522.743	5590.49
523.11	5683.59
523.477	5675.68
523.843	5756.36
524.21	5839.3
524.577	5816.25
524.943	5893.08
525.31	5916.58
525.676	5991.16
526.043	5883.36
526.409	5950.25
526.776	6004.04
527.142	6075.22
527.508	6077.26
527.874	6155.67
528.241	6165.84
528.607	6261.43
528.973	6314.54
529.339	6349.79
529.705	6426.4
530.071	6446.74
530.437	6451.48
530.803	6463.91
531.169	6542.78
531.535	6483.57
531.901	6470.92
532.267	6568.77
532.632	6653.51
532.998	6679.05
533.364	6734.87
533.73	6743
534.095	6817.8
534.461	6881.08
534.826	6843.56
535.192	6899.15
535.557	6957.23
535.923	6934.86
536.288	6935.76
536.653	6943.45
537.019	6961.98
537.384	6991.13
537.749	7000.62
538.114	7043.78
538.479	7125.36
538.845	7157.45
539.21	7154.52
539.575	7223.44
539.94	7264.79
540.305	7323.55
540.67	7349.99
541.034	7313.16
541.399	7316.32
541.764	7370.33
542.129	7365.81
542.494	7380.05
542.858	7412.14
543.223	7392.48
543.587	7495.3
543.952	7413.72
544.316	7528.97
544.681	7593.83
545.045	7618.46
545.41	7624.11
545.774	7735.74
546.138	7738.68
546.503	7740.94
546.867	7683.09
547.231	7781.17
547.595	7767.61
547.959	7747.95
548.324	7788.4
548.688	7840.82
549.052	7844.44
549.416	7894.16
549.779	7948.39
550.143	7954.04
550.507	8038.33
550.871	8139.35
551.235	8057.32
551.599	8097.99
551.962	8130.76
552.326	8168.5
552.689	8211.44
553.053	8170.31
553.417	8188.61
553.78	8262.96
554.143	8295.5
554.507	8298.89
554.87	8315.61
555.234	8448.72
555.597	8497.08
555.96	8515.84
556.323	8484.42
556.686	8508.38
557.05	8573.69
557.413	8587.92
557.776	8662.5
558.139	8666.79
558.502	8711.31
558.865	8745.89
559.228	8699.33
559.59	8807.13
559.953	8782.27
560.316	8942.72
560.679	8953.11
561.041	8976.84
561.404	9096.16
561.767	9067.01
562.129	9140.68
562.492	9202.15
562.854	9254.35
563.217	9284.4
563.579	9217.29
563.941	9325.08
564.304	9289.37
564.666	9320.56
565.028	9400.11
565.39	9364.85
565.753	9470.61
566.115	9500.44
566.477	9579.99
566.839	9619.99
567.201	9640.55
567.563	9663.6
567.925	9738.4
568.287	9778.63
568.648	9803.26
569.01	9869.92
569.372	9900.66
569.734	9884.61
570.095	9950.37
570.457	9973.88
570.819	9892.52
571.18	10013.88
571.542	10036.25
571.903	10049.35
572.265	10029.24
572.626	10077.38
572.987	10111.05
573.349	10211.84
573.71	10295.45
574.071	10267.43
574.432	10413.86
574.794	10426.75
575.155	10401.21
575.516	10406.18
575.877	10388.55
576.238	10464.26
576.599	10435.56
576.96	10463.58
577.32	10365.96
577.681	10459.06
578.042	10455.45
578.403	10546.74
578.763	10520.3
579.124	10565.5
579.485	10526.4
579.845	10681.43
580.206	10633.97
580.566	10642.56
580.927	10713.74
581.287	10751.03
581.648	10647.76
582.008	10735.21
582.368	10683.69
582.728	10592.16
583.089	10638.94
583.449	10589.68
583.809	10643.24
584.169	10666.74
584.529	10616.8
584.889	10755.55
585.249	10803.23
585.609	10785.83
585.969	10790.8
586.329	10804.36
586.688	10737.7
587.048	10885.49
587.408	10797.13
587.768	10904.93
588.127	10717.81
588.487	10718.94
588.846	10817.7
589.206	10728.43
589.565	10687.53
589.925	10720.52
590.284	10673.29
590.643	10726.17
591.003	10762.78
591.362	10790.8
591.721	10769.11
592.08	10745.83
592.44	10929.56
592.799	10868.32
593.158	10838.71
593.517	10871.25
593.876	10947.64
594.235	10808.2
594.593	10859.73
594.952	10785.15
595.311	10772.73
595.67	10797.58
596.029	10810.69
596.387	10818.83
596.746	10918.71
597.104	10830.8
597.463	10733.18
597.822	10866.73
598.18	10845.94
598.538	10866.51
598.897	11043.68
599.255	10932.27
599.613	11096.78
599.972	10992.61
600.33	11018.14
600.688	10950.12
601.046	11032.38
601.404	10974.75
601.762	10934.3
602.12	10990.35
602.478	10946.51
602.836	10917.13
603.194	10958.71
603.552	10911.7
603.91	10888.65
604.268	11036.22
604.625	10924.59
604.983	10974.98
605.341	10995.32
605.698	11094.52
606.056	11072.6
606.413	11019.5
606.771	11105.15
607.128	11069.21
607.485	11061.76
607.843	11073.73
608.2	11129.78
608.557	11123.68
608.914	11058.37
609.272	11111.7
609.629	11197.57
609.986	11146.05
610.343	11032.38
610.7	11165.03
611.057	11118.48
611.414	11203.9
611.771	11229.21
612.127	11205.93
612.484	11211.81
612.841	11324.58
613.198	11188.31
613.554	11226.05
613.911	11343.56
614.267	11379.49
614.624	11304.91
614.98	11366.83
615.337	11402.09
615.693	11339.72
616.05	11299.27
616.406	11306.95
616.762	11310.11
617.118	11305.59
617.475	11293.16
617.831	11331.35
618.187	11339.26
618.543	11389.66
618.899	11440.28
619.255	11366.83
619.611	11432.59
619.967	11497.9
620.323	11471.24
620.678	11431.69
621.034	11467.4
621.39	11458.58
621.746	11382.43
622.101	11532.93
622.457	11422.88
622.812	11483.89
623.168	11430.79
623.523	11422.2
623.879	11383.1
624.234	11362.31
624.589	11407.96
624.945	11472.82
625.3	11417
625.655	11375.2
626.01	11446.83
626.365	11367.74
626.72	11446.15
627.075	11389.21
627.43	11446.15
627.785	11442.76
628.14	11453.39
628.495	11483.22
628.85	11440.05
629.205	11403.67
629.559	11481.86
629.914	11376.55
630.269	11372.48
630.623	11255.2
630.978	11282.99
631.332	11286.38
631.687	11228.76
632.041	11224.01
632.396	11355.53
632.75	11234.86
633.104	11217.46
633.459	11194.18
633.813	11262.88
634.167	11293.39
634.521	11203
634.875	11236.67
635.229	11225.37
635.583	11263.33
635.937	11152.83
636.291	11218.82
636.645	11212.04
636.999	11164.58
637.352	11186.73
637.706	11085.71
638.06	11061.08
638.413	11001.65
638.767	10999.61
639.121	11032.38
639.474	11024.24
639.828	10897.24
640.181	10955.77
640.534	10987.63
640.888	10901.76
641.241	10856.79
641.594	10957.58
641.947	10945.38
642.301	10904.93
642.654	10925.94
643.007	10935.21
643.36	11004.81
643.713	10938.37
644.066	10852.5
644.419	10822.22
644.771	10844.14
645.124	10756.45
645.477	10683.01
645.83	10566.18
646.182	10440.76
646.535	10408.67
646.888	10447.08
647.24	10345.17
647.593	10469.68
647.945	10344.04
648.298	10401.21
648.65	10272.85
649.002	10253.42
649.355	10335.9
649.707	10298.39
650.059	10405.96
650.411	10512.39
650.763	10549.68
651.115	10654.76
651.467	10633.75
651.819	10643.46
652.171	10582
652.523	10652.28
652.875	10524.37
653.227	10492.51
653.578	10542.22
653.93	10517.14
654.282	10430.14
654.633	10400.08
654.985	10361.21
655.337	10356.46
655.688	10365.05
656.039	10408.44
656.391	10279.4
656.742	10378.84
657.094	10355.34
657.445	10392.4
657.796	10422.23
658.147	10357.59
658.498	10300.42
658.849	10409.57
659.2	10408.67
659.551	10458.84
659.902	10451.38
660.253	10404.83
660.604	10415.45
660.955	10307.2
661.306	10361.66
661.656	10356.01
662.007	10323.92
662.358	10299.29
662.708	10280.99
663.059	10234.43
663.409	10181.33
663.76	10161.89
664.11	10179.97
664.461	10202.57
664.811	10136.13
665.161	10184.27
665.511	10141.78
665.862	10194.66
666.212	10287.09
666.562	10304.04
666.912	10295.9
667.262	10274.43
667.612	10198.5
667.962	10250.03
668.312	10230.37
668.662	10257.94
669.011	10263.59
669.361	10238.73
669.711	10308.56
670.06	10260.2
670.41	10196.02
670.76	10119.64
671.109	10196.02
671.459	10199.86
671.808	10087.32
672.157	10130.48
672.507	9975.01
672.856	10023.59
673.205	10067.88
673.554	10043.48
673.904	10040.77
674.253	10049.13
674.602	10047.77
674.951	9876.93
675.3	9875.8
675.649	10059.75
675.998	10084.61
676.346	10113.08
676.695	10210.93
677.044	10062.91
677.393	10126.41
677.741	10143.36
678.09	10061.56
678.438	10040.09
678.787	9988.11
679.135	10019.07
679.484	9958.06
679.832	9952.41
680.181	9854.56
680.529	9950.6
680.877	9846.87
681.225	9779.53
681.573	9825.41
681.922	9692.75
682.27	9790.38
682.618	9757.84
682.966	9732.98
683.314	9753.32
683.661	9745.18
684.009	9713.77
684.357	9688.69
684.705	9746.76
685.053	9802.13
685.4	9810.26
685.748	9734.11
686.095	9723.71
686.443	9676.48
686.79	9688.01
687.138	9722.58
687.485	9673.55
687.832	9638.74
688.18	9611.85
688.527	9570.72
688.874	9572.3
689.221	9506.77
689.568	9459.31
689.915	9438.97
690.262	9404.4
690.609	9357.62
690.956	9300.22
691.303	9298.41
691.65	9254.8
691.997	9180.9
692.344	9174.8
692.69	9169.83
693.037	9184.97
693.383	9193.56
693.73	9195.14
694.077	9200.79
694.423	9224.29
694.769	9126.89
695.116	9169.38
695.462	9150.17
695.808	9185.42
696.155	9220
696.501	9094.58
696.847	9028.82
697.193	8986.33
697.539	8983.85
697.885	8895.03
698.231	8856.39
698.577	8855.49
698.923	8816.84
699.269	8741.82
699.614	8724.42
699.96	8705.21
700.306	8743.4
700.651	8637.64
700.997	8587.7
701.342	8694.59
701.688	8568.94
702.033	8554.03
702.379	8580.69
702.724	8531.65
703.069	8623.63
703.415	8515.84
703.76	8576.62
704.105	8601.03
704.45	8542.05
704.795	8523.29
705.14	8450.98
705.485	8457.31
705.83	8465.22
706.175	8449.17
706.52	8393.58
706.865	8358.55
707.209	8362.39
707.554	8337.08
707.899	8308.84
708.243	8248.05
708.588	8221.38
708.932	8184.32
709.277	8191.1
709.621	8172.79
709.966	8121.5
710.31	8072.46
710.654	8008.5
710.998	8073.36
711.342	8017.77
711.687	8054.15
712.031	8003.08
712.375	8008.5
712.719	8024.32
713.063	8040.37
713.407	8024.55
713.75	8060.93
714.094	8012.57
714.438	8008.05
714.782	8058.22
715.125	8027.03
715.469	8036.53
715.812	7959.24
716.156	7929.86
716.499	7913.37
716.843	7892.35
717.186	7809.41
717.53	7843.08
717.873	7832.01
718.216	7812.58
718.559	7691
718.902	7704.33
719.246	7652.36
719.589	7666.14
719.932	7564.45
720.275	7594.05
720.617	7595.18
720.96	7609.64
721.303	7536.2
721.646	7568.52
721.989	7550.89
722.331	7556.99
722.674	7537.1
723.016	7546.6
723.359	7634.28
723.701	7638.8
724.044	7573.04
724.386	7517.67
724.729	7558.12
725.071	7613.26
725.413	7550.44
725.755	7625.69
726.097	7518.35
726.439	7460.95
726.782	7459.59
727.124	7484.22
727.465	7440.16
727.807	7461.17
728.149	7388.86
728.491	7312.03
728.833	7349.54
729.175	7266.38
729.516	7296.66
729.858	7296.66
730.199	7243.55
730.541	7179.83
730.882	7198.13
731.224	7196.77
731.565	7182.54
731.906	7172.37
732.248	7218.24
732.589	7189.54
732.93	7156.78
733.271	7188.41
733.612	7253.27
733.953	7261.41
734.294	7235.42
734.635	7217.79
734.976	7248.75
735.317	7201.07
735.658	7241.52
735.999	7235.42
736.339	7166.04
736.68	7208.07
737.021	7175.08
737.361	7105.03
737.702	7101.64
738.042	7095.31
738.383	6992.49
738.723	7068.19
739.063	6942.77
739.404	6988.87
739.744	6976.44
740.084	6917.23
740.424	6925.82
740.764	6939.61
741.104	6892.15
741.444	6886.05
741.784	6828.87
742.124	6894.18
742.464	6910.23
742.804	6915.65
743.143	6863.45
743.483	6932.6
743.823	6895.54
744.162	6857.35
744.502	6953.39
744.841	6899.83
745.181	6987.74
745.52	6943.9
745.86	6892.15
746.199	6903.45
746.538	6881.08
746.877	6882.21
747.216	6940.96
747.556	6902.77
747.895	6811.93
748.234	6794.3
748.573	6745.49
748.911	6804.02
749.25	6724.02
749.589	6661.42
749.928	6635.66
750.267	6663.45
750.605	6627.75
750.944	6588.65
751.283	6576.9
751.621	6592.27
751.96	6583.46
752.298	6562.44
752.636	6587.3
752.975	6526.51
753.313	6525.15
753.651	6519.96
753.989	6516.57
754.327	6537.81
754.666	6492.16
755.004	6526.06
755.342	6504.14
755.679	6520.41
756.017	6495.32
756.355	6491.03
756.693	6456.68
757.031	6504.81
757.368	6463.01
757.706	6448.32
758.044	6423.69
758.381	6497.13
758.719	6383.01
759.056	6373.07
759.394	6396.12
759.731	6282
760.068	6249.91
760.405	6214.2
760.743	6225.27
761.08	6191.15
761.417	6158.16
761.754	6166.74
762.091	6120.87
762.428	6081.78
762.765	6081.1
763.102	6117.25
763.438	5998.16
763.775	6037.03
764.112	6069.12
764.449	6073.19
764.785	6015.79
765.122	5986.18
765.458	5973.98
765.795	5933.3
766.131	6031.83
766.467	5978.28
766.804	5975.79
767.14	5946.41
767.476	5934.21
767.812	5989.35
768.148	5953.19
768.485	5913.19
768.821	5872.97
769.157	5940.99
769.492	5788.68
769.828	5900.54
770.164	5780.54
770.5	5776.7
770.836	5722.01
771.171	5663.03
771.507	5671.16
771.842	5647.89
772.178	5618.51
772.513	5565.4
772.849	5580.32
773.184	5564.5
773.519	5564.27
773.855	5469.59
774.19	5466.65
774.525	5454
774.86	5437.5
775.195	5463.49
775.53	5396.14
775.865	5420.32
776.2	5401.34
776.535	5402.47
776.87	5344.39
777.205	5392.53
777.539	5363.6
777.874	5377.84
778.209	5323.38
778.543	5339.2
778.878	5291.06
779.212	5312.08
779.547	5292.42
779.881	5283.6
780.215	5244.06
780.55	5228.24
780.884	5201.12
781.218	5181.01
781.552	5172.19
781.886	5170.16
782.22	5126.32
782.554	5088.35
782.888	5043.16
783.222	5047.23
783.556	4999.09
783.889	5035.02
784.223	4974.91
784.557	4948.02
784.89	4949.6
785.224	4892.65
785.557	4893.56
785.891	4897.63
786.224	4912.99
786.558	4838.87
786.891	4838.19
787.224	4781.7
787.557	4813.79
787.891	4777.85
788.224	4775.82
788.557	4791.64
788.89	4797.29
789.223	4787.12
789.556	4713.68
789.888	4733.79
790.221	4743.05
790.554	4750.28
790.887	4702.6
791.219	4694.69
791.552	4671.64
791.884	4655.82
792.217	4642.72
792.549	4626.45
792.882	4600.46
793.214	4586.67
793.546	4572.21
793.879	4582.61
794.211	4514.13
794.543	4538.09
794.875	4514.58
795.207	4514.58
795.539	4448.37
795.871	4462.38
796.203	4432.1
796.535	4390.52
796.867	4389.84
797.198	4408.82
797.53	4326.57
797.862	4360.24
798.193	4329.05
798.525	4381.93
798.856	4333.12
799.188	4274.59
799.519	4316.85
799.85	4255.83
800.182	4249.28
800.513	4299.22
800.844	4254.03
801.175	4304.87
801.506	4266.46
801.837	4248.38
802.168	4213.58
802.499	4231.43
802.83	4219.45
803.161	4247.02
803.491	4184.2
803.822	4200.69
804.153	4193.69
804.483	4157.53
804.814	4176.97
805.145	4106.46
805.475	4166.12
805.805	4124.54
806.136	4108.04
806.466	4133.13
806.796	4100.36
807.126	4052.45
807.457	4057.42
807.787	4046.12
808.117	4034.37
808.447	3986.01
808.777	3948.27
809.107	3958.67
809.436	3953.47
809.766	3986.24
810.096	3957.09
810.426	3979.23
810.755	3942.85
811.085	3926.58
811.414	3923.19
811.744	3855.84
812.073	3902.62
812.403	3865.34
812.732	3875.28
813.061	3850.87
813.39	3866.01
813.719	3826.02
814.049	3848.84
814.378	3849.52
814.707	3833.02
815.036	3860.36
815.365	3800.25
815.693	3804.77
816.022	3858.78
816.351	3797.77
816.68	3805.22
817.008	3796.19
817.337	3785.11
817.665	3789.86
817.994	3762.74
818.322	3776.98
818.651	3750.99
818.979	3743.53
819.307	3727.49
819.636	3722.52
819.964	3726.58
820.292	3717.32
820.62	3710.54
820.948	3674.15
821.276	3724.55
821.604	3652.23
821.932	3665.79
822.259	3642.74
822.587	3630.77
822.915	3624.66
823.243	3661.73
823.57	3641.39
823.898	3599.58
824.225	3614.72
824.553	3639.81
824.88	3612.69
825.207	3671.89
825.535	3669.18
825.862	3658.79
826.189	3635.96
826.516	3671.67
826.843	3670.09
827.17	3666.7
827.497	3682.97
827.824	3706.92
828.151	3653.82
828.478	3661.95
828.805	3703.98
829.131	3691.56
829.458	3716.64
829.785	3706.02
830.111	3698.56
830.438	3687.71
830.764	3654.95
831.09	3711.89
831.417	3626.25
831.743	3660.82
832.069	3663.76
832.395	3684.32
832.722	3694.49
833.048	3640.26
833.374	3654.95
833.7	3621.5
834.026	3652.91
834.351	3641.16
834.677	3605.91
835.003	3610.65
835.329	3623.76
835.654	3563.65
835.98	3556.42
836.306	3546.02
836.631	3556.19
836.956	3539.24
837.282	3546.47
837.607	3553.03
837.932	3508.74
838.258	3544.21
838.583	3528.62
838.908	3515.06
839.233	3519.81
839.558	3552.8
839.883	3501.73
840.208	3537.66
840.533	3487.04
840.858	3492.24
841.182	3550.32
841.507	3541.5
841.832	3525.23
842.156	3535.18
842.481	3524.78
842.805	3468.74
843.13	3523.65
843.454	3506.93
843.778	3469.64
844.103	3479.36
844.427	3436.87
844.751	3477.1
845.075	3469.19
845.399	3463.09
845.723	3426.93
846.047	3420.15
846.371	3382.19
846.695	3368.85
847.019	3325.92
847.343	3346.71
847.666	3306.93
847.99	3296.76
848.313	3329.76
848.637	3279.36
848.96	3266.93
849.284	3252.24
849.607	3219.48
849.931	3243.88
850.254	3221.51
850.577	3199.37
850.9	3208.63
851.223	3158.46
851.546	3152.59
851.869	3143.32
852.192	3190.33
852.515	3160.72
852.838	3100.16
853.161	3148.74
853.483	3102.42
853.806	3120.27
854.129	3093.61
854.451	3087.28
854.774	3083.44
855.096	3140.16
855.419	3086.37
855.741	3106.94
856.063	3089.31
856.385	3043.89
856.708	3104.45
857.03	3101.06
857.352	3117.33
857.674	3054.28
857.996	3057.67
858.318	3036.66
858.64	3024
858.961	2988.75
859.283	3003.66
859.605	2967.73
859.926	3009.54
860.248	2960.95
860.57	2955.08
860.891	2969.31
861.212	2904.91
861.534	2929.54
861.855	2901.97
862.176	2931.58
862.498	2909.43
862.819	2884.57
863.14	2906.94
863.461	2911.24
863.782	2853.16
864.103	2855.19
864.424	2839.15
864.745	2878.7
865.065	2857.45
865.386	2805.7
865.707	2819.04
866.027	2847.28
866.348	2857
866.668	2835.08
866.989	2813.61
867.309	2815.65
867.63	2830.79
867.95	2844.35
868.27	2837.11
868.59	2847.28
868.91	2805.48
869.23	2815.42
869.55	2785.36
869.87	2851.35
870.19	2849.54
870.51	2778.36
870.83	2805.7
871.15	2858.58
871.469	2826.49
871.789	2800.28
872.109	2830.79
872.428	2800.51
872.748	2801.41
873.067	2774.97
873.386	2812.93
873.706	2757.34
874.025	2753.73
874.344	2741.07
874.663	2761.86
874.982	2737.68
875.301	2764.57
875.62	2716.67
875.939	2700.17
876.258	2715.99
876.577	2721.86
876.896	2713.05
877.214	2663.79
877.533	2708.08
877.852	2713.73
878.17	2706.04
878.489	2702.2
878.807	2682.54
879.125	2686.84
879.444	2670.11
879.762	2708.08
880.08	2694.97
880.398	2673.73
880.716	2665.14
881.034	2601.64
881.352	2638.25
881.67	2633.28
881.988	2674.18
882.306	2636.89
882.624	2663.11
882.941	2623.79
883.259	2641.19
883.577	2600.96
883.894	2615.43
884.212	2647.06
884.529	2630.79
884.846	2636.67
885.164	2601.41
885.481	2584.92
885.798	2661.75
886.115	2592.38
886.432	2603.9
886.75	2567.97
887.067	2591.7
887.383	2565.03
887.7	2589.89
888.017	2594.64
888.334	2576.1
888.651	2560.74
888.967	2559.83
889.284	2564.58
889.6	2550.12
889.917	2533.62
890.233	2537.69
890.55	2515.54
890.866	2503.34
891.182	2511.25
891.498	2491.36
891.815	2465.6
892.131	2480.97
892.447	2446.39
892.763	2406.62
893.079	2433.96
893.395	2425.37
893.71	2418.37
894.026	2404.81
894.342	2405.04
894.657	2401.65
894.973	2376.79
895.289	2393.06
895.604	2414.75
895.92	2378.37
896.235	2374.53
896.55	2346.96
896.865	2377.01
897.181	2331.14
897.496	2365.49
897.811	2335.43
898.126	2350.12
898.441	2383.12
898.756	2350.57
899.071	2319.61
899.386	2303.57
899.7	2281.88
900.015	2302.44
900.33	2349.67
900.644	2306.96
900.959	2338.82
901.273	2333.63
901.588	2304.25
901.902	2301.99
902.216	2328.88
902.531	2311.93
902.845	2271.03
903.159	2247.75
903.473	2239.16
903.787	2259.05
904.101	2245.49
904.415	2187.19
904.729	2235.55
905.042	2223.8
905.356	2212.5
905.67	2201.88
905.984	2187.41
906.297	2164.59
906.611	2170.47
906.924	2147.87
907.237	2188.09
907.551	2160.75
907.864	2163.91
908.177	2131.37
908.491	2111.71
908.804	2117.81
909.117	2143.57
909.43	2077.81
909.743	2104.7
910.056	2090.69
910.368	2061.99
910.681	2084.37
910.994	2030.81
911.307	2043.46
911.619	2062.9
911.932	2039.85
912.244	1999.17
912.557	2018.38
912.869	2019.28
913.181	1995.55
913.494	2015.22
913.806	2001.66
914.118	1985.61
914.43	1957.82
914.742	1958.72
915.054	1977.25
915.366	2012.96
915.678	2001.43
915.99	1936.8
916.302	1987.87
916.613	1968.89
916.925	1937.7
917.236	1969.34
917.548	1932.28
917.859	1956.91
918.171	1928.66
918.482	1885.5
918.794	1902
919.105	1891.6
919.416	1892.73
919.727	1888.21
920.038	1894.77
920.349	1863.13
920.66	1879.85
920.971	1863.13
921.282	1870.81
921.593	1874.43
921.903	1844.82
922.214	1793.07
922.525	1830.81
922.835	1807.76
923.146	1795.56
923.456	1797.59
923.767	1796.69
924.077	1786.75
924.387	1786.29
924.697	1767.99
925.008	1764.6
925.318	1771.15
925.628	1767.09
925.938	1736.58
926.248	1712.62
926.558	1712.85
926.867	1705.84
927.177	1698.39
927.487	1713.75
927.796	1682.79
928.106	1699.07
928.416	1690.93
928.725	1709.69
929.034	1681.89
929.344	1664.49
929.653	1681.44
929.962	1668.56
930.271	1650.48
930.581	1652.29
930.89	1667.2
931.199	1655.22
931.508	1644.15
931.817	1652.06
932.125	1629.69
932.434	1644.38
932.743	1638.95
933.051	1653.64
933.36	1630.82
933.669	1593.31
933.977	1616.58
934.286	1597.37
934.594	1581.1
934.902	1585.85
935.21	1583.59
935.519	1579.52
935.827	1616.81
936.135	1532.52
936.443	1578.62
936.751	1531.16
937.059	1535.91
937.367	1545.17
937.674	1539.97
937.982	1542.46
938.29	1547.66
938.597	1531.61
938.905	1500.88
939.213	1483.25
939.52	1459.52
939.827	1467.66
940.135	1462.69
940.442	1471.73
940.749	1515.57
941.056	1456.36
941.363	1451.84
941.67	1461.33
941.977	1468.79
942.284	1452.52
942.591	1466.08
942.898	1437.83
943.205	1438.73
943.511	1439.86
943.818	1426.76
944.125	1398.06
944.431	1422.24
944.738	1437.6
945.044	1423.14
945.35	1427.66
945.657	1402.12
945.963	1386.08
946.269	1415.91
946.575	1384.72
946.881	1384.27
947.187	1348.79
947.493	1356.02
947.799	1357.83
948.105	1354.67
948.41	1364.61
948.716	1380.2
949.022	1352.63
949.327	1369.36
949.633	1323.71
949.938	1328.68
950.244	1363.71
950.549	1329.13
950.854	1339.3
951.16	1317.15
951.465	1333.43
951.77	1327.32
952.075	1306.31
952.38	1326.42
952.685	1303.6
952.99	1270.6
953.294	1278.06
953.599	1271.96
953.904	1299.75
954.209	1276.25
954.513	1258.63
954.818	1273.31
955.122	1276.93
955.426	1273.09
955.731	1261.34
956.035	1274.9
956.339	1261.56
956.643	1224.05
956.948	1220.66
957.252	1235.8
957.556	1216.14
957.86	1221.34
958.163	1220.21
958.467	1195.8
958.771	1210.04
959.075	1185.86
959.378	1196.71
959.682	1224.05
959.985	1196.93
960.289	1172.07
960.592	1208.91
960.896	1185.18
961.199	1167.78
961.502	1191.28
961.805	1156.03
962.108	1169.36
962.411	1203.03
962.714	1157.38
963.017	1152.87
963.32	1161.9
963.623	1153.09
963.926	1135.46
964.228	1127.1
964.531	1152.41
964.833	1143.83
965.136	1131.4
965.438	1132.75
965.741	1129.59
966.043	1093.43
966.345	1123.26
966.648	1127.56
966.95	1117.16
967.252	1078.29
967.554	1062.7
967.856	1106.31
968.158	1069.03
968.46	1099.53
968.761	1115.35
969.063	1108.35
969.365	1081.68
969.666	1087.78
969.968	1051.85
970.269	1084.62
970.571	1057.95
970.872	1072.19
971.174	1063.83
971.475	1078.74
971.776	1067.44
972.077	1044.39
972.378	1048.91
972.679	1015.24
972.98	1045.07
973.281	1023.6
973.582	1012.76
973.883	1008.24
974.183	1012.3
974.484	1026.99
974.785	1024.05
975.085	1012.3
975.386	1003.04
975.686	1010.27
975.986	1012.3
976.287	1031.96
976.587	993.1
976.887	1003.72
977.187	989.48
977.487	969.59
977.787	970.05
978.087	974.11
978.387	969.37
978.687	960.1
978.987	985.41
979.286	963.49
979.586	977.05
979.885	978.63
980.185	959.88
980.484	964.4
980.784	970.05
981.083	932.31
981.382	929.37
981.682	968.69
981.981	954.23
982.28	935.02
982.579	942.93
982.878	919.42
983.177	900.89
983.475	922.59
983.774	940.67
984.073	897.28
984.372	907.9
984.67	899.09
984.969	926.43
985.267	911.29
985.566	917.62
985.864	909.03
986.162	911.06
986.461	900.44
986.759	870.16
987.057	883.27
987.355	857.96
987.653	902.7
987.951	878.52
988.249	879.2
988.547	885.75
988.844	871.74
989.142	877.84
989.44	884.62
989.737	862.7
990.035	858.41
990.332	847.11
990.63	865.19
990.927	840.56
991.224	846.66
991.521	850.95
991.819	845.53
992.116	849.37
992.413	835.13
992.71	838.75
993.006	811.41
993.303	801.46
993.6	806.66
993.897	827.68
994.193	815.02
994.49	816.15
994.787	819.54
995.083	829.71
995.379	791.97
995.676	797.39
995.972	812.99
996.268	809.6
996.565	809.6
996.861	772.54
997.157	788.58
997.453	765.98
997.749	789.26
998.044	784.97
998.34	772.54
998.636	788.35
998.932	789.26
999.227	781.12
999.523	770.73
999.818	777.28
1000.114	760.79
1000.409	756.72
1000.704	777.96
1001	768.02
1001.295	775.7
1001.59	756.94
1001.885	752.42
1002.18	749.49
1002.475	756.72
1002.77	761.24
1003.065	740.9
1003.359	730.73
1003.654	736.15
1003.949	734.35
1004.243	724.18
1004.538	750.84
1004.832	723.05
1005.127	725.08
1005.421	725.31
1005.715	701.58
1006.009	717.4
1006.304	715.81
1006.598	718.75
1006.892	693.89
1007.186	687.79
1007.48	707.45
1007.773	694.35
1008.067	692.31
1008.361	695.93
1008.655	690.28
1008.948	667.91
1009.242	704.52
1009.535	669.04
1009.829	654.8
1010.122	661.13
1010.415	654.35
1010.708	677.4
1011.001	647.57
1011.295	688.92
1011.588	652.77
1011.881	666.55
1012.173	675.59
1012.466	664.52
1012.759	650.05
1013.052	650.96
1013.344	633.33
1013.637	652.77
1013.93	650.05
1014.222	655.48
1014.514	637.4
1014.807	638.98
1015.099	633.33
1015.391	631.97
1015.683	638.3
1015.976	627.46
1016.268	640.11
1016.56	630.62
1016.851	615.93
1017.143	636.95
1017.435	617.96
1017.727	617.74
1018.018	609.15
1018.31	625.65
1018.602	612.77
1018.893	588.59
1019.185	618.19
1019.476	587
1019.767	599.89
1020.058	611.64
1020.35	627
1020.641	595.37
1020.932	594.46
1021.223	613.67
1021.514	604.86
1021.804	617.51
1022.095	586.1
1022.386	591.3
1022.677	600.34
1022.967	585.42
1023.258	595.14
1023.548	590.85
1023.839	601.69
1024.129	580.45
1024.419	568.47
1024.709	570.96
1025	580.9
1025.29	546.33
1025.58	547.68
1025.87	568.25
1026.16	539.77
1026.449	563.5
1026.739	553.11
1027.029	555.14
1027.319	542.03
1027.608	556.27
1027.898	509.04
1028.187	527.12
1028.477	513.11
1028.766	530.73
1029.055	542.49
1029.344	525.09
1029.634	514.24
1029.923	509.04
1030.212	520.34
1030.501	521.02
1030.79	513.79
1031.078	504.07
1031.367	511.75
1031.656	491.41
1031.945	517.85
1032.233	505.88
1032.522	505.65
1032.81	516.72
1033.099	506.1
1033.387	486.44
1033.675	502.03
1033.963	494.58
1034.251	494.58
1034.54	495.03
1034.828	501.58
1035.116	498.65
1035.403	489.15
1035.691	499.77
1035.979	474.46
1036.267	505.42
1036.554	488.48
1036.842	492.32
1037.129	484.41
1037.417	489.15
1037.704	490.28
1037.992	482.6
1038.279	495.26
1038.566	465.2
1038.853	465.2
1039.14	465.2
