Data from foam_black_FLMS001491_00029.txt Node
Date: Wed Feb 08 10:43:40 GMT 2017
User: dcchb
Spectrometer: FLMS00149
Trigger mode: 0
Integration Time (sec): 2.000000E-2
Scans to average: 10
Electric dark correction enabled: true
Nonlinearity correction enabled: false
Boxcar width: 0
XAxis mode: Wavelengths
Number of Pixels in Spectrum: 2048
>>>>>Begin Spectral Data<<<<<
341.393	-22.92
341.776	-22.92
342.16	-22.92
342.543	-75.58
342.927	-54.11
343.31	-55.01
343.693	-80.77
344.077	-60.89
344.46	-73.54
344.843	-70.15
345.226	-36.03
345.61	-22.92
345.993	-20.89
346.376	7.81
346.759	1.71
347.142	36.74
347.525	39.45
347.908	65.89
348.291	76.28
348.674	94.14
349.057	98.2
349.44	124.87
349.823	137.98
350.206	135.94
350.588	191.76
350.971	198.99
351.354	220.46
351.737	198.99
352.119	238.31
352.502	251.19
352.884	253
353.267	270.85
353.65	290.97
354.032	262.95
354.414	291.87
354.797	280.57
355.179	318.76
355.562	316.5
355.944	317.63
356.326	322.15
356.709	322.83
357.091	328.03
357.473	311.53
357.855	322.38
358.238	315.83
358.62	338.65
359.002	351.08
359.384	350.17
359.766	320.8
360.148	351.53
360.53	334.36
360.912	315.37
361.294	335.94
361.676	304.07
362.057	328.03
362.439	331.19
362.821	318.31
363.203	323.06
363.584	334.58
363.966	347.69
364.348	304.53
364.729	322.83
365.111	303.62
365.493	311.31
365.874	299.33
366.256	333.45
366.637	307.69
367.019	310.85
367.4	307.92
367.781	331.64
368.163	312.89
368.544	321.25
368.925	315.37
369.306	317.18
369.688	318.31
370.069	309.5
370.45	325.32
370.831	292.55
371.212	332.77
371.593	314.02
371.974	322.83
372.355	296.39
372.736	342.04
373.117	336.62
373.498	325.99
373.879	312.66
374.26	334.81
374.641	323.96
375.021	299.55
375.402	316.95
375.783	346.78
376.163	339.78
376.544	334.13
376.925	318.76
377.305	342.49
377.686	332.32
378.066	326.45
378.447	329.84
378.827	343.85
379.208	295.94
379.588	322.38
379.968	317.63
380.349	333.9
380.729	349.5
381.109	355.15
381.489	339.1
381.87	324.64
382.25	335.71
382.63	340.68
383.01	363.51
383.39	365.09
383.77	361.25
384.15	360.34
384.53	377.29
384.91	375.48
385.29	365.99
385.67	369.16
386.049	373.68
386.429	370.06
386.809	370.06
387.189	386.56
387.568	379.33
387.948	378.42
388.328	390.4
388.707	363.28
389.087	377.29
389.466	386.78
389.846	384.75
390.225	379.55
390.605	391.76
390.984	401.02
391.363	402.15
391.743	395.82
392.122	397.4
392.501	373.22
392.881	406.67
393.26	404.18
393.639	406.9
394.018	402.6
394.397	400.79
394.776	413.9
395.155	426.56
395.534	405.99
395.913	427.23
396.292	424.07
396.671	433.11
397.05	440.79
397.429	450.74
397.808	420.68
398.186	432.66
398.565	446.44
398.944	436.5
399.323	438.31
399.701	444.64
400.08	440.12
400.458	441.47
400.837	468.59
401.215	436.95
401.594	461.36
401.972	475.14
402.351	458.19
402.729	470.17
403.107	474.24
403.486	449.61
403.864	462.94
404.242	475.59
404.62	471.08
404.999	455.03
405.377	485.31
405.755	485.76
406.133	506.78
406.511	503.84
406.889	509.04
407.267	482.6
407.645	498.19
408.023	472.21
408.401	489.83
408.779	516.5
409.156	514.24
409.534	516.05
409.912	517.4
410.29	529.38
410.667	545.88
411.045	509.49
411.422	521.02
411.8	515.59
412.178	537.74
412.555	540.9
412.933	543.84
413.31	570.06
413.687	568.7
414.065	565.54
414.442	580.45
414.819	554.46
415.197	593.56
415.574	582.26
415.951	573.67
416.328	570.06
416.705	624.07
417.082	567.8
417.46	600.11
417.837	612.31
418.214	619.55
418.591	620.22
418.967	610.05
419.344	621.13
419.721	625.2
420.098	635.36
420.475	627.46
420.852	630.39
421.228	632.43
421.605	627.46
421.982	664.52
422.358	656.61
422.735	672.43
423.111	655.93
423.488	660.22
423.864	674.23
424.241	680.79
424.617	692.31
424.994	684.85
425.37	704.06
425.746	687.11
426.123	707.68
426.499	688.92
426.875	691.63
427.251	707.68
427.627	702.03
428.003	729.83
428.379	721.24
428.756	737.51
429.132	753.55
429.507	737.28
429.883	728.92
430.259	778.41
430.635	754.46
431.011	762.59
431.387	783.61
431.763	816.15
432.138	809.82
432.514	807.56
432.89	830.61
433.265	822.7
433.641	836.72
434.016	847.56
434.392	862.03
434.767	871.06
435.143	864.96
435.518	847.79
435.894	884.85
436.269	869.26
436.644	905.64
437.02	894.11
437.395	897.28
437.77	914.45
438.145	938.63
438.52	946.77
438.895	919.65
439.271	946.09
439.646	971.85
440.021	975.92
440.395	969.59
440.77	945.86
441.145	959.42
441.52	974.11
441.895	965.53
442.27	986.32
442.645	995.13
443.019	1007.78
443.394	1020.21
443.769	1003.04
444.143	1032.87
444.518	1016.6
444.892	1028.12
445.267	1029.25
445.641	1040.78
446.016	1026.99
446.39	1036.48
446.764	1041.91
447.139	1010.27
447.513	1062.25
447.887	1081.68
448.262	1088.01
448.636	1076.03
449.01	1104.28
449.384	1096.6
449.758	1099.53
450.132	1104.28
450.506	1119.19
450.88	1103.83
451.254	1114.22
451.628	1117.61
452.002	1149.02
452.376	1145.86
452.75	1172.3
453.123	1163.49
453.497	1184.5
453.871	1181.56
454.244	1232.19
454.618	1220.21
454.992	1228.57
455.365	1236.03
455.739	1226.99
456.112	1272.64
456.486	1288.91
456.859	1310.83
457.232	1294.78
457.606	1303.37
457.979	1325.97
458.352	1353.09
458.725	1336.82
459.099	1384.05
459.472	1373.88
459.845	1400.32
460.218	1381.56
460.591	1398.73
460.964	1399.19
461.337	1441.22
461.71	1460.43
462.083	1456.36
462.456	1477.83
462.829	1498.17
463.201	1511.73
463.574	1512.86
463.947	1538.39
464.32	1568.45
464.692	1565.96
465.065	1625.85
465.438	1596.7
465.81	1627.43
466.183	1638.95
466.555	1639.18
466.928	1694.32
467.3	1655.68
467.672	1703.36
468.045	1738.39
468.417	1730.7
468.789	1763.92
469.161	1783.13
469.534	1789.23
469.906	1841.89
470.278	1834.66
470.65	1871.49
471.022	1903.35
471.394	1918.27
471.766	1940.42
472.138	1940.19
472.51	1975.67
472.882	2000.53
473.253	2004.59
473.625	2043.01
473.997	2094.31
474.369	2108.77
474.74	2120.52
475.112	2147.64
475.484	2171.6
475.855	2231.71
476.227	2227.87
476.598	2296.34
476.97	2332.04
477.341	2357.81
477.713	2379.27
478.084	2397.35
478.455	2484.36
478.827	2481.64
479.198	2523.68
479.569	2547.18
479.94	2611.58
480.311	2662.2
480.682	2713.5
481.053	2714.86
481.424	2801.41
481.795	2792.6
482.166	2848.87
482.537	2875.08
482.908	2956.89
483.279	2921.86
483.65	3038.92
484.021	3076.43
484.391	3063.55
484.762	3085.02
485.133	3120.72
485.503	3200.95
485.874	3266.93
486.244	3270.1
486.615	3354.84
486.985	3351.45
487.356	3412.92
487.726	3428.96
488.097	3506.02
488.467	3527.27
488.837	3571.33
489.207	3574.27
489.578	3653.14
489.948	3683.42
490.318	3752.34
490.688	3745.34
491.058	3818.78
491.428	3883.87
491.798	3863.53
492.168	3937.65
492.538	3994.15
492.908	3979.01
493.278	4048.16
493.648	4089.29
494.017	4118.89
494.387	4168.61
494.757	4201.6
495.126	4241.6
495.496	4280.01
495.866	4293.12
496.235	4317.08
496.605	4350.07
496.974	4344.19
497.344	4429.62
497.713	4482.72
498.082	4477.52
498.452	4508.26
498.821	4550.29
499.19	4552.78
499.559	4604.07
499.928	4634.13
500.298	4637.97
500.667	4690.4
501.036	4718.2
501.405	4739.89
501.774	4755.71
502.143	4816.72
502.512	4814.92
502.88	4838.42
503.249	4854.69
503.618	4884.97
503.987	4884.52
504.356	4941.24
504.724	5006.78
505.093	5032.99
505.462	5018.98
505.83	5056.72
506.199	5112.08
506.567	5209.26
506.936	5128.58
507.304	5212.19
507.672	5238.18
508.041	5353.21
508.409	5378.52
508.777	5393.21
509.145	5422.58
509.514	5413.77
509.882	5487.44
510.25	5472.3
510.618	5526.54
510.986	5580.77
511.354	5555.01
511.722	5650.83
512.09	5689.7
512.458	5655.12
512.826	5696.7
513.193	5762.69
513.561	5769.69
513.929	5759.07
514.297	5824.38
514.664	5897.15
515.032	5929.24
515.4	5984.15
515.767	6006.97
516.135	6083.36
516.502	6068.89
516.869	6146.18
517.237	6232.28
517.604	6211.26
517.972	6253.52
518.339	6352.73
518.706	6380.07
519.073	6435.21
519.44	6476.12
519.808	6518.15
520.175	6557.02
520.542	6586.17
520.909	6665.71
521.276	6715.43
521.643	6765.6
522.009	6746.39
522.376	6802.66
522.743	6828.65
523.11	6858.25
523.477	6969.44
523.843	6918.59
524.21	7020.28
524.577	7113.16
524.943	7165.36
525.31	7120.39
525.676	7207.4
526.043	7280.39
526.409	7213.04
526.776	7426.37
527.142	7504.79
527.508	7550.44
527.874	7574.17
528.241	7653.71
528.607	7673.6
528.973	7725.57
529.339	7763.54
529.705	7872.24
530.071	7931.22
530.437	7965.79
530.803	8022.06
531.169	8105.22
531.535	8054.83
531.901	8121.27
532.267	8173.47
532.632	8228.84
532.998	8206.24
533.364	8299.57
533.73	8293.69
534.095	8282.85
534.461	8411.88
534.826	8360.59
535.192	8358.78
535.557	8454.14
535.923	8430.87
536.288	8464.99
536.653	8516.06
537.019	8542.05
537.384	8580.01
537.749	8565.33
538.114	8679.45
538.479	8653.01
538.845	8757.41
539.21	8787.47
539.575	8825.88
539.94	8913.79
540.305	9014.35
540.67	9020.68
541.034	8976.39
541.399	9073.56
541.764	9132.09
542.129	9143.84
542.494	9154.69
542.858	9167.57
543.223	9233.1
543.587	9274.46
543.952	9247.34
544.316	9313.1
544.681	9289.15
545.045	9318.53
545.41	9358.53
545.774	9385.87
546.138	9425.19
546.503	9400.11
546.867	9398.98
547.231	9503.83
547.595	9511.29
547.959	9554.45
548.324	9588.8
548.688	9586.54
549.052	9713.77
549.416	9718.52
549.779	9717.39
550.143	9744.96
550.507	9862.47
550.871	9922.58
551.235	9855.69
551.599	10071.05
551.962	10014.78
552.326	10101.33
552.689	10199.63
553.053	10120.54
553.417	10217.71
553.78	10315.11
554.143	10298.39
554.507	10371.15
554.87	10324.15
555.234	10451.15
555.597	10366.63
555.96	10423.13
556.323	10517.14
556.686	10496.57
557.05	10530.02
557.413	10609.34
557.776	10592.84
558.139	10680.3
558.502	10729.34
558.865	10734.53
559.228	10839.84
559.59	10897.92
559.953	10868.77
560.316	10994.19
560.679	11033.96
561.041	11110.12
561.404	11251.36
561.767	11285.71
562.129	11262.2
562.492	11373.39
562.854	11407.96
563.217	11365.03
563.579	11477.57
563.941	11532.25
564.304	11636.21
564.666	11738.58
565.028	11767.95
565.39	11862.64
565.753	11807.95
566.115	11938.34
566.477	12009.75
566.839	11989.42
567.201	12101.73
567.563	12134.72
567.925	12125.23
568.287	12200.48
568.648	12194.38
569.01	12291.1
569.372	12376.98
569.734	12320.93
570.095	12384.43
570.457	12477.31
570.819	12586.91
571.18	12462.17
571.542	12589.63
571.903	12580.36
572.265	12614.26
572.626	12696.74
572.987	12766.35
573.349	12810.41
573.71	12835.5
574.071	12856.96
574.432	12911.88
574.794	13084.08
575.155	13030.74
575.516	13022.61
575.877	13102.61
576.238	13012.67
576.599	13157.07
576.96	13111.42
577.32	13164.53
577.681	13210.85
578.042	13235.49
578.403	13225.77
578.763	13248.59
579.124	13213.11
579.485	13299.66
579.845	13306.44
580.206	13429.38
580.566	13369.04
580.927	13497.17
581.287	13444.97
581.648	13467.12
582.008	13507.57
582.368	13578.53
582.728	13596.38
583.089	13577.17
583.449	13545.76
583.809	13536.27
584.169	13644.29
584.529	13523.39
584.889	13657.17
585.249	13634.8
585.609	13510.51
585.969	13611.97
586.329	13553.67
586.688	13579.88
587.048	13516.61
587.408	13584.4
587.768	13601.8
588.127	13591.18
588.487	13524.74
588.846	13611.75
589.206	13547.79
589.565	13475.25
589.925	13587.79
590.284	13527.91
590.643	13558.41
591.003	13646.55
591.362	13651.75
591.721	13557.06
592.08	13689.26
592.44	13732.65
592.799	13714.12
593.158	13729.26
593.517	13674.8
593.876	13774.91
594.235	13822.59
594.593	13835.7
594.952	13877.95
595.311	13740.56
595.67	13784.62
596.029	13946.65
596.387	13938.07
596.746	14018.52
597.104	13932.64
597.463	13924.28
597.822	14017.16
598.18	14008.57
598.538	13967.9
598.897	14023.04
599.255	13941.23
599.613	14155.91
599.972	14034.11
600.33	13946.2
600.688	13989.36
601.046	14034.11
601.404	14096.71
601.762	13924.28
602.12	14005.63
602.478	13967.9
602.836	13939.87
603.194	13819.88
603.552	13882.47
603.91	13933.55
604.268	13973.77
604.625	13888.58
604.983	14000.44
605.341	13952.75
605.698	14003.6
606.056	14112.07
606.413	14024.17
606.771	14125.18
607.128	14067.78
607.485	14016.26
607.843	14164.73
608.2	14270.26
608.557	14237.04
608.914	14261.67
609.272	14480.42
609.629	14413.99
609.986	14476.81
610.343	14485.85
610.7	14544.83
611.057	14464.61
611.414	14523.81
611.771	14548.22
612.127	14577.82
612.484	14597.71
612.841	14643.13
613.198	14487.43
613.554	14490.14
613.911	14540.54
614.267	14470.03
614.624	14508.45
614.98	14528.33
615.337	14580.53
615.693	14621.66
616.05	14550.03
616.406	14571.95
616.762	14514.55
617.118	14534.21
617.475	14481.1
617.831	14550.93
618.187	14606.07
618.543	14651.04
618.899	14626.41
619.255	14642.68
619.611	14581.44
619.967	14688.55
620.323	14794.31
620.678	14686.07
621.034	14684.26
621.39	14734.88
621.746	14726.75
622.101	14943.91
622.457	14800.19
622.812	14804.94
623.168	14966.51
623.523	14952.05
623.879	14968.55
624.234	14897.59
624.589	15031.82
624.945	14877.25
625.3	15037.7
625.655	15083.12
626.01	15067.08
626.365	14943.24
626.72	15029.56
627.075	14964.93
627.43	15061.2
627.785	14959.28
628.14	14945.72
628.495	14936.68
628.85	14953.41
629.205	14862.11
629.559	15013.29
629.914	14813.3
630.269	14780.3
630.623	14786.86
630.978	14685.62
631.332	14817.59
631.687	14716.35
632.041	14627.09
632.396	14639.74
632.75	14580.76
633.104	14630.02
633.459	14515.45
633.813	14605.62
634.167	14447.88
634.521	14485.62
634.875	14564.04
635.229	14483.14
635.583	14503.7
635.937	14463.93
636.291	14364.95
636.645	14354.33
636.999	14404.49
637.352	14555.68
637.706	14356.13
638.06	14420.76
638.413	14428.45
638.767	14327.43
639.121	14430.93
639.474	14371.05
639.828	14338.73
640.181	14442.23
640.534	14365.63
640.888	14312.07
641.241	14359.75
641.594	14410.82
641.947	14364.27
642.301	14325.4
642.654	14334.89
643.007	14281.56
643.36	14294.67
643.713	14303.93
644.066	14360.43
644.419	14228.91
644.771	14096.03
645.124	13914.11
645.477	13889.25
645.83	13755.92
646.182	13744.85
646.535	13888.58
646.888	13815.36
647.24	13859.42
647.593	13849.93
647.945	13863.49
648.298	13738.75
648.65	13778.97
649.002	13718.64
649.355	13741.91
649.707	13679.32
650.059	13712.53
650.411	13810.61
650.763	13821.46
651.115	13955.69
651.467	13932.42
651.819	13912.98
652.171	13927.44
652.523	13887.9
652.875	13779.65
653.227	13728.58
653.578	13936.94
653.93	13879.99
654.282	13770.61
654.633	13760.67
654.985	13713.66
655.337	13779.65
655.688	13791.85
656.039	13759.99
656.391	13675.02
656.742	13721.35
657.094	13721.57
657.445	13743.95
657.796	13747.56
658.147	13689.03
658.498	13701.91
658.849	13749.6
659.2	13727.68
659.551	13709.6
659.902	13742.59
660.253	13727.68
660.604	13681.8
660.955	13664.17
661.306	13670.73
661.656	13678.19
662.007	13685.87
662.358	13671.86
662.708	13813.78
663.059	13688.13
663.409	13653.78
663.76	13766.54
664.11	13753.44
664.461	13754.12
664.811	13705.76
665.161	13662.14
665.511	13667.79
665.862	13669.6
666.212	13696.72
666.562	13749.37
666.912	13736.26
667.262	13638.86
667.612	13610.62
667.962	13667.79
668.312	13588.47
668.662	13588.47
669.011	13618.98
669.361	13553.44
669.711	13580.56
670.06	13633.21
670.41	13541.24
670.76	13430.51
671.109	13532.2
671.459	13541.01
671.808	13434.35
672.157	13440
672.507	13425.31
672.856	13420.11
673.205	13434.12
673.554	13401.13
673.904	13425.76
674.253	13533.78
674.602	13310.51
674.951	13132.21
675.3	13080.69
675.649	13300.57
675.998	13298.31
676.346	13341.92
676.695	13308.48
677.044	13238.65
677.393	13296.05
677.741	13309.61
678.09	13336.5
678.438	13158.88
678.787	13242.26
679.135	13285.65
679.484	13180.8
679.832	13313
680.181	13238.42
680.529	13216.95
680.877	13256.95
681.225	13154.13
681.573	13213.34
681.922	13159.1
682.27	13160.46
682.618	13120.69
682.966	13135.15
683.314	13204.53
683.661	13172.21
684.009	13102.38
684.357	13019.9
684.705	13046.79
685.053	13094.92
685.4	13122.04
685.748	12913.23
686.095	13004.08
686.443	12888.6
686.79	12873.46
687.138	12848.15
687.485	12845.44
687.832	12796.17
688.18	12833.01
688.527	12764.76
688.874	12792.11
689.221	12659.46
689.568	12618.55
689.915	12618.78
690.262	12560.02
690.609	12551.89
690.956	12500.59
691.303	12555.05
691.65	12443.19
691.997	12388.95
692.344	12357.32
692.69	12364.55
693.037	12315.96
693.383	12289.52
693.73	12333.14
694.077	12218.56
694.423	12158.68
694.769	12220.6
695.116	12110.09
695.462	12165.91
695.808	12047.27
696.155	12078.45
696.501	11968.4
696.847	11978.8
697.193	11927.5
697.539	12006.14
697.885	11925.46
698.231	11917.55
698.577	11954.62
698.923	11930.43
699.269	11833.04
699.614	11759.14
699.96	11751.68
700.306	11738.35
700.651	11800.95
700.997	11669.2
701.342	11697.9
701.688	11574.96
702.033	11604.79
702.379	11591.46
702.724	11567.51
703.069	11506.04
703.415	11415.42
703.76	11484.8
704.105	11421.97
704.45	11418.58
704.795	11285.03
705.14	11295.65
705.485	11279.6
705.83	11241.64
706.175	11274.18
706.52	11216.78
706.865	11182.43
707.209	11166.84
707.554	11115.77
707.899	11125.71
708.243	11069.21
708.588	10983.79
708.932	11004.58
709.277	10963.68
709.621	11018.14
709.966	10916.9
710.31	10916
710.654	10839.62
710.998	10830.12
711.342	10874.19
711.687	10840.29
712.031	10787.41
712.375	10707.87
712.719	10746.06
713.063	10755.1
713.407	10786.51
713.75	10722.56
714.094	10656.34
714.438	10682.11
714.782	10714.42
715.125	10607.31
715.469	10657.47
715.812	10595.33
716.156	10631.49
716.499	10567.76
716.843	10546.29
717.186	10547.42
717.53	10518.95
717.873	10530.47
718.216	10533.41
718.559	10518.49
718.902	10413.41
719.246	10332.51
719.589	10411.15
719.932	10382.9
720.275	10371.38
720.617	10372.74
720.96	10348.56
721.303	10313.75
721.646	10375.45
721.989	10311.49
722.331	10311.95
722.674	10285.05
723.016	10210.03
723.359	10256.58
723.701	10234.43
724.044	10113.31
724.386	10126.41
724.729	10137.49
725.071	10137.49
725.413	10095.91
725.755	10092.74
726.097	10050.71
726.439	9979.75
726.782	9989.92
727.124	10008.9
727.465	9993.08
727.807	10031.28
728.149	9973.88
728.491	9888.91
728.833	9940.66
729.175	9884.84
729.516	9891.17
729.858	9863.14
730.199	9841
730.541	9786.08
730.882	9822.69
731.224	9858.17
731.565	9810.72
731.906	9845.97
732.248	9828.12
732.589	9767.1
732.93	9704.73
733.271	9704.5
733.612	9755.12
733.953	9718.97
734.294	9765.75
734.635	9690.27
734.976	9704.28
735.317	9679.87
735.658	9658.63
735.999	9641.46
736.339	9635.58
736.68	9678.29
737.021	9646.65
737.361	9605.3
737.702	9676.93
738.042	9621.12
738.383	9579.99
738.723	9646.65
739.063	9560.55
739.404	9558.75
739.744	9594
740.084	9516.26
740.424	9523.04
740.764	9449.37
741.104	9512.65
741.444	9415.02
741.784	9374.8
742.124	9434.46
742.464	9470.61
742.804	9396.72
743.143	9404.85
743.483	9438.75
743.823	9338.86
744.162	9305.65
744.502	9349.03
744.841	9286.44
745.181	9300.45
745.52	9290.28
745.86	9267
746.199	9354.23
746.538	9220.9
746.877	9218.64
747.216	9212.99
747.556	9174.35
747.895	9239.43
748.234	9191.98
748.573	9124.63
748.911	9140.45
749.25	9113.33
749.589	9114.24
749.928	9091.64
750.267	9107.68
750.605	9102.71
750.944	9031.75
751.283	9033.34
751.621	9047.57
751.96	9035.82
752.298	8946.56
752.636	9061.13
752.975	8914.02
753.313	8910.85
753.651	8941.59
753.989	8870.4
754.327	8834.02
754.666	8784.08
755.004	8844.87
755.342	8810.06
755.679	8760.57
756.017	8665.44
756.355	8722.84
756.693	8664.08
757.031	8751.76
757.368	8617.98
757.706	8583.86
758.044	8606.91
758.381	8556.74
758.719	8579.79
759.056	8582.27
759.394	8502.28
759.731	8512.22
760.068	8485.55
760.405	8455.95
760.743	8417.31
761.08	8474.03
761.417	8367.82
761.754	8373.92
762.091	8321.72
762.428	8319.46
762.765	8307.48
763.102	8325.11
763.438	8246.01
763.775	8189.97
764.112	8254.37
764.449	8244.66
764.785	8143.87
765.122	8169.4
765.458	8149.07
765.795	8150.42
766.131	8106.81
766.467	8088.5
766.804	8074.94
767.14	8115.62
767.476	8050.31
767.812	8057.32
768.148	8049.41
768.485	7900.48
768.821	7965.34
769.157	7914.27
769.492	7898.45
769.828	7887.6
770.164	7841.5
770.5	7794.27
770.836	7763.54
771.171	7720.38
771.507	7754.95
771.842	7691.9
772.178	7718.57
772.513	7648.51
772.849	7689.87
773.184	7600.38
773.519	7582.3
773.855	7521.96
774.19	7571.23
774.525	7541.62
774.86	7462.53
775.195	7473.6
775.53	7416.43
775.865	7424.56
776.2	7329.65
776.535	7297.79
776.87	7269.09
777.205	7193.84
777.539	7248.98
777.874	7259.6
778.209	7128.98
778.543	7166.27
778.878	7118.36
779.212	7079.26
779.547	7046.04
779.881	7011.92
780.215	7001.98
780.55	7035.42
780.884	6922.88
781.218	6936.89
781.552	6982.99
781.886	6879.27
782.22	6813.96
782.554	6833.62
782.888	6768.08
783.222	6697.13
783.556	6739.84
783.889	6641.31
784.223	6668.2
784.557	6722.21
784.89	6666.39
785.224	6600.86
785.557	6604.7
785.891	6590.01
786.224	6570.35
786.558	6539.39
786.891	6574.64
787.224	6513.85
787.557	6486.51
787.891	6495.32
788.224	6510.46
788.557	6493.29
788.89	6521.76
789.223	6481.31
789.556	6398.83
789.888	6414.42
790.221	6364.48
790.554	6359.28
790.887	6307.76
791.219	6329.45
791.552	6281.77
791.884	6242.45
792.217	6290.13
792.549	6257.82
792.882	6248.32
793.214	6193.64
793.546	6262.11
793.879	6154.99
794.211	6125.84
794.543	6164.71
794.875	6178.72
795.207	6134.66
795.539	6107.99
795.871	6126.75
796.203	6047.88
796.535	6054.21
796.867	6034.54
797.198	5983.25
797.53	5995.45
797.862	5981.44
798.193	5987.09
798.525	5887.88
798.856	5929.46
799.188	5881.1
799.519	5870.03
799.85	5785.51
800.182	5832.06
800.513	5837.71
800.844	5754.1
801.175	5784.38
801.506	5738.96
801.837	5722.01
802.168	5709.36
802.499	5723.82
802.83	5680.88
803.161	5676.59
803.491	5683.82
803.822	5690.15
804.153	5575.8
804.483	5526.08
804.814	5569.02
805.145	5501.9
805.475	5549.36
805.805	5476.37
806.136	5512.52
806.466	5496.48
806.796	5414.22
807.126	5430.94
807.457	5393.43
807.787	5405.63
808.117	5386.65
808.447	5360.89
808.777	5387.1
809.107	5347.11
809.436	5321.8
809.766	5305.3
810.096	5288.35
810.426	5298.97
810.755	5301.23
811.085	5263.27
811.414	5266.66
811.744	5240.89
812.073	5269.82
812.403	5204.96
812.732	5221.68
813.061	5236.37
813.39	5199.09
813.719	5189.37
814.049	5216.71
814.378	5222.59
814.707	5182.14
815.036	5145.98
815.365	5139.2
815.693	5111.63
816.022	5133.78
816.351	5115.47
816.68	5100.11
817.008	5099.88
817.337	5086.77
817.665	5039.99
817.994	5095.81
818.322	5120.9
818.651	5062.59
818.979	5079.77
819.307	5073.89
819.636	5048.58
819.964	5042.71
820.292	5047
820.62	5024.4
820.948	5011.07
821.276	5021.46
821.604	5001.35
821.932	4997.74
822.259	4996.15
822.587	4973.56
822.915	5010.84
823.243	5000
823.57	4983.5
823.898	4982.59
824.225	4956.61
824.553	4965.87
824.88	4993.22
825.207	4924.52
825.535	4925.65
825.862	4951.64
826.189	4983.05
826.516	4958.41
826.843	4957.06
827.17	4935.82
827.497	4922.48
827.824	4921.13
828.151	4948.47
828.478	4935.14
828.805	4927.23
829.131	4983.95
829.458	4936.72
829.785	4882.26
830.111	4928.13
830.438	4935.59
830.764	4897.4
831.09	4925.65
831.417	4908.25
831.743	4930.84
832.069	4949.6
832.395	4918.19
832.722	4937.17
833.048	4879.77
833.374	4880.45
833.7	4865.99
834.026	4852.2
834.351	4919.77
834.677	4903.05
835.003	4926.1
835.329	4851.75
835.654	4798.42
835.98	4833.45
836.306	4863.73
836.631	4837.97
836.956	4834.8
837.282	4867.34
837.607	4831.19
837.932	4810.85
838.258	4865.08
838.583	4779.21
838.908	4750.96
839.233	4799.77
839.558	4759.55
839.883	4733.34
840.208	4752.09
840.533	4771.53
840.858	4741.7
841.182	4746.89
841.507	4759.1
841.832	4713
842.156	4741.25
842.481	4761.13
842.805	4683.39
843.13	4714.81
843.454	4693.34
843.778	4672.09
844.103	4642.49
844.427	4668.7
844.751	4656.5
845.075	4654.69
845.399	4589.16
845.723	4566.11
846.047	4568.59
846.371	4586.67
846.695	4572.66
847.019	4546.22
847.343	4509.39
847.666	4491.31
847.99	4461.93
848.313	4467.81
848.637	4450.63
848.96	4461.93
849.284	4389.62
849.607	4397.3
849.931	4373.8
850.254	4381.48
850.577	4359.11
850.9	4317.98
851.223	4288.6
851.546	4342.61
851.869	4290.18
852.192	4312.1
852.515	4299.45
852.838	4205.44
853.161	4264.87
853.483	4268.94
853.806	4244.08
854.129	4193.92
854.451	4209.51
854.774	4209.96
855.096	4153.24
855.419	4140.36
855.741	4143.52
856.063	4142.17
856.385	4159.34
856.708	4143.07
857.03	4120.92
857.352	4088.83
857.674	4113.47
857.996	4058.78
858.318	4052.45
858.64	4067.36
858.961	4046.57
859.283	4058.1
859.605	4023.98
859.926	4017.2
860.248	4054.71
860.57	3957.99
860.891	3983.75
861.212	3979.91
861.534	4014.03
861.855	3948.95
862.176	4012.45
862.498	3995.28
862.819	3935.16
863.14	3939.01
863.461	3955.96
863.782	3976.29
864.103	3921.61
864.424	3921.61
864.745	3964.77
865.065	3915.5
865.386	3929.06
865.707	3871.44
866.027	3897.65
866.348	3886.13
866.668	3838.44
866.989	3835.28
867.309	3838.22
867.63	3867.82
867.95	3819.46
868.27	3845
868.59	3852.91
868.91	3836.64
869.23	3824.43
869.55	3777.2
869.87	3802.51
870.19	3770.88
870.51	3765.23
870.83	3781.5
871.15	3756.41
871.469	3734.49
871.789	3769.97
872.109	3764.55
872.428	3751.44
872.748	3746.02
873.067	3694.95
873.386	3684.78
873.706	3706.02
874.025	3663.08
874.344	3689.75
874.663	3660.82
874.982	3687.94
875.301	3703.76
875.62	3690.65
875.939	3625.12
876.258	3673.7
876.577	3662.86
876.896	3678.22
877.214	3699.01
877.533	3676.87
877.852	3651.56
878.17	3645
878.489	3619.69
878.807	3597.77
879.125	3642.74
879.444	3663.31
879.762	3650.88
880.08	3621.05
880.398	3617.66
880.716	3572.91
881.034	3591.9
881.352	3591.67
881.67	3629.18
881.988	3632.35
882.306	3591.22
882.624	3599.81
882.941	3574.95
883.259	3568.85
883.577	3540.37
883.894	3589.19
884.212	3556.87
884.529	3530.66
884.846	3508.96
885.164	3540.82
885.481	3505.57
885.798	3537.44
886.115	3512.58
886.432	3579.69
886.75	3523.65
887.067	3563.65
887.383	3511.67
887.7	3499.24
888.017	3468.06
888.334	3494.27
888.651	3505.57
888.967	3456.31
889.284	3454.73
889.6	3455.63
889.917	3433.94
890.233	3431.9
890.55	3446.36
890.866	3445.46
891.182	3454.5
891.498	3422.86
891.815	3389.87
892.131	3374.05
892.447	3343.32
892.763	3345.8
893.079	3340.6
893.395	3306.93
893.71	3295.86
894.026	3319.59
894.342	3292.7
894.657	3245.92
894.973	3257.44
895.289	3277.33
895.604	3237.33
895.92	3223.77
896.235	3243.43
896.55	3224.45
896.865	3211.79
897.181	3191.46
897.496	3203.21
897.811	3173.83
898.126	3139.25
898.441	3139.25
898.756	3101.74
899.071	3106.26
899.386	3055.64
899.7	3097.45
900.015	3050.22
900.33	3071.68
900.644	2996.66
900.959	3034.62
901.273	3018.35
901.588	3009.31
901.902	2990.78
902.216	2998.24
902.531	2994.62
902.845	2979.94
903.159	2913.72
903.473	2907.62
903.787	2928.41
904.101	2895.64
904.415	2884.8
904.729	2896.1
905.042	2898.58
905.356	2869.2
905.67	2847.06
905.984	2887.96
906.297	2878.47
906.611	2808.64
906.924	2840.05
907.237	2861.97
907.551	2806.16
907.864	2785.59
908.177	2770
908.491	2810.67
908.804	2784.91
909.117	2770.22
909.43	2751.69
909.743	2737.46
910.056	2770.9
910.368	2752.15
910.681	2729.32
910.994	2707.17
911.307	2718.25
911.619	2733.16
911.932	2721.86
912.244	2682.54
912.557	2683.9
912.869	2718.7
913.181	2683.45
913.494	2671.92
913.806	2691.81
914.118	2651.36
914.43	2679.83
914.742	2611.58
915.054	2582.66
915.366	2629.44
915.678	2617.46
915.99	2640.06
916.302	2584.92
916.613	2587.86
916.925	2616.1
917.236	2584.24
917.548	2604.58
917.859	2586.95
918.171	2528.65
918.482	2548.76
918.794	2511.25
919.105	2544.92
919.416	2509.21
919.727	2497.01
920.038	2503.79
920.349	2503.11
920.66	2487.75
920.971	2484.36
921.282	2480.06
921.593	2472.38
921.903	2495.65
922.214	2416.79
922.525	2464.02
922.835	2429.22
923.146	2409.56
923.456	2382.89
923.767	2433.74
924.077	2382.44
924.387	2364.13
924.697	2375.66
925.008	2327.98
925.318	2360.74
925.628	2365.71
925.938	2364.13
926.248	2317.35
926.558	2299.73
926.867	2342.89
927.177	2308.32
927.487	2285.72
927.796	2264.25
928.106	2253.4
928.416	2262.89
928.725	2229
929.034	2221.31
929.344	2212.95
929.653	2188.77
929.962	2190.13
930.271	2170.92
930.581	2141.77
930.89	2151.71
931.199	2146.06
931.508	2118.04
931.817	2125.72
932.125	2115.78
932.434	2101.99
932.743	2100.64
933.051	2089.34
933.36	2080.75
933.669	2032.39
933.977	2058.6
934.286	2022.9
934.594	2047.3
934.902	2018.15
935.21	2016.8
935.519	2018.38
935.827	2014.76
936.135	1995.1
936.443	1956.91
936.751	1969.11
937.059	1974.54
937.367	1946.97
937.674	1944.26
937.982	1972.28
938.29	1939.96
938.597	1950.81
938.905	1911.72
939.213	1916.46
939.52	1948.1
939.827	1908.78
940.135	1908.55
940.442	1901.32
940.749	1896.35
941.056	1899.96
941.363	1867.87
941.67	1847.31
941.977	1866.74
942.284	1861.1
942.591	1848.21
942.898	1860.64
943.205	1854.32
943.511	1827.2
943.818	1830.14
944.125	1859.29
944.431	1833.53
944.738	1805.05
945.044	1828.78
945.35	1836.01
945.657	1807.31
945.963	1781.1
946.269	1816.35
946.575	1791.27
946.881	1780.42
947.187	1749.23
947.493	1747.43
947.799	1754.88
948.105	1740.87
948.41	1759.18
948.716	1736.13
949.022	1728.67
949.327	1745.39
949.633	1727.54
949.938	1746.3
950.244	1741.55
950.549	1720.31
950.854	1709.23
951.16	1721.89
951.465	1706.75
951.77	1697.26
952.075	1699.97
952.38	1702.46
952.685	1651.16
952.99	1669.24
953.294	1662
953.599	1660.65
953.904	1649.8
954.209	1642.8
954.513	1636.69
954.818	1626.3
955.122	1631.5
955.426	1665.17
955.731	1640.99
956.035	1610.03
956.339	1591.72
956.643	1577.26
956.948	1592.4
957.252	1582.68
957.556	1582.68
957.86	1563.93
958.163	1565.96
958.467	1552.18
958.771	1541.33
959.075	1557.15
959.378	1546.08
959.682	1560.99
959.985	1511.05
960.289	1521.67
960.592	1496.36
960.896	1488.9
961.199	1489.58
961.502	1485.06
961.805	1518.05
962.108	1478.73
962.411	1459.98
962.714	1456.81
963.017	1465.4
963.32	1466.98
963.623	1430.82
963.926	1434.89
964.228	1416.81
964.531	1443.03
964.833	1432.18
965.136	1384.05
965.438	1390.6
965.741	1405.29
966.043	1392.18
966.345	1363.26
966.648	1376.59
966.95	1361.22
967.252	1361.22
967.554	1380.66
967.856	1355.8
968.158	1344.05
968.46	1329.81
968.761	1353.54
969.063	1335.69
969.365	1318.06
969.666	1337.04
969.968	1313.99
970.269	1272.41
970.571	1322.13
970.872	1285.74
971.174	1281.68
971.475	1301.11
971.776	1304.95
972.077	1274.9
972.378	1274.67
972.679	1302.47
972.98	1266.53
973.281	1258.85
973.582	1241.22
973.883	1250.26
974.183	1247.78
974.484	1231.96
974.785	1248.68
975.085	1229.47
975.386	1259.08
975.686	1257.5
975.986	1235.12
976.287	1258.4
976.587	1234.67
976.887	1242.35
977.187	1234.22
977.487	1217.27
977.787	1205.97
978.087	1177.05
978.387	1213.65
978.687	1226.08
978.987	1171.62
979.286	1189.7
979.586	1223.15
979.885	1206.2
980.185	1190.6
980.484	1183.15
980.784	1171.17
981.083	1169.36
981.382	1177.5
981.682	1176.59
981.981	1172.3
982.28	1159.87
982.579	1171.62
982.878	1163.94
983.177	1180.66
983.475	1175.46
983.774	1149.93
984.073	1148.12
984.372	1134.56
984.67	1114.22
984.969	1125.3
985.267	1123.71
985.566	1118.97
985.864	1125.3
986.162	1102.47
986.461	1121
986.759	1113.54
987.057	1099.76
987.355	1104.28
987.653	1118.52
987.951	1083.49
988.249	1096.82
988.547	1087.1
988.844	1081
989.142	1079.65
989.44	1073.55
989.737	1060.21
990.035	1030.61
990.332	1071.51
990.63	1032.64
990.927	1037.84
991.224	1036.26
991.521	1058.63
991.819	1020.89
992.116	1051.85
992.413	1043.04
992.71	1021.34
993.006	1033.32
993.303	1010.04
993.6	1027.67
993.897	1028.12
994.193	1005.98
994.49	993.77
994.787	997.16
995.083	984.06
995.379	978.63
995.676	997.39
995.972	964.85
996.268	957.62
996.565	983.15
996.861	985.41
997.157	971.63
997.453	951.74
997.749	942.25
998.044	946.99
998.34	951.51
998.636	945.64
998.932	939.76
999.227	914.23
999.523	939.09
999.818	929.59
1000.114	936.83
1000.409	920.33
1000.704	928.69
1001	892.08
1001.295	871.06
1001.59	901.35
1001.885	898.63
1002.18	885.98
1002.475	879.65
1002.77	872.87
1003.065	878.75
1003.359	875.58
1003.654	865.42
1003.949	869.26
1004.243	863.38
1004.538	841.23
1004.832	853.89
1005.127	846.21
1005.421	845.98
1005.715	812.31
1006.009	841.69
1006.304	827.68
1006.598	831.97
1006.892	838.07
1007.186	832.87
1007.48	837.39
1007.773	814.34
1008.067	815.92
1008.361	826.32
1008.655	799.88
1008.948	825.19
1009.242	803.95
1009.535	820.22
1009.829	804.4
1010.122	801.01
1010.415	804.85
1010.708	804.85
1011.001	765.3
1011.295	798.07
1011.588	791.74
1011.881	753.1
1012.173	779.09
1012.466	791.29
1012.759	789.71
1013.052	739.99
1013.344	763.27
1013.637	739.09
1013.93	733.89
1014.222	763.04
1014.514	732.76
1014.807	740.45
1015.099	744.74
1015.391	722.37
1015.683	746.77
1015.976	737.06
1016.268	730.28
1016.56	750.84
1016.851	732.09
1017.143	742.93
1017.435	733.44
1017.727	729.83
1018.018	701.35
1018.31	723.5
1018.602	695.02
1018.893	692.76
1019.185	699.09
1019.476	668.13
1019.767	667.45
1020.058	699.09
1020.35	716.04
1020.641	692.99
1020.932	693.22
1021.223	698.41
1021.514	669.94
1021.804	657.06
1022.095	666.55
1022.386	675.14
1022.677	654.57
1022.967	667.45
1023.258	647.57
1023.548	638.08
1023.839	653.22
1024.129	641.24
1024.419	637.62
1024.709	636.72
1025	633.56
1025.29	640.34
1025.58	653.9
1025.87	613.44
1026.16	651.18
1026.449	631.3
1026.739	605.53
1027.029	641.01
1027.319	623.16
1027.608	619.55
1027.898	589.72
1028.187	640.34
1028.477	594.46
1028.766	608.02
1029.055	603.05
1029.344	607.34
1029.634	597.85
1029.923	601.69
1030.212	584.97
1030.501	606.44
1030.79	604.63
1031.078	575.93
1031.367	559.89
1031.656	591.98
1031.945	587.91
1032.233	598.08
1032.522	564.86
1032.81	575.25
1033.099	576.38
1033.387	570.06
1033.675	577.97
1033.963	568.47
1034.251	557.4
1034.54	587.91
1034.828	565.99
1035.116	545.65
1035.403	547.91
1035.691	538.42
1035.979	541.58
1036.267	552.2
1036.554	524.41
1036.842	522.37
1037.129	539.32
1037.417	532.32
1037.704	529.15
1037.992	522.37
1038.279	521.7
1038.566	550.62
1038.853	550.62
1039.14	550.62
