Data from foam_black_FLMS001491_00024.txt Node
Date: Wed Feb 08 10:43:39 GMT 2017
User: dcchb
Spectrometer: FLMS00149
Trigger mode: 0
Integration Time (sec): 2.000000E-2
Scans to average: 10
Electric dark correction enabled: true
Nonlinearity correction enabled: false
Boxcar width: 0
XAxis mode: Wavelengths
Number of Pixels in Spectrum: 2048
>>>>>Begin Spectral Data<<<<<
341.393	3.94
341.776	3.94
342.16	3.94
342.543	-58.66
342.927	-62.05
343.31	-64.53
343.693	-55.72
344.077	-77.19
344.46	-73.57
344.843	-67.24
345.226	-43.52
345.61	-24.53
345.993	-21.14
346.376	-8.94
346.759	18.63
347.142	3.49
347.525	46.43
347.908	72.19
348.291	88.01
348.674	92.3
349.057	115.35
349.44	117.16
349.823	130.26
350.206	160.32
350.588	188.57
350.971	197.16
351.354	205.97
351.737	217.72
352.119	257.72
352.502	242.35
352.884	257.95
353.267	253.2
353.65	280.77
354.032	282.13
354.414	300.88
354.797	305.63
355.179	275.8
355.562	300.66
355.944	305.18
356.326	321.45
356.709	332.97
357.091	319.19
357.473	334.1
357.855	317.38
358.238	343.37
358.62	349.92
359.002	334.78
359.384	346.08
359.766	325.29
360.148	343.59
360.53	339.3
360.912	341.33
361.294	347.89
361.676	327.55
362.057	326.64
362.439	333.65
362.821	324.61
363.203	326.64
363.584	327.1
363.966	320.54
364.348	322.58
364.729	323.93
365.111	315.57
365.493	317.6
365.874	314.44
366.256	320.54
366.637	312.86
367.019	318.96
367.4	308.34
367.781	313.08
368.163	311.96
368.544	317.83
368.925	313.99
369.306	314.21
369.688	308.34
370.069	298.17
370.45	306.08
370.831	311.96
371.212	307.89
371.593	324.38
371.974	317.38
372.355	314.89
372.736	326.19
373.117	313.54
373.498	319.41
373.879	316.7
374.26	327.55
374.641	321.22
375.021	339.52
375.402	334.78
375.783	314.44
376.163	344.95
376.544	348.11
376.925	332.97
377.305	345.63
377.686	330.71
378.066	337.94
378.447	340.2
378.827	331.16
379.208	346.98
379.588	339.98
379.968	323.25
380.349	340.65
380.729	353.54
381.109	346.53
381.489	352.63
381.87	330.26
382.25	343.82
382.63	335.68
383.01	348.34
383.39	370.26
383.77	363.25
384.15	365.51
384.53	364.61
384.91	366.64
385.29	356.47
385.67	366.19
386.049	366.19
386.429	358.73
386.809	384.04
387.189	368.22
387.568	384.5
387.948	363.93
388.328	363.03
388.707	379.07
389.087	378.62
389.466	404.16
389.846	374.33
390.225	397.38
390.605	395.79
390.984	396.92
391.363	383.14
391.743	400.54
392.122	409.81
392.501	424.72
392.881	407.32
393.26	400.09
393.639	395.34
394.018	383.37
394.397	409.81
394.776	422.91
395.155	430.37
395.534	435.34
395.913	404.83
396.292	418.17
396.671	410.94
397.05	406.19
397.429	417.72
397.808	437.38
398.186	428.56
398.565	419.97
398.944	433.08
399.323	429.24
399.701	425.4
400.08	424.04
400.458	445.28
400.837	430.14
401.215	436.02
401.594	450.26
401.972	458.62
402.351	467.21
402.729	458.84
403.107	470.37
403.486	473.98
403.864	456.58
404.242	489.8
404.62	477.15
404.999	495.23
405.377	480.31
405.755	478.96
406.133	484.15
406.511	480.09
406.889	504.27
407.267	481.44
407.645	517.15
408.023	492.52
408.401	496.58
408.779	503.14
409.156	504.94
409.534	499.07
409.912	522.35
410.29	531.84
410.667	536.81
411.045	549.91
411.422	532.29
411.8	538.62
412.178	525.51
412.555	536.36
412.933	566.19
413.31	545.17
413.687	575.68
414.065	535.45
414.442	557.37
414.819	558.28
415.197	579.74
415.574	572.97
415.951	593.3
416.328	608.22
416.705	563.25
417.082	588.78
417.46	594.89
417.837	597.15
418.214	592.17
418.591	597.6
418.967	637.37
419.344	624.49
419.721	633.98
420.098	613.19
420.475	639.4
420.852	630.82
421.228	641.66
421.605	618.39
421.982	649.35
422.358	657.93
422.735	657.03
423.111	659.97
423.488	660.65
423.864	681.21
424.241	662.68
424.617	674.66
424.994	686.63
425.37	704.49
425.746	698.84
426.123	707.65
426.499	706.97
426.875	697.26
427.251	714.88
427.627	725.96
428.003	734.99
428.379	745.84
428.756	727.54
429.132	739.29
429.507	767.31
429.883	752.17
430.259	773.19
430.635	777.71
431.011	764.37
431.387	795.56
431.763	811.15
432.138	814.09
432.514	832.85
432.89	828.78
433.265	805.28
433.641	834.43
434.016	809.57
434.392	860.19
434.767	867.87
435.143	862
435.518	856.8
435.894	867.19
436.269	907.19
436.644	892.73
437.02	888.21
437.395	907.19
437.77	911.26
438.145	913.97
438.52	934.99
438.895	915.56
439.271	948.55
439.646	960.53
440.021	938.15
440.395	951.71
440.77	950.58
441.145	974.76
441.52	977.7
441.895	976.34
442.27	963.24
442.645	980.86
443.019	1012.28
443.394	982.9
443.769	981.77
444.143	990.81
444.518	1041.65
444.892	989.9
445.267	1018.38
445.641	1043.01
446.016	1039.39
446.39	1027.64
446.764	1021.99
447.139	1053.18
447.513	1073.52
447.887	1059.05
448.262	1061.99
448.636	1094.99
449.01	1092.73
449.384	1074.65
449.758	1087.08
450.132	1103.12
450.506	1092.05
450.88	1085.04
451.254	1127.75
451.628	1143.12
452.002	1144.7
452.376	1142.22
452.75	1149.67
453.123	1206.62
453.497	1192.16
453.871	1194.87
454.244	1200.52
454.618	1209.56
454.992	1244.36
455.365	1215.89
455.739	1262.44
456.112	1278.94
456.486	1269.67
456.859	1285.94
457.232	1303.12
457.606	1276.22
457.979	1316.67
458.352	1343.11
458.725	1378.59
459.099	1363.68
459.472	1374.53
459.845	1388.76
460.218	1387.86
460.591	1414.07
460.964	1401.64
461.337	1464.69
461.71	1464.47
462.083	1493.62
462.456	1502.43
462.829	1479.38
463.201	1527.29
463.574	1517.12
463.947	1517.57
464.32	1538.14
464.692	1564.13
465.065	1604.8
465.438	1588.76
465.81	1626.72
466.183	1651.35
466.555	1669.66
466.928	1659.26
467.3	1640.51
467.672	1684.57
468.045	1760.05
468.417	1730.22
468.789	1753.27
469.161	1783.55
469.534	1781.07
469.906	1821.97
470.278	1820.16
470.65	1879.37
471.022	1900.39
471.394	1933.61
471.766	1954.85
472.138	1963.89
472.51	1972.25
472.882	2008.86
473.253	2020.16
473.625	2094.73
473.997	2072.36
474.369	2109.65
474.74	2120.95
475.112	2148.97
475.484	2170.21
475.855	2264.67
476.227	2234.84
476.598	2272.13
476.97	2321.17
477.341	2364.1
477.713	2400.49
478.084	2411.56
478.455	2470.77
478.827	2474.61
479.198	2540.15
479.569	2551.22
479.94	2619.47
480.311	2653.59
480.682	2683.42
481.053	2759.35
481.424	2788.73
481.795	2799.35
482.166	2858.78
482.537	2871.66
482.908	2936.74
483.279	2955.5
483.65	3000.92
484.021	3037.53
484.391	3104.42
484.762	3115.95
485.133	3135.61
485.503	3177.19
485.874	3253.12
486.244	3274.82
486.615	3353.91
486.985	3357.52
487.356	3407.01
487.726	3392.33
488.097	3500.12
488.467	3529.72
488.837	3549.84
489.207	3656.95
489.578	3673.45
489.948	3698.53
490.318	3718.65
490.688	3763.16
491.058	3789.15
491.428	3858.75
491.798	3866.89
492.168	3962.25
492.538	3988.24
492.908	4002.25
493.278	4039.99
493.648	4118.63
494.017	4142.36
494.387	4160.67
494.757	4195.92
495.126	4190.5
495.496	4237.73
495.866	4317.5
496.235	4329.93
496.605	4363.37
496.974	4384.62
497.344	4454.45
497.713	4496.93
498.082	4501.45
498.452	4553.2
498.821	4573.99
499.19	4558.17
499.559	4567.44
499.928	4606.53
500.298	4650.15
500.667	4693.76
501.036	4697.83
501.405	4721.1
501.774	4743.03
502.143	4820.09
502.512	4760.88
502.88	4857.6
503.249	4832.51
503.618	4897.6
503.987	4900.99
504.356	4947.31
504.724	4928.56
505.093	5010.14
505.462	5039.97
505.83	5050.36
506.199	5126.74
506.567	5132.17
506.936	5234.31
507.304	5289.9
507.672	5215.78
508.041	5272.05
508.409	5344.14
508.777	5421.88
509.145	5413.97
509.514	5453.29
509.882	5511.14
510.25	5491.93
510.618	5551.37
510.986	5532.16
511.354	5606.28
511.722	5664.13
512.09	5680.63
512.458	5672.49
512.826	5665.03
513.193	5795.65
513.561	5774.64
513.929	5778.03
514.297	5866.39
514.664	5872.26
515.032	5913.84
515.4	5969.89
515.767	5973.5
516.135	6061.41
516.502	6071.13
516.869	6157.45
517.237	6153.84
517.604	6193.83
517.972	6289.2
518.339	6295.53
518.706	6384.34
519.073	6406.71
519.44	6466.14
519.808	6525.13
520.175	6565.8
520.542	6656.65
520.909	6694.39
521.276	6726.25
521.643	6765.34
522.009	6748.17
522.376	6848.28
522.743	6879.24
523.11	6893.48
523.477	6960.14
523.843	6969.63
524.21	7039.46
524.577	7078.1
524.943	7146.8
525.31	7147.03
525.676	7267.25
526.043	7217.08
526.409	7283.52
526.776	7404.2
527.142	7364.65
527.508	7499.56
527.874	7569.62
528.241	7620.01
528.607	7666.34
528.973	7745.43
529.339	7772.78
529.705	7871.98
530.071	7912.43
530.437	7946.78
530.803	8021.81
531.169	8110.62
531.535	8073.11
531.901	8175.03
532.267	8205.76
532.632	8185.87
532.998	8267.23
533.364	8281.69
533.73	8317.62
534.095	8309.48
534.461	8427.22
534.826	8377.05
535.192	8423.83
535.557	8441.23
535.923	8438.97
536.288	8476.49
536.653	8476.94
537.019	8513.55
537.384	8614.79
537.749	8609.82
538.114	8698.18
538.479	8722.36
538.845	8789.47
539.21	8785.4
539.575	8845.06
539.94	8873.31
540.305	8914.67
540.67	9022.23
541.034	9040.09
541.399	9077.15
541.764	9146.53
542.129	9170.93
542.494	9271.95
542.858	9273.98
543.223	9181.55
543.587	9288.22
543.952	9302.23
544.316	9287.99
544.681	9266.52
545.045	9400.76
545.41	9430.13
545.774	9402.11
546.138	9413.18
546.503	9421.55
546.867	9429.46
547.231	9504.71
547.595	9544.71
547.959	9537.93
548.324	9575.21
548.688	9638.49
549.052	9642.56
549.416	9717.36
549.779	9697.7
550.143	9753.97
550.507	9857.69
550.871	9860.4
551.235	9935.66
551.599	10052.94
551.962	10065.82
552.326	10139.04
552.689	10159.61
553.053	10144.24
553.417	10223.56
553.78	10325.93
554.143	10311.24
554.507	10314.18
554.87	10379.94
555.234	10515.53
555.597	10434.63
555.96	10456.55
556.323	10519.37
556.686	10486.6
557.05	10534.51
557.413	10635.3
557.776	10637.33
558.139	10710.33
558.502	10764.11
558.865	10804.56
559.228	10766.14
559.59	10911.68
559.953	10934.05
560.316	11060.37
560.679	11048.62
561.041	11158.22
561.404	11183.76
561.767	11236.64
562.129	11323.64
562.492	11393.7
562.854	11374.26
563.217	11468.05
563.579	11467.37
563.941	11607.03
564.304	11674.82
564.666	11711.66
565.028	11730.86
565.39	11776.96
565.753	11891.31
566.115	11907.36
566.477	12019.44
566.839	11961.59
567.201	12101.93
567.563	12083.4
567.925	12174.69
568.287	12210.17
568.648	12256.73
569.01	12259.89
569.372	12369.72
569.734	12290.62
570.095	12443.39
570.457	12444.97
570.819	12506.44
571.18	12450.84
571.542	12599.77
571.903	12712.31
572.265	12710.73
572.626	12723.38
572.987	12693.32
573.349	12860.55
573.71	12924.96
574.071	12907.78
574.432	12948.91
574.794	13067.78
575.155	13024.39
575.516	13079.53
575.877	13072.75
576.238	13173.54
576.599	13164.5
576.96	13127.44
577.32	13157.04
577.681	13217.15
578.042	13236.14
578.403	13255.34
578.763	13268
579.124	13328.11
579.485	13378.73
579.845	13404.94
580.206	13395.68
580.566	13371.05
580.927	13394.32
581.287	13559.06
581.648	13530.82
582.008	13549.12
582.368	13570.82
582.728	13625.28
583.089	13643.36
583.449	13547.99
583.809	13599.06
584.169	13590.93
584.529	13678.61
584.889	13726.07
585.249	13572.17
585.609	13607.42
585.969	13659.4
586.329	13554.54
586.688	13640.42
587.048	13617.82
587.408	13563.36
587.768	13576.92
588.127	13562.23
588.487	13650.14
588.846	13649.91
589.206	13532.4
589.565	13498.95
589.925	13660.3
590.284	13608.55
590.643	13576.92
591.003	13559.06
591.362	13620.08
591.721	13667.76
592.08	13629.8
592.44	13706.63
592.799	13680.42
593.158	13662.11
593.517	13707.76
593.876	13763.8
594.235	13805.16
594.593	13857.59
594.952	13966.96
595.311	13831.15
595.67	13919.28
596.029	13923.57
596.387	13994.99
596.746	14016.45
597.104	13957.47
597.463	13973.97
597.822	14067.75
598.18	14099.62
598.538	13915.67
598.897	14130.12
599.255	13885.84
599.613	14076.79
599.972	14037.7
600.33	14034.98
600.688	13984.14
601.046	14063.01
601.404	14014.65
601.762	14011.93
602.12	14053.51
602.478	13987.08
602.836	14068.88
603.194	13911.6
603.552	13917.47
603.91	13943.46
604.268	14002.89
604.625	13920.86
604.983	13980.07
605.341	13949.11
605.698	13979.39
606.056	14140.74
606.413	14052.38
606.771	14122.44
607.128	14106.17
607.485	14128.54
607.843	14137.13
608.2	14244.47
608.557	14288.31
608.914	14329.89
609.272	14396.33
609.629	14444.46
609.986	14471.36
610.343	14428.42
610.7	14539.6
611.057	14473.62
611.414	14557.23
611.771	14487.85
612.127	14646.72
612.484	14569.21
612.841	14615.08
613.198	14576.21
613.554	14532.15
613.911	14632.48
614.267	14577.79
614.624	14580.05
614.98	14584.12
615.337	14629.77
615.693	14615.31
616.05	14533.28
616.406	14743.21
616.762	14581.41
617.118	14602.88
617.475	14512.26
617.831	14618.25
618.187	14634.52
618.543	14559.72
618.899	14630
619.255	14586.16
619.611	14636.1
619.967	14745.7
620.323	14701.63
620.678	14584.57
621.034	14730.33
621.39	14693.27
621.746	14742.31
622.101	14983.21
622.457	14786.83
622.812	14876.77
623.168	14969.87
623.523	14866.37
623.879	14935.3
624.234	14925.13
624.589	15015.52
624.945	15072.47
625.3	15047.61
625.655	15025.69
626.01	15035.41
626.365	15085.58
626.72	15131.23
627.075	15084.22
627.43	14932.36
627.785	14999.7
628.14	15010.78
628.495	15081.06
628.85	14985.24
629.205	14814.62
629.559	14901.63
629.914	14903.66
630.269	14805.36
630.623	14717
630.978	14691.24
631.332	14781.41
631.687	14743.67
632.041	14654.85
632.396	14692.37
632.75	14637
633.104	14640.84
633.459	14589.09
633.813	14625.48
634.167	14637.23
634.521	14590
634.875	14536.44
635.229	14512.03
635.583	14502.54
635.937	14479.72
636.291	14493.96
636.645	14495.76
636.999	14405.82
637.352	14407.63
637.706	14431.36
638.06	14444.46
638.413	14442.66
638.767	14369.21
639.121	14435.2
639.474	14361.53
639.828	14339.16
640.181	14422.54
640.534	14417.57
640.888	14356.56
641.241	14231.59
641.594	14332.38
641.947	14427.97
642.301	14390
642.654	14349.33
643.007	14385.03
643.36	14307.52
643.713	14329.21
644.066	14441.53
644.419	14195.66
644.771	14105.04
645.124	13920.41
645.477	13922.44
645.83	13838.38
646.182	13795.44
646.535	13874.08
646.888	13886.29
647.24	13869.11
647.593	13931.03
647.945	13907.76
648.298	13784.37
648.65	13837.93
649.002	13713.18
649.355	13739.85
649.707	13711.6
650.059	13635.45
650.411	13760.64
650.763	13792.5
651.115	13995.66
651.467	13979.39
651.819	13934.42
652.171	13946.85
652.523	13927.64
652.875	13873.41
653.227	13778.27
653.578	13979.62
653.93	13877.25
654.282	13877.93
654.633	13785.73
654.985	13858.49
655.337	13754.54
655.688	13748.44
656.039	13755.67
656.391	13685.39
656.742	13776.91
657.094	13729.46
657.445	13757.93
657.796	13747.31
658.147	13708.44
658.498	13787.53
658.849	13817.36
659.2	13791.6
659.551	13697.14
659.902	13743.24
660.253	13709.12
660.604	13737.82
660.955	13674.99
661.306	13722.9
661.656	13686.97
662.007	13711.38
662.358	13737.82
662.708	13774.2
663.059	13714.77
663.409	13616.01
663.76	13778.72
664.11	13791.6
664.461	13772.17
664.811	13795.67
665.161	13663.92
665.511	13693.75
665.862	13691.04
666.212	13758.83
666.562	13757.7
666.912	13726.52
667.262	13764.48
667.612	13699.85
667.962	13630.47
668.312	13649.68
668.662	13660.53
669.011	13665.73
669.361	13617.37
669.711	13578.5
670.06	13542.12
670.41	13563.81
670.76	13485.39
671.109	13507.99
671.459	13552.96
671.808	13416.02
672.157	13556.8
672.507	13377.37
672.856	13416.24
673.205	13449.24
673.554	13402.68
673.904	13464.38
674.253	13490.82
674.602	13325.85
674.951	13210.15
675.3	13105.97
675.649	13276.59
675.998	13326.98
676.346	13312.07
676.695	13309.35
677.044	13186.19
677.393	13319.97
677.741	13404.04
678.09	13256.7
678.438	13283.59
678.787	13278.85
679.135	13368.56
679.484	13230.94
679.832	13336.02
680.181	13314.55
680.529	13314.55
680.877	13206.76
681.225	13260.99
681.573	13384.61
681.922	13176.93
682.27	13237.49
682.618	13153.65
682.966	13102.13
683.314	13192.29
683.661	13121.56
684.009	13156.14
684.357	13038.85
684.705	13075.46
685.053	13009.02
685.4	13078.17
685.748	12963.15
686.095	12963.37
686.443	12854.22
686.79	12872.08
687.138	12940.32
687.485	12899.65
687.832	12900.55
688.18	12810.84
688.527	12805.41
688.874	12695.81
689.221	12710.05
689.568	12633.66
689.915	12680.22
690.262	12641.8
690.609	12514.57
690.956	12605.64
691.303	12465.53
691.65	12466.66
691.997	12505.98
692.344	12367.46
692.69	12319.32
693.037	12337.18
693.383	12250.62
693.73	12321.36
694.077	12171.53
694.423	12231.19
694.769	12188.03
695.116	12176.05
695.462	12147.35
695.808	12056.28
696.155	12139.89
696.501	12012.66
696.847	11995.04
697.193	11974.25
697.539	11978.09
697.885	11897.87
698.231	11927.02
698.577	11907.81
698.923	11873.91
699.269	11841.37
699.614	11788.72
699.96	11754.59
700.306	11839.56
700.651	11751.2
700.997	11757.53
701.342	11674.82
701.688	11595.73
702.033	11595.05
702.379	11598.66
702.724	11534.48
703.069	11597.08
703.415	11475.96
703.76	11453.13
704.105	11427.82
704.45	11422.62
704.795	11399.57
705.14	11305.56
705.485	11286.36
705.83	11266.7
706.175	11286.13
706.52	11199.58
706.865	11145.12
707.209	11174.04
707.554	11157.09
707.899	11180.14
708.243	11115.06
708.588	11040.71
708.932	11019.92
709.277	11039.58
709.621	11001.39
709.966	10885.69
710.31	10921.39
710.654	10853.6
710.998	10935.4
711.342	10852.47
711.687	10823.77
712.031	10805.92
712.375	10742.87
712.719	10789.42
713.063	10729.31
713.407	10741.74
713.75	10738.12
714.094	10784.67
714.438	10716.88
714.782	10669.42
715.125	10638.69
715.469	10671
715.812	10653.83
716.156	10568.41
716.499	10643.89
716.843	10631.46
717.186	10563.21
717.53	10572.7
717.873	10599.59
718.216	10541.06
718.559	10462.42
718.902	10432.37
719.246	10447.06
719.589	10385.36
719.932	10409.77
720.275	10361.18
720.617	10401.18
720.96	10331.13
721.303	10363.67
721.646	10372.26
721.989	10245.93
722.331	10339.94
722.674	10283.44
723.016	10343.78
723.359	10144.92
723.701	10271.47
724.044	10177.68
724.386	10076.22
724.729	10212.26
725.071	10165.71
725.413	10178.81
725.755	10085.48
726.097	10066.05
726.439	9960.74
726.782	10018.59
727.124	10059.04
727.465	10026.28
727.807	9948.54
728.149	9940.85
728.491	9928.65
728.833	9923.91
729.175	9905.6
729.516	9912.61
729.858	9888.2
730.199	9903.57
730.541	9878.26
730.882	9828.99
731.224	9836.68
731.565	9804.13
731.906	9788.09
732.248	9779.5
732.589	9737.24
732.93	9725.27
733.271	9707.41
733.612	9742.67
733.953	9803.23
734.294	9692.27
734.635	9629.22
734.976	9691.37
735.317	9685.49
735.658	9658.15
735.999	9682.33
736.339	9621.09
736.68	9638.49
737.021	9603.01
737.361	9602.78
737.702	9685.72
738.042	9579.73
738.383	9628.55
738.723	9605.04
739.063	9641.65
739.404	9491.83
739.744	9566.85
740.084	9473.07
740.424	9564.37
740.764	9453.41
741.104	9488.44
741.444	9468.78
741.784	9438.95
742.124	9407.99
742.464	9447.08
742.804	9445.95
743.143	9475.78
743.483	9400.3
743.823	9313.3
744.162	9312.85
744.502	9339.06
744.841	9303.36
745.181	9295.67
745.52	9334.09
745.86	9362.34
746.199	9243.25
746.538	9227.65
746.877	9334.54
747.216	9311.04
747.556	9282.34
747.895	9262.23
748.234	9232.62
748.573	9123.25
748.911	9202.57
749.25	9227.65
749.589	9072.18
749.928	9173.87
750.267	9070.14
750.605	9139.07
750.944	9079.18
751.283	9083.7
751.621	9093.65
751.96	8966.19
752.298	8915.34
752.636	9031.5
752.975	8928
753.313	8936.36
753.651	8901.79
753.989	8911.95
754.327	8828.34
754.666	8789.25
755.004	8791.51
755.342	8794.22
755.679	8788.57
756.017	8740.89
756.355	8727.33
756.693	8690.27
757.031	8693.88
757.368	8586.99
757.706	8588.35
758.044	8571.4
758.381	8666.54
758.719	8582.25
759.056	8574.34
759.394	8569.14
759.731	8528.69
760.068	8498.41
760.405	8449.59
760.743	8417.96
761.08	8423.15
761.417	8439.2
761.754	8407.79
762.091	8338.64
762.428	8291.86
762.765	8287.34
763.102	8347.9
763.438	8269.49
763.775	8220.22
764.112	8261.12
764.449	8244.63
764.785	8189.71
765.122	8196.95
765.458	8155.59
765.795	8152.88
766.131	8158.98
766.467	8072.2
766.804	8086.21
767.14	8098.87
767.476	8050.28
767.812	8049.15
768.148	8065.2
768.485	8003.96
768.821	7951.3
769.157	7911.3
769.492	7893.9
769.828	7902.94
770.164	7780.23
770.5	7850.29
770.836	7790.63
771.171	7720.57
771.507	7747.01
771.842	7682.38
772.178	7686.68
772.513	7686.9
772.849	7636.28
773.184	7657.75
773.519	7654.36
773.855	7589.5
774.19	7501.37
774.525	7511.54
774.86	7440.81
775.195	7435.61
775.53	7424.54
775.865	7428.6
776.2	7376.63
776.535	7299.34
776.87	7318.78
777.205	7240.36
777.539	7189.74
777.874	7216.18
778.209	7155.62
778.543	7114.26
778.878	7159.23
779.212	7069.29
779.547	7037.88
779.881	7104.77
780.215	7000.37
780.55	7024.32
780.884	6939.8
781.218	6905.68
781.552	6884.66
781.886	6858
782.22	6898.67
782.554	6868.17
782.888	6743.42
783.222	6791.11
783.556	6691
783.889	6729.64
784.223	6667.27
784.557	6634.95
784.89	6681.51
785.224	6621.17
785.557	6599.7
785.891	6634.73
786.224	6566.48
786.558	6607.16
786.891	6536.2
787.224	6474.5
787.557	6520.61
787.891	6503.2
788.224	6475.63
788.557	6465.47
788.89	6470.66
789.223	6427.73
789.556	6457.33
789.888	6418.01
790.221	6376.43
790.554	6334.62
790.887	6391.12
791.219	6398.57
791.552	6372.13
791.884	6317.45
792.217	6298.69
792.549	6247.39
792.882	6210.78
793.214	6245.81
793.546	6199.48
793.879	6202.87
794.211	6171.46
794.543	6174.85
794.875	6138.69
795.207	6175.98
795.539	6095.31
795.871	6145.25
796.203	6072.03
796.535	6048.98
796.867	6074.29
797.198	5989.09
797.53	6028.41
797.862	5971.92
798.193	5965.14
798.525	5915.2
798.856	5981.64
799.188	5832.04
799.519	5828.42
799.85	5850.11
800.182	5809.89
800.513	5792.26
800.844	5757.01
801.175	5789.33
801.506	5732.38
801.837	5698.93
802.168	5705.03
802.499	5660.29
802.83	5660.74
803.161	5677.24
803.491	5672.49
803.822	5613.06
804.153	5649.44
804.483	5577.35
804.814	5571.93
805.145	5563.79
805.475	5508.43
805.805	5509.56
806.136	5511.82
806.466	5453.97
806.796	5427.53
807.126	5409.9
807.457	5400.41
807.787	5416.68
808.117	5378.26
808.447	5358.6
808.777	5369.9
809.107	5361.77
809.436	5324.7
809.766	5321.54
810.096	5303.46
810.426	5256.46
810.755	5325.83
811.085	5320.18
811.414	5286.29
811.744	5244.71
812.073	5238.15
812.403	5251.03
812.732	5253.29
813.061	5249.9
813.39	5169.91
813.719	5179.17
814.049	5236.57
814.378	5190.02
814.707	5147.53
815.036	5174.88
815.365	5158.61
815.693	5128.1
816.022	5201.77
816.351	5141.66
816.68	5107.99
817.008	5083.13
817.337	5103.02
817.665	5052.4
817.994	5063.47
818.322	5089.91
818.651	5095.33
818.979	5068.89
819.307	5081.1
819.636	5047.42
819.964	5007.2
820.292	5048.78
820.62	5022.79
820.948	4999.52
821.276	5041.77
821.604	5039.06
821.932	5021.66
822.259	5005.17
822.587	5008.33
822.915	5011.72
823.243	5007.42
823.57	4982.57
823.898	5002
824.225	4986.63
824.553	4981.66
824.88	4964.71
825.207	4998.39
825.535	4966.07
825.862	4966.07
826.189	5002.68
826.516	4937.37
826.843	4922.68
827.17	4955.9
827.497	4945.05
827.824	4946.41
828.151	4937.14
828.478	4931.49
828.805	4957.93
829.131	4914.55
829.458	4933.98
829.785	4913.19
830.111	4931.27
830.438	4952.06
830.764	4952.06
831.09	4932.4
831.417	4880.2
831.743	4940.76
832.069	4924.26
832.395	4881.1
832.722	4925.62
833.048	4909.12
833.374	4885.39
833.7	4889.46
834.026	4881.1
834.351	4896.24
834.677	4881.55
835.003	4870.93
835.329	4897.6
835.654	4858.05
835.98	4864.6
836.306	4890.59
836.631	4883.13
836.956	4850.82
837.282	4888.33
837.607	4827.32
837.932	4812.4
838.258	4865.06
838.583	4838.16
838.908	4812.85
839.233	4843.59
839.558	4765.4
839.883	4791.39
840.208	4764.72
840.533	4783.25
840.858	4712.52
841.182	4761.78
841.507	4731.95
841.832	4724.95
842.156	4715
842.481	4731.95
842.805	4718.39
843.13	4678.17
843.454	4675.68
843.778	4646.3
844.103	4649.92
844.427	4626.64
844.751	4637.72
845.075	4626.19
845.399	4624.16
845.723	4602.69
846.047	4643.37
846.371	4536.02
846.695	4574.67
847.019	4495.35
847.343	4525.18
847.666	4505.74
847.99	4446.99
848.313	4460.55
848.637	4479.53
848.96	4486.76
849.284	4469.13
849.607	4409.25
849.931	4381
850.254	4376.48
850.577	4352.53
850.9	4295.58
851.223	4346.65
851.546	4332.19
851.869	4263.26
852.192	4282.92
852.515	4296.94
852.838	4293.77
853.161	4276.82
853.483	4233.43
853.806	4242.02
854.129	4218.75
854.451	4199.99
854.774	4182.14
855.096	4125.41
855.419	4217.16
855.741	4168.35
856.063	4152.98
856.385	4171.06
856.708	4143.27
857.03	4061.69
857.352	4108.24
857.674	4107.56
857.996	4065.3
858.318	4076.6
858.64	4068.92
858.961	4044.29
859.283	4060.33
859.605	4038.64
859.926	4025.76
860.248	3981.92
860.57	4030.28
860.891	3979.2
861.212	4010.39
861.534	3949.6
861.855	4016.26
862.176	4006.77
862.498	3971.29
862.819	3992.31
863.14	3922.48
863.461	3958.19
863.782	3935.36
864.103	3979.88
864.424	3906.21
864.745	3898.98
865.065	3884.52
865.386	3896.27
865.707	3910.05
866.027	3934.01
866.348	3880.9
866.668	3871.41
866.989	3879.09
867.309	3879.77
867.63	3877.06
867.95	3861.92
868.27	3799.55
868.59	3863.5
868.91	3825.31
869.23	3824.86
869.55	3786.44
869.87	3800
870.19	3801.58
870.51	3838.42
870.83	3784.18
871.15	3789.15
871.469	3768.81
871.789	3741.92
872.109	3731.3
872.428	3710.51
872.748	3711.64
873.067	3750.51
873.386	3732.66
873.706	3761.81
874.025	3695.37
874.344	3679.1
874.663	3732.43
874.982	3752.99
875.301	3677.29
875.62	3678.87
875.939	3652.66
876.258	3666.22
876.577	3679.55
876.896	3673.45
877.214	3636.61
877.533	3668.03
877.852	3666.67
878.17	3684.52
878.489	3621.47
878.807	3646.1
879.125	3659.44
879.444	3617.4
879.762	3581.7
880.08	3619.44
880.398	3611.98
880.716	3598.87
881.034	3619.21
881.352	3642.49
881.67	3637.74
881.988	3618.53
882.306	3608.37
882.624	3558.88
882.941	3564.52
883.259	3551.19
883.577	3537.18
883.894	3583.96
884.212	3541.7
884.529	3570.17
884.846	3558.65
885.164	3552.32
885.481	3510.74
885.798	3560.68
886.115	3508.26
886.432	3531.53
886.75	3549.84
887.067	3507.35
887.383	3527.46
887.7	3521.14
888.017	3473
888.334	3482.49
888.651	3451.99
888.967	3499.22
889.284	3464.41
889.6	3470.29
889.917	3446.34
890.233	3462.15
890.55	3449.27
890.866	3441.59
891.182	3389.61
891.498	3437.97
891.815	3403.17
892.131	3398.88
892.447	3376.28
892.763	3347.36
893.079	3308.94
893.395	3308.71
893.71	3343.06
894.026	3354.36
894.342	3280.24
894.657	3270.52
894.973	3271.2
895.289	3256.96
895.604	3254.02
895.92	3242.27
896.235	3234.59
896.55	3201.82
896.865	3201.14
897.181	3180.35
897.496	3195.04
897.811	3184.2
898.126	3194.59
898.441	3126.57
898.756	3129.73
899.071	3124.54
899.386	3107.36
899.7	3064.88
900.015	3046.57
900.33	3075.27
900.644	3025.56
900.959	3021.49
901.273	2994.6
901.588	3029.62
901.902	2969.29
902.216	2971.32
902.531	2982.17
902.845	2967.48
903.159	2974.03
903.473	2949.63
903.787	2915.05
904.101	2889.74
904.415	2921.38
904.729	2905.79
905.042	2877.76
905.356	2883.19
905.67	2865.11
905.984	2851.78
906.297	2838.44
906.611	2837.99
906.924	2859.23
907.237	2803.41
907.551	2775.39
907.864	2786.01
908.177	2823.53
908.491	2815.17
908.804	2770.2
909.117	2784.66
909.43	2744.21
909.743	2754.6
910.056	2760.48
910.368	2726.13
910.681	2722.06
910.994	2695.17
911.307	2734.94
911.619	2727.71
911.932	2706.92
912.244	2706.47
912.557	2678.22
912.869	2698.78
913.181	2699.91
913.494	2688.16
913.806	2649.97
914.118	2665.79
914.43	2635.06
914.742	2689.97
915.054	2631.89
915.366	2614.95
915.678	2617.66
915.99	2630.76
916.302	2585.12
916.613	2595.28
916.925	2586.7
917.236	2608.62
917.548	2582.4
917.859	2573.14
918.171	2573.59
918.482	2560.94
918.794	2559.35
919.105	2560.26
919.416	2537.89
919.727	2516.87
920.038	2537.89
920.349	2491.56
920.66	2514.16
920.971	2510.32
921.282	2518.45
921.593	2457.44
921.903	2463.54
922.214	2488.17
922.525	2441.39
922.835	2429.87
923.146	2421.96
923.456	2440.26
923.767	2441.16
924.077	2396.19
924.387	2369.3
924.697	2375.4
925.008	2365.23
925.318	2354.39
925.628	2358.45
925.938	2345.35
926.248	2312.13
926.558	2318
926.867	2308.29
927.177	2282.52
927.487	2285.46
927.796	2291.34
928.106	2273.94
928.416	2284.78
928.725	2294.28
929.034	2261.06
929.344	2226.48
929.653	2220.15
929.962	2205.69
930.271	2193.94
930.581	2190.1
930.89	2167.95
931.199	2148.52
931.508	2155.97
931.817	2133.83
932.125	2109.65
932.434	2120.27
932.743	2121.85
933.051	2101.74
933.36	2045.69
933.669	2087.5
933.977	2061.06
934.286	2041.4
934.594	2038.46
934.902	2054.51
935.21	2036.2
935.519	2017.67
935.827	2035.3
936.135	2007.05
936.443	1979.48
936.751	1994.62
937.059	1985.36
937.367	1966.6
937.674	1964.34
937.982	1939.03
938.29	1923.21
938.597	1935.42
938.905	1906.72
939.213	1917.11
939.52	1920.5
939.827	1929.99
940.135	1892.25
940.442	1913.49
940.749	1885.02
941.056	1901.52
941.363	1904.23
941.67	1857.68
941.977	1859.03
942.284	1842.08
942.591	1844.57
942.898	1839.15
943.205	1853.61
943.511	1832.59
943.818	1810.9
944.125	1834.17
944.431	1813.16
944.738	1854.06
945.044	1793.72
945.35	1801.41
945.657	1795.76
945.963	1797.57
946.269	1781.52
946.575	1777.68
946.881	1774.74
947.187	1788.07
947.493	1793.95
947.799	1766.38
948.105	1782.65
948.41	1760.96
948.716	1774.74
949.022	1735.19
949.327	1746.27
949.633	1732.71
949.938	1695.87
950.244	1746.49
950.549	1701.75
950.854	1727.29
951.16	1712.37
951.465	1708.08
951.77	1685.48
952.075	1699.72
952.38	1672.6
952.685	1673.73
952.99	1661.75
953.294	1673.5
953.599	1666.04
953.904	1648.87
954.209	1654.52
954.513	1658.36
954.818	1647.74
955.122	1646.38
955.426	1638.02
955.731	1626.95
956.035	1591.47
956.339	1632.82
956.643	1598.93
956.948	1595.09
957.252	1579.72
957.556	1591.47
957.86	1553.05
958.163	1584.01
958.467	1552.15
958.771	1539.72
959.075	1525.03
959.378	1522.09
959.682	1532.04
959.985	1552.37
960.289	1513.05
960.592	1533.62
960.896	1521.64
961.199	1503.56
961.502	1498.82
961.805	1495.88
962.108	1475.99
962.411	1443
962.714	1472.6
963.017	1452.26
963.32	1476.44
963.623	1439.38
963.926	1467.18
964.228	1426.5
964.531	1424.92
964.833	1431.93
965.136	1425.37
965.438	1398.48
965.741	1412.94
966.043	1403.45
966.345	1361.19
966.648	1388.54
966.95	1374.75
967.252	1364.58
967.554	1373.4
967.856	1369.33
968.158	1325.49
968.46	1348.54
968.761	1322.32
969.063	1338.37
969.365	1324.36
969.666	1351.93
969.968	1334.53
970.269	1298.6
970.571	1310.12
970.872	1332.04
971.174	1291.14
971.475	1288.43
971.776	1268.31
972.077	1300.86
972.378	1278.94
972.679	1262.44
972.98	1283.23
973.281	1268.54
973.582	1258.82
973.883	1249.33
974.183	1249.33
974.484	1248.2
974.785	1254.76
975.085	1240.52
975.386	1273.06
975.686	1258.37
975.986	1211.82
976.287	1227.64
976.587	1228.09
976.887	1228.32
977.187	1218.6
977.487	1194.64
977.787	1196.9
978.087	1203.46
978.387	1199.39
978.687	1219.95
978.987	1193.06
979.286	1200.75
979.586	1189.9
979.885	1190.35
980.185	1171.37
980.484	1190.35
980.784	1174.31
981.083	1169.33
981.382	1147.41
981.682	1172.5
981.981	1156.9
982.28	1159.16
982.579	1160.29
982.878	1145.38
983.177	1178.15
983.475	1131.82
983.774	1121.65
984.073	1156.45
984.372	1135.89
984.67	1143.12
984.969	1125.94
985.267	1149.67
985.566	1113.52
985.864	1132.95
986.162	1122.33
986.461	1129.79
986.759	1115.78
987.057	1073.29
987.355	1111.93
987.653	1070.81
987.951	1086.85
988.249	1080.52
988.547	1078.49
988.844	1090.47
989.142	1058.83
989.44	1072.61
989.737	1041.2
990.035	1057.47
990.332	1054.08
990.63	1050.24
990.927	1037.59
991.224	1053.18
991.521	1041.43
991.819	1037.36
992.116	1041.43
992.413	1014.76
992.71	1047.3
993.006	1027.19
993.303	1007.3
993.6	1013.41
993.897	1012.5
994.193	1012.5
994.49	993.75
994.787	987.64
995.083	972.05
995.379	993.75
995.676	977.47
995.972	983.35
996.268	986.06
996.565	967.08
996.861	945.38
997.157	953.52
997.453	968.43
997.749	966.18
998.044	937.02
998.34	904.03
998.636	964.37
998.932	923.69
999.227	924.14
999.523	911.71
999.818	906.74
1000.114	912.39
1000.409	899.96
1000.704	898.61
1001	913.97
1001.295	901.09
1001.59	885.95
1001.885	902.45
1002.18	874.2
1002.475	900.64
1002.77	869.91
1003.065	877.59
1003.359	895.22
1003.654	869.91
1003.949	860.87
1004.243	860.42
1004.538	866.06
1004.832	862
1005.127	850.47
1005.421	860.64
1005.715	829
1006.009	848.89
1006.304	824.94
1006.598	860.87
1006.892	854.99
1007.186	820.64
1007.48	818.61
1007.773	808.67
1008.067	818.38
1008.361	778.84
1008.655	821.77
1008.948	814.09
1009.242	804.82
1009.535	811.38
1009.829	807.99
1010.122	797.59
1010.415	795.78
1010.708	798.95
1011.001	764.82
1011.295	791.04
1011.588	770.47
1011.881	774.09
1012.173	768.67
1012.466	787.42
1012.759	769.57
1013.052	793.3
1013.344	753.98
1013.637	762.56
1013.93	754.88
1014.222	753.53
1014.514	763.24
1014.807	725.28
1015.099	741.55
1015.391	744.49
1015.683	721.44
1015.976	745.62
1016.268	732.73
1016.56	721.21
1016.851	734.54
1017.143	737.48
1017.435	728.67
1017.727	712.4
1018.018	704.49
1018.31	715.11
1018.602	697.03
1018.893	692.51
1019.185	713.53
1019.476	711.04
1019.767	695.9
1020.058	692.51
1020.35	701.78
1020.641	690.48
1020.932	677.14
1021.223	682.57
1021.514	689.8
1021.804	666.75
1022.095	669.01
1022.386	649.8
1022.677	666.52
1022.967	674.43
1023.258	670.36
1023.548	655.9
1023.839	669.01
1024.129	660.65
1024.419	646.64
1024.709	630.36
1025	643.92
1025.29	654.09
1025.58	647.31
1025.87	615.45
1026.16	618.39
1026.449	628.78
1026.739	601.66
1027.029	638.5
1027.319	639.4
1027.608	622.46
1027.898	617.03
1028.187	604.6
1028.477	614.55
1028.766	615.22
1029.055	598.05
1029.344	596.47
1029.634	610.7
1029.923	619.29
1030.212	589.69
1030.501	582.68
1030.79	591.72
1031.078	592.63
1031.367	589.24
1031.656	580.87
1031.945	584.94
1032.233	575.68
1032.522	568.45
1032.81	552.63
1033.099	570.93
1033.387	567.32
1033.675	560.54
1033.963	558.05
1034.251	552.85
1034.54	545.85
1034.828	552.4
1035.116	546.3
1035.403	555.11
1035.691	553.08
1035.979	548.11
1036.267	513.76
1036.554	533.19
1036.842	553.08
1037.129	531.84
1037.417	544.27
1037.704	531.16
1037.992	548.11
1038.279	546.75
1038.566	546.3
1038.853	546.3
1039.14	546.3
