Data from foam2_polystyrene_foam_FLMS001491_00062.txt Node
Date: Wed Feb 08 10:58:19 GMT 2017
User: dcchb
Spectrometer: FLMS00149
Trigger mode: 0
Integration Time (sec): 2.000000E-2
Scans to average: 10
Electric dark correction enabled: true
Nonlinearity correction enabled: false
Boxcar width: 0
XAxis mode: Wavelengths
Number of Pixels in Spectrum: 2048
>>>>>Begin Spectral Data<<<<<
341.393	-11.96
341.776	-11.96
342.16	-11.96
342.543	-67.1
342.927	-69.81
343.31	-67.1
343.693	-61
344.077	-56.48
344.46	-54.9
344.843	-56.26
345.226	-23.49
345.61	-42.92
345.993	-17.61
346.376	1.82
346.759	17.87
347.142	3.4
347.525	40.92
347.908	53.12
348.291	70.52
348.674	88.83
349.057	103.29
349.44	129.95
349.823	145.1
350.206	157.3
350.588	182.38
350.971	220.35
351.354	210.63
351.737	253.11
352.119	233.23
352.502	254.47
352.884	266.45
353.267	297.41
353.65	307.58
354.032	296.5
354.414	309.61
354.797	327.92
355.179	327.24
355.562	356.16
355.944	323.62
356.326	328.82
356.709	353.45
357.091	334.69
357.473	339.21
357.855	339.89
358.238	335.37
358.62	359.33
359.002	328.37
359.384	343.51
359.766	345.54
360.148	338.99
360.53	354.36
360.912	331.98
361.294	341.25
361.676	353.68
362.057	346.22
362.439	383.28
362.821	352.32
363.203	317.52
363.584	355.49
363.966	345.09
364.348	338.99
364.729	323.62
365.111	336.05
365.493	337.63
365.874	316.62
366.256	335.6
366.637	335.82
367.019	314.13
367.4	349.84
367.781	336.05
368.163	336.73
368.544	331.76
368.925	332.43
369.306	354.58
369.688	337.41
370.069	353
370.45	334.47
370.831	335.15
371.212	340.12
371.593	344.86
371.974	337.63
372.355	337.41
372.736	337.63
373.117	345.32
373.498	356.39
373.879	333.34
374.26	346.22
374.641	339.21
375.021	306.22
375.402	353
375.783	347.58
376.163	357.97
376.544	367.69
376.925	353.68
377.305	355.03
377.686	370.17
378.066	380.12
378.447	372.89
378.827	356.61
379.208	374.47
379.588	356.16
379.968	369.95
380.349	380.12
380.729	386.67
381.109	363.17
381.489	413.79
381.87	375.82
382.25	385.09
382.63	392.55
383.01	393.9
383.39	381.25
383.77	382.6
384.15	416.73
384.53	411.3
384.91	388.7
385.29	417.18
385.67	417.63
386.049	409.49
386.429	409.95
386.809	425.77
387.189	414.24
387.568	407.69
387.948	434.58
388.328	430.29
388.707	437.52
389.087	421.7
389.466	415.6
389.846	442.04
390.225	436.84
390.605	453.34
390.984	417.86
391.363	437.29
391.743	456.05
392.122	441.36
392.501	471.87
392.881	486.78
393.26	479.1
393.639	472.09
394.018	476.16
394.397	469.38
394.776	469.38
395.155	497.4
395.534	473.67
395.913	473
396.292	492.2
396.671	493.11
397.05	494.69
397.429	485.88
397.808	508.02
398.186	478.87
398.565	506.22
398.944	491.75
399.323	530.62
399.701	507.35
400.08	509.15
400.458	505.99
400.837	505.31
401.215	516.38
401.594	531.07
401.972	540.56
402.351	534.24
402.729	550.06
403.107	544.86
403.486	556.16
403.864	533.79
404.242	544.86
404.62	563.62
404.999	554.8
405.377	573.78
405.755	585.99
406.133	557.97
406.511	593.22
406.889	604.07
407.267	594.57
407.645	605.2
408.023	622.37
408.401	620.56
408.779	595.25
409.156	617.85
409.534	598.19
409.912	615.14
410.29	624.4
410.667	632.31
411.045	629.83
411.422	652.2
411.8	662.6
412.178	664.18
412.555	677.28
412.933	674.35
413.31	695.59
413.687	674.12
414.065	678.41
414.442	726.1
414.819	731.52
415.197	721.58
415.574	712.99
415.951	738.53
416.328	760.22
416.705	726.77
417.082	735.59
417.46	743.27
417.837	762.03
418.214	750.05
418.591	756.15
418.967	767.45
419.344	801.8
419.721	788.24
420.098	793.89
420.475	772.2
420.852	814.46
421.228	796.15
421.605	815.36
421.982	832.76
422.358	826.89
422.735	852.87
423.111	845.42
423.488	837.96
423.864	871.18
424.241	844.74
424.617	856.49
424.994	880.44
425.37	876.38
425.746	906.2
426.123	887.9
426.499	913.21
426.875	932.87
427.251	942.59
427.627	924.74
428.003	939.88
428.379	981.23
428.756	964.06
429.132	982.36
429.507	1004.51
429.883	992.08
430.259	1022.81
430.635	994.11
431.011	1038.86
431.387	1030.72
431.763	1037.27
432.138	1079.31
432.514	1077.95
432.89	1078.18
433.265	1091.51
433.641	1108.91
434.016	1140.55
434.392	1117.72
434.767	1140.32
435.143	1179.87
435.518	1188.01
435.894	1170.6
436.269	1185.07
436.644	1190.49
437.02	1236.82
437.395	1221.9
437.77	1246.08
438.145	1257.61
438.52	1304.84
438.895	1296.48
439.271	1321.56
439.646	1310.26
440.021	1349.58
440.395	1322.01
440.77	1298.51
441.145	1352.29
441.52	1351.17
441.895	1355.01
442.27	1384.16
442.645	1374.67
443.019	1383.03
443.394	1403.59
443.769	1397.94
444.143	1431.61
444.518	1444.04
444.892	1450.37
445.267	1454.44
445.641	1467.09
446.016	1481.33
446.39	1500.77
446.764	1480.2
447.139	1484.27
447.513	1505.06
447.887	1523.82
448.262	1523.59
448.636	1522.01
449.01	1575.79
449.384	1586.64
449.758	1572.85
450.132	1602.01
450.506	1593.19
450.88	1632.74
451.254	1599.29
451.628	1665.28
452.002	1674.09
452.376	1695.79
452.75	1674.55
453.123	1702.34
453.497	1701.21
453.871	1726.3
454.244	1741.89
454.618	1802.45
454.992	1807.2
455.365	1794.32
455.739	1860.3
456.112	1882
456.486	1837.03
456.859	1879.29
457.232	1902.56
457.606	1896.46
457.979	1905.5
458.352	1974.88
458.725	1938.49
459.099	1999.96
459.472	2023.69
459.845	2061.88
460.218	2051.94
460.591	2062.33
460.964	2058.72
461.337	2118.83
461.71	2149.79
462.083	2134.2
462.456	2174.87
462.829	2146.62
463.201	2213.06
463.574	2198.15
463.947	2233.4
464.32	2283.8
464.692	2288.77
465.065	2298.94
465.438	2350.23
465.81	2380.52
466.183	2400.63
466.555	2452.15
466.928	2429.55
467.3	2455.77
467.672	2484.69
468.045	2527.63
468.417	2529.44
468.789	2576.22
469.161	2579.16
469.534	2636.1
469.906	2683.33
470.278	2698.93
470.65	2756.78
471.022	2755.42
471.394	2798.58
471.766	2847.85
472.138	2879.26
472.51	2917.9
472.882	2988.86
473.253	2944.8
473.625	3003.1
473.997	3084.45
474.369	3088.52
474.74	3109.99
475.112	3171
475.484	3235.86
475.855	3287.84
476.227	3280.15
476.598	3397.66
476.97	3392.02
477.341	3499.36
477.713	3535.97
478.084	3540.94
478.455	3619.58
478.827	3657.09
479.198	3791.55
479.569	3760.82
479.94	3877.88
480.311	3909.29
480.682	3963.07
481.053	4051.66
481.424	4096.4
481.795	4151.32
482.166	4193.8
482.537	4229.28
482.908	4331.2
483.279	4358.77
483.65	4457.07
484.021	4555.37
484.391	4620.46
484.762	4606.22
485.133	4660.23
485.503	4704.75
485.874	4821.36
486.244	4915.59
486.615	4942.48
486.985	5024.29
487.356	5130.73
487.726	5147
488.097	5270.38
488.467	5264.96
488.837	5335.02
489.207	5460.66
489.578	5498.4
489.948	5525.29
490.318	5645.06
490.688	5657.49
491.058	5798.51
491.428	5796.7
491.798	5852.29
492.168	5979.29
492.538	5924.6
492.908	6039.4
493.278	6162.34
493.648	6152.17
494.017	6193.07
494.387	6271.26
494.757	6294.31
495.126	6387.87
495.496	6398.26
495.866	6453.63
496.235	6504.25
496.605	6602.55
496.974	6629.22
497.344	6722.32
497.713	6708.09
498.082	6769.78
498.452	6867.86
498.821	6889.1
499.19	6906.05
499.559	7002.32
499.928	7027.85
500.298	7062.65
500.667	7120.5
501.036	7155.76
501.405	7259.26
501.774	7228.3
502.143	7291.8
502.512	7300.84
502.88	7400.05
503.249	7435.98
503.618	7476.2
503.987	7535.18
504.356	7598.01
504.724	7654.28
505.093	7636.42
505.462	7723.65
505.83	7718.68
506.199	7862.63
506.567	7982.4
506.936	8000.26
507.304	8029.18
507.672	8030.54
508.041	8125.68
508.409	8215.84
508.777	8275.05
509.145	8261.72
509.514	8350.3
509.882	8388.95
510.25	8438.44
510.618	8508.49
510.986	8475.5
511.354	8620.13
511.722	8713.68
512.09	8762.5
512.458	8743.74
512.826	8791.87
513.193	8887.69
513.561	8927.46
513.929	9040.23
514.297	9080
514.664	9180.79
515.032	9234.8
515.4	9236.38
515.767	9318.19
516.135	9385.08
516.502	9372.65
516.869	9481.57
517.237	9569.25
517.604	9557.73
517.972	9692.19
518.339	9717.05
518.706	9760.44
519.073	9790.49
519.44	9864.84
519.808	10010.82
520.175	10024.38
520.542	10190.48
520.909	10163.14
521.276	10171.72
521.643	10348.67
522.009	10380.76
522.376	10549.79
522.743	10533.52
523.11	10642.45
523.477	10799.96
523.843	10827.98
524.21	10976.45
524.577	10957.47
524.943	11123.79
525.31	11077.24
525.676	11251.7
526.043	11320.62
526.409	11333.28
526.776	11488.53
527.142	11498.02
527.508	11534.85
527.874	11642.87
528.241	11795.41
528.607	11799.48
528.973	11835.86
529.339	11841.28
529.705	11999.47
530.071	12103.65
530.437	12191.78
530.803	12314.94
531.169	12292.8
531.535	12354.04
531.901	12398.33
532.267	12516.52
532.632	12517.2
532.998	12582.28
533.364	12702.28
533.73	12693.69
534.095	12886
534.461	12853.91
534.826	12923.29
535.192	12969.16
535.557	13120.35
535.923	13102.04
536.288	13115.38
536.653	13182.49
537.019	13212.55
537.384	13306.33
537.749	13291.87
538.114	13320.34
538.479	13339.32
538.845	13424.97
539.21	13434.69
539.575	13570.05
539.94	13584.29
540.305	13694.34
540.67	13641.46
541.034	13820.44
541.399	13810.5
541.764	13865.86
542.129	13896.82
542.494	13880.78
542.858	14091.17
543.223	14050.04
543.587	14074.22
543.952	14083.26
544.316	14190.83
544.681	14176.82
545.045	14365.29
545.41	14299.3
545.774	14383.14
546.138	14400.99
546.503	14475.34
546.867	14433.98
547.231	14596.01
547.595	14613.87
547.959	14687.09
548.324	14710.14
548.688	14695.9
549.052	14720.98
549.416	14850.47
549.779	14852.05
550.143	14865.39
550.507	15016.57
550.871	15102.44
551.235	15108.54
551.599	15217.92
551.962	15252.95
552.326	15261.53
552.689	15414.98
553.053	15265.38
553.417	15348.99
553.78	15551.24
554.143	15568.19
554.507	15558.02
554.87	15731.13
555.234	15811.12
555.597	15766.38
555.96	15827.17
556.323	15917.79
556.686	15908.3
557.05	16065.81
557.413	16098.12
557.776	16209.76
558.139	16322.75
558.502	16287.04
558.865	16460.82
559.228	16573.82
559.59	16587.15
559.953	16586.92
560.316	16775.62
560.679	16782.17
561.041	16941.04
561.404	16978.1
561.767	17064.88
562.129	17037.53
562.492	17279.56
562.854	17266.23
563.217	17216.28
563.579	17363.85
563.941	17443.62
564.304	17575.82
564.666	17701.02
565.028	17653.11
565.39	17714.58
565.753	17888.13
566.115	17902.37
566.477	18019.2
566.839	17990.05
567.201	18152.76
567.563	18192.76
567.925	18399.76
568.287	18324.5
568.648	18364.28
569.01	18463.71
569.372	18615.8
569.734	18520.66
570.095	18663.03
570.457	18811.04
570.819	18931.04
571.18	18826.64
571.542	18977.59
571.903	18934.21
572.265	19092.39
572.626	19084.48
572.987	19237.02
573.349	19211.49
573.71	19313.63
574.071	19319.73
574.432	19445.6
574.794	19542.1
575.155	19498.03
575.516	19489.9
575.877	19602.21
576.238	19557.69
576.599	19687.63
576.96	19627.07
577.32	19706.16
577.681	19813.96
578.042	19873.62
578.403	19889.89
578.763	19846.5
579.124	19936.89
579.485	19985.03
579.845	20033.16
580.206	20040.39
580.566	19990.9
580.927	20028.64
581.287	20096.66
581.648	19969.88
582.008	20250.1
582.368	20156.55
582.728	20140.95
583.089	20194.74
583.449	20139.82
583.809	20260.95
584.169	20249.65
584.529	20193.38
584.889	20375.3
585.249	20278.8
585.609	20173.95
585.969	20316.77
586.329	20222.76
586.688	20299.37
587.048	20245.58
587.408	20244.45
587.768	20219.82
588.127	20288.52
588.487	20204.91
588.846	20349.99
589.206	20252.59
589.565	20245.81
589.925	20385.24
590.284	20324
590.643	20307.28
591.003	20325.36
591.362	20303.44
591.721	20315.41
592.08	20300.5
592.44	20402.64
592.799	20325.58
593.158	20345.24
593.517	20418.69
593.876	20436.99
594.235	20335.98
594.593	20349.76
594.952	20444.67
595.311	20410.55
595.67	20388.4
596.029	20556.08
596.387	20510.21
596.746	20490.1
597.104	20358.8
597.463	20595.63
597.822	20530.32
598.18	20538.46
598.538	20527.16
598.897	20493.49
599.255	20369.2
599.613	20734.61
599.972	20745.91
600.33	20676.08
600.688	20571.68
601.046	20626.14
601.404	20678.34
601.762	20660.26
602.12	20772.35
602.478	20623.2
602.836	20772.58
603.194	20589.53
603.552	20703.2
603.91	20632.69
604.268	20731.22
604.625	20742.29
604.983	20712.69
605.341	20613.03
605.698	20719.24
606.056	20905.23
606.413	20788.17
606.771	20941.38
607.128	20930.54
607.485	20754.5
607.843	20863.19
608.2	21079.46
608.557	21064.32
608.914	20974.6
609.272	20963.3
609.629	21109.74
609.986	21230.64
610.343	21069.06
610.7	21190.42
611.057	21221.6
611.414	21069.97
611.771	21126.24
612.127	21205.78
612.484	21171.89
612.841	21277.87
613.198	21195.39
613.554	21229.96
613.911	21253.92
614.267	21322.84
614.624	21320.13
614.98	21368.72
615.337	21448.04
615.693	21460.01
616.05	21392.45
616.406	21520.35
616.762	21446.23
617.118	21469.51
617.475	21429.96
617.831	21496.85
618.187	21486.23
618.543	21536.17
618.899	21598.77
619.255	21515.61
619.611	21575.72
619.967	21662.5
620.323	21696.62
620.678	21600.35
621.034	21543.18
621.39	21549.73
621.746	21517.87
622.101	21835.6
622.457	21564.64
622.812	21678.31
623.168	21692.78
623.523	21635.15
623.879	21679.9
624.234	21553.12
624.589	21576.85
624.945	21651.87
625.3	21736.62
625.655	21530.52
626.01	21661.59
626.365	21580.69
626.72	21552.89
627.075	21599.67
627.43	21437.19
627.785	21518.77
628.14	21558.32
628.495	21534.36
628.85	21604.19
629.205	21497.53
629.559	21562.84
629.914	21451.88
630.269	21470.41
630.623	21387.7
630.978	21457.3
631.332	21372.79
631.687	21418.66
632.041	21379.11
632.396	21399
632.75	21350.64
633.104	21334.37
633.459	21159.23
633.813	21273.13
634.167	21185.22
634.521	21171.43
634.875	21303.18
635.229	21174.15
635.583	21012.79
635.937	21090.53
636.291	21105.67
636.645	20947.49
636.999	20935.96
637.352	20984.1
637.706	20890.99
638.06	20859.35
638.413	20846.92
638.767	20761.73
639.121	20750.88
639.474	20761.95
639.828	20716.08
640.181	20732.35
640.534	20765.57
640.888	20698.45
641.241	20623.2
641.594	20570.32
641.947	20641.05
642.301	20507.27
642.654	20618.68
643.007	20573.48
643.36	20481.96
643.713	20553.6
644.066	20554.95
644.419	20353.38
644.771	20302.98
645.124	20014.18
645.477	19964.01
645.83	19868.42
646.182	19833.62
646.535	19742.55
646.888	19777.35
647.24	19757.01
647.593	19875.88
647.945	19809.89
648.298	19754.3
648.65	19629.55
649.002	19561.08
649.355	19692.83
649.707	19607.86
650.059	19680.4
650.411	19812.15
650.763	19876.55
651.115	19995.65
651.467	19942.77
651.819	19948.64
652.171	19921.75
652.523	19902.77
652.875	19829.1
653.227	19757.23
653.578	19903.67
653.93	19807.4
654.282	19672.04
654.633	19707.97
654.985	19795.65
655.337	19811.7
655.688	19757.46
656.039	19857.8
656.391	19545.49
656.742	19628.42
657.094	19611.02
657.445	19637.24
657.796	19664.36
658.147	19584.36
658.498	19633.4
658.849	19625.71
659.2	19526.05
659.551	19471.59
659.902	19608.09
660.253	19575.54
660.604	19543
660.955	19419.84
661.306	19507.07
661.656	19451.03
662.007	19441.31
662.358	19424.81
662.708	19527.86
663.059	19325.38
663.409	19343.69
663.76	19420.97
664.11	19432.05
664.461	19466.17
664.811	19273.86
665.161	19242.67
665.511	19261.88
665.862	19136.91
666.212	19255.55
666.562	19366.28
666.912	19265.27
667.262	19286.51
667.612	19302.78
667.962	19334.65
668.312	19194.76
668.662	19351.37
669.011	19252.39
669.361	19277.25
669.711	19132.62
670.06	19144.14
670.41	19136.01
670.76	19069.8
671.109	19152.96
671.459	19110.47
671.808	19125.61
672.157	19164.48
672.507	19029.57
672.856	18959.29
673.205	19066.41
673.554	19038.38
673.904	18936.92
674.253	19049.68
674.602	19011.27
674.951	18766.53
675.3	18747.09
675.649	19020.98
675.998	19003.13
676.346	18969.01
676.695	18933.53
677.044	18879.07
677.393	18943.92
677.741	18846.98
678.09	18733.53
678.438	18792.51
678.787	18829.8
679.135	18884.04
679.484	18715.91
679.832	18834.32
680.181	18655.57
680.529	18693.08
680.877	18647.43
681.225	18598.85
681.573	18756.58
681.922	18510.49
682.27	18585.06
682.618	18549.36
682.966	18564.05
683.314	18564.95
683.661	18302.36
684.009	18342.36
684.357	18343.03
684.705	18247.67
685.053	18243.6
685.4	18210.16
685.748	18162.47
686.095	18132.64
686.443	18114.11
686.79	18061.69
687.138	18044.74
687.485	18007
687.832	17895.59
688.18	17953.44
688.527	17877.51
688.874	17839.09
689.221	17805.65
689.568	17805.87
689.915	17712.09
690.262	17768.13
690.609	17671.41
690.956	17638.87
691.303	17567.46
691.65	17603.17
691.997	17421.7
692.344	17504.86
692.69	17474.36
693.037	17363.4
693.383	17319.78
693.73	17404.75
694.077	17232.1
694.423	17193.46
694.769	17111.88
695.116	17081.82
695.462	17047.7
695.808	16962.51
696.155	17049.96
696.501	16908.72
696.847	16847.71
697.193	16799.57
697.539	16812.91
697.885	16810.65
698.231	16661.72
698.577	16617.66
698.923	16561.61
699.269	16598.22
699.614	16422.63
699.96	16383.76
700.306	16480.71
700.651	16370.88
700.997	16362.52
701.342	16291.79
701.688	16298.79
702.033	16179.02
702.379	16202.75
702.724	16056.54
703.069	16247.27
703.415	15989.2
703.76	16026.71
704.105	15986.03
704.45	15828.07
704.795	15806.83
705.14	15851.12
705.485	15800.05
705.83	15630.11
706.175	15712.82
706.52	15757.57
706.865	15677.79
707.209	15523.67
707.554	15478.03
707.899	15533.39
708.243	15451.81
708.588	15460.17
708.932	15380.63
709.277	15334.3
709.621	15335.88
709.966	15295.21
710.31	15302.89
710.654	15135.66
710.998	15178.37
711.342	15142.89
711.687	15156.45
712.031	15051.37
712.375	14991.71
712.719	15018.83
713.063	14960.3
713.407	15054.76
713.75	15006.85
714.094	14900.64
714.438	14796.46
714.782	14923.01
715.125	14754.88
715.469	14829.91
715.812	14679.18
716.156	14596.69
716.499	14689.57
716.843	14679.63
717.186	14542.68
717.53	14708.55
717.873	14624.71
718.216	14576.58
718.559	14531.61
718.902	14422.01
719.246	14498.39
719.589	14495.68
719.932	14318.73
720.275	14379.75
720.617	14320.09
720.96	14191.28
721.303	14266.31
721.646	14303.14
721.989	14192.64
722.331	14188.57
722.674	14105.41
723.016	14165.29
723.359	14208.91
723.701	14262.46
724.044	13988.35
724.386	14083.49
724.729	14090.49
725.071	14062.24
725.413	14045.29
725.755	14051.4
726.097	13855.92
726.439	13896.6
726.782	13833.55
727.124	13911.51
727.465	13837.84
727.807	13860.44
728.149	13819.76
728.491	13779.31
728.833	13828.13
729.175	13710.84
729.516	13656.38
729.858	13705.64
730.199	13764.62
730.541	13621.35
730.882	13621.58
731.224	13701.8
731.565	13598.3
731.906	13516.49
732.248	13542.26
732.589	13505.2
732.93	13430.17
733.271	13401.7
733.612	13508.81
733.953	13483.28
734.294	13421.36
734.635	13424.52
734.976	13359.89
735.317	13273.34
735.658	13331.42
735.999	13293.68
736.339	13272.89
736.68	13323.28
737.021	13221.14
737.361	13169.61
737.702	13222.94
738.042	13199.22
738.383	13194.02
738.723	13154.24
739.063	13127.13
739.404	13120.12
739.744	13111.31
740.084	13034.47
740.424	13100.91
740.764	12955.83
741.104	13043.06
741.444	12962.84
741.784	12954.7
742.124	12970.52
742.464	13023.63
742.804	12874.25
743.143	12910.18
743.483	12830.86
743.823	12762.84
744.162	12740.7
744.502	12843.52
744.841	12732.33
745.181	12807.59
745.52	12746.8
745.86	12732.56
746.199	12650.75
746.538	12732.79
746.877	12675.39
747.216	12699.57
747.556	12664.31
747.895	12544.77
748.234	12560.36
748.573	12535.5
748.911	12536.18
749.25	12478.78
749.589	12449.86
749.928	12507.71
750.267	12423.42
750.605	12484.21
750.944	12396.07
751.283	12310.65
751.621	12319.46
751.96	12282.86
752.298	12264.1
752.636	12287.37
752.975	12282.86
753.313	12152.91
753.651	12258.45
753.989	12121.96
754.327	12168.28
754.666	12041.96
755.004	12110.43
755.342	12078.57
755.679	12028.85
756.017	12021.62
756.355	12018
756.693	11921.51
757.031	11993.37
757.368	11840.83
757.706	11856.88
758.044	11868.85
758.381	11850.32
758.719	11826.6
759.056	11693.72
759.394	11657.56
759.731	11615.3
760.068	11674.96
760.405	11598.58
760.743	11568.75
761.08	11561.07
761.417	11509.09
761.754	11440.39
762.091	11519.94
762.428	11419.37
762.765	11313.61
763.102	11321.52
763.438	11340.73
763.775	11234.3
764.112	11232.71
764.449	11318.59
764.785	11232.49
765.122	11144.81
765.458	11055.09
765.795	11047.18
766.131	11024.13
766.467	10945.26
766.804	10962.44
767.14	10895.09
767.476	10916.34
767.812	10839.5
768.148	10866.85
768.485	10737.13
768.821	10649
769.157	10658.49
769.492	10691.48
769.828	10617.59
770.164	10529.45
770.5	10594.31
770.836	10545.05
771.171	10473.86
771.507	10461.66
771.842	10389.57
772.178	10377.37
772.513	10397.03
772.849	10300.53
773.184	10256.69
773.519	10294.21
773.855	10205.17
774.19	10228.45
774.525	10138.05
774.86	10160.42
775.195	10132.4
775.53	10143.02
775.865	10022.8
776.2	9990.26
776.535	9902.8
776.87	9958.85
777.205	9860.09
777.539	9853.77
777.874	9800.66
778.209	9742.58
778.543	9733.32
778.878	9652.19
779.212	9678.63
779.547	9578.07
779.881	9642.92
780.215	9571.97
780.55	9638.86
780.884	9495.81
781.218	9493.32
781.552	9474.12
781.886	9419.43
782.22	9367.68
782.554	9335.36
782.888	9297.62
783.222	9239.09
783.556	9215.59
783.889	9209.72
784.223	9105.76
784.557	9123.62
784.89	9161.36
785.224	9080.23
785.557	9025.09
785.891	9013.56
786.224	9023.05
786.558	9028.48
786.891	8930.85
787.224	8822.38
787.557	8805.88
787.891	8797.97
788.224	8762.27
788.557	8783.29
788.89	8780.8
789.223	8739.9
789.556	8732.21
789.888	8648.6
790.221	8601.82
790.554	8530.41
790.887	8580.81
791.219	8546.68
791.552	8537.87
791.884	8494.25
792.217	8464.2
792.549	8485.21
792.882	8394.14
793.214	8355.73
793.546	8401.15
793.879	8296.29
794.211	8289.74
794.543	8262.17
794.875	8250.64
795.207	8300.13
795.539	8187.6
795.871	8307.37
796.203	8130.65
796.535	8044.55
796.867	8031.67
797.198	8069.86
797.53	7999.8
797.862	7965
798.193	8053.36
798.525	7966.58
798.856	7927.49
799.188	7841.62
799.519	7854.72
799.85	7808.17
800.182	7809.07
800.513	7818.79
800.844	7781.73
801.175	7765.23
801.506	7743.77
801.837	7745.35
802.168	7653.37
802.499	7652.47
802.83	7605.01
803.161	7598.91
803.491	7664.67
803.822	7613.37
804.153	7537.67
804.483	7459.7
804.814	7480.72
805.145	7439.82
805.475	7498.12
805.805	7476.43
806.136	7393.04
806.466	7442.53
806.796	7364.79
807.126	7369.54
807.457	7359.14
807.787	7328.18
808.117	7291.12
808.447	7240.73
808.777	7279.14
809.107	7282.99
809.436	7165.48
809.766	7177.9
810.096	7209.77
810.426	7169.09
810.755	7157.57
811.085	7151.46
811.414	7136.1
811.744	7064.24
812.073	7116.21
812.403	7071.47
812.732	7057.23
813.061	7004.12
813.39	6994.18
813.719	6993.05
814.049	7036.44
814.378	6988.53
814.707	6921.41
815.036	6932.94
815.365	6861.3
815.693	6836.67
816.022	6851.81
816.351	6843
816.68	6753.73
817.008	6862.88
817.337	6809.55
817.665	6737.69
817.994	6790.12
818.322	6805.48
818.651	6713.74
818.979	6726.62
819.307	6703.34
819.636	6704.7
819.964	6703.57
820.292	6649.56
820.62	6636.45
820.948	6653.62
821.276	6619.05
821.604	6626.28
821.932	6587.86
822.259	6653.17
822.587	6634.42
822.915	6569.33
823.243	6688.2
823.57	6556.68
823.898	6658.37
824.225	6570.24
824.553	6588.54
824.88	6666.96
825.207	6614.3
825.535	6563.23
825.862	6584.93
826.189	6538.6
826.516	6598.03
826.843	6598.48
827.17	6605.26
827.497	6623.34
827.824	6566.4
828.151	6591.03
828.478	6564.36
828.805	6600.07
829.131	6567.98
829.458	6541.31
829.785	6540.18
830.111	6640.97
830.438	6600.97
830.764	6559.62
831.09	6542.44
831.417	6554.64
831.743	6558.49
832.069	6551.48
832.395	6571.59
832.722	6577.24
833.048	6526.85
833.374	6516.9
833.7	6567.3
834.026	6514.87
834.351	6545.38
834.677	6528.43
835.003	6521.2
835.329	6501.99
835.654	6470.8
835.98	6485.72
836.306	6457.92
836.631	6506.74
836.956	6479.84
837.282	6490.24
837.607	6398.26
837.932	6431.26
838.258	6463.35
838.583	6384.03
838.908	6400.3
839.233	6411.82
839.558	6321.66
839.883	6356.91
840.208	6382.67
840.533	6323.24
840.858	6308.77
841.182	6346.97
841.507	6327.31
841.832	6240.98
842.156	6280.3
842.481	6270.81
842.805	6224.03
843.13	6183.81
843.454	6247.08
843.778	6238.95
844.103	6174.09
844.427	6182.45
844.751	6165.95
845.075	6185.61
845.399	6154.88
845.723	6087.99
846.047	6149
846.371	6101.32
846.695	6089.12
847.019	6029.91
847.343	6029.23
847.666	5971.38
847.99	5998.05
848.313	5919.63
848.637	5920.99
848.96	5893.42
849.284	5913.98
849.607	5850.48
849.931	5857.49
850.254	5810.03
850.577	5776.59
850.9	5682.35
851.223	5736.36
851.546	5737.04
851.869	5687.1
852.192	5688.9
852.515	5693.65
852.838	5653.2
853.161	5604.61
853.483	5585.86
853.806	5617.49
854.129	5603.93
854.451	5551.96
854.774	5534.78
855.096	5523.94
855.419	5489.14
855.741	5514.45
856.063	5446.65
856.385	5447.55
856.708	5424.73
857.03	5404.17
857.352	5420.21
857.674	5377.5
857.996	5400.1
858.318	5310.83
858.64	5350.38
858.961	5358.97
859.283	5298.63
859.605	5243.94
859.926	5335.69
860.248	5280.78
860.57	5274.9
860.891	5273.77
861.212	5211.63
861.534	5200.1
861.855	5230.39
862.176	5209.14
862.498	5193.32
862.819	5191.97
863.14	5178.86
863.461	5164.85
863.782	5122.59
864.103	5176.15
864.424	5169.6
864.745	5158.3
865.065	5130.05
865.386	5078.98
865.707	5083.04
866.027	5066.32
866.348	5082.59
866.668	5091.41
866.989	5048.47
867.309	5060.22
867.63	5053.44
867.95	5012.09
868.27	5040.56
868.59	5042.14
868.91	4971.41
869.23	5010.5
869.55	4984.52
869.87	5000.79
870.19	4979.54
870.51	4956.04
870.83	4977.51
871.15	4952.43
871.469	4952.2
871.789	4982.26
872.109	4914.46
872.428	4894.35
872.748	4930.05
873.067	4915.37
873.386	4881.47
873.706	4901.58
874.025	4913.33
874.344	4860.45
874.663	4875.14
874.982	4853.22
875.301	4861.36
875.62	4822.26
875.939	4816.84
876.258	4871.75
876.577	4820.68
876.896	4783.39
877.214	4745.65
877.533	4801.92
877.852	4812.09
878.17	4809.15
878.489	4764.63
878.807	4729.83
879.125	4762.15
879.444	4731.87
879.762	4767.35
880.08	4715.14
880.398	4736.16
880.716	4707.46
881.034	4767.8
881.352	4730.74
881.67	4734.8
881.988	4673.11
882.306	4707.01
882.624	4627.46
882.941	4675.15
883.259	4631.53
883.577	4615.49
883.894	4622.04
884.212	4608.48
884.529	4635.37
884.846	4619.55
885.164	4610.51
885.481	4565.32
885.798	4559.22
886.115	4542.04
886.432	4521.48
886.75	4537.97
887.067	4534.36
887.383	4529.61
887.7	4519.22
888.017	4478.99
888.334	4462.5
888.651	4530.06
888.967	4482.16
889.284	4444.19
889.6	4386.79
889.917	4369.62
890.233	4327.81
890.55	4407.13
890.866	4395.38
891.182	4384.76
891.498	4363.97
891.815	4332.56
892.131	4300.47
892.447	4356.74
892.763	4355.15
893.079	4307.7
893.395	4283.52
893.71	4260.47
894.026	4264.99
894.342	4251.43
894.657	4281.48
894.973	4229.51
895.289	4229.96
895.604	4206.68
895.92	4226.57
896.235	4225.89
896.55	4167.81
896.865	4151.54
897.181	4121.94
897.496	4142.05
897.811	4143.41
898.126	4099.12
898.441	4137.76
898.756	4025.45
899.071	4086.23
899.386	4087.36
899.7	4024.99
900.015	4015.95
900.33	3963.53
900.644	3994.49
900.959	4005.33
901.273	4001.04
901.588	3906.8
901.902	3971.44
902.216	3972.34
902.531	3848.5
902.845	3925.79
903.159	3878.1
903.473	3859.12
903.787	3833.81
904.101	3854.6
904.415	3839.24
904.729	3867.26
905.042	3821.83
905.356	3762.63
905.67	3751.55
905.984	3749.07
906.297	3735.06
906.611	3717.66
906.924	3707.04
907.237	3715.4
907.551	3689.41
907.864	3699.8
908.177	3685.11
908.491	3670.65
908.804	3672.01
909.117	3629.3
909.43	3657.55
909.743	3610.99
910.056	3613.48
910.368	3559.69
910.681	3542.07
910.994	3547.72
911.307	3566.25
911.619	3537.77
911.932	3550.66
912.244	3558.34
912.557	3498
912.869	3473.14
913.181	3455.97
913.494	3446.93
913.806	3433.82
914.118	3436.31
914.43	3392.47
914.742	3399.47
915.054	3388.17
915.366	3386.14
915.678	3335.52
915.99	3350.89
916.302	3307.27
916.613	3316.76
916.925	3281.96
917.236	3307.05
917.548	3278.57
917.859	3264.11
918.171	3273.15
918.482	3237.44
918.794	3251.91
919.105	3194.51
919.416	3188.4
919.727	3194.05
920.038	3182.76
920.349	3205.58
920.66	3178.91
920.971	3109.99
921.282	3124.45
921.593	3116.99
921.903	3110.89
922.214	3090.33
922.525	3099.14
922.835	3041.29
923.146	3031.8
923.456	3024.12
923.767	3034.96
924.077	3042.19
924.387	2997.45
924.697	3020.5
925.008	2958.35
925.318	2959.26
925.628	2962.42
925.938	2951.57
926.248	2933.72
926.558	2943.44
926.867	2936.21
927.177	2883.33
927.487	2899.37
927.796	2875.19
928.106	2862.76
928.416	2854.4
928.725	2863.44
929.034	2839.71
929.344	2827.06
929.653	2795.65
929.962	2791.81
930.271	2772.14
930.581	2795.65
930.89	2752.26
931.199	2704.8
931.508	2715.65
931.817	2741.64
932.125	2725.82
932.434	2728.53
932.743	2681.3
933.051	2669.77
933.36	2645.59
933.669	2630.68
933.977	2618.25
934.286	2620.96
934.594	2630.23
934.902	2593.84
935.21	2590.23
935.519	2581.87
935.827	2593.17
936.135	2573.96
936.443	2548.87
936.751	2523.11
937.059	2560.85
937.367	2547.52
937.674	2538.25
937.982	2516.78
938.29	2507.74
938.597	2509.33
938.905	2473.62
939.213	2495.32
939.52	2456.45
939.827	2477.92
940.135	2483.11
940.442	2409.67
940.749	2436.33
941.056	2429.33
941.363	2393.4
941.67	2403.79
941.977	2424.58
942.284	2375.77
942.591	2374.64
942.898	2374.41
943.205	2368.09
943.511	2344.59
943.818	2354.08
944.125	2324.25
944.431	2290.58
944.738	2301.87
945.044	2336.9
945.35	2268.2
945.657	2295.1
945.963	2258.49
946.269	2241.09
946.575	2276.11
946.881	2210.35
947.187	2236.34
947.493	2222.55
947.799	2185.49
948.105	2215.78
948.41	2188.21
948.716	2176.68
949.022	2237.47
949.327	2183.91
949.633	2158.83
949.938	2166.51
950.244	2125.16
950.549	2148.88
950.854	2157.47
951.16	2134.65
951.465	2127.42
951.77	2126.74
952.075	2094.42
952.38	2078.38
952.685	2065.04
952.99	2064.82
953.294	2059.4
953.599	2075.44
953.904	2050.58
954.209	2044.25
954.513	2004.71
954.818	2042.9
955.122	2045.84
955.426	2035.67
955.731	1996.57
956.035	1990.02
956.339	1997.7
956.643	1977.59
956.948	1940.98
957.252	1957.25
957.556	1966.74
957.86	1910.25
958.163	1927.65
958.467	1967.19
958.771	1940.53
959.075	1964.26
959.378	1925.39
959.682	1910.92
959.985	1893.98
960.289	1879.51
960.592	1891.04
960.896	1876.12
961.199	1865.73
961.502	1889.46
961.805	1869.8
962.108	1844.49
962.411	1848.55
962.714	1841.77
963.017	1826.18
963.32	1832.51
963.623	1809.23
963.926	1794.32
964.228	1821.21
964.531	1777.37
964.833	1783.47
965.136	1737.14
965.438	1772.85
965.741	1757.03
966.043	1765.84
966.345	1731.95
966.648	1735.56
966.95	1740.99
967.252	1728.56
967.554	1730.59
967.856	1707.99
968.158	1687.2
968.46	1712.29
968.761	1703.7
969.063	1650.59
969.365	1681.55
969.666	1689.91
969.968	1670.93
970.269	1669.35
970.571	1651.04
970.872	1674.32
971.174	1644.72
971.475	1643.13
971.776	1630.03
972.077	1599.29
972.378	1610.82
972.679	1599.07
972.98	1611.27
973.281	1607.2
973.582	1617.37
973.883	1584.15
974.183	1575.79
974.484	1573.98
974.785	1562.01
975.085	1549.8
975.386	1553.87
975.686	1543.7
975.986	1543.7
976.287	1514.1
976.587	1541.44
976.887	1513.42
977.187	1535.12
977.487	1524.49
977.787	1521.33
978.087	1505.96
978.387	1498.05
978.687	1495.57
978.987	1466.64
979.286	1496.47
979.586	1468.9
979.885	1447.43
980.185	1480.2
980.484	1465.06
980.784	1439.07
981.083	1450.6
981.382	1464.61
981.682	1434.1
981.981	1422.8
982.28	1438.17
982.579	1423.25
982.878	1407.66
983.177	1411.28
983.475	1399.53
983.774	1407.43
984.073	1383.48
984.372	1379.41
984.67	1378.96
984.969	1365.4
985.267	1374.67
985.566	1378.28
985.864	1329.24
986.162	1346.19
986.461	1331.05
986.759	1321.79
987.057	1328.79
987.355	1321.11
987.653	1314.78
987.951	1321.34
988.249	1305.97
988.547	1307.1
988.844	1334.22
989.142	1280.66
989.44	1298.51
989.737	1264.61
990.035	1262.81
990.332	1268.68
990.63	1280.88
990.927	1246.54
991.224	1277.49
991.521	1258.51
991.819	1260.55
992.116	1235.24
992.413	1242.24
992.71	1235.46
993.006	1240.21
993.303	1246.99
993.6	1234.78
993.897	1214.22
994.193	1199.53
994.49	1210.83
994.787	1205.41
995.083	1206.54
995.379	1203.6
995.676	1172.64
995.972	1179.87
996.268	1185.29
996.565	1175.12
996.861	1138.29
997.157	1159.53
997.453	1164.05
997.749	1143.49
998.044	1166.54
998.34	1137.84
998.636	1159.31
998.932	1125.63
999.227	1130.38
999.523	1127.44
999.818	1138.97
1000.114	1129.48
1000.409	1107.33
1000.704	1084.05
1001	1117.95
1001.295	1075.69
1001.59	1080.66
1001.885	1085.41
1002.18	1072.08
1002.475	1084.05
1002.77	1097.39
1003.065	1086.54
1003.359	1080.89
1003.654	1066.88
1003.949	1041.34
1004.243	1060.33
1004.538	1046.31
1004.832	1046.09
1005.127	1044.28
1005.421	1016.94
1005.715	1032.76
1006.009	1034.11
1006.304	1001.12
1006.598	1036.15
1006.892	993.89
1007.186	983.04
1007.48	980.78
1007.773	978.75
1008.067	987.11
1008.361	971.51
1008.655	984.17
1008.948	964.96
1009.242	967.22
1009.535	975.58
1009.829	952.53
1010.122	950.05
1010.415	948.46
1010.708	946.88
1011.001	934.68
1011.295	943.27
1011.588	913.89
1011.881	924.51
1012.173	919.76
1012.466	925.64
1012.759	904.17
1013.052	918.86
1013.344	916.83
1013.637	915.47
1013.93	903.04
1014.222	879.09
1014.514	883.83
1014.807	894.91
1015.099	880.67
1015.391	863.95
1015.683	856.04
1015.976	887.45
1016.268	872.31
1016.56	867.56
1016.851	846.77
1017.143	877.73
1017.435	852.65
1017.727	840.67
1018.018	839.54
1018.31	846.09
1018.602	830.95
1018.893	857.62
1019.185	839.54
1019.476	848.13
1019.767	831.18
1020.058	807
1020.35	814.68
1020.641	793.21
1020.932	798.86
1021.223	808.35
1021.514	795.93
1021.804	791.18
1022.095	774.01
1022.386	808.35
1022.677	755.25
1022.967	751.18
1023.258	748.24
1023.548	769.49
1023.839	727.9
1024.129	749.82
1024.419	752.99
1024.709	750.28
1025	740.79
1025.29	736.04
1025.58	737.62
1025.87	745.08
1026.16	743.5
1026.449	724.29
1026.739	710.73
1027.029	700.79
1027.319	722.48
1027.608	709.37
1027.898	705.76
1028.187	719.77
1028.477	689.04
1028.766	705.98
1029.055	694.23
1029.344	700.11
1029.634	680.9
1029.923	704.18
1030.212	699.2
1030.501	679.32
1030.79	672.99
1031.078	667.12
1031.367	673.22
1031.656	665.76
1031.945	676.38
1032.233	662.14
1032.522	658.08
1032.81	662.14
1033.099	637.06
1033.387	639.55
1033.675	643.84
1033.963	635.7
1034.251	638.42
1034.54	637.96
1034.828	632.99
1035.116	632.31
1035.403	617.85
1035.691	620.56
1035.979	615.14
1036.267	616.72
1036.554	634.35
1036.842	620.56
1037.129	607.23
1037.417	611.75
1037.704	612.88
1037.992	605.42
1038.279	605.65
1038.566	585.76
1038.853	585.76
1039.14	585.76
