Data from foam_black_FLMS001491_00020.txt Node
Date: Wed Feb 08 10:43:36 GMT 2017
User: dcchb
Spectrometer: FLMS00149
Trigger mode: 0
Integration Time (sec): 2.000000E-2
Scans to average: 10
Electric dark correction enabled: true
Nonlinearity correction enabled: false
Boxcar width: 0
XAxis mode: Wavelengths
Number of Pixels in Spectrum: 2048
>>>>>Begin Spectral Data<<<<<
341.393	-18.33
341.776	-18.33
342.16	-18.33
342.543	-61.72
342.927	-69.4
343.31	-47.48
343.693	-64.89
344.077	-60.14
344.46	-80.7
344.843	-59.24
345.226	-42.96
345.61	-26.24
345.993	-35.96
346.376	7.66
346.759	8.33
347.142	13.98
347.525	51.95
347.908	65.51
348.291	74.77
348.674	84.04
349.057	111.38
349.44	117.03
349.823	121.32
350.206	159.52
350.588	192.51
350.971	182.79
351.354	216.92
351.737	218.72
352.119	252.85
352.502	265.28
352.884	258.95
353.267	254.88
353.65	272.28
354.032	302.79
354.414	293.75
354.797	294.88
355.179	307.76
355.562	311.83
355.944	317.93
356.326	330.36
356.709	331.71
357.091	326.06
357.473	343.47
357.855	335.33
358.238	315.44
358.62	337.59
359.002	345.05
359.384	331.49
359.766	326.52
360.148	340.53
360.53	342.34
360.912	322.9
361.294	330.13
361.676	338.49
362.057	329.91
362.439	300.75
362.821	320.19
363.203	312.51
363.584	321.55
363.966	342.79
364.348	311.15
364.729	298.49
365.111	319.29
365.493	317.48
365.874	295.78
366.256	308.89
366.637	329.45
367.019	308.44
367.4	314.99
367.781	302.79
368.163	312.73
368.544	309.34
368.925	317.48
369.306	351.83
369.688	304.37
370.069	305.05
370.45	298.27
370.831	309.79
371.212	323.58
371.593	303.69
371.974	336.01
372.355	317.48
372.736	322
373.117	327.42
373.498	302.11
373.879	307.53
374.26	315.22
374.641	322.45
375.021	307.76
375.402	310.7
375.783	333.07
376.163	340.98
376.544	305.5
376.925	326.74
377.305	344.37
377.686	339.4
378.066	321.09
378.447	326.29
378.827	353.86
379.208	344.14
379.588	333.3
379.968	331.49
380.349	352.28
380.729	327.19
381.109	319.51
381.489	346.86
381.87	326.06
382.25	350.02
382.63	355.89
383.01	345.5
383.39	359.74
383.77	371.26
384.15	361.54
384.53	357.93
384.91	380.98
385.29	375.33
385.67	377.36
386.049	378.04
386.429	378.27
386.809	364.48
387.189	367.65
387.568	369.45
387.948	383.24
388.328	370.13
388.707	386.18
389.087	374.65
389.466	392.28
389.846	378.49
390.225	402.22
390.605	386.4
390.984	377.14
391.363	406.06
391.743	394.54
392.122	392.5
392.501	406.74
392.881	401.09
393.26	410.36
393.639	410.36
394.018	414.2
394.397	396.8
394.776	408.1
395.155	397.7
395.534	405.61
395.913	403.12
396.292	420.75
396.671	409.45
397.05	419.62
397.429	425.95
397.808	431.37
398.186	417.36
398.565	432.73
398.944	444.03
399.323	426.4
399.701	422.11
400.08	449
400.458	429.11
400.837	434.31
401.215	439.28
401.594	437.93
401.972	465.27
402.351	451.26
402.729	475.67
403.107	443.12
403.486	482.22
403.864	460.98
404.242	477.93
404.62	462.56
404.999	479.06
405.377	479.51
405.755	478.15
406.133	485.83
406.511	485.61
406.889	468.89
407.267	495.1
407.645	471.6
408.023	498.94
408.401	509.56
408.779	517.25
409.156	529.9
409.534	523.8
409.912	515.66
410.29	524.7
410.667	528.32
411.045	544.14
411.422	526.74
411.8	509.79
412.178	550.92
412.555	525.38
412.933	559.05
413.31	557.92
413.687	573.52
414.065	569
414.442	553.4
414.819	573.97
415.197	573.06
415.574	576.68
415.951	585.95
416.328	583.46
416.705	591.82
417.082	581.88
417.46	609.67
417.837	622.78
418.214	596.57
418.591	616
418.967	613.51
419.344	616.23
419.721	627.75
420.098	627.98
420.475	620.75
420.852	638.37
421.228	632.5
421.605	639.95
421.982	640.41
422.358	643.34
422.735	647.41
423.111	639.28
423.488	673.63
423.864	659.39
424.241	697.81
424.617	681.76
424.994	682.89
425.37	678.6
425.746	674.98
426.123	702.33
426.499	690.12
426.875	712.5
427.251	696.9
427.627	736.68
428.003	729.67
428.379	759.5
428.756	743.23
429.132	757.01
429.507	712.04
429.883	776.45
430.259	780.52
430.635	806.05
431.011	782.78
431.387	785.04
431.763	805.6
432.138	827.97
432.514	816.67
432.89	834.98
433.265	839.05
433.641	851.47
434.016	840.4
434.392	839.05
434.767	866.39
435.143	843.57
435.518	891.02
435.894	883.34
436.269	895.09
436.644	901.19
437.02	898.93
437.395	928.76
437.77	919.5
438.145	921.08
438.52	949.33
438.895	941.64
439.271	964.69
439.646	980.06
440.021	953.84
440.395	953.39
440.77	949.78
441.145	1004.01
441.52	979.83
441.895	988.65
442.27	998.14
442.645	986.39
443.019	986.39
443.394	1015.76
443.769	1012.15
444.143	1009.66
444.518	1026.16
444.892	1007.4
445.267	1041.3
445.641	1038.14
446.016	1036.33
446.39	1062.77
446.764	1052.15
447.139	1043.79
447.513	1036.78
447.887	1079.04
448.262	1084.91
448.636	1074.07
449.01	1104.8
449.384	1110.23
449.758	1084.69
450.132	1122.88
450.506	1116.1
450.88	1136.67
451.254	1157.68
451.628	1173.05
452.002	1155.42
452.376	1142.54
452.75	1182.09
453.123	1184.12
453.497	1173.95
453.871	1208.98
454.244	1236.32
454.618	1242.88
454.992	1250.79
455.365	1208.08
455.739	1268.64
456.112	1274.51
456.486	1282.42
456.859	1292.59
457.232	1322.2
457.606	1287.85
457.979	1320.16
458.352	1366.04
458.725	1351.57
459.099	1375.98
459.472	1411.23
459.845	1426.6
460.218	1411.91
460.591	1420.95
460.964	1448.3
461.337	1457.11
461.71	1481.97
462.083	1505.02
462.456	1485.58
462.829	1486.03
463.201	1513.15
463.574	1505.02
463.947	1554.06
464.32	1586.82
464.692	1582.75
465.065	1615.52
465.438	1599.48
465.81	1668.85
466.183	1651.68
466.555	1683.32
466.928	1699.59
467.3	1732.36
467.672	1739.36
468.045	1780.49
468.417	1788.4
468.789	1752.24
469.161	1791.79
469.534	1821.62
469.906	1837.89
470.278	1855.74
470.65	1901.16
471.022	1910.2
471.394	1925.57
471.766	1959.47
472.138	1964.67
472.51	2006.02
472.882	2025.91
473.253	2055.28
473.625	2099.58
473.997	2118.33
474.369	2113.59
474.74	2163.98
475.112	2201.27
475.484	2196.98
475.855	2259.57
476.227	2311.1
476.598	2347.71
476.97	2351.1
477.341	2366.24
477.713	2464.09
478.084	2465.9
478.455	2487.14
478.827	2494.6
479.198	2594.48
479.569	2579.34
479.94	2678.55
480.311	2655.27
480.682	2728.71
481.053	2758.54
481.424	2817.07
481.795	2873.79
482.166	2882.61
482.537	2909.5
482.908	2960.8
483.279	3015.94
483.65	3064.3
484.021	3100.91
484.391	3121.92
484.762	3150.17
485.133	3158.76
485.503	3211.41
485.874	3282.6
486.244	3294.57
486.615	3369.37
486.985	3387.45
487.356	3435.36
487.726	3441.01
488.097	3524.62
488.467	3538.41
488.837	3628.35
489.207	3657.05
489.578	3699.08
489.948	3744.28
490.318	3797.39
490.688	3822.24
491.058	3901.79
491.428	3910.6
491.798	3918.06
492.168	4016.82
492.538	4008.91
492.908	4128.9
493.278	4116.25
493.648	4102.69
494.017	4200.31
494.387	4219.97
494.757	4204.61
495.126	4284.83
495.496	4326.19
495.866	4399.4
496.235	4428.78
496.605	4427.65
496.974	4445.5
497.344	4470.14
497.713	4536.35
498.082	4549.46
498.452	4610.47
498.821	4632.17
499.19	4642.56
499.559	4651.15
499.928	4704.25
500.298	4732.05
500.667	4750.13
501.036	4794.42
501.405	4816.34
501.774	4815.66
502.143	4894.53
502.512	4913.29
502.88	4908.32
503.249	4903.57
503.618	4965.04
503.987	4988.54
504.356	5054.3
504.724	5086.39
505.093	5089.33
505.462	5122.55
505.83	5151.47
506.199	5196.45
506.567	5233.73
506.936	5276.9
507.304	5314.41
507.672	5358.7
508.041	5390.56
508.409	5462.65
508.777	5476.21
509.145	5550.11
509.514	5526.15
509.882	5565.7
510.25	5592.59
510.618	5637.34
510.986	5697.22
511.354	5675.08
511.722	5724.12
512.09	5767.5
512.458	5815.86
512.826	5842.98
513.193	5807.95
513.561	5831.91
513.929	5910.1
514.297	5954.84
514.664	6013.6
515.032	6035.97
515.4	6055.18
515.767	6139.47
516.135	6172.46
516.502	6146.48
516.869	6257.66
517.237	6337.66
517.604	6324.78
517.972	6392.35
518.339	6445.23
518.706	6430.76
519.073	6560.48
519.44	6583.75
519.808	6638.22
520.175	6664.66
520.542	6813.35
520.909	6787.82
521.276	6802.5
521.643	6866.23
522.009	6890.19
522.376	6946.91
522.743	6990.75
523.11	7003.63
523.477	7121.82
523.843	7108.49
524.21	7134.02
524.577	7187.35
524.943	7230.06
525.31	7291.08
525.676	7391.42
526.043	7358.2
526.409	7481.13
526.776	7501.7
527.142	7581.92
527.508	7658.53
527.874	7765.87
528.241	7797.28
528.607	7870.27
528.973	7916.83
529.339	7922.7
529.705	8059.65
530.071	8093.32
530.437	8096.03
530.803	8190.94
531.169	8173.54
531.535	8248.12
531.901	8293.09
532.267	8350.49
532.632	8390.03
532.998	8439.75
533.364	8410.6
533.73	8409.24
534.095	8514.55
534.461	8560.65
534.826	8490.37
535.192	8597.94
535.557	8610.82
535.923	8618.95
536.288	8649.69
536.653	8692.17
537.019	8658.95
537.384	8775.33
537.749	8756.58
538.114	8855.33
538.479	8849.46
538.845	8913.64
539.21	8932.62
539.575	9023.46
539.94	9046.74
540.305	9131.94
540.67	9156.57
541.034	9222.78
541.399	9245.15
541.764	9313.17
542.129	9431.59
542.494	9304.81
542.858	9399.05
543.223	9449.67
543.587	9452.15
543.952	9418.93
544.316	9516.56
544.681	9475.2
545.045	9529.66
545.41	9562.88
545.774	9548.2
546.138	9557.69
546.503	9590.91
546.867	9667.06
547.231	9682.66
547.595	9663.67
547.959	9746.16
548.324	9818.7
548.688	9815.76
549.052	9855.53
549.416	9935.53
549.779	9958.13
550.143	9970.11
550.507	9997.67
550.871	10100.27
551.235	10177.56
551.599	10211
551.962	10264.79
552.326	10312.24
552.689	10337.55
553.053	10346.14
553.417	10438.12
553.78	10528.06
554.143	10515.63
554.507	10589.75
554.87	10646.7
555.234	10702.06
555.597	10639.01
555.96	10723.08
556.323	10764.66
556.686	10760.82
557.05	10792.68
557.413	10846.24
557.776	10822.51
558.139	10909.52
558.502	10930.76
558.865	10961.49
559.228	10992
559.59	11110.87
559.953	11142.5
560.316	11257.3
560.679	11288.94
561.041	11400.58
561.404	11421.59
561.767	11568.93
562.129	11513.12
562.492	11690.96
562.854	11625.88
563.217	11655.26
563.579	11703.39
563.941	11852.99
564.304	11822.94
564.666	11899.77
565.028	11951.97
565.39	12071.07
565.753	12140.22
566.115	12125.75
566.477	12211.4
566.839	12248.69
567.201	12391.51
567.563	12223.83
567.925	12447.1
568.287	12469.47
568.648	12454.11
569.01	12571.62
569.372	12606.65
569.734	12594.44
570.095	12674.21
570.457	12756.47
570.819	12751.95
571.18	12820.88
571.542	12902.23
571.903	12813.65
572.265	12998.27
572.626	12984.04
572.987	13061.55
573.349	13079.63
573.71	13228.32
574.071	13220.42
574.432	13306.29
574.794	13319.17
575.155	13267.65
575.516	13251.6
575.877	13374.76
576.238	13358.26
576.599	13435.55
576.96	13423.35
577.32	13517.81
577.681	13584.7
578.042	13563.68
578.403	13619.95
578.763	13577.92
579.124	13579.28
579.485	13689.1
579.845	13751.47
580.206	13659.73
580.566	13711.48
580.927	13781.3
581.287	13823.11
581.648	13676.45
582.008	13813.39
582.368	13804.35
582.728	13924.8
583.089	13809.33
583.449	13837.12
583.809	13850.23
584.169	13927.29
584.529	13828.53
584.889	13960.28
585.249	13935.65
585.609	13819.04
585.969	13891.58
586.329	13820.85
586.688	13928.42
587.048	13990.56
587.408	13883.67
587.768	13852.49
588.127	13808.2
588.487	13825.6
588.846	13834.41
589.206	13835.54
589.565	13804.35
589.925	13853.84
590.284	13810.68
590.643	13844.13
591.003	13964.12
591.362	13933.62
591.721	13969.55
592.08	14021.52
592.44	13985.37
592.799	14113.05
593.158	14031.24
593.517	14046.38
593.876	14137.68
594.235	14081.64
594.593	14223.1
594.952	14164.35
595.311	14057.68
595.67	14256.09
596.029	14243.21
596.387	14307.84
596.746	14354.17
597.104	14246.38
597.463	14285.47
597.822	14347.84
598.18	14327.05
598.538	14279.6
598.897	14370.44
599.255	14225.36
599.613	14465.58
599.972	14251.12
600.33	14305.13
600.688	14218.81
601.046	14336.77
601.404	14303.55
601.762	14245.47
602.12	14330.89
602.478	14287.28
602.836	14239.37
603.194	14090.22
603.552	14250.67
603.91	14192.59
604.268	14263.55
604.625	14239.37
604.983	14397.11
605.341	14183.55
605.698	14319.82
606.056	14351.23
606.413	14403.43
606.771	14342.87
607.128	14477.11
607.485	14328.63
607.843	14381.74
608.2	14511.68
608.557	14614.95
608.914	14577.67
609.272	14707.38
609.629	14675.07
609.986	14851.78
610.343	14763.2
610.7	14872.35
611.057	14824.44
611.414	14751
611.771	14881.84
612.127	14899.02
612.484	14863.54
612.841	14933.82
613.198	14873.93
613.554	14887.94
613.911	14838.9
614.267	14857.89
614.624	14892.01
614.98	14847.04
615.337	14928.39
615.693	15000.03
616.05	14823.99
616.406	14876.42
616.762	14856.53
617.118	14858.56
617.475	14849.52
617.831	14940.6
618.187	14902.18
618.543	14844.78
618.899	14966.81
619.255	14971.1
619.611	15023.53
619.967	14982.85
620.323	15071.89
620.678	15020.37
621.034	15071.21
621.39	15021.72
621.746	15079.58
622.101	15275.05
622.457	15181.27
622.812	15112.57
623.168	15248.61
623.523	15291.1
623.879	15366.57
624.234	15230.53
624.589	15374.03
624.945	15364.99
625.3	15300.81
625.655	15360.25
626.01	15392.56
626.365	15330.19
626.72	15327.25
627.075	15402.5
627.43	15365.44
627.785	15350.98
628.14	15370.19
628.495	15319.12
628.85	15256.07
629.205	15232.34
629.559	15304.2
629.914	15261.27
630.269	15167.71
630.623	15047.49
630.978	14990.31
631.332	15098.56
631.687	15055.62
632.041	15009.07
632.396	14981.72
632.75	14963.65
633.104	14987.6
633.459	14795.51
633.813	14939.01
634.167	14816.53
634.521	14834.61
634.875	14868.06
635.229	14810.66
635.583	14762.07
635.937	14767.95
636.291	14783.76
636.645	14751.9
636.999	14844.55
637.352	14886.13
637.706	14643.65
638.06	14753.26
638.413	14696.31
638.767	14761.62
639.121	14745.12
639.474	14632.58
639.828	14708.29
640.181	14678.91
640.534	14781.5
640.888	14677.55
641.241	14608.18
641.594	14672.58
641.947	14696.53
642.301	14650.43
642.654	14592.36
643.007	14572.47
643.36	14639.13
643.713	14614.73
644.066	14662.19
644.419	14578.12
644.771	14430.78
645.124	14310.56
645.477	14245.47
645.83	14156.66
646.182	14143.55
646.535	14154.4
646.888	14223.55
647.24	14118.7
647.593	14239.82
647.945	14233.27
648.298	14182.2
648.65	14002.54
649.002	14004.12
649.355	14111.47
649.707	13998.93
650.059	13986.04
650.411	14113.5
650.763	14164.57
651.115	14357.33
651.467	14182.2
651.819	14276.21
652.171	14134.97
652.523	14185.14
652.875	14181.52
653.227	14100.62
653.578	14264.46
653.93	14154.18
654.282	14098.13
654.633	14021.52
654.985	14161.63
655.337	14101.97
655.688	14074.18
656.039	14041.18
656.391	14010.22
656.742	14101.07
657.094	14005.48
657.445	14039.6
657.796	13978.14
658.147	14088.19
658.498	14067.4
658.849	14021.3
659.2	14026.95
659.551	13994.86
659.902	14086.61
660.253	13968.87
660.604	14083.67
660.955	13975.88
661.306	14035.31
661.656	14077.34
662.007	14020.39
662.358	14016.78
662.708	13999.6
663.059	14137.91
663.409	13965.71
663.76	14021.3
664.11	14123.67
664.461	14090
664.811	14029.66
665.161	14125.93
665.511	14021.07
665.862	13972.71
666.212	14028.98
666.562	14063.78
666.912	14090
667.262	14017.23
667.612	14102.2
667.962	14037.12
668.312	13908.76
668.662	14038.7
669.011	13934.29
669.361	13871.02
669.711	13927.74
670.06	13885.48
670.41	13795.54
670.76	13725.94
671.109	13783.34
671.459	13839.83
671.808	13774.07
672.157	13782.89
672.507	13711.7
672.856	13776.56
673.205	13831.92
673.554	13716.45
673.904	13657.01
674.253	13740.63
674.602	13703.11
674.951	13452.95
675.3	13393.29
675.649	13583.12
675.998	13641.87
676.346	13600.52
676.695	13555.32
677.044	13517.81
677.393	13607.3
677.741	13601.2
678.09	13604.36
678.438	13595.09
678.787	13607.07
679.135	13571.37
679.484	13572.5
679.832	13626.05
680.181	13582.44
680.529	13543.57
680.877	13530.01
681.225	13553.51
681.573	13552.16
681.922	13546.51
682.27	13498.83
682.618	13501.99
682.966	13521.42
683.314	13534.53
683.661	13530.69
684.009	13395.33
684.357	13362.33
684.705	13327.08
685.053	13358.49
685.4	13346.06
685.748	13264.71
686.095	13284.37
686.443	13176.8
686.79	13169.57
687.138	13167.31
687.485	13269.45
687.832	13116.01
688.18	13115.79
688.527	12984.94
688.874	13004.15
689.221	12920.99
689.568	12850.71
689.915	12878.05
690.262	12842.8
690.609	12776.58
690.956	12775.91
691.303	12720.09
691.65	12629.02
691.997	12664.72
692.344	12626.98
692.69	12641.45
693.037	12676.93
693.383	12511.51
693.73	12596.93
694.077	12529.81
694.423	12527.55
694.769	12488.46
695.116	12459.08
695.462	12419.53
695.808	12365.07
696.155	12387.89
696.501	12315.58
696.847	12325.3
697.193	12192.87
697.539	12237.62
697.885	12182.93
698.231	12152.65
698.577	12218.18
698.923	12138.41
699.269	12163.72
699.614	12058.64
699.96	12064.97
700.306	12013.67
700.651	11941.58
700.997	12000.56
701.342	11972.09
701.688	11882.6
702.033	11841.47
702.379	11860.22
702.724	11862.71
703.069	11825.42
703.415	11696.16
703.76	11793.56
704.105	11671.3
704.45	11637.41
704.795	11635.82
705.14	11531.42
705.485	11545.66
705.83	11481.48
706.175	11461.59
706.52	11455.49
706.865	11456.85
707.209	11442.61
707.554	11355.15
707.899	11265.44
708.243	11289.84
708.588	11225.44
708.932	11223.86
709.277	11230.41
709.621	11265.44
709.966	11106.12
710.31	11191.77
710.654	11063.64
710.998	11158.77
711.342	11110.41
711.687	11096.4
712.031	11003.3
712.375	10867.71
712.719	11039.23
713.063	11006.46
713.407	11004.43
713.75	11027.48
714.094	10984.99
714.438	10895.96
714.782	10883.98
715.125	10889.4
715.469	10925.33
715.812	10874.94
716.156	10807.6
716.499	10832.46
716.843	10831.33
717.186	10870.19
717.53	10790.2
717.873	10851.66
718.216	10767.15
718.559	10786.13
718.902	10775.96
719.246	10751.33
719.589	10657.09
719.932	10591.56
720.275	10629.3
720.617	10628.17
720.96	10582.74
721.303	10603.31
721.646	10574.16
721.989	10518.79
722.331	10538
722.674	10534.84
723.016	10502.52
723.359	10473.59
723.701	10501.62
724.044	10392.01
724.386	10377.1
724.729	10386.59
725.071	10352.24
725.413	10322.19
725.755	10379.59
726.097	10246.26
726.439	10210.78
726.782	10299.14
727.124	10260.04
727.465	10186.14
727.807	10142.76
728.149	10205.58
728.491	10122.19
728.833	10132.59
729.175	10158.8
729.516	10084.68
729.858	10091.91
730.199	10033.83
730.541	10096.66
730.882	10025.92
731.224	10058.46
731.565	9965.81
731.906	10049.43
732.248	10026.83
732.589	9988.64
732.93	9927.85
733.271	9943.67
733.612	9942.31
733.953	9944.57
734.294	9963.78
734.635	9883.55
734.976	9968.52
735.317	9885.14
735.658	9912.48
735.999	9910.22
736.339	9865.93
736.68	9783.22
737.021	9792.93
737.361	9808.75
737.702	9865.93
738.042	9859.15
738.383	9871.12
738.723	9857.34
739.063	9758.81
739.404	9764.91
739.744	9813.73
740.084	9750.68
740.424	9704.8
740.764	9763.1
741.104	9733.05
741.444	9674.07
741.784	9580.28
742.124	9710.22
742.464	9660.96
742.804	9599.95
743.143	9601.75
743.483	9649.66
743.823	9561.75
744.162	9539.83
744.502	9565.82
744.841	9542.77
745.181	9576.9
745.52	9512.04
745.86	9503.68
746.199	9513.62
746.538	9471.14
746.877	9458.48
747.216	9467.75
747.556	9486.05
747.895	9375.77
748.234	9402.44
748.573	9370.35
748.911	9375.32
749.25	9394.08
749.589	9347.07
749.928	9355.43
750.267	9360.63
750.605	9278.15
750.944	9185.49
751.283	9207.41
751.621	9317.92
751.96	9235.44
752.298	9185.94
752.636	9250.58
752.975	9107.75
753.313	9111.14
753.651	9201.31
753.989	9102.56
754.327	9077.93
754.666	8971.49
755.004	9006.06
755.342	8954.99
755.679	8933.07
756.017	8954.09
756.355	8959.96
756.693	8902.34
757.031	8869.34
757.368	8892.17
757.706	8766.07
758.044	8838.61
758.381	8760.65
758.719	8759.29
759.056	8749.35
759.394	8685.85
759.731	8720.65
760.068	8672.06
760.405	8631.61
760.743	8592.74
761.08	8649.91
761.417	8557.03
761.754	8491.95
762.091	8518.17
762.428	8504.61
762.765	8427.55
763.102	8496.25
763.438	8443.82
763.775	8395.46
764.112	8437.49
764.449	8440.88
764.785	8371.5
765.122	8280.88
765.458	8284.27
765.795	8287.89
766.131	8289.25
766.467	8300.77
766.804	8277.27
767.14	8239.3
767.476	8284.73
767.812	8221.45
768.148	8201.56
768.485	8184.84
768.821	8059.65
769.157	8150.94
769.492	8069.36
769.828	8070.95
770.164	8007.9
770.5	7996.15
770.836	8039.08
771.171	7959.76
771.507	7944.4
771.842	7859.2
772.178	7870.73
772.513	7849.71
772.849	7802.7
773.184	7821.91
773.519	7756.15
773.855	7778.75
774.19	7750.28
774.525	7688.36
774.86	7666.66
775.195	7603.84
775.53	7590.73
775.865	7517.29
776.2	7551.64
776.535	7469.83
776.87	7497.18
777.205	7393
777.539	7438.42
777.874	7452.66
778.209	7359.33
778.543	7244.08
778.878	7238.65
779.212	7231.65
779.547	7207.24
779.881	7191.2
780.215	7145.32
780.55	7084.76
780.884	7124.53
781.218	7082.95
781.552	7049.73
781.886	7057.19
782.22	6960.92
782.554	7021.48
782.888	6952.33
783.222	6976.51
783.556	6902.39
783.889	6844.99
784.223	6829.62
784.557	6828.04
784.89	6843.63
785.224	6777.65
785.557	6742.85
785.891	6796.4
786.224	6731.55
786.558	6748.27
786.891	6704.88
787.224	6588.05
787.557	6623.3
787.891	6643.19
788.224	6638.89
788.557	6640.02
788.89	6598.67
789.223	6628.27
789.556	6548.73
789.888	6534.94
790.221	6569.52
790.554	6459.91
790.887	6485.22
791.219	6476.19
791.552	6470.99
791.884	6452.23
792.217	6440.71
792.549	6440.71
792.882	6376.75
793.214	6302.63
793.546	6414.49
793.879	6293.82
794.211	6315.29
794.543	6351.44
794.875	6263.31
795.207	6323.87
795.539	6256.53
795.871	6226.47
796.203	6197.32
796.535	6196.42
796.867	6210.66
797.198	6125.23
797.53	6152.8
797.862	6095.63
798.193	6116.2
798.525	6110.09
798.856	6035.07
799.188	5983.77
799.519	5973.6
799.85	5903.32
800.182	5948.97
800.513	5939.7
800.844	5874.85
801.175	5886.82
801.506	5895.18
801.837	5855.19
802.168	5816.77
802.499	5853.15
802.83	5839.59
803.161	5784.23
803.491	5771.35
803.822	5740.16
804.153	5740.16
804.483	5713.27
804.814	5674.4
805.145	5682.53
805.475	5654.74
805.805	5614.74
806.136	5686.38
806.466	5592.82
806.796	5559.37
807.126	5556.89
807.457	5520.96
807.787	5528.19
808.117	5504.69
808.447	5496.78
808.777	5459.72
809.107	5481.41
809.436	5464.91
809.766	5451.35
810.096	5469.21
810.426	5398.47
810.755	5426.95
811.085	5375.42
811.414	5433.95
811.744	5371.58
812.073	5374.29
812.403	5370.68
812.732	5346.27
813.061	5330.23
813.39	5325.48
813.719	5323.9
814.049	5302.88
814.378	5347.18
814.707	5302.66
815.036	5282.77
815.365	5311.47
815.693	5212.94
816.022	5262.66
816.351	5244.58
816.68	5208.42
817.008	5272.15
817.337	5209.1
817.665	5203.22
817.994	5231.7
818.322	5189.44
818.651	5214.75
818.979	5135.66
819.307	5164.13
819.636	5127.29
819.964	5135.43
820.292	5190.34
820.62	5170.68
820.948	5107.63
821.276	5148.31
821.604	5148.08
821.932	5112.83
822.259	5159.61
822.587	5119.61
822.915	5107.63
823.243	5084.13
823.57	5050.01
823.898	5139.95
824.225	5107.86
824.553	5098.59
824.88	5058.37
825.207	5062.89
825.535	5098.59
825.862	5117.58
826.189	5065.6
826.516	5096.11
826.843	5072.83
827.17	5066.51
827.497	5097.92
827.824	5077.58
828.151	5071.93
828.478	5043.23
828.805	5068.09
829.131	5029.9
829.458	5038.26
829.785	5077.13
830.111	5031.7
830.438	5050.01
830.764	5008.88
831.09	5068.31
831.417	5040.29
831.743	5046.62
832.069	5038.94
832.395	4982.89
832.722	5038.71
833.048	5012.95
833.374	5050.46
833.7	4978.82
834.026	4971.82
834.351	5020.63
834.677	5023.79
835.003	5000.52
835.329	4991.25
835.654	4970.46
835.98	4965.94
836.306	4970.01
836.631	4963.23
836.956	4933.85
837.282	4942.89
837.607	4919.84
837.932	4925.72
838.258	4937.47
838.583	4925.49
838.908	4872.16
839.233	4858.83
839.558	4903.12
839.883	4883.46
840.208	4848.66
840.533	4857.25
840.858	4893.85
841.182	4864.25
841.507	4855.21
841.832	4849.56
842.156	4840.97
842.481	4814.99
842.805	4805.04
843.13	4794.87
843.454	4780.64
843.778	4777.47
844.103	4746.29
844.427	4736.8
844.751	4759.39
845.075	4711.49
845.399	4757.59
845.723	4715.78
846.047	4704.48
846.371	4669
846.695	4678.72
847.019	4658.15
847.343	4609.12
847.666	4634.43
847.99	4539.29
848.313	4562.56
848.637	4554.88
848.96	4542
849.284	4509.68
849.607	4518.05
849.931	4517.37
850.254	4470.59
850.577	4491.38
850.9	4419.52
851.223	4422.45
851.546	4405.05
851.869	4380.2
852.192	4391.49
852.515	4369.35
852.838	4344.72
853.161	4340.2
853.483	4292.51
853.806	4332.74
854.129	4304.49
854.451	4266.98
854.774	4271.72
855.096	4287.54
855.419	4263.59
855.741	4240.09
856.063	4259.52
856.385	4229.24
856.708	4194.66
857.03	4241.22
857.352	4215.91
857.674	4183.14
857.996	4142.69
858.318	4107.43
858.64	4138.39
858.961	4176.36
859.283	4104.27
859.605	4103.14
859.926	4097.94
860.248	4130.03
860.57	4091.84
860.891	4134.1
861.212	4026.31
861.534	4041.45
861.855	4084.16
862.176	4065.4
862.498	4070.37
862.819	4080.09
863.14	4065.18
863.461	4029.47
863.782	4012.97
864.103	4026.98
864.424	4009.36
864.745	4015.69
865.065	3962.58
865.386	3928.23
865.707	3948.12
866.027	4021.11
866.348	4010.04
866.668	3960.32
866.989	3945.18
867.309	3915.58
867.63	3900.66
867.95	3892.98
868.27	3914.9
868.59	3908.57
868.91	3888.23
869.23	3866.54
869.55	3849.14
869.87	3922.81
870.19	3906.76
870.51	3871.51
870.83	3835.35
871.15	3835.35
871.469	3849.81
871.789	3819.31
872.109	3820.89
872.428	3810.49
872.748	3820.89
873.067	3814.11
873.386	3804.39
873.706	3790.83
874.025	3778.63
874.344	3802.13
874.663	3777.27
874.982	3805.07
875.301	3794.67
875.62	3735.92
875.939	3767.56
876.258	3729.37
876.577	3720.55
876.896	3742.25
877.214	3759.65
877.533	3703.83
877.852	3715.58
878.17	3761
878.489	3728.91
878.807	3688.01
879.125	3689.14
879.444	3677.39
879.762	3670.38
880.08	3715.81
880.398	3717.84
880.716	3710.61
881.034	3656.82
881.352	3709.03
881.67	3665.64
881.988	3668.12
882.306	3683.49
882.624	3662.7
882.941	3662.02
883.259	3589.03
883.577	3612.76
883.894	3670.16
884.212	3662.47
884.529	3624.51
884.846	3629.48
885.164	3595.58
885.481	3686.2
885.798	3624.06
886.115	3629.03
886.432	3611.85
886.75	3553.1
887.067	3558.52
887.383	3583.61
887.7	3594.68
888.017	3517.62
888.334	3581.8
888.651	3544.74
888.967	3520.56
889.284	3519.43
889.6	3519.43
889.917	3519.43
890.233	3527.79
890.55	3543.38
890.866	3502.03
891.182	3493.21
891.498	3515.59
891.815	3478.52
892.131	3441.46
892.447	3458.86
892.763	3446.43
893.079	3419.77
893.395	3399.2
893.71	3417.96
894.026	3394.46
894.342	3370.28
894.657	3371.41
894.973	3362.6
895.289	3321.69
895.604	3371.18
895.92	3334.12
896.235	3253.45
896.55	3322.14
896.865	3284.86
897.181	3258.19
897.496	3292.31
897.811	3212.99
898.126	3223.84
898.441	3198.08
898.756	3205.99
899.071	3183.62
899.386	3172.32
899.7	3192.88
900.015	3132.32
900.33	3136.84
900.644	3093.9
900.959	3102.04
901.273	3070.4
901.588	3096.61
901.902	3050.29
902.216	3036.73
902.531	3044.86
902.845	3017.52
903.159	2995.83
903.473	2974.81
903.787	2976.84
904.101	2945.43
904.415	2985.43
904.729	2939.33
905.042	2951.08
905.356	2934.58
905.67	2946.33
905.984	2922.61
906.297	2921.25
906.611	2907.69
906.924	2891.65
907.237	2860.01
907.551	2863.85
907.864	2881.93
908.177	2844.87
908.491	2854.81
908.804	2824.3
909.117	2810.75
909.43	2814.36
909.743	2813.91
910.056	2783.18
910.368	2802.38
910.681	2796.96
910.994	2757.87
911.307	2767.81
911.619	2721.93
911.932	2756.96
912.244	2746.57
912.557	2749.28
912.869	2723.29
913.181	2745.66
913.494	2725.32
913.806	2759.67
914.118	2731.2
914.43	2748.15
914.742	2709.51
915.054	2681.03
915.366	2687.13
915.678	2694.59
915.99	2708.15
916.302	2661.14
916.613	2654.59
916.925	2620.24
917.236	2634.93
917.548	2697.75
917.859	2661.37
918.171	2606.91
918.482	2608.04
918.794	2597.64
919.105	2630.64
919.416	2611.88
919.727	2577.53
920.038	2565.55
920.349	2606.68
920.66	2566.23
920.971	2570.07
921.282	2541.83
921.593	2550.19
921.903	2485.1
922.214	2489.62
922.525	2496.86
922.835	2492.34
923.146	2472.22
923.456	2466.35
923.767	2476.29
924.077	2439.91
924.387	2442.39
924.697	2437.2
925.008	2420.47
925.318	2414.37
925.628	2396.07
925.938	2384.54
926.248	2423.41
926.558	2381.38
926.867	2386.58
927.177	2348.84
927.487	2324.66
927.796	2314.71
928.106	2348.84
928.416	2334.83
928.725	2288.5
929.034	2298.22
929.344	2286.24
929.653	2292.11
929.962	2239.91
930.271	2216.41
930.581	2245.79
930.89	2223.64
931.199	2161.95
931.508	2196.07
931.817	2197.2
932.125	2177.32
932.434	2159.24
932.743	2143.19
933.051	2180.93
933.36	2125.11
933.669	2119.24
933.977	2086.02
934.286	2119.24
934.594	2099.58
934.902	2097.32
935.21	2102.06
935.519	2048.05
935.827	2053.93
936.135	2042.86
936.443	2067.94
936.751	2008.73
937.059	2009.86
937.367	1980.48
937.674	1967.6
937.982	1983.65
938.29	1997.89
938.597	1985.46
938.905	1933.25
939.213	2000.82
939.52	1969.64
939.827	1945.46
940.135	1944.33
940.442	1925.57
940.749	1938.68
941.056	1934.16
941.363	1894.61
941.67	1909.75
941.977	1890.77
942.284	1875.4
942.591	1907.49
942.898	1893.48
943.205	1871.33
943.511	1893.48
943.818	1881.28
944.125	1868.85
944.431	1869.53
944.738	1881.73
945.044	1857.1
945.35	1870.66
945.657	1829.53
945.963	1821.39
946.269	1820.26
946.575	1823.43
946.881	1822.07
947.187	1834.95
947.493	1790.89
947.799	1815.52
948.105	1774.84
948.41	1801.28
948.716	1785.01
949.022	1811.45
949.327	1762.41
949.633	1773.71
949.938	1755.18
950.244	1774.16
950.549	1756.54
950.854	1747.72
951.16	1758.8
951.465	1693.26
951.77	1733.03
952.075	1750.43
952.38	1703.43
952.685	1712.24
952.99	1712.47
953.294	1699.36
953.599	1697.1
953.904	1675.86
954.209	1694.16
954.513	1691.23
954.818	1662.53
955.122	1670.21
955.426	1655.52
955.731	1656.65
956.035	1638.12
956.339	1633.6
956.643	1618.46
956.948	1627.73
957.252	1604.22
957.556	1627.5
957.86	1634.51
958.163	1597.44
958.467	1582.75
958.771	1589.08
959.075	1584.11
959.378	1588.4
959.682	1568.52
959.985	1578.46
960.289	1580.04
960.592	1528.29
960.896	1518.58
961.199	1537.33
961.502	1555.64
961.805	1520.16
962.108	1524.68
962.411	1503.89
962.714	1470.44
963.017	1503.66
963.32	1494.17
963.623	1487.62
963.926	1461.85
964.228	1467.73
964.531	1451.91
964.833	1465.02
965.136	1444.23
965.438	1410.56
965.741	1442.19
966.043	1442.65
966.345	1423.21
966.648	1415.98
966.95	1412.82
967.252	1399.48
967.554	1402.42
967.856	1401.97
968.158	1379.37
968.46	1388.41
968.761	1355.64
969.063	1379.37
969.365	1365.59
969.666	1346.83
969.968	1350.9
970.269	1380.05
970.571	1349.09
970.872	1323.78
971.174	1345.7
971.475	1328.52
971.776	1332.14
972.077	1309.32
972.378	1299.37
972.679	1314.29
972.98	1319.49
973.281	1281.52
973.582	1306.83
973.883	1301.63
974.183	1234.97
974.484	1284.23
974.785	1271.35
975.085	1272.03
975.386	1289.88
975.686	1230.45
975.986	1269.54
976.287	1254.63
976.587	1267.51
976.887	1265.7
977.187	1214.63
977.487	1234.97
977.787	1239.94
978.087	1249.66
978.387	1219.37
978.687	1224.35
978.987	1230.67
979.286	1194.06
979.586	1203.1
979.885	1209.43
980.185	1213.95
980.484	1206.72
980.784	1199.26
981.083	1210.56
981.382	1198.81
981.682	1199.71
981.981	1197.23
982.28	1176.89
982.579	1188.64
982.878	1192.48
983.177	1188.87
983.475	1169.21
983.774	1157.91
984.073	1182.09
984.372	1166.72
984.67	1143.9
984.969	1172.37
985.267	1149.32
985.566	1149.55
985.864	1160.39
986.162	1144.12
986.461	1130.11
986.759	1117.46
987.057	1124.24
987.355	1144.8
987.653	1104.12
987.951	1086.04
988.249	1123.78
988.547	1104.12
988.844	1088.3
989.142	1097.8
989.44	1094.18
989.737	1089.66
990.035	1070
990.332	1042.66
990.63	1070.45
990.927	1078.36
991.224	1062.32
991.521	1058.02
991.819	1029.1
992.116	1056.22
992.413	1061.64
992.71	1030
993.006	1064.12
993.303	1043.79
993.6	1050.11
993.897	1037.23
994.193	1033.16
994.49	1029.1
994.787	1006.95
995.083	1021.64
995.379	1010.34
995.676	1018.25
995.972	988.65
996.268	954.3
996.565	984.8
996.861	995.43
997.157	950.46
997.453	968.53
997.749	984.8
998.044	962.66
998.34	977.8
998.636	937.35
998.932	927.63
999.227	934.41
999.523	952.26
999.818	935.54
1000.114	933.73
1000.409	951.36
1000.704	948.65
1001	945.94
1001.295	911.36
1001.59	893.96
1001.885	897.12
1002.18	902.32
1002.475	911.36
1002.77	902.32
1003.065	885.15
1003.359	865.71
1003.654	891.25
1003.949	875.65
1004.243	875.88
1004.538	868.88
1004.832	836.11
1005.127	869.78
1005.421	853.28
1005.715	888.76
1006.009	840.4
1006.304	830.23
1006.598	825.26
1006.892	849.44
1007.186	844.47
1007.48	849.44
1007.773	833.85
1008.067	827.75
1008.361	827.29
1008.655	797.01
1008.948	815.32
1009.242	811.25
1009.535	826.39
1009.829	787.52
1010.122	799.95
1010.415	824.13
1010.708	818.48
1011.001	825.71
1011.295	801.76
1011.588	808.99
1011.881	781.42
1012.173	795.43
1012.466	798.82
1012.759	783.91
1013.052	786.39
1013.344	784.81
1013.637	779.16
1013.93	770.57
1014.222	778.71
1014.514	764.92
1014.807	775.32
1015.099	751.14
1015.391	741.2
1015.683	726.28
1015.976	752.72
1016.268	773.74
1016.56	745.04
1016.851	751.36
1017.143	743.91
1017.435	743.23
1017.727	736.68
1018.018	740.52
1018.31	742.33
1018.602	756.34
1018.893	743.46
1019.185	716.79
1019.476	698.48
1019.767	720.18
1020.058	717.69
1020.35	734.19
1020.641	718.6
1020.932	691.03
1021.223	702.33
1021.514	687.19
1021.804	692.38
1022.095	679.73
1022.386	667.07
1022.677	678.15
1022.967	684.7
1023.258	688.54
1023.548	679.5
1023.839	657.36
1024.129	651.25
1024.419	672.04
1024.709	647.86
1025	650.35
1025.29	667.98
1025.58	644.02
1025.87	636.11
1026.16	665.26
1026.449	637.92
1026.739	649.22
1027.029	618.26
1027.319	622.1
1027.608	629.56
1027.898	644.93
1028.187	633.85
1028.477	631.14
1028.766	615.1
1029.055	637.7
1029.344	620.29
1029.634	599.28
1029.923	589.56
1030.212	597.92
1030.501	597.02
1030.79	593.4
1031.078	601.76
1031.367	579.17
1031.656	570.58
1031.945	566.74
1032.233	569.45
1032.522	564.7
1032.81	578.94
1033.099	581.88
1033.387	564.7
1033.675	549.79
1033.963	576.23
1034.251	550.24
1034.54	554.31
1034.828	545.49
1035.116	561.99
1035.403	552.73
1035.691	556.57
1035.979	570.58
1036.267	534.19
1036.554	529.22
1036.842	538.94
1037.129	533.74
1037.417	546.4
1037.704	524.25
1037.992	525.16
1038.279	526.96
1038.566	521.54
1038.853	521.54
1039.14	521.54
