Data from foam1_polythene_foam_FLMS001491_00089.txt Node
Date: Wed Feb 08 10:55:31 GMT 2017
User: dcchb
Spectrometer: FLMS00149
Trigger mode: 0
Integration Time (sec): 2.000000E-2
Scans to average: 10
Electric dark correction enabled: true
Nonlinearity correction enabled: false
Boxcar width: 0
XAxis mode: Wavelengths
Number of Pixels in Spectrum: 2048
>>>>>Begin Spectral Data<<<<<
341.393	-4.72
341.776	-4.72
342.16	-4.72
342.543	-77.26
342.927	-80.2
343.31	-55.34
343.693	-58.95
344.077	-71.61
344.46	-47.2
344.843	-49.24
345.226	-40.42
345.61	-46.07
345.993	-22.34
346.376	-7.2
346.759	7.26
347.142	35.28
347.525	49.97
347.908	48.16
348.291	64.66
348.674	91.78
349.057	101.27
349.44	118.67
349.823	150.76
350.206	145.34
350.588	171.1
350.971	171.32
351.354	221.72
351.737	219.23
352.119	238.21
352.502	235.28
352.884	273.69
353.267	239.57
353.65	274.15
354.032	282.51
354.414	285.67
354.797	298.33
355.179	309.85
355.562	321.83
355.944	307.36
356.326	327.7
356.709	306.69
357.091	316.86
357.473	320.92
357.855	331.32
358.238	321.83
358.62	314.14
359.002	307.59
359.384	330.42
359.766	321.15
360.148	309.17
360.53	321.6
360.912	309.85
361.294	303.75
361.676	323.41
362.057	315.73
362.439	315.95
362.821	302.17
363.203	322.28
363.584	324.09
363.966	307.14
364.348	313.92
364.729	315.05
365.111	303.3
365.493	313.47
365.874	290.87
366.256	305.56
366.637	302.62
367.019	313.01
367.4	307.82
367.781	306.23
368.163	292.45
368.544	303.75
368.925	309.17
369.306	292.22
369.688	283.64
370.069	297.2
370.45	324.31
370.831	311.21
371.212	299.46
371.593	299.23
371.974	316.63
372.355	313.47
372.736	321.38
373.117	296.74
373.498	289.74
373.879	333.35
374.26	297.87
374.641	290.42
375.021	289.96
375.402	316.18
375.783	286.8
376.163	317.08
376.544	303.3
376.925	303.98
377.305	306.01
377.686	309.62
378.066	300.59
378.447	316.86
378.827	338.32
379.208	325.67
379.588	336.52
379.968	337.65
380.349	334.71
380.729	318.44
381.109	317.53
381.489	325.67
381.87	337.19
382.25	345.78
382.63	322.28
383.01	325.9
383.39	319.34
383.77	331.77
384.15	325.22
384.53	347.36
384.91	331.32
385.29	364.99
385.67	334.03
386.049	356.86
386.429	362.05
386.809	340.13
387.189	336.29
387.568	336.74
387.948	351.21
388.328	361.6
388.707	342.39
389.087	339.68
389.466	345.33
389.846	367.7
390.225	351.66
390.605	360.7
390.984	344.88
391.363	364.09
391.743	358.44
392.122	388.04
392.501	356.63
392.881	370.41
393.26	368.15
393.639	363.18
394.018	369.74
394.397	371.09
394.776	379.68
395.155	380.58
395.534	392.33
395.913	351.88
396.292	378.32
396.671	358.21
397.05	384.65
397.429	381.49
397.808	369.51
398.186	385.33
398.565	397.76
398.944	363.63
399.323	385.55
399.701	401.83
400.08	379
400.458	399.57
400.837	388.72
401.215	399.57
401.594	416.06
401.972	409.51
402.351	393.69
402.729	398.66
403.107	412.67
403.486	396.63
403.864	393.46
404.242	405.89
404.62	434.59
404.999	420.81
405.377	419
405.755	454.93
406.133	436.4
406.511	430.75
406.889	423.75
407.267	417.87
407.645	430.3
408.023	454.93
408.401	450.86
408.779	448.6
409.156	454.03
409.534	458.77
409.912	455.16
410.29	432.79
410.667	449.06
411.045	455.16
411.422	477.53
411.8	464.2
412.178	475.04
412.555	469.85
412.933	494.25
413.31	469.17
413.687	465.78
414.065	477.98
414.442	484.99
414.819	509.17
415.197	496.96
415.574	497.42
415.951	501.48
416.328	487.47
416.705	497.42
417.082	508.04
417.46	516.4
417.837	515.72
418.214	502.61
418.591	527.7
418.967	524.76
419.344	540.35
419.721	524.99
420.098	528.38
420.475	545.78
420.852	537.64
421.228	540.13
421.605	548.04
421.982	557.98
422.358	552.1
422.735	549.39
423.111	581.03
423.488	554.82
423.864	557.3
424.241	571.99
424.617	570.63
424.994	579.67
425.37	574.48
425.746	588.26
426.123	603.85
426.499	589.17
426.875	608.15
427.251	611.76
427.627	607.92
428.003	613.12
428.379	604.53
428.756	617.64
429.132	621.25
429.507	639.79
429.883	660.58
430.259	647.92
430.635	651.76
431.011	640.69
431.387	689.05
431.763	654.25
432.138	678.43
432.514	692.21
432.89	664.64
433.265	686.56
433.641	704.19
434.016	715.72
434.392	719.56
434.767	729.95
435.143	706.22
435.518	733.57
435.894	743.51
436.269	735.15
436.644	762.27
437.02	771.53
437.395	768.14
437.77	767.24
438.145	783.06
438.52	773.12
438.895	770.18
439.271	792.1
439.646	811.98
440.021	822.61
440.395	816.28
440.77	824.19
441.145	833.68
441.52	856.28
441.895	857.41
442.27	866.22
442.645	854.47
443.019	871.19
443.394	868.93
443.769	877.97
444.143	860.34
444.518	885.65
444.892	891.76
445.267	876.16
445.641	892.89
446.016	898.76
446.39	892.21
446.764	933.56
447.139	913
447.513	931.76
447.887	919.1
448.262	954.35
448.636	941.47
449.01	954.35
449.384	969.49
449.758	943.28
450.132	959.55
450.506	963.39
450.88	994.58
451.254	1007.46
451.628	1024.41
452.002	988.25
452.376	1020.79
452.75	1048.36
453.123	1037.29
453.497	1047.91
453.871	1075.03
454.244	1059.44
454.618	1059.44
454.992	1057.4
455.365	1068.02
455.739	1088.36
456.112	1107.57
456.486	1121.81
456.859	1104.18
457.232	1141.02
457.606	1110.96
457.979	1139.21
458.352	1139.89
458.725	1148.47
459.099	1153.44
459.472	1194.35
459.845	1194.8
460.218	1172.65
460.591	1217.17
460.964	1221.47
461.337	1241.58
461.71	1242.26
462.083	1259.88
462.456	1263.5
462.829	1248.36
463.201	1281.58
463.574	1292.88
463.947	1282.93
464.32	1301.01
464.692	1288.81
465.065	1340.33
465.438	1354.79
465.81	1339.43
466.183	1368.58
466.555	1379.43
466.928	1376.94
467.3	1392.99
467.672	1401.57
468.045	1426.43
468.417	1424.17
468.789	1457.17
469.161	1464.62
469.534	1482.93
469.906	1523.15
470.278	1526.99
470.65	1541.23
471.022	1581.46
471.394	1583.49
471.766	1560.44
472.138	1578.29
472.51	1603.38
472.882	1616.93
473.253	1677.5
473.625	1690.15
473.997	1682.02
474.369	1727.44
474.74	1717.5
475.112	1746.65
475.484	1771.51
475.855	1812.18
476.227	1826.42
476.598	1844.27
476.97	1859.19
477.341	1897.83
477.713	1943.25
478.084	1928.34
478.455	2006.08
478.827	1983.93
479.198	2054.89
479.569	2057.15
479.94	2077.71
480.311	2092.4
480.682	2137.15
481.053	2179.63
481.424	2241.33
481.795	2220.76
482.166	2269.57
482.537	2323.13
482.908	2353.41
483.279	2353.64
483.65	2378.72
484.021	2454.2
484.391	2446.52
484.762	2500.98
485.133	2510.92
485.503	2548.44
485.874	2590.92
486.244	2595.44
486.615	2650.81
486.985	2715.66
487.356	2722.89
487.726	2733.29
488.097	2785.49
488.467	2797.02
488.837	2827.3
489.207	2874.08
489.578	2946.84
489.948	2983.23
490.318	3027.52
490.688	3018.03
491.058	3072.94
491.428	3085.37
491.798	3078.59
492.168	3134.64
492.538	3153.39
492.908	3190.45
493.278	3233.84
493.648	3278.13
494.017	3342.99
494.387	3371.47
494.757	3392.93
495.126	3418.47
495.496	3465.93
495.866	3428.64
496.235	3447.17
496.605	3451.46
496.974	3491.24
497.344	3572.14
497.713	3542.53
498.082	3665.69
498.452	3659.59
498.821	3685.36
499.19	3702.08
499.559	3743.43
499.928	3778.23
500.298	3789.76
500.667	3790.21
501.036	3764
501.405	3819.59
501.774	3869.53
502.143	3844.9
502.512	3914.05
502.88	3935.97
503.249	3958.12
503.618	3988.4
503.987	4006.48
504.356	4069.98
504.724	4095.97
505.093	4117.89
505.462	4089.41
505.83	4081.28
506.199	4085.12
506.567	4164.89
506.936	4187.26
507.304	4248.05
507.672	4251.67
508.041	4291.44
508.409	4351.78
508.777	4375.51
509.145	4428.84
509.514	4451.66
509.882	4465.9
510.25	4499.57
510.618	4484.66
510.986	4506.8
511.354	4492.11
511.722	4529.17
512.09	4612.56
512.458	4678.32
512.826	4669.51
513.193	4721.71
513.561	4730.53
513.929	4809.39
514.297	4822.5
514.664	4824.08
515.032	4880.8
515.4	4923.29
515.767	4909.96
516.135	4935.04
516.502	4897.98
516.869	5028.82
517.237	5020.69
517.604	5040.12
517.972	5120.12
518.339	5140.68
518.706	5237.63
519.073	5208.03
519.44	5250.96
519.808	5345.88
520.175	5312.2
520.542	5390.39
520.909	5395.14
521.276	5362.15
521.643	5407.34
522.009	5479.21
522.376	5511.52
522.743	5587
523.11	5641.24
523.477	5724.85
523.843	5710.84
524.21	5836.48
524.577	5898.86
524.943	5858.18
525.31	5879.65
525.676	5936.6
526.043	6000.55
526.409	5974.56
526.776	6070.6
527.142	6064.05
527.508	6078.29
527.874	6215.46
528.241	6207.77
528.607	6312.18
528.973	6331.39
529.339	6360.54
529.705	6420.65
530.071	6441.21
530.437	6493.42
530.803	6483.93
531.169	6486.19
531.535	6517.6
531.901	6544.71
532.267	6527.09
532.632	6606.18
532.998	6676.69
533.364	6732.05
533.73	6774.99
534.095	6808.21
534.461	6889.11
534.826	6813.86
535.192	6835.55
535.557	6951.26
535.923	6978.38
536.288	6929.79
536.653	6949.45
537.019	6910.13
537.384	6977.25
537.749	7051.37
538.114	7027.87
538.479	7064.02
538.845	7149.9
539.21	7158.26
539.575	7220.63
539.94	7270.35
540.305	7300.18
540.67	7214.53
541.034	7315.32
541.399	7373.39
541.764	7309.21
542.129	7355.09
542.494	7343.11
542.858	7427.4
543.223	7374.75
543.587	7495.42
543.952	7479.83
544.316	7570.45
544.681	7583.33
545.045	7566.16
545.41	7693.16
545.774	7666.27
546.138	7649.09
546.503	7701.29
546.867	7711.69
547.231	7718.24
547.595	7748.53
547.959	7758.92
548.324	7751.91
548.688	7828.07
549.052	7820.84
549.416	7905.58
549.779	7899.48
550.143	7971.57
550.507	8025.35
550.871	8052.7
551.235	8065.35
551.599	8144.22
551.962	8111.23
552.326	8169.53
552.689	8220.38
553.053	8134.73
553.417	8158.01
553.78	8333.82
554.143	8228.06
554.507	8279.81
554.87	8322.97
555.234	8409.98
555.597	8469.86
555.96	8463.08
556.323	8505.12
556.686	8513.93
557.05	8616.52
557.413	8602.06
557.776	8660.37
558.139	8746.01
558.502	8753.02
558.865	8665.34
559.228	8771.32
559.59	8726.35
559.953	8755.05
560.316	8920.47
560.679	8852.68
561.041	8967.7
561.404	9021.26
561.767	9117.75
562.129	9060.13
562.492	9171.31
562.854	9210.86
563.217	9253.57
563.579	9287.02
563.941	9277.3
564.304	9360.69
564.666	9357.97
565.028	9373.34
565.39	9406.79
565.753	9479.33
566.115	9522.94
566.477	9542.15
566.839	9597.29
567.201	9662.83
567.563	9722.94
567.925	9805.87
568.287	9833.22
568.648	9816.27
569.01	9875.02
569.372	9876.15
569.734	9845.65
570.095	9968.13
570.457	9932.2
570.819	9912.31
571.18	10025.75
571.542	10010.39
571.903	10043.83
572.265	10113.43
572.626	10118.41
572.987	10168.8
573.349	10140.55
573.71	10270.94
574.071	10367.89
574.432	10358.17
574.794	10447.89
575.155	10386.65
575.516	10410.83
575.877	10400.66
576.238	10418.51
576.599	10506.87
576.96	10439.75
577.32	10354.78
577.681	10471.84
578.042	10547.32
578.403	10445.63
578.763	10534.89
579.124	10483.82
579.485	10566.3
579.845	10633.65
580.206	10659.41
580.566	10579.86
580.927	10625.74
581.287	10690.14
581.648	10665.06
582.008	10736.92
582.368	10644.72
582.728	10684.95
583.089	10668.22
583.449	10623.48
583.809	10643.82
584.169	10609.92
584.529	10666.41
584.889	10750.48
585.249	10663.48
585.609	10741.89
585.969	10790.48
586.329	10835.22
586.688	10850.36
587.048	10782.57
587.408	10781.44
587.768	10807.88
588.127	10825.96
588.487	10747.54
588.846	10754.55
589.206	10705.96
589.565	10700.31
589.925	10661.22
590.284	10606.76
590.643	10690.14
591.003	10677.94
591.362	10760.2
591.721	10821.21
592.08	10776.92
592.44	10827.99
592.799	10893.53
593.158	10816.92
593.517	10861.44
593.876	10900.98
594.235	10768.33
594.593	10837.48
594.952	10872.96
595.311	10750.71
595.67	10832.06
596.029	10835.68
596.387	10842.91
596.746	10831.61
597.104	10808.78
597.463	10813.76
597.822	10886.97
598.18	10854.88
598.538	10869.35
598.897	10881.78
599.255	10857.14
599.613	11029.57
599.972	10976.24
600.33	10955.45
600.688	10928.78
601.046	10957.03
601.404	11041.77
601.762	10954.77
602.12	11022.56
602.478	11008.33
602.836	10902.57
603.194	10904.37
603.552	10873.19
603.91	10884.26
604.268	10896.69
604.625	10951.83
604.983	10950.7
605.341	10967.42
605.698	11062.79
606.056	11049
606.413	11101.43
606.771	11158.6
607.128	11091.04
607.485	11068.66
607.843	11100.53
608.2	11077.25
608.557	11113.63
608.914	11038.38
609.272	11153.41
609.629	11137.81
609.986	11148.44
610.343	11167.42
610.7	11170.81
611.057	11218.72
611.414	11112.28
611.771	11207.87
612.127	11179.17
612.484	11291.26
612.841	11271.82
613.198	11311.82
613.554	11262.11
613.911	11356.11
614.267	11326.28
614.624	11251.03
614.98	11325.15
615.337	11437.92
615.693	11371.93
616.05	11281.99
616.406	11374.64
616.762	11253.52
617.118	11256.68
617.475	11263.46
617.831	11387.3
618.187	11374.87
618.543	11321.54
618.899	11378.71
619.255	11400.18
619.611	11424.59
619.967	11468.2
620.323	11457.58
620.678	11400.86
621.034	11411.71
621.39	11436.56
621.746	11358.37
622.101	11556.11
622.457	11512.95
622.812	11433.4
623.168	11493.29
623.523	11422.1
623.879	11423.91
624.234	11350.01
624.589	11357.7
624.945	11444.02
625.3	11355.89
625.655	11383.91
626.01	11330.8
626.365	11444.7
626.72	11417.36
627.075	11451.7
627.43	11465.72
627.785	11447.18
628.14	11484.25
628.495	11491.7
628.85	11425.49
629.205	11411.71
629.559	11492.38
629.914	11377.81
630.269	11373.97
630.623	11347.3
630.978	11181.88
631.332	11350.92
631.687	11311.14
632.041	11305.27
632.396	11293.74
632.75	11257.13
633.104	11245.61
633.459	11184.14
633.813	11240.41
634.167	11248.09
634.521	11227.98
634.875	11277.02
635.229	11260.3
635.583	11194.99
635.937	11230.24
636.291	11243.57
636.645	11236.57
636.999	11165.38
637.352	11140.53
637.706	11087.65
638.06	11131.94
638.413	11031.38
638.767	11027.53
639.121	10965.84
639.474	10883.13
639.828	10904.83
640.181	10896.01
640.534	10920.42
640.888	10845.17
641.241	10875.22
641.594	10922.45
641.947	10945.73
642.301	10951.83
642.654	10950.02
643.007	11015.11
643.36	10891.27
643.713	10980.53
644.066	10861.44
644.419	10879.52
644.771	10805.17
645.124	10692.85
645.477	10677.26
645.83	10521.11
646.182	10483.82
646.535	10418.06
646.888	10375.8
647.24	10383.71
647.593	10458.51
647.945	10457.15
648.298	10404.73
648.65	10286.09
649.002	10327.21
649.355	10359.98
649.707	10353.65
650.059	10366.76
650.411	10480.88
650.763	10522.24
651.115	10671.61
651.467	10599.52
651.819	10624.61
652.171	10619.64
652.523	10592.52
652.875	10611.95
653.227	10532.18
653.578	10529.92
653.93	10520.43
654.282	10441.34
654.633	10369.02
654.985	10432.75
655.337	10341.45
655.688	10379.19
656.039	10427.32
656.391	10308.01
656.742	10355.46
657.094	10410.83
657.445	10412.41
657.796	10378.96
658.147	10388
658.498	10363.37
658.849	10464.39
659.2	10392.52
659.551	10354.56
659.902	10495.8
660.253	10492.41
660.604	10484.5
660.955	10345.07
661.306	10422.81
661.656	10316.14
662.007	10345.74
662.358	10319.53
662.708	10277.05
663.059	10244.05
663.409	10147.11
663.76	10243.6
664.11	10267.1
664.461	10236.14
664.811	10166.99
665.161	10163.15
665.511	10146.43
665.862	10181.91
666.212	10226.2
666.562	10290.61
666.912	10211.06
667.262	10298.97
667.612	10275.01
667.962	10262.13
668.312	10273.66
668.662	10342.81
669.011	10293.32
669.361	10249.7
669.711	10260.55
670.06	10247.89
670.41	10256.93
670.76	10170.38
671.109	10128.12
671.459	10132.42
671.808	10086.77
672.157	10172.19
672.507	10091.51
672.856	9962.03
673.205	9985.75
673.554	10049.26
673.904	9991.63
674.253	10027.11
674.602	10034.57
674.951	9886.55
675.3	9894.46
675.649	10077.73
675.998	10056.49
676.346	10056.04
676.695	10142.81
677.044	10096.26
677.393	10159.54
677.741	10090.16
678.09	10086.32
678.438	10038.63
678.787	9977.84
679.135	10001.12
679.484	9897.4
679.832	9932.42
680.181	9936.94
680.529	9880.22
680.877	9814.01
681.225	9859.66
681.573	9842.93
681.922	9729.94
682.27	9787.79
682.618	9694.24
682.966	9736.27
683.314	9756.61
683.661	9684.97
684.009	9734.91
684.357	9714.35
684.705	9703.05
685.053	9741.47
685.4	9836.61
685.748	9724.29
686.095	9737.63
686.443	9719.55
686.79	9696.95
687.138	9645.42
687.485	9664.86
687.832	9650.17
688.18	9581.02
688.527	9567.01
688.874	9592.32
689.221	9403.62
689.568	9478.88
689.915	9412.44
690.262	9346.9
690.609	9430.97
690.956	9298.09
691.303	9268.03
691.65	9240.24
691.997	9224.19
692.344	9181.48
692.69	9244.08
693.037	9250.41
693.383	9157.53
693.73	9221.48
694.077	9219.45
694.423	9181.26
694.769	9176.06
695.116	9190.07
695.462	9181.71
695.808	9154.59
696.155	9226
696.501	9046.8
696.847	9099
697.193	8951.88
697.539	9005.67
697.885	8949.4
698.231	8864.65
698.577	8820.36
698.923	8790.31
699.269	8766.58
699.614	8703.53
699.96	8679.12
700.306	8746.92
700.651	8645.45
700.997	8677.54
701.342	8597.54
701.688	8585.57
702.033	8589.63
702.379	8615.85
702.724	8558.67
703.069	8590.76
703.415	8573.81
703.76	8596.86
704.105	8594.15
704.45	8547.37
704.795	8515.96
705.14	8480.03
705.485	8508.96
705.83	8469.18
706.175	8488.62
706.52	8400.49
706.865	8354.84
707.209	8392.12
707.554	8311.9
707.899	8304.44
708.243	8269.64
708.588	8262.41
708.932	8214.5
709.277	8131.34
709.621	8104.67
709.966	8076.2
710.31	8069.87
710.654	8047.73
710.998	8045.69
711.342	8071.68
711.687	8006.6
712.031	8021.51
712.375	7968.41
712.719	8018.35
713.063	8048.4
713.407	8017.9
713.75	8003.21
714.094	8063.77
714.438	8029.42
714.782	8014.28
715.125	7960.27
715.469	7993.94
715.812	7989.2
716.156	7931.12
716.499	7963.43
716.843	7877.56
717.186	7852.7
717.53	7844.57
717.873	7797.56
718.216	7833.27
718.559	7716.44
718.902	7713.5
719.246	7690
719.589	7648.64
719.932	7615.65
720.275	7653.39
720.617	7660.39
720.96	7576.78
721.303	7546.5
721.646	7618.58
721.989	7500.85
722.331	7602.99
722.674	7563.45
723.016	7654.97
723.359	7574.07
723.701	7618.81
724.044	7559.15
724.386	7584.24
724.729	7646.38
725.071	7518.7
725.413	7607.74
725.755	7579.72
726.097	7538.36
726.439	7522.77
726.782	7532.71
727.124	7492.94
727.465	7464.69
727.807	7453.62
728.149	7388.99
728.491	7388.08
728.833	7311.02
729.175	7300.63
729.516	7285.03
729.858	7251.14
730.199	7262.89
730.541	7226.28
730.882	7179.73
731.224	7203
731.565	7196.45
731.906	7166.85
732.248	7163.91
732.589	7142.44
732.93	7198.26
733.271	7265.83
733.612	7224.7
733.953	7247.07
734.294	7240.29
734.635	7206.62
734.976	7259.5
735.317	7250.69
735.658	7193.29
735.999	7200.74
736.339	7136.56
736.68	7153.74
737.021	7130.91
737.361	7090.92
737.702	7132.04
738.042	7073.06
738.383	7050.01
738.723	7028.09
739.063	6985.83
739.404	6954.42
739.744	6967.98
740.084	7013.18
740.424	6993.29
740.764	6944.48
741.104	6905.38
741.444	6926.63
741.784	6812.05
742.124	6882.79
742.464	6913.29
742.804	6886.85
743.143	6865.84
743.483	6943.35
743.823	6922.33
744.162	6909.23
744.502	6901.99
744.841	6882.79
745.181	6899.96
745.52	6881.43
745.86	6885.27
746.199	6872.39
746.538	6904.93
746.877	6905.16
747.216	6861.54
747.556	6828.78
747.895	6808.21
748.234	6810.47
748.573	6723.92
748.911	6720.76
749.25	6742.68
749.589	6709.23
749.928	6662.9
750.267	6689.12
750.605	6602.79
750.944	6633.53
751.283	6576.58
751.621	6580.87
751.96	6567.99
752.298	6582
752.636	6584.71
752.975	6512.85
753.313	6539.97
753.651	6589.01
753.989	6509.46
754.327	6518.5
754.666	6516.24
755.004	6554.43
755.342	6509.24
755.679	6551.95
756.017	6530.7
756.355	6567.09
756.693	6480.54
757.031	6485.28
757.368	6483.7
757.706	6470.37
758.044	6403.93
758.381	6418.16
758.719	6401.44
759.056	6403.48
759.394	6333.2
759.731	6341.33
760.068	6263.82
760.405	6272.63
760.743	6255.46
761.08	6226.31
761.417	6191.05
761.754	6095.24
762.091	6098.17
762.428	6117.83
762.765	6098.4
763.102	6068.8
763.438	6097.95
763.775	6050.72
764.112	6025.41
764.449	6068.57
764.785	6005.29
765.122	5959.19
765.458	5979.76
765.795	5987.89
766.131	6002.13
766.467	5989.25
766.804	5947.67
767.14	5930.49
767.476	5961.23
767.812	5897.5
768.148	5939.08
768.485	5926.43
768.821	5902.25
769.157	5887.78
769.492	5860.21
769.828	5833.32
770.164	5787.67
770.5	5766.88
770.836	5751.52
771.171	5674
771.507	5642.14
771.842	5616.38
772.178	5602.59
772.513	5582.71
772.849	5587.23
773.184	5582.25
773.519	5521.01
773.855	5481.69
774.19	5527.79
774.525	5472.43
774.86	5447.34
775.195	5450.51
775.53	5452.77
775.865	5435.14
776.2	5443.5
776.535	5377.06
776.87	5394.24
777.205	5397.4
777.539	5368.02
777.874	5404.18
778.209	5335.71
778.543	5327.8
778.878	5325.76
779.212	5314.01
779.547	5288.25
779.881	5310.17
780.215	5235.14
780.55	5288.7
780.884	5185.88
781.218	5211.19
781.552	5184.52
781.886	5183.17
782.22	5098.43
782.554	5125.54
782.888	5038.54
783.222	5018.43
783.556	5024.53
783.889	4969.84
784.223	5040.35
784.557	4936.62
784.89	4971.42
785.224	4918.09
785.557	4873.12
785.891	4882.84
786.224	4896.17
786.558	4847.13
786.891	4810.3
787.224	4801.26
787.557	4784.54
787.891	4810.07
788.224	4798.32
788.557	4807.36
788.89	4804.87
789.223	4801.94
789.556	4733.01
789.888	4752.9
790.221	4754.48
790.554	4729.17
790.887	4739.34
791.219	4704.76
791.552	4687.36
791.884	4679.23
792.217	4662.05
792.549	4633.13
792.882	4633.58
793.214	4595.39
793.546	4600.59
793.879	4529.63
794.211	4565.78
794.543	4489.63
794.875	4522.85
795.207	4493.47
795.539	4469.06
795.871	4497.99
796.203	4406.24
796.535	4407.82
796.867	4413.02
797.198	4385.68
797.53	4400.14
797.862	4331.21
798.193	4312.46
798.525	4299.8
798.856	4328.95
799.188	4291.21
799.519	4318.56
799.85	4242.85
800.182	4255.96
800.513	4289.18
800.844	4241.5
801.175	4283.98
801.506	4240.82
801.837	4262.97
802.168	4247.83
802.499	4233.36
802.83	4190.65
803.161	4210.31
803.491	4214.83
803.822	4196.08
804.153	4176.42
804.483	4175.29
804.814	4152.01
805.145	4183.2
805.475	4121.28
805.805	4096.42
806.136	4091.45
806.466	4111.33
806.796	4099.81
807.126	4069.98
807.457	4027.72
807.787	4032.24
808.117	4030.43
808.447	3987.49
808.777	4015.52
809.107	4016.65
809.436	3956.76
809.766	3969.64
810.096	3918.8
810.426	3924.67
810.755	3960.38
811.085	3902.07
811.414	3878.12
811.744	3865.69
812.073	3863.43
812.403	3883.99
812.732	3849.42
813.061	3838.35
813.39	3860.49
813.719	3818.46
814.049	3910.89
814.378	3891.45
814.707	3869.08
815.036	3835.41
815.365	3806.48
815.693	3808.52
816.022	3829.76
816.351	3795.18
816.68	3755.64
817.008	3805.13
817.337	3801.96
817.665	3790.44
817.994	3764
818.322	3760.61
818.651	3763.32
818.979	3755.41
819.307	3803.77
819.636	3770.1
819.964	3709.54
820.292	3701.63
820.62	3705.92
820.948	3698.01
821.276	3698.46
821.604	3657.33
821.932	3667.5
822.259	3681.06
822.587	3637.22
822.915	3624.11
823.243	3684
823.57	3629.54
823.898	3620.5
824.225	3609.42
824.553	3684.68
824.88	3602.42
825.207	3631.35
825.535	3664.11
825.862	3645.36
826.189	3670.67
826.516	3654.62
826.843	3667.5
827.17	3664.56
827.497	3677.45
827.824	3653.94
828.151	3681.74
828.478	3666.15
828.805	3702.98
829.131	3661.85
829.458	3679.48
829.785	3689.87
830.111	3693.72
830.438	3709.76
830.764	3686.94
831.09	3652.59
831.417	3690.1
831.743	3679.25
832.069	3694.62
832.395	3683.1
832.722	3678.58
833.048	3611.46
833.374	3633.61
833.7	3608.29
834.026	3619.59
834.351	3636.54
834.677	3605.36
835.003	3598.8
835.329	3590.22
835.654	3583.89
835.98	3569.65
836.306	3597.9
836.631	3559.26
836.956	3567.17
837.282	3554.29
837.607	3554.06
837.932	3528.98
838.258	3541.86
838.583	3531.23
838.908	3517.9
839.233	3518.81
839.558	3523.1
839.883	3475.64
840.208	3503.89
840.533	3508.64
840.858	3525.36
841.182	3529.65
841.507	3568.75
841.832	3514.51
842.156	3540.95
842.481	3500.95
842.805	3511.8
843.13	3524.46
843.454	3519.71
843.778	3485.13
844.103	3458.47
844.427	3426.83
844.751	3460.73
845.075	3452.59
845.399	3425.47
845.723	3421.86
846.047	3415.98
846.371	3398.58
846.695	3390.9
847.019	3364.91
847.343	3357.45
847.666	3324.91
847.99	3303.22
848.313	3280.17
848.637	3261.64
848.96	3216.89
849.284	3234.07
849.607	3245.82
849.931	3244.01
850.254	3221.64
850.577	3207.18
850.9	3211.47
851.223	3226.38
851.546	3147.97
851.869	3145.48
852.192	3170.34
852.515	3138.7
852.838	3127.4
853.161	3103
853.483	3095.09
853.806	3101.42
854.129	3100.74
854.451	3106.61
854.774	3069.55
855.096	3077.91
855.419	3065.94
855.741	3104.81
856.063	3092.6
856.385	3059.16
856.708	3079.95
857.03	3085.37
857.352	3080.17
857.674	3078.37
857.996	3023.45
858.318	3017.8
858.64	3013.51
858.961	3000.4
859.283	3017.12
859.605	2969.89
859.926	2990.46
860.248	2967.86
860.57	2961.31
860.891	2984.81
861.212	2921.76
861.534	2937.8
861.855	2899.39
862.176	2947.75
862.498	2924.92
862.819	2914.98
863.14	2921.53
863.461	2854.87
863.782	2841.31
864.103	2881.53
864.424	2878.6
864.745	2879.05
865.065	2839.5
865.386	2838.15
865.707	2837.92
866.027	2848.54
866.348	2809.9
866.668	2823.91
866.989	2848.54
867.309	2816.9
867.63	2860.74
867.95	2809.9
868.27	2830.01
868.59	2794.76
868.91	2796.56
869.23	2834.3
869.55	2796.34
869.87	2839.73
870.19	2848.99
870.51	2781.65
870.83	2801.08
871.15	2779.62
871.469	2807.19
871.789	2780.07
872.109	2828.2
872.428	2783.68
872.748	2797.02
873.067	2807.86
873.386	2813.06
873.706	2774.42
874.025	2747.75
874.344	2737.13
874.663	2777.36
874.982	2753.4
875.301	2726.96
875.62	2749.56
875.939	2710.01
876.258	2729
876.577	2726.74
876.896	2737.13
877.214	2691.03
877.533	2684.25
877.852	2695.1
878.17	2710.47
878.489	2695.55
878.807	2664.82
879.125	2662.56
879.444	2678.15
879.762	2667.08
880.08	2670.01
880.398	2625.72
880.716	2638.38
881.034	2641.54
881.352	2656
881.67	2663.46
881.988	2629.56
882.306	2657.13
882.624	2613.74
882.941	2602.22
883.259	2643.57
883.577	2639.96
883.894	2621.2
884.212	2626.17
884.529	2632.5
884.846	2598.15
885.164	2642.44
885.481	2601.32
885.798	2628.43
886.115	2574.2
886.432	2566.29
886.75	2608.55
887.067	2603.35
887.383	2579.17
887.7	2569.45
888.017	2551.6
888.334	2563.8
888.651	2555.89
888.967	2524.26
889.284	2566.74
889.6	2551.6
889.917	2529.23
890.233	2524.93
890.55	2522.67
890.866	2500.08
891.182	2496.23
891.498	2474.99
891.815	2458.95
892.131	2450.81
892.447	2463.47
892.763	2463.01
893.079	2420.98
893.395	2428.44
893.71	2430.02
894.026	2450.13
894.342	2438.83
894.657	2428.44
894.973	2379.17
895.289	2360.42
895.604	2405.16
895.92	2352.51
896.235	2378.27
896.55	2355.67
896.865	2359.51
897.181	2347.09
897.496	2371.27
897.811	2354.32
898.126	2368.78
898.441	2330.81
898.756	2332.4
899.071	2325.39
899.386	2319.97
899.7	2343.24
900.015	2297.59
900.33	2319.97
900.644	2343.7
900.959	2328.55
901.273	2303.92
901.588	2313.19
901.902	2279.06
902.216	2293.75
902.531	2314.09
902.845	2236.13
903.159	2269.35
903.473	2272.51
903.787	2239.07
904.101	2225.28
904.415	2216.47
904.729	2226.86
905.042	2200.42
905.356	2176.24
905.67	2194.32
905.984	2210.37
906.297	2180.08
906.611	2142.57
906.924	2152.29
907.237	2165.17
907.551	2134.89
907.864	2165.85
908.177	2122.46
908.491	2111.61
908.804	2114.32
909.117	2102.57
909.43	2053.53
909.743	2063.02
910.056	2076.13
910.368	2058.51
910.681	2067.77
910.994	2040.2
911.307	2049.01
911.619	2058.05
911.932	2033.2
912.244	2033.2
912.557	2011.5
912.869	2027.32
913.181	2004.95
913.494	2002.69
913.806	1988.68
914.118	1968.56
914.43	1973.08
914.742	1968.11
915.054	1954.33
915.366	1962.91
915.678	1992.52
915.99	1979.41
916.302	1965.63
916.613	1957.49
916.925	1933.54
917.236	1952.75
917.548	1942.12
917.859	1900.54
918.171	1903.03
918.482	1909.13
918.794	1883.82
919.105	1908
919.416	1866.42
919.727	1889.92
920.038	1867.55
920.349	1891.5
920.66	1844.5
920.971	1844.95
921.282	1836.82
921.593	1846.76
921.903	1812.41
922.214	1791.62
922.525	1788.23
922.835	1802.01
923.146	1796.82
923.456	1797.04
923.767	1792.52
924.077	1778.51
924.387	1787.78
924.697	1765.18
925.008	1748
925.318	1737.61
925.628	1757.5
925.938	1698.74
926.248	1727.89
926.558	1717.95
926.867	1717.95
927.177	1705.29
927.487	1671.85
927.796	1696.03
928.106	1714.56
928.416	1682.47
928.725	1672.98
929.034	1665.75
929.344	1702.58
929.653	1680.21
929.962	1656.03
930.271	1646.99
930.581	1622.81
930.89	1666.88
931.199	1671.4
931.508	1656.03
931.817	1642.02
932.125	1630.04
932.434	1629.14
932.743	1615.58
933.051	1641.57
933.36	1599.99
933.669	1583.72
933.977	1605.18
934.286	1570.83
934.594	1605.41
934.902	1598.18
935.21	1585.52
935.519	1596.6
935.827	1555.92
936.135	1558.86
936.443	1539.2
936.751	1532.64
937.059	1554.56
937.367	1518.41
937.674	1531.06
937.982	1518.86
938.29	1515.92
938.597	1533.77
938.905	1501.91
939.213	1497.84
939.52	1492.42
939.827	1510.95
940.135	1466.2
940.442	1467.11
940.749	1454.91
941.056	1490.16
941.363	1459.2
941.67	1448.58
941.977	1477.05
942.284	1454.91
942.591	1448.58
942.898	1425.3
943.205	1417.17
943.511	1430.95
943.818	1414.23
944.125	1418.07
944.431	1433.21
944.738	1417.17
945.044	1359.54
945.35	1422.14
945.657	1383.49
945.963	1409.48
946.269	1412.42
946.575	1383.72
946.881	1363.38
947.187	1364.74
947.493	1373.78
947.799	1358.41
948.105	1379.88
948.41	1357.05
948.716	1371.52
949.022	1344.17
949.327	1343.95
949.633	1346.89
949.938	1331.07
950.244	1358.41
950.549	1352.76
950.854	1344.4
951.16	1331.74
951.465	1313.89
951.77	1327.9
952.075	1298.98
952.38	1293.55
952.685	1307.56
952.99	1294.91
953.294	1289.94
953.599	1280.22
953.904	1275.93
954.209	1248.13
954.513	1274.8
954.818	1265.08
955.122	1274.35
955.426	1236.38
955.731	1246.78
956.035	1223.72
956.339	1246.1
956.643	1253.1
956.948	1240.9
957.252	1244.52
957.556	1225.76
957.86	1235.02
958.163	1238.64
958.467	1218.98
958.771	1213.56
959.075	1188.92
959.378	1168.13
959.682	1204.29
959.985	1194.35
960.289	1181.92
960.592	1173.1
960.896	1173.78
961.199	1180.34
961.502	1163.16
961.805	1157.29
962.108	1157.29
962.411	1143.5
962.714	1164.07
963.017	1185.99
963.32	1159.09
963.623	1150.96
963.926	1136.27
964.228	1133.11
964.531	1155.93
964.833	1114.8
965.136	1131.07
965.438	1114.58
965.741	1144.63
966.043	1136.72
966.345	1129.94
966.648	1100.79
966.95	1099.21
967.252	1095.37
967.554	1083.39
967.856	1101.02
968.158	1095.82
968.46	1104.63
968.761	1108.47
969.063	1061.7
969.365	1071.86
969.666	1071.64
969.968	1067.12
970.269	1054.69
970.571	1043.84
970.872	1056.27
971.174	1037.97
971.475	1040.45
971.776	1043.62
972.077	1049.04
972.378	1042.49
972.679	1047.68
972.98	1015.37
973.281	1048.36
973.582	1022.6
973.883	1005.2
974.183	1016.95
974.484	1011.3
974.785	1019.44
975.085	993.22
975.386	1010.62
975.686	1013.33
975.986	1006.56
976.287	983.05
976.587	968.82
976.887	996.39
977.187	1006.1
977.487	956.16
977.787	981.92
978.087	987.57
978.387	949.83
978.687	965.43
978.987	967.69
979.286	980.12
979.586	946.44
979.885	934.01
980.185	936.5
980.484	960.91
980.784	916.61
981.083	934.92
981.382	952.77
981.682	939.21
981.981	931.53
982.28	916.61
982.579	940.12
982.878	947.12
983.177	934.69
983.475	932.43
983.774	914.13
984.073	933.11
984.372	909.61
984.67	913.68
984.969	912.77
985.267	889.5
985.566	899.67
985.864	914.13
986.162	906.45
986.461	894.92
986.759	894.92
987.057	890.17
987.355	870.51
987.653	912.55
987.951	885.65
988.249	882.04
988.547	869.16
988.844	867.12
989.142	845.88
989.44	859.67
989.737	850.85
990.035	854.92
990.332	881.14
990.63	844.3
990.927	868.71
991.224	828.71
991.521	866.67
991.819	813.11
992.116	830.97
992.413	832.77
992.71	828.03
993.006	820.8
993.303	807.69
993.6	822.83
993.897	821.93
994.193	844.53
994.49	826
994.787	789.61
995.083	825.09
995.379	796.17
995.676	770.4
995.972	791.65
996.268	797.52
996.565	766.79
996.861	772.44
997.157	794.13
997.453	784.19
997.749	779.89
998.044	801.82
998.34	762.72
998.636	780.8
998.932	743.74
999.227	762.27
999.523	775.15
999.818	762.49
1000.114	740.8
1000.409	750.29
1000.704	753.91
1001	749.61
1001.295	760.23
1001.59	772.66
1001.885	766.79
1002.18	734.92
1002.475	750.52
1002.77	746.9
1003.065	731.53
1003.359	738.09
1003.654	738.09
1003.949	716.39
1004.243	738.99
1004.538	720.24
1004.832	729.95
1005.127	713.91
1005.421	726.34
1005.715	736.51
1006.009	701.48
1006.304	729.5
1006.598	717.3
1006.892	692.67
1007.186	685.89
1007.48	695.15
1007.773	689.05
1008.067	711.42
1008.361	707.58
1008.655	691.76
1008.948	684.53
1009.242	704.42
1009.535	686.56
1009.829	677.98
1010.122	690.18
1010.415	667.58
1010.708	670.97
1011.001	668.94
1011.295	667.81
1011.588	664.87
1011.881	656.28
1012.173	666.23
1012.466	675.72
1012.759	656.51
1013.052	664.42
1013.344	659.9
1013.637	633.68
1013.93	651.08
1014.222	653.34
1014.514	658.54
1014.807	648.6
1015.099	654.7
1015.391	641.37
1015.683	632.1
1015.976	653.12
1016.268	626.9
1016.56	643.18
1016.851	633.01
1017.143	620.58
1017.435	625.77
1017.727	604.76
1018.018	620.12
1018.31	608.6
1018.602	603.4
1018.893	600.46
1019.185	583.06
1019.476	598.66
1019.767	600.46
1020.058	602.05
1020.35	600.69
1020.641	595.27
1020.932	597.3
1021.223	603.4
1021.514	590.97
1021.804	590.07
1022.095	596.17
1022.386	582.16
1022.677	572.44
1022.967	565.44
1023.258	583.06
1023.548	579.67
1023.839	574.93
1024.129	566.79
1024.419	564.76
1024.709	572.44
1025	578.32
1025.29	578.09
1025.58	560.01
1025.87	555.95
1026.16	548.04
1026.449	507.81
1026.739	517.98
1027.029	538.32
1027.319	531.54
1027.608	518.66
1027.898	541.93
1028.187	520.01
1028.477	552.56
1028.766	543.29
1029.055	539
1029.344	517.75
1029.634	526.34
1029.923	520.47
1030.212	542.16
1030.501	530.41
1030.79	530.86
1031.078	526.57
1031.367	527.02
1031.656	522.05
1031.945	503.52
1032.233	515.27
1032.522	520.69
1032.81	498.55
1033.099	510.52
1033.387	510.3
1033.675	513.46
1033.963	504.87
1034.251	487.93
1034.54	495.83
1034.828	492.9
1035.116	470.75
1035.403	500.58
1035.691	494.7
1035.979	484.99
1036.267	478.89
1036.554	477.08
1036.842	472.11
1037.129	497.42
1037.417	470.52
1037.704	494.93
1037.992	474.59
1038.279	473.01
1038.566	471.65
1038.853	471.65
1039.14	471.65
