Data from foam2_polystyrene_foam_FLMS001491_00095.txt Node
Date: Wed Feb 08 10:58:47 GMT 2017
User: dcchb
Spectrometer: FLMS00149
Trigger mode: 0
Integration Time (sec): 2.000000E-2
Scans to average: 10
Electric dark correction enabled: true
Nonlinearity correction enabled: false
Boxcar width: 0
XAxis mode: Wavelengths
Number of Pixels in Spectrum: 2048
>>>>>Begin Spectral Data<<<<<
341.393	-15.88
341.776	-15.88
342.16	-15.88
342.543	-75.08
342.927	-71.69
343.31	-62.65
343.693	-73.5
344.077	-67.4
344.46	-47.74
344.843	-57.68
345.226	-54.74
345.61	-19.49
345.993	-8.19
346.376	4.01
346.759	13.5
347.142	21.64
347.525	56.44
347.908	47.85
348.291	54.18
348.674	83.33
349.057	110.45
349.44	114.52
349.823	156.32
350.206	162.65
350.588	188.64
350.971	224.12
351.354	233.16
351.737	222.76
352.119	254.63
352.502	265.02
352.884	280.16
353.267	295.08
353.65	286.04
354.032	306.6
354.414	312.03
354.797	304.57
355.179	319.48
355.562	352.93
355.944	326.71
356.326	327.17
356.709	309.09
357.091	336.88
357.473	352.7
357.855	339.14
358.238	342.31
358.62	357.22
359.002	352.02
359.384	331.69
359.766	328.52
360.148	330.1
360.53	348.63
360.912	345.92
361.294	342.08
361.676	339.6
362.057	349.09
362.439	342.31
362.821	337.34
363.203	334.85
363.584	332.36
363.966	301.63
364.348	349.31
364.729	352.48
365.111	317.68
365.493	331.46
365.874	342.76
366.256	321.97
366.637	323.55
367.019	330.33
367.4	327.84
367.781	319.26
368.163	349.99
368.544	335.08
368.925	330.56
369.306	326.94
369.688	336.43
370.069	334.85
370.45	319.48
370.831	325.58
371.212	362.42
371.593	333.72
371.974	322.65
372.355	324.91
372.736	333.95
373.117	344.57
373.498	331.01
373.879	344.57
374.26	362.19
374.641	350.44
375.021	346.38
375.402	366.71
375.783	347.96
376.163	368.52
376.544	378.46
376.925	366.49
377.305	367.39
377.686	354.28
378.066	382.76
378.447	372.14
378.827	383.89
379.208	357
379.588	369.2
379.968	373.94
380.349	362.65
380.729	389.09
381.109	386.15
381.489	397
381.87	394.74
382.25	379.37
382.63	383.21
383.01	374.62
383.39	399.48
383.77	399.03
384.15	388.86
384.53	391.35
384.91	414.4
385.29	420.27
385.67	400.16
386.049	414.17
386.429	413.94
386.809	408.75
387.189	413.27
387.568	414.85
387.948	429.08
388.328	436.09
388.707	418.24
389.087	402.19
389.466	432.93
389.846	432.47
390.225	444.45
390.605	464.56
390.984	453.04
391.363	461.17
391.743	454.39
392.122	478.12
392.501	453.04
392.881	454.62
393.26	470.44
393.639	465.24
394.018	459.82
394.397	489.2
394.776	483.55
395.155	491.23
395.534	485.81
395.913	490.78
396.292	478.12
396.671	513.6
397.05	487.39
397.429	514.51
397.808	505.24
398.186	495.98
398.565	511.34
398.944	516.54
399.323	553.38
399.701	526.03
400.08	500.95
400.458	540.27
400.837	542.75
401.215	541.62
401.594	545.47
401.972	564.9
402.351	546.6
402.729	562.87
403.107	549.31
403.486	568.29
403.864	566.03
404.242	567.16
404.62	580.27
404.999	595.86
405.377	585.92
405.755	619.36
406.133	590.44
406.511	598.35
406.889	601.96
407.267	628.18
407.645	634.05
408.023	641.96
408.401	639.25
408.779	620.04
409.156	629.08
409.534	627.27
409.912	677.21
410.29	676.08
410.667	670.66
411.045	716.99
411.422	680.38
411.8	702.75
412.178	688.29
412.555	702.07
412.933	710.66
413.31	714.95
413.687	716.53
414.065	741.84
414.442	726.7
414.819	729.19
415.197	756.76
415.574	773.03
415.951	755.63
416.328	771.67
416.705	763.09
417.082	781.84
417.46	801.5
417.837	817.32
418.214	803.76
418.591	827.94
418.967	817.1
419.344	807.61
419.721	847.15
420.098	848.28
420.475	841.73
420.852	856.87
421.228	865.23
421.605	870.88
421.982	888.51
422.358	892.58
422.735	899.81
423.111	899.81
423.488	906.59
423.864	905.91
424.241	931.22
424.617	917.89
424.994	930.09
425.37	957.66
425.746	962.63
426.123	968.51
426.499	992.23
426.875	988.17
427.251	989.07
427.627	1001.27
428.003	992.69
428.379	1017.32
428.756	1019.35
429.132	1040.14
429.507	1059.12
429.883	1065.9
430.259	1126.69
430.635	1114.26
431.011	1099.58
431.387	1163.75
431.763	1137.99
432.138	1165.34
432.514	1189.29
432.89	1193.13
433.265	1212.34
433.641	1218.22
434.016	1223.87
434.392	1260.02
434.767	1231.78
435.143	1278.78
435.518	1281.04
435.894	1274.94
436.269	1315.62
436.644	1299.57
437.02	1349.06
437.395	1342.73
437.77	1375.95
438.145	1363.98
438.52	1431.54
438.895	1434.03
439.271	1406.69
439.646	1457.08
440.021	1434.71
440.395	1445.56
440.77	1446.91
441.145	1473.8
441.52	1511.77
441.895	1497.31
442.27	1551.09
442.645	1510.19
443.019	1554.25
443.394	1535.04
443.769	1554.03
444.143	1548.15
444.518	1590.18
444.892	1592.22
445.267	1606.68
445.641	1623.4
446.016	1593.57
446.39	1636.06
446.764	1673.35
447.139	1673.35
447.513	1681.48
447.887	1692.33
448.262	1701.82
448.636	1684.42
449.01	1731.2
449.384	1754.7
449.758	1781.82
450.132	1767.35
450.506	1764.42
450.88	1804.42
451.254	1854.36
451.628	1850.52
452.002	1847.58
452.376	1850.06
452.75	1894.13
453.123	1900.23
453.497	1955.82
453.871	1903.4
454.244	1973.22
454.618	1974.58
454.992	1994.24
455.365	1996.5
455.739	2056.61
456.112	2034.24
456.486	2078.53
456.859	2093.67
457.232	2128.7
457.606	2147.68
457.979	2164.63
458.352	2191.52
458.725	2166.44
459.099	2201.47
459.472	2244.63
459.845	2259.09
460.218	2287.57
460.591	2330.05
460.964	2295.7
461.337	2373.89
461.71	2423.38
462.083	2419.99
462.456	2414.12
462.829	2471.97
463.201	2501.12
463.574	2510.84
463.947	2518.97
464.32	2560.55
464.692	2574.11
465.065	2609.14
465.438	2650.72
465.81	2672.87
466.183	2695.92
466.555	2786.76
466.928	2764.84
467.3	2758.06
467.672	2819.53
468.045	2860.43
468.417	2892.3
468.789	2897.04
469.161	2941.79
469.534	3001.9
469.906	3057.26
470.278	3080.09
470.65	3093.2
471.022	3176.13
471.394	3192.4
471.766	3244.15
472.138	3289.35
472.51	3333.87
472.882	3386.97
473.253	3447.76
473.625	3439.18
473.997	3537.25
474.369	3540.64
474.74	3578.61
475.112	3636.23
475.484	3703.57
475.855	3748.32
476.227	3809.33
476.598	3882.78
476.97	3922.78
477.341	3960.52
477.713	4064.7
478.084	4104.92
478.455	4176.1
478.827	4233.05
479.198	4318.47
479.569	4361.64
479.94	4475.31
480.311	4501.29
480.682	4586.49
481.053	4673.72
481.424	4771.57
481.795	4795.3
482.166	4845.24
482.537	4952.81
482.908	5092.46
483.279	5103.54
483.65	5172.91
484.021	5291.78
484.391	5328.62
484.762	5403.87
485.133	5425.79
485.503	5520.48
485.874	5657.42
486.244	5710.98
486.615	5767.02
486.985	5860.81
487.356	5954.82
487.726	6009.05
488.097	6193.23
488.467	6141.48
488.837	6328.14
489.207	6356.39
489.578	6498.76
489.948	6440.45
490.318	6615.59
490.688	6607.23
491.058	6778.75
491.428	6765.64
491.798	6909.59
492.168	7046.99
492.538	7044.73
492.908	7141.45
493.278	7150.26
493.648	7226.19
494.017	7325.4
494.387	7366.08
494.757	7425.96
495.126	7564.04
495.496	7531.72
495.866	7620.31
496.235	7712.06
496.605	7817.14
496.974	7876.8
497.344	7912.5
497.713	8004.93
498.082	8067.3
498.452	8146.85
498.821	8133.06
499.19	8168.09
499.559	8298.03
499.928	8331.02
500.298	8359.27
500.667	8506.61
501.036	8450.79
501.405	8629.1
501.774	8658.92
502.143	8680.85
502.512	8719.94
502.88	8796.1
503.249	8883.33
503.618	8979.37
503.987	8942.53
504.356	9055.3
504.724	9105.01
505.093	9088.29
505.462	9197.67
505.83	9257.33
506.199	9363.09
506.567	9470.2
506.936	9462.07
507.304	9592.46
507.672	9565.12
508.041	9637.66
508.409	9748.84
508.777	9811.89
509.145	9901.15
509.514	9951.77
509.882	9985.67
510.25	10108.6
510.618	10118.1
510.986	10116.06
511.354	10263.63
511.722	10377.98
512.09	10468.37
512.458	10424.3
512.826	10549.72
513.193	10568.93
513.561	10602.15
513.929	10694.35
514.297	10847.12
514.664	10891.86
515.032	10879.66
515.4	11051.18
515.767	11115.58
516.135	11199.42
516.502	11125.98
516.869	11406.65
517.237	11367.78
517.604	11439.64
517.972	11543.37
518.339	11622.69
518.706	11644.38
519.073	11655
519.44	11772.74
519.808	11883.92
520.175	11906.75
520.542	12087.54
520.909	12111.72
521.276	12160.75
521.643	12418.37
522.009	12435.32
522.376	12614.53
522.743	12565.49
523.11	12739.95
523.477	12804.35
523.843	12960.96
524.21	13024.01
524.577	13154.63
524.943	13174.29
525.31	13268.52
525.676	13428.74
526.043	13457.44
526.409	13539.93
526.776	13588.29
527.142	13675.97
527.508	13841.39
527.874	13925
528.241	13993.25
528.607	14075.28
528.973	14118.44
529.339	14237.31
529.705	14288.83
530.071	14446.12
530.437	14471.88
530.803	14464.42
531.169	14668.03
531.535	14649.95
531.901	14753.91
532.267	14853.11
532.632	14935.6
532.998	14992.09
533.364	14979.44
533.73	15084.07
534.095	15237.73
534.461	15263.95
534.826	15360.9
535.192	15388.24
535.557	15544.39
535.923	15556.14
536.288	15572.87
536.653	15644.96
537.019	15607.67
537.384	15757.72
537.749	15841.56
538.114	15819.19
538.479	15855.35
538.845	15955.46
539.21	16065.96
539.575	16083.59
539.94	16191.38
540.305	16205.39
540.67	16318.61
541.034	16327.65
541.399	16442.68
541.764	16445.39
542.129	16510.02
542.494	16538.49
542.858	16632.95
543.223	16591.15
543.587	16656.91
543.952	16721.76
544.316	16813.74
544.681	16797.92
545.045	16974.86
545.41	16970.34
545.774	17042.66
546.138	17063.45
546.503	17130.34
546.867	17134.86
547.231	17369.43
547.595	17297.57
547.959	17350.45
548.324	17481.74
548.688	17567.84
549.052	17565.36
549.416	17623.89
549.779	17695.98
550.143	17793.15
550.507	17767.16
550.871	17816.42
551.235	17817.55
551.599	18073.14
551.962	18027.72
552.326	18226.13
552.689	18299.58
553.053	18179.8
553.417	18293.47
553.78	18504.09
554.143	18400.82
554.507	18622.73
554.87	18698.21
555.234	18743.41
555.597	18750.18
555.96	18782.73
556.323	18851.65
556.686	18955.83
557.05	19077.18
557.413	19181.13
557.776	19236.73
558.139	19353.56
558.502	19454.35
558.865	19421.58
559.228	19668.13
559.59	19667.67
559.953	19620.9
560.316	19942.92
560.679	19872.87
561.041	20016.82
561.404	20208.68
561.767	20292.52
562.129	20205.97
562.492	20434.43
562.854	20493.19
563.217	20533.19
563.579	20643.47
563.941	20798.04
564.304	20871.03
564.666	21024.48
565.028	21024.25
565.39	21137.47
565.753	21302.21
566.115	21440.51
566.477	21471.7
566.839	21561.41
567.201	21575.42
567.563	21637.79
567.925	21837.56
568.287	21859.71
568.648	22036.43
569.01	22082.53
569.372	22202.75
569.734	22144.67
570.095	22358.45
570.457	22400.03
570.819	22355.97
571.18	22423.76
571.542	22541.05
571.903	22628.28
572.265	22737.65
572.626	22727.93
572.987	22810.42
573.349	22853.35
573.71	23007.02
574.071	23090.86
574.432	23198.66
574.794	23266
575.155	23219.45
575.516	23225.77
575.877	23300.57
576.238	23427.58
576.599	23456.95
576.96	23549.15
577.32	23542.83
577.681	23694.91
578.042	23763.16
578.403	23686.78
578.763	23652.88
579.124	23694.01
579.485	23872.31
579.845	23997.28
580.206	23862.59
580.566	23914.57
580.927	23870.05
581.287	24056.26
581.648	23977.39
582.008	24054.68
582.368	23921.12
582.728	24083.83
583.089	23973.78
583.449	23982.59
583.809	24092.19
584.169	24185.75
584.529	24206.99
584.889	24214
585.249	24253.77
585.609	24141
585.969	24292.41
586.329	24295.58
586.688	24321.56
587.048	24218.06
587.408	24237.72
587.768	24264.62
588.127	24273.66
588.487	24310.49
588.846	24344.39
589.206	24307.78
589.565	24338.29
589.925	24429.81
590.284	24305.75
590.643	24315.91
591.003	24428.68
591.362	24416.93
591.721	24377.38
592.08	24339.19
592.44	24475.46
592.799	24475.01
593.158	24371.05
593.517	24475.23
593.876	24454.22
594.235	24424.39
594.593	24555.91
594.952	24521.56
595.311	24497.83
595.67	24498.28
596.029	24694.44
596.387	24733.3
596.746	24695.11
597.104	24482.24
597.463	24527.89
597.822	24543.93
598.18	24555
598.538	24595.23
598.897	24733.53
599.255	24656.47
599.613	24804.26
599.972	24686.3
600.33	24814.88
600.688	24785.28
601.046	24747.54
601.404	24902.11
601.762	24779.86
602.12	24943.92
602.478	24918.84
602.836	24947.54
603.194	24814.43
603.552	24961.77
603.91	24823.47
604.268	24879.29
604.625	24853.75
604.983	24983.47
605.341	24934.2
605.698	25079.28
606.056	25111.15
606.413	24982.34
606.771	25006.52
607.128	25079.74
607.485	24959.97
607.843	25030.47
608.2	25122.67
608.557	25152.73
608.914	25156.57
609.272	25244.03
609.629	25290.13
609.986	25380.29
610.343	25352.05
610.7	25507.97
611.057	25354.08
611.414	25361.54
611.771	25392.04
612.127	25482.89
612.484	25486.73
612.841	25584.81
613.198	25416.45
613.554	25424.36
613.911	25638.82
614.267	25642.89
614.624	25502.55
614.98	25660.51
615.337	25754.97
615.693	25639.95
616.05	25590.68
616.406	25810.56
616.762	25714.07
617.118	25726.95
617.475	25707.29
617.831	25773.28
618.187	25722.66
618.543	25771.02
618.899	25879.49
619.255	25916.55
619.611	25755.42
619.967	25843.33
620.323	26044.46
620.678	25855.31
621.034	25883.56
621.39	25777.34
621.746	25718.36
622.101	26107.28
622.457	25846.95
622.812	25934.18
623.168	25945.02
623.523	25952.26
623.879	26059.6
624.234	25735.76
624.589	25870.45
624.945	25856.21
625.3	25885.59
625.655	25902.54
626.01	25842.65
626.365	25904.8
626.72	25766.05
627.075	25774.18
627.43	25798.81
627.785	25692.83
628.14	25748.87
628.495	25786.38
628.85	25868.19
629.205	25619.16
629.559	25752.94
629.914	25533.74
630.269	25567.18
630.623	25488.76
630.978	25488.54
631.332	25681.98
631.687	25639.72
632.041	25531.02
632.396	25460.07
632.75	25413.51
633.104	25438.14
633.459	25284.7
633.813	25330.8
634.167	25256.45
634.521	25280.18
634.875	25323.8
635.229	25236.12
635.583	25112.05
635.937	25149.56
636.291	25052.17
636.645	25227.3
636.999	25184.82
637.352	25121.09
637.706	24932.62
638.06	25097.14
638.413	24928.33
638.767	24877.48
639.121	24919.51
639.474	24636.13
639.828	24804.26
640.181	24793.87
640.534	24851.04
640.888	24713.19
641.241	24669.58
641.594	24522.24
641.947	24760.42
642.301	24532.18
642.654	24429.81
643.007	24730.59
643.36	24413.76
643.713	24426.65
644.066	24582.8
644.419	24368.12
644.771	24124.96
645.124	23886.55
645.477	24006.09
645.83	23681.58
646.182	23617.18
646.535	23595.26
646.888	23582.15
647.24	23483.39
647.593	23555.93
647.945	23627.8
648.298	23435.94
648.65	23350.97
649.002	23226
649.355	23385.32
649.707	23311.65
650.059	23401.36
650.411	23647.91
650.763	23729.94
651.115	23901.69
651.467	23797.28
651.819	23921.12
652.171	23796.83
652.523	23754.57
652.875	23792.54
653.227	23559.55
653.578	23760.22
653.93	23732.65
654.282	23547.8
654.633	23503.51
654.985	23533.34
655.337	23543.28
655.688	23569.49
656.039	23696.5
656.391	23377.18
656.742	23400.46
657.094	23432.1
657.445	23567.69
657.796	23357.07
658.147	23506.67
658.498	23411.98
658.849	23401.36
659.2	23318.88
659.551	23290.63
659.902	23388.26
660.253	23264.19
660.604	23364.07
660.955	23193.91
661.306	23362.72
661.656	23293.57
662.007	23316.84
662.358	23313.68
662.708	23277.98
663.059	23224.64
663.409	23095.38
663.76	23236.39
664.11	23231.2
664.461	23162.72
664.811	23159.11
665.161	23192.33
665.511	23120.24
665.862	23088.15
666.212	23212.67
666.562	23144.65
666.912	23057.19
667.262	23059.45
667.612	23159.11
667.962	23200.69
668.312	23116.4
668.662	23177.64
669.011	23164.53
669.361	22974.25
669.711	22993.69
670.06	23062.16
670.41	22980.36
670.76	22888.38
671.109	23057.42
671.459	22956.63
671.808	22905.33
672.157	22959.34
672.507	22744.66
672.856	22886.57
673.205	22965.67
673.554	22943.97
673.904	22818.78
674.253	23000.47
674.602	22865.56
674.951	22518.67
675.3	22474.83
675.649	22776.97
675.998	22776.75
676.346	22775.39
676.695	22889.74
677.044	22736.75
677.393	22772.68
677.741	22751.66
678.09	22810.42
678.438	22619.91
678.787	22659.46
679.135	22642.29
679.484	22585.34
679.832	22664.21
680.181	22589.63
680.529	22614.26
680.877	22511.44
681.225	22494.27
681.573	22603.64
681.922	22349.64
682.27	22221.51
682.618	22398
682.966	22363.65
683.314	22332.92
683.661	22271.9
684.009	22073.49
684.357	22034.39
684.705	22004.56
685.053	22125.01
685.4	22070.55
685.748	21930.67
686.095	21908.07
686.443	21912.59
686.79	21762.08
687.138	21894.28
687.485	21825.58
687.832	21725.25
688.18	21734.97
688.527	21627.85
688.874	21696.55
689.221	21607.74
689.568	21627.4
689.915	21482.54
690.262	21539.72
690.609	21475.99
690.956	21411.13
691.303	21421.75
691.65	21228.76
691.997	21260.18
692.344	21053.18
692.69	21062.89
693.037	21039.39
693.383	20827.19
693.73	21003.69
694.077	20866.06
694.423	20826.97
694.769	20794.65
695.116	20740.42
695.462	20754.43
695.808	20667.2
696.155	20603.92
696.501	20522.12
696.847	20504.49
697.193	20381.33
697.539	20593.98
697.885	20353.53
698.231	20343.82
698.577	20155.35
698.923	20210.94
699.269	20120.54
699.614	20090.71
699.96	19949.02
700.306	19992.19
700.651	19913.77
700.997	19918.06
701.342	19937.95
701.688	19777.73
702.033	19774.11
702.379	19807.56
702.724	19772.53
703.069	19811.63
703.415	19528.92
703.76	19594
704.105	19430.39
704.45	19439.43
704.795	19230.4
705.14	19347.23
705.485	19229.72
705.83	19145.65
706.175	19161.25
706.52	18994.92
706.865	19093.68
707.209	19081.02
707.554	18860.69
707.899	18985.66
708.243	18818.21
708.588	18959.22
708.932	18735.27
709.277	18734.82
709.621	18762.16
709.966	18644.65
710.31	18692.11
710.654	18596.52
710.998	18495.05
711.342	18507.93
711.687	18476.07
712.031	18350.65
712.375	18294.38
712.719	18319.91
713.063	18307.71
713.407	18363.08
713.75	18241.5
714.094	18257.77
714.438	18172.12
714.782	18154.72
715.125	18078.56
715.469	18083.54
715.812	17998.34
716.156	17987.72
716.499	17949.3
716.843	17947.72
717.186	17829.53
717.53	17869.08
717.873	17857.33
718.216	17832.47
718.559	17670.44
718.902	17611.46
719.246	17593.38
719.589	17522.42
719.932	17535.08
720.275	17557.67
720.617	17498.24
720.96	17481.97
721.303	17517
721.646	17476.32
721.989	17465.47
722.331	17438.58
722.674	17442.87
723.016	17422.76
723.359	17360.84
723.701	17341.86
724.044	17174.63
724.386	17053.51
724.729	17238.81
725.071	17023.45
725.413	17156.1
725.755	17051.47
726.097	16998.59
726.439	16926.96
726.782	16877.24
727.124	16934.87
727.465	16869.56
727.807	16829.78
728.149	16784.36
728.491	16872.49
728.833	16771.03
729.175	16724.7
729.516	16729.67
729.858	16811.48
730.199	16810.35
730.541	16665.49
730.882	16651.26
731.224	16676.79
731.565	16570.36
731.906	16593.41
732.248	16481.32
732.589	16434.09
732.93	16323.13
733.271	16322.45
733.612	16407.2
733.953	16416.69
734.294	16318.84
734.635	16293.3
734.976	16272.51
735.317	16192.51
735.658	16210.59
735.999	16195
736.339	16115.23
736.68	16169.01
737.021	16128.33
737.361	16126.3
737.702	16189.57
738.042	16052.4
738.383	16021.9
738.723	15985.74
739.063	15832.97
739.404	15923.59
739.744	15874.1
740.084	15899.41
740.424	15720.66
740.764	15801.79
741.104	15827.1
741.444	15758.17
741.784	15689.93
742.124	15683.15
742.464	15718.85
742.804	15676.59
743.143	15611.28
743.483	15644.05
743.823	15562.92
744.162	15470.27
744.502	15447.9
744.841	15424.85
745.181	15451.51
745.52	15406.54
745.86	15529.03
746.199	15465.3
746.538	15488.12
746.877	15475.47
747.216	15377.17
747.556	15319.31
747.895	15370.84
748.234	15163.84
748.573	15233.44
748.911	15089.72
749.25	15074.58
749.589	15039.32
749.928	15043.16
750.267	15038.87
750.605	14981.7
750.944	14988.25
751.283	14956.61
751.621	14989.83
751.96	14893.11
752.298	14898.31
752.636	14849.04
752.975	14776.28
753.313	14783.51
753.651	14698.54
753.989	14713.45
754.327	14641.59
754.666	14621.48
755.004	14666.9
755.342	14628.49
755.679	14517.08
756.017	14437.98
756.355	14499.45
756.693	14385.33
757.031	14419.23
757.368	14331.32
757.706	14290.19
758.044	14287.7
758.381	14261.04
758.719	14139.23
759.056	14147.37
759.394	14172
759.731	14052.46
760.068	14024.21
760.405	13951.44
760.743	13879.8
761.08	13888.84
761.417	13829.64
761.754	13812.46
762.091	13864.21
762.428	13691.33
762.765	13647.49
763.102	13750.99
763.438	13645.46
763.775	13554.16
764.112	13604.33
764.449	13623.77
764.785	13470.32
765.122	13301.06
765.458	13341.06
765.795	13241.86
766.131	13245.24
766.467	13185.36
766.804	13204.12
767.14	13094.74
767.476	13089.99
767.812	13080.73
768.148	13062.2
768.485	12996.44
768.821	12928.19
769.157	12918.02
769.492	12929.55
769.828	12768.42
770.164	12796.44
770.5	12714.41
770.836	12717.58
771.171	12576.56
771.507	12575.66
771.842	12452.95
772.178	12419.28
772.513	12391.03
772.849	12395.32
773.184	12336.57
773.519	12287.76
773.855	12215.89
774.19	12196.01
774.525	12137.93
774.86	12137.93
775.195	12076.01
775.53	12045.28
775.865	12071.49
776.2	11961.89
776.535	11865.85
776.87	11811.61
777.205	11832.17
777.539	11728
777.874	11767.77
778.209	11652.29
778.543	11557.83
778.878	11547.66
779.212	11546.53
779.547	11459.98
779.881	11444.84
780.215	11401.45
780.55	11443.71
780.884	11292.53
781.218	11346.99
781.552	11313.54
781.886	11245.98
782.22	11158.75
782.554	11226.09
782.888	11064.96
783.222	11026.55
783.556	10972.54
783.889	10855.25
784.223	10809.6
784.557	10783.84
784.89	10857.96
785.224	10756.72
785.557	10771.19
785.891	10719.44
786.224	10580.91
786.558	10682.15
786.891	10543.17
787.224	10492.55
787.557	10471.53
787.891	10461.59
788.224	10434.92
788.557	10441.93
788.89	10398.31
789.223	10415.04
789.556	10330.75
789.888	10294.14
790.221	10199.68
790.554	10157.19
790.887	10200.35
791.219	10079.68
791.552	10110.41
791.884	10035.16
792.217	10077.42
792.549	9936.41
792.882	9903.41
793.214	9841.27
793.546	9910.19
793.879	9794.04
794.211	9760.59
794.543	9787.48
794.875	9713.13
795.207	9799.23
795.539	9670.42
795.871	9706.58
796.203	9623.65
796.535	9557.66
796.867	9477.66
797.198	9581.39
797.53	9542.97
797.862	9455.06
798.193	9424.55
798.525	9302.98
798.856	9456.19
799.188	9326.48
799.519	9315.86
799.85	9246.71
800.182	9184.11
800.513	9248.29
800.844	9126.03
801.175	9153.15
801.506	9208.06
801.837	9075.64
802.168	9105.24
802.499	9046.26
802.83	9058.69
803.161	8954.51
803.491	8962.19
803.822	8943.66
804.153	8968.07
804.483	8884.91
804.814	8897.11
805.145	8794.74
805.475	8828.64
805.805	8822.31
806.136	8743.89
806.466	8791.12
806.796	8709.09
807.126	8684.23
807.457	8672.26
807.787	8680.62
808.117	8634.29
808.447	8521.53
808.777	8611.69
809.107	8579.38
809.436	8513.62
809.766	8514.52
810.096	8438.37
810.426	8447.41
810.755	8459.83
811.085	8423
811.414	8394.3
811.744	8255.55
812.073	8276.34
812.403	8288.31
812.732	8328.99
813.061	8250.35
813.39	8252.61
813.719	8222.55
814.049	8255.32
814.378	8261.42
814.707	8204.47
815.036	8098.26
815.365	8174.42
815.693	8040.18
816.022	8059.17
816.351	8044.7
816.68	8026.63
817.008	8031.82
817.337	7962.22
817.665	7980.98
817.994	7962.67
818.322	7942.33
818.651	7941.66
818.979	7875.89
819.307	7922.67
819.636	7895.56
819.964	7802.45
820.292	7855.33
820.62	7869.12
820.948	7759.97
821.276	7793.18
821.604	7865.27
821.932	7783.24
822.259	7847.19
822.587	7839.06
822.915	7811.04
823.243	7851.71
823.57	7809.91
823.898	7817.14
824.225	7815.56
824.553	7760.42
824.88	7707.31
825.207	7789.12
825.535	7796.35
825.862	7822.56
826.189	7751.6
826.516	7794.31
826.843	7833.41
827.17	7743.69
827.497	7738.95
827.824	7788.44
828.151	7813.52
828.478	7765.39
828.805	7822.79
829.131	7729.23
829.458	7788.44
829.785	7735.33
830.111	7766.29
830.438	7821.21
830.764	7772.17
831.09	7815.56
831.417	7748.89
831.743	7806.52
832.069	7748.44
832.395	7710.7
832.722	7793.41
833.048	7758.38
833.374	7734.88
833.7	7703.92
834.026	7581.21
834.351	7691.27
834.677	7741.89
835.003	7736.92
835.329	7695.79
835.654	7697.14
835.98	7672.51
836.306	7698.95
836.631	7607.88
836.956	7651.04
837.282	7608.33
837.607	7593.64
837.932	7596.81
838.258	7611.04
838.583	7616.92
838.908	7500.31
839.233	7519.97
839.558	7502.8
839.883	7483.14
840.208	7503.02
840.533	7524.94
840.858	7491.72
841.182	7475.45
841.507	7491.05
841.832	7412.18
842.156	7384.83
842.481	7393.65
842.805	7364.72
843.13	7319.3
843.454	7298.73
843.778	7335.12
844.103	7315.23
844.427	7217.15
844.751	7275.91
845.075	7236.82
845.399	7270.26
845.723	7186.42
846.047	7205.4
846.371	7120.43
846.695	7181
847.019	7070.04
847.343	7075.24
847.666	7056.93
847.99	7037.95
848.313	7022.13
848.637	6961.12
848.96	6992.75
849.284	6966.31
849.607	6913.43
849.931	6945.3
850.254	6836.83
850.577	6794.79
850.9	6728.13
851.223	6778.07
851.546	6706.89
851.869	6638.86
852.192	6687.45
852.515	6646.77
852.838	6600.45
853.161	6668.02
853.483	6641.8
853.806	6575.59
854.129	6651.75
854.451	6492.88
854.774	6517.96
855.096	6493.78
855.419	6491.75
855.741	6462.15
856.063	6487
856.385	6373.79
856.708	6423.96
857.03	6416.5
857.352	6371.08
857.674	6358.42
857.996	6373.79
858.318	6359.55
858.64	6278.42
858.961	6313.68
859.283	6224.64
859.605	6227.58
859.926	6284.07
860.248	6227.12
860.57	6205.88
860.891	6144.41
861.212	6174.7
861.534	6129.27
861.855	6137.41
862.176	6131.99
862.498	6125.21
862.819	6106.22
863.14	6076.17
863.461	6063.06
863.782	6046.56
864.103	6058.99
864.424	6073
864.745	6053.12
865.065	6076.85
865.386	6036.17
865.707	6036.39
866.027	6050.86
866.348	6024.42
866.668	6004.98
866.989	5999.11
867.309	5923.18
867.63	5953.69
867.95	5958.2
868.27	5969.5
868.59	5961.14
868.91	5947.13
869.23	5942.16
869.55	5879.11
869.87	5964.08
870.19	5865.33
870.51	5874.82
870.83	5845.67
871.15	5837.08
871.469	5854.25
871.789	5852.67
872.109	5826.01
872.428	5825.1
872.748	5795.5
873.067	5797.98
873.386	5767.48
873.706	5806.12
874.025	5804.31
874.344	5742.62
874.663	5788.04
874.982	5808.38
875.301	5725.67
875.62	5777.19
875.939	5742.84
876.258	5703.52
876.577	5685.44
876.896	5658.78
877.214	5692
877.533	5677.76
877.852	5687.03
878.17	5675.05
878.489	5671.88
878.807	5657.87
879.125	5600.02
879.444	5595.95
879.762	5588.72
880.08	5606.58
880.398	5586.01
880.716	5600.93
881.034	5562.74
881.352	5600.7
881.67	5559.12
881.988	5549.18
882.306	5594.15
882.624	5512.11
882.941	5482.74
883.259	5461.04
883.577	5498.1
883.894	5499.46
884.212	5454.04
884.529	5442.06
884.846	5440.93
885.164	5416.07
885.481	5406.81
885.798	5407.48
886.115	5339.92
886.432	5352.57
886.75	5390.08
887.067	5421.04
887.383	5347.6
887.7	5374.72
888.017	5303.31
888.334	5325.68
888.651	5313.93
888.967	5294.72
889.284	5289.07
889.6	5294.72
889.917	5193.03
890.233	5228.96
890.55	5230.09
890.866	5227.38
891.182	5200.48
891.498	5203.87
891.815	5148.51
892.131	5148.28
892.447	5124.33
892.763	5147.38
893.079	5065.8
893.395	5035.29
893.71	5062.18
894.026	5090.21
894.342	5084.56
894.657	4967.95
894.973	5024.67
895.289	4971.34
895.604	4971.34
895.92	4987.83
896.235	4928.63
896.55	4947.84
896.865	4945.35
897.181	4882.08
897.496	4916.88
897.811	4845.47
898.126	4849.53
898.441	4869.87
898.756	4826.26
899.071	4838.01
899.386	4778.12
899.7	4751.23
900.015	4788.74
900.33	4732.93
900.644	4758.91
900.959	4720.72
901.273	4727.95
901.588	4662.19
901.902	4651.57
902.216	4634.62
902.531	4636.43
902.845	4641.4
903.159	4580.84
903.473	4612.25
903.787	4569.77
904.101	4577.9
904.415	4541.97
904.729	4551.24
905.042	4525.93
905.356	4499.71
905.67	4486.83
905.984	4487.74
906.297	4429.66
906.611	4450
906.924	4440.96
907.237	4448.19
907.551	4436.89
907.864	4403.67
908.177	4379.04
908.491	4344.69
908.804	4319.38
909.117	4307.85
909.43	4264.24
909.743	4231.47
910.056	4276.89
910.368	4260.4
910.681	4216.1
910.994	4198.93
911.307	4163.22
911.619	4173.85
911.932	4192.83
912.244	4126.16
912.557	4170.46
912.869	4176.78
913.181	4106.95
913.494	4085.49
913.806	4054.75
914.118	4042.32
914.43	4035.54
914.742	4029.89
915.054	4006.17
915.366	4009.78
915.678	3941.76
915.99	3978.37
916.302	3933.4
916.613	3903.34
916.925	3909.67
917.236	3908.77
917.548	3866.51
917.859	3900.63
918.171	3878.71
918.482	3831.03
918.794	3820.63
919.105	3812.27
919.416	3763.23
919.727	3774.08
920.038	3798.04
920.349	3753.97
920.66	3714.2
920.971	3722.33
921.282	3698.6
921.593	3701.99
921.903	3675.78
922.214	3687.08
922.525	3650.92
922.835	3627.19
923.146	3620.19
923.456	3569.12
923.767	3580.41
924.077	3567.53
924.387	3528.21
924.697	3529.34
925.008	3513.3
925.318	3518.27
925.628	3494.09
925.938	3470.59
926.248	3457.93
926.558	3424.94
926.867	3442.79
927.177	3371.38
927.487	3419.29
927.796	3361.44
928.106	3407.09
928.416	3405.05
928.725	3370.25
929.034	3304.04
929.344	3338.61
929.653	3354.21
929.962	3242.34
930.271	3282.57
930.581	3275.11
930.89	3261.55
931.199	3260.65
931.508	3272.63
931.817	3207.99
932.125	3220.2
932.434	3188.56
932.743	3180.2
933.051	3124.61
933.36	3167.77
933.669	3123.7
933.977	3102.46
934.286	3155.34
934.594	3152.4
934.902	3080.09
935.21	3059.98
935.519	3068.56
935.827	3062.01
936.135	3032.63
936.443	2980.43
936.751	3012.52
937.059	3004.61
937.367	3015.01
937.674	3006.19
937.982	2975.01
938.29	2941.56
938.597	2913.99
938.905	2913.54
939.213	2936.36
939.52	2886.42
939.827	2892.75
940.135	2896.14
940.442	2877.61
940.749	2862.69
941.056	2850.72
941.363	2819.53
941.67	2819.98
941.977	2813.88
942.284	2769.36
942.591	2791.73
942.898	2794.22
943.205	2795.35
943.511	2756.26
943.818	2740.21
944.125	2702.47
944.431	2697.27
944.738	2690.72
945.044	2671.74
945.35	2695.47
945.657	2649.37
945.963	2650.04
946.269	2643.49
946.575	2624.06
946.881	2612.76
947.187	2618.41
947.493	2599.42
947.799	2631.96
948.105	2612.08
948.41	2571.85
948.716	2573.21
949.022	2557.16
949.327	2562.36
949.633	2565.98
949.938	2521.23
950.244	2497.28
950.549	2495.92
950.854	2493.66
951.16	2456.15
951.465	2466.55
951.77	2434.23
952.075	2474.91
952.38	2464.29
952.685	2433.78
952.99	2422.48
953.294	2430.61
953.599	2395.59
953.904	2410.95
954.209	2399.65
954.513	2406.43
954.818	2373.67
955.122	2337.96
955.426	2341.12
955.731	2316.94
956.035	2318.53
956.339	2313.55
956.643	2292.09
956.948	2298.64
957.252	2276.04
957.556	2255.7
957.86	2262.93
958.163	2261.58
958.467	2238.75
958.771	2237.4
959.075	2234.46
959.378	2210.05
959.682	2207.8
959.985	2198.53
960.289	2204.86
960.592	2199.89
960.896	2195.82
961.199	2173.9
961.502	2187.68
961.805	2152.88
962.108	2117.18
962.411	2156.95
962.714	2110.62
963.017	2137.29
963.32	2123.73
963.623	2111.53
963.926	2115.59
964.228	2125.76
964.531	2097.52
964.833	2046.44
965.136	2053.45
965.438	2076.05
965.741	2019.78
966.043	2040.79
966.345	2022.72
966.648	2024.52
966.95	2005.09
967.252	1987.91
967.554	1955.6
967.856	2000.12
968.158	1968.25
968.46	1953.79
968.761	1956.28
969.063	1959.67
969.365	1978.42
969.666	1930.06
969.968	1919.67
970.269	1892.32
970.571	1895.49
970.872	1908.37
971.174	1890.52
971.475	1921.7
971.776	1892.32
972.077	1873.11
972.378	1857.07
972.679	1867.92
972.98	1860.23
973.281	1846.9
973.582	1824.98
973.883	1878.76
974.183	1839.22
974.484	1816.39
974.785	1829.27
975.085	1786.56
975.386	1833.57
975.686	1801.48
975.986	1761.93
976.287	1764.87
976.587	1753.34
976.887	1757.41
977.187	1748.37
977.487	1741.37
977.787	1727.36
978.087	1735.49
978.387	1704.53
978.687	1713.57
978.987	1755.38
979.286	1693.91
979.586	1693.68
979.885	1713.12
980.185	1681.26
980.484	1686.23
980.784	1655.95
981.083	1654.14
981.382	1647.13
981.682	1623.63
981.981	1664.53
982.28	1635.38
982.579	1638.54
982.878	1622.5
983.177	1591.09
983.475	1591.31
983.774	1599.22
984.073	1570.3
984.372	1587.02
984.67	1594.7
984.969	1586.57
985.267	1565.78
985.566	1560.58
985.864	1562.16
986.162	1551.54
986.461	1574.37
986.759	1511.32
987.057	1517.42
987.355	1515.16
987.653	1507.25
987.951	1498.89
988.249	1512.9
988.547	1504.99
988.844	1473.35
989.142	1473.8
989.44	1495.95
989.737	1489.62
990.035	1486.23
990.332	1458.66
990.63	1466.12
990.927	1467.7
991.224	1445.78
991.521	1421.83
991.819	1421.83
992.116	1421.6
992.413	1398.78
992.71	1412.56
993.006	1399.91
993.303	1414.37
993.6	1402.62
993.897	1368.5
994.193	1392
994.49	1409.62
994.787	1387.03
995.083	1374.82
995.379	1379.12
995.676	1370.08
995.972	1322.39
996.268	1343.64
996.565	1330.3
996.861	1345.22
997.157	1354.03
997.453	1329.63
997.749	1313.58
998.044	1295.73
998.34	1318.55
998.636	1289.63
998.932	1293.47
999.227	1278.33
999.523	1254.6
999.818	1256.18
1000.114	1281.27
1000.409	1260.7
1000.704	1238.56
1001	1249.4
1001.295	1245.11
1001.59	1260.48
1001.885	1264.77
1002.18	1229.06
1002.475	1209.4
1002.77	1220.48
1003.065	1186.8
1003.359	1199.69
1003.654	1210.31
1003.949	1210.53
1004.243	1180.03
1004.538	1202.17
1004.832	1194.26
1005.127	1166.01
1005.421	1167.37
1005.715	1141.61
1006.009	1181.16
1006.304	1158.56
1006.598	1144.09
1006.892	1160.36
1007.186	1117.65
1007.48	1102.06
1007.773	1122.85
1008.067	1119.24
1008.361	1081.5
1008.655	1096.19
1008.948	1093.25
1009.242	1090.54
1009.535	1074.04
1009.829	1091.67
1010.122	1044.66
1010.415	1046.92
1010.708	1074.04
1011.001	1086.92
1011.295	1074.72
1011.588	1061.16
1011.881	1049.41
1012.173	1035.62
1012.466	1038.79
1012.759	1046.47
1013.052	1022.52
1013.344	1022.29
1013.637	1022.52
1013.93	1025.91
1014.222	1001.05
1014.514	989.52
1014.807	972.35
1015.099	990.2
1015.391	1005.79
1015.683	973.93
1015.976	981.16
1016.268	968.73
1016.56	947.04
1016.851	963.08
1017.143	953.14
1017.435	945.68
1017.727	941.16
1018.018	937.09
1018.31	924.66
1018.602	927.15
1018.893	911.33
1019.185	925.79
1019.476	916.98
1019.767	913.59
1020.058	916.53
1020.35	886.47
1020.641	876.76
1020.932	886.7
1021.223	869.3
1021.514	885.8
1021.804	891.67
1022.095	876.53
1022.386	870.43
1022.677	862.29
1022.967	863.88
1023.258	850.09
1023.548	853.48
1023.839	832.01
1024.129	847.15
1024.419	842.63
1024.709	834.95
1025	827.94
1025.29	817.1
1025.58	790.21
1025.87	799.24
1026.16	815.74
1026.449	814.61
1026.739	795.63
1027.029	776.65
1027.319	775.97
1027.608	791.34
1027.898	787.27
1028.187	777.32
1028.477	776.87
1028.766	787.72
1029.055	746.59
1029.344	771.9
1029.634	787.27
1029.923	748.62
1030.212	748.17
1030.501	748.17
1030.79	762.86
1031.078	744.1
1031.367	727.83
1031.656	736.87
1031.945	745.23
1032.233	732.81
1032.522	703.2
1032.81	708.17
1033.099	712.24
1033.387	743.2
1033.675	698.91
1033.963	702.52
1034.251	705.24
1034.54	717.66
1034.828	679.7
1035.116	669.3
1035.403	686.03
1035.691	686.48
1035.979	684.22
1036.267	693.94
1036.554	677.21
1036.842	659.59
1037.129	674.5
1037.417	635.86
1037.704	648.51
1037.992	651.9
1038.279	653.26
1038.566	642.64
1038.853	642.64
1039.14	642.64
