Data from foam_black_FLMS001491_00006.txt Node
Date: Wed Feb 08 10:43:25 GMT 2017
User: dcchb
Spectrometer: FLMS00149
Trigger mode: 0
Integration Time (sec): 2.000000E-2
Scans to average: 10
Electric dark correction enabled: true
Nonlinearity correction enabled: false
Boxcar width: 0
XAxis mode: Wavelengths
Number of Pixels in Spectrum: 2048
>>>>>Begin Spectral Data<<<<<
341.393	-22.64
341.776	-22.64
342.16	-22.64
342.543	-69.19
342.927	-56.31
343.31	-69.42
343.693	-53.83
344.077	-56.99
344.46	-57.89
344.843	-63.77
345.226	-53.6
345.61	-39.36
345.993	-19.48
346.376	10.35
346.759	6.29
347.142	28.21
347.525	38.83
347.908	62.78
348.291	81.76
348.674	73.63
349.057	112.5
349.44	101.2
349.823	120.41
350.206	176.9
350.588	186.17
350.971	199.05
351.354	223.91
351.737	228.65
352.119	241.99
352.502	270.23
352.884	295.09
353.267	290.35
353.65	300.06
354.032	294.41
354.414	306.62
354.797	301.42
355.179	304.81
355.562	334.41
355.944	322.44
356.326	311.59
356.709	333.06
357.091	339.61
357.473	345.49
357.855	360.4
358.238	317.69
358.62	338.48
359.002	313.4
359.384	337.35
359.766	339.61
360.148	342.32
360.53	337.8
360.912	328.54
361.294	338.25
361.676	366.73
362.057	332.38
362.439	340.74
362.821	333.28
363.203	344.58
363.584	347.29
363.966	323.11
364.348	316.33
364.729	337.8
365.111	340.51
365.493	327.86
365.874	315.2
366.256	319.95
366.637	314.98
367.019	306.39
367.4	322.44
367.781	327.18
368.163	337.12
368.544	309.78
368.925	324.24
369.306	323.11
369.688	337.8
370.069	327.41
370.45	322.66
370.831	329.44
371.212	340.97
371.593	333.28
371.974	356.11
372.355	345.26
372.736	324.47
373.117	352.72
373.498	338.48
373.879	338.03
374.26	317.46
374.641	345.26
375.021	319.05
375.402	334.41
375.783	349.33
376.163	345.03
376.544	374.86
376.925	351.36
377.305	368.76
377.686	360.4
378.066	371.25
378.447	364.92
378.827	368.08
379.208	373.28
379.588	366.28
379.968	364.24
380.349	399.27
380.729	385.03
381.109	365.6
381.489	386.84
381.87	389.33
382.25	381.64
382.63	388.42
383.01	393.39
383.39	390.68
383.77	370.12
384.15	378.03
384.53	402.21
384.91	393.62
385.29	424.35
385.67	413.51
386.049	383
386.429	405.6
386.809	399.5
387.189	431.81
387.568	413.05
387.948	395.65
388.328	433.39
388.707	411.25
389.087	412.15
389.466	423.22
389.846	426.16
390.225	426.16
390.605	432.49
390.984	423.45
391.363	439.49
391.743	423.22
392.122	456.89
392.501	454.41
392.881	447.4
393.26	457.57
393.639	464.58
394.018	449.89
394.397	450.12
394.776	448.31
395.155	462.09
395.534	444.92
395.913	499.38
396.292	469.1
396.671	476.78
397.05	467.06
397.429	466.84
397.808	475.88
398.186	494.63
398.565	505.48
398.944	485.37
399.323	499.61
399.701	494.86
400.08	514.29
400.458	514.52
400.837	510
401.215	513.39
401.594	495.31
401.972	536.89
402.351	534.63
402.729	524.24
403.107	530.79
403.486	537.12
403.864	547.74
404.242	533.5
404.62	563.11
404.999	526.05
405.377	535.08
405.755	559.72
406.133	584.12
406.511	557.46
406.889	575.31
407.267	582.77
407.645	583.67
408.023	582.09
408.401	583.22
408.779	567.4
409.156	607.4
409.534	610.34
409.912	616.44
410.29	620.96
410.667	616.21
411.045	632.03
411.422	657.12
411.8	648.53
412.178	637.91
412.555	685.82
412.933	673.84
413.31	671.8
413.687	664.8
414.065	679.26
414.442	682.43
414.819	688.3
415.197	702.76
415.574	699.37
415.951	713.39
416.328	723.33
416.705	712.93
417.082	714.29
417.46	733.27
417.837	726.49
418.214	739.83
418.591	746.83
418.967	748.19
419.344	758.36
419.721	767.17
420.098	770.56
420.475	759.49
420.852	770.56
421.228	803.78
421.605	796.55
421.982	791.8
422.358	800.61
422.735	802.65
423.111	796.09
423.488	820.5
423.864	836.55
424.241	834.74
424.617	861.4
424.994	842.2
425.37	852.14
425.746	869.77
426.123	875.19
426.499	865.02
426.875	867.51
427.251	893.72
427.627	924.91
428.003	926.26
428.379	929.2
428.756	956.32
429.132	950.44
429.507	951.8
429.883	975.07
430.259	987.73
430.635	996.77
431.011	994.73
431.387	1000.16
431.763	1026.15
432.138	1028.41
432.514	1033.6
432.89	1027.73
433.265	1055.75
433.641	1069.31
434.016	1063.88
434.392	1097.56
434.767	1115.41
435.143	1079.93
435.518	1116.09
435.894	1119.02
436.269	1132.81
436.644	1140.27
437.02	1147.05
437.395	1171.45
437.77	1185.69
438.145	1161.96
438.52	1204.9
438.895	1189.98
439.271	1199.93
439.646	1228.4
440.021	1243.54
440.395	1234.28
440.77	1205.12
441.145	1247.38
441.52	1272.69
441.895	1270.66
442.27	1256.2
442.645	1258.68
443.019	1302.3
443.394	1267.72
443.769	1300.94
444.143	1301.39
444.518	1327.61
444.892	1353.59
445.267	1315.86
445.641	1340.94
446.016	1345.46
446.39	1352.01
446.764	1375.06
447.139	1382.07
447.513	1361.05
447.887	1361.5
448.262	1402.41
448.636	1378.68
449.01	1417.77
449.384	1433.14
449.758	1425.23
450.132	1423.42
450.506	1452.12
450.88	1456.42
451.254	1463.65
451.628	1506.36
452.002	1488.28
452.376	1520.6
452.75	1514.49
453.123	1541.61
453.497	1558.56
453.871	1587.26
454.244	1596.07
454.618	1585.23
454.992	1622.06
455.365	1632.68
455.739	1663.42
456.112	1676.07
456.486	1690.99
456.859	1704.55
457.232	1705.68
457.606	1723.53
457.979	1744.32
458.352	1768.5
458.725	1786.35
459.099	1818.44
459.472	1864.09
459.845	1885.78
460.218	1886.46
460.591	1878.1
460.964	1894.82
461.337	1944.09
461.71	1954.03
462.083	2014.59
462.456	2012.56
462.829	2001.94
463.201	2023.63
463.574	2024.99
463.947	2071.09
464.32	2115.61
464.692	2071.99
465.065	2147.92
465.438	2159
465.81	2196.74
466.183	2199
466.555	2242.38
466.928	2251.42
467.3	2240.58
467.672	2303.17
468.045	2352.66
468.417	2372.32
468.789	2335.94
469.161	2405.09
469.534	2430.63
469.906	2474.69
470.278	2483.28
470.65	2495.26
471.022	2561.02
471.394	2606.22
471.766	2611.87
472.138	2664.52
472.51	2731.19
472.882	2758.08
473.253	2803.27
473.625	2820
473.997	2877.4
474.369	2844.4
474.74	2925.08
475.112	2953.33
475.484	3022.03
475.855	3052.98
476.227	3070.39
476.598	3179.08
476.97	3138.41
477.341	3250.72
477.713	3313.54
478.084	3329.81
478.455	3435.12
478.827	3414.33
479.198	3505.63
479.569	3499.3
479.94	3624.5
480.311	3638.05
480.682	3709.69
481.053	3797.82
481.424	3871.27
481.795	3929.35
482.166	3938.61
482.537	3970.25
482.908	4067.65
483.279	4145.16
483.65	4149.23
484.021	4274.42
484.391	4289.79
484.762	4332.05
485.133	4369.33
485.503	4422.67
485.874	4521.87
486.244	4535.43
486.615	4698.82
486.985	4683.9
487.356	4761.64
487.726	4795.54
488.097	4876.89
488.467	4944.23
488.837	5002.76
489.207	5058.36
489.578	5136.32
489.948	5178.35
490.318	5213.38
490.688	5248.41
491.058	5324.34
491.428	5395.3
491.798	5429.65
492.168	5485.01
492.538	5573.37
492.908	5630.09
493.278	5689.98
493.648	5715.29
494.017	5701.28
494.387	5800.94
494.757	5856.3
495.126	5956.86
495.496	5927.03
495.866	6039.35
496.235	6055.17
496.605	6078.22
496.974	6128.61
497.344	6192.79
497.713	6218.33
498.082	6234.37
498.452	6287.48
498.821	6292.9
499.19	6394.14
499.559	6447.25
499.928	6535.6
500.298	6508.26
500.667	6602.04
501.036	6641.59
501.405	6700.8
501.774	6632.33
502.143	6696.28
502.512	6782.15
502.88	6849.27
503.249	6849.04
503.618	6937.85
503.987	6945.54
504.356	7053.78
504.724	7047
505.093	7075.48
505.462	7153.22
505.83	7212.2
506.199	7251.97
506.567	7303.27
506.936	7378.07
507.304	7411.29
507.672	7435.69
508.041	7477.95
508.409	7497.16
508.777	7580.78
509.145	7606.99
509.514	7678.63
509.882	7666.42
510.25	7708.46
510.618	7831.39
510.986	7806.98
511.354	7865.29
511.722	7989.35
512.09	8132.85
512.458	8065.96
512.826	8121.33
513.193	8166.97
513.561	8162.68
513.929	8278.61
514.297	8317.03
514.664	8404.93
515.032	8431.6
515.4	8483.35
515.767	8590.24
516.135	8649.9
516.502	8623.69
516.869	8725.83
517.237	8782.1
517.604	8746.85
517.972	8880.18
518.339	8913.62
518.706	8963.11
519.073	9017.8
519.44	9104.13
519.808	9209.21
520.175	9175.08
520.542	9319.26
520.909	9378.92
521.276	9372.82
521.643	9442.65
522.009	9518.58
522.376	9659.59
522.743	9634.73
523.11	9745.24
523.477	9854.39
523.843	9882.86
524.21	10028.39
524.577	10104.55
524.943	10140.48
525.31	10229.29
525.676	10302.96
526.043	10373.02
526.409	10461.83
526.776	10485.11
527.142	10600.81
527.508	10628.83
527.874	10694.37
528.241	10764.19
528.607	10820.24
528.973	10923.06
529.339	10960.12
529.705	11066.56
530.071	11182.71
530.437	11170.74
530.803	11294.8
531.169	11305.88
531.535	11295.25
531.901	11440.33
532.267	11448.24
532.632	11543.61
532.998	11669.48
533.364	11657.96
533.73	11673.1
534.095	11806.2
534.461	11778.18
534.826	11824.96
535.192	11874.67
535.557	11993.77
535.923	11996.7
536.288	12076.02
536.653	12207.09
537.019	12148.56
537.384	12191.73
537.749	12280.54
538.114	12298.84
538.479	12310.82
538.845	12400.76
539.21	12391.95
539.575	12466.97
539.94	12463.58
540.305	12651.15
540.67	12622.9
541.034	12620.42
541.399	12746.06
541.764	12782.45
542.129	12763.92
542.494	12873.97
542.858	12914.65
543.223	12936.11
543.587	12976.11
543.952	13025.38
544.316	13152.61
544.681	13029.45
545.045	13103.12
545.41	13197.12
545.774	13244.81
546.138	13301.75
546.503	13256.56
546.867	13309.21
547.231	13568.64
547.595	13549.43
547.959	13530.22
548.324	13607.28
548.688	13590.79
549.052	13679.82
549.416	13649.09
549.779	13721.86
550.143	13808.86
550.507	13900.38
550.871	13951.68
551.235	14026.03
551.599	14051.79
551.962	14125.91
552.326	14226.25
552.689	14251.56
553.053	14189.19
553.417	14231.9
553.78	14457.88
554.143	14347.15
554.507	14523.42
554.87	14600.25
555.234	14637.31
555.597	14667.82
555.96	14682.28
556.323	14798.66
556.686	14730.42
557.05	15009.51
557.413	15006.57
557.776	14938.55
558.139	15134.93
558.502	15100.8
558.865	15167.47
559.228	15300.35
559.59	15334.02
559.953	15364.53
560.316	15592.99
560.679	15655.37
561.041	15677.51
561.404	15739.66
561.767	15924.51
562.129	15827.79
562.492	15969.03
562.854	15972.19
563.217	15991.18
563.579	16083.15
563.941	16153.21
564.304	16222.13
564.666	16359.75
565.028	16312.07
565.39	16373.99
565.753	16517.04
566.115	16709.57
566.477	16701.44
566.839	16798.16
567.201	16850.81
567.563	16921.32
567.925	16990.92
568.287	16956.35
568.648	17021.2
569.01	17106.4
569.372	17293.51
569.734	17206.28
570.095	17351.82
570.457	17453.51
570.819	17439.05
571.18	17548.87
571.542	17616.22
571.903	17566.05
572.265	17646.27
572.626	17680.62
572.987	17815.99
573.349	17744.35
573.71	17849.66
574.071	17946.15
574.432	18046.49
574.794	18045.81
575.155	18064.12
575.516	18045.58
575.877	18144.57
576.238	18137.33
576.599	18324.67
576.96	18320.83
577.32	18280.38
577.681	18445.12
578.042	18422.3
578.403	18432.69
578.763	18336.88
579.124	18446.7
579.485	18488.29
579.845	18466.14
580.206	18500.26
580.566	18545.01
580.927	18566.02
581.287	18668.17
581.648	18599.47
582.008	18613.48
582.368	18609.19
582.728	18714.72
583.089	18671.78
583.449	18663.2
583.809	18699.13
584.169	18636.08
584.529	18607.83
584.889	18813.7
585.249	18790.42
585.609	18714.49
585.969	18812.12
586.329	18794.27
586.688	18791.33
587.048	18799.24
587.408	18694.38
587.768	18792.46
588.127	18704.1
588.487	18813.02
588.846	18816.86
589.206	18756.53
589.565	18771.89
589.925	18967.37
590.284	18780.03
590.643	18939.35
591.003	18900.93
591.362	18989.29
591.721	19001.04
592.08	18974.15
592.44	18980.7
592.799	19094.6
593.158	18991.1
593.517	19120.58
593.876	19065.22
594.235	18940.93
594.593	19030.19
594.952	19189.51
595.311	19096.18
595.67	19122.17
596.029	19206.68
596.387	19238.32
596.746	19271.99
597.104	19239
597.463	19221.37
597.822	19353.35
598.18	19223.63
598.538	19277.19
598.897	19315.83
599.255	19256.17
599.613	19561.48
599.972	19489.84
600.33	19462.72
600.688	19386.79
601.046	19412.33
601.404	19477.41
601.762	19497.52
602.12	19662.94
602.478	19623.17
602.836	19597.86
603.194	19551.99
603.552	19571.87
603.91	19482.16
604.268	19680.8
604.625	19562.83
604.983	19702.04
605.341	19582.72
605.698	19666.11
606.056	19695.03
606.413	19689.84
606.771	19749.27
607.128	19695.94
607.485	19681.93
607.843	19629.05
608.2	19828.36
608.557	19798.76
608.914	19742.26
609.272	19887.34
609.629	19840.11
609.986	20005.31
610.343	19845.76
610.7	20020.9
611.057	19924.86
611.414	19944.29
611.771	19898.87
612.127	20015.48
612.484	20032.2
612.841	20070.84
613.198	19901.13
613.554	19916.72
613.911	20052.76
614.267	20005.53
614.624	20040.79
614.98	19981.58
615.337	20025.19
615.693	20089.6
616.05	19940
616.406	20170.27
616.762	20040.56
617.118	20115.59
617.475	20056.38
617.831	20222.48
618.187	20113.1
618.543	20103.61
618.899	20250.05
619.255	20270.84
619.611	20210.73
619.967	20317.62
620.323	20227.67
620.678	20259.31
621.034	20079.2
621.39	20142.7
621.746	20141.12
622.101	20346.32
622.457	20217.73
622.812	20202.82
623.168	20255.24
623.523	20187.22
623.879	20344.96
624.234	20234.68
624.589	20169.82
624.945	20093.44
625.3	20208.01
625.655	20233.1
626.01	20233.55
626.365	20242.59
626.72	20086.89
627.075	20137.51
627.43	20108.13
627.785	20068.13
628.14	20139.54
628.495	20171.63
628.85	20173.89
629.205	20123.5
629.559	20185.19
629.914	20123.5
630.269	20151.07
630.623	20087.11
630.978	20015.7
631.332	20110.62
631.687	20112.88
632.041	20085.76
632.396	19961.01
632.75	19918.08
633.104	20034.46
633.459	19859.55
633.813	19879.43
634.167	19892.77
634.521	19920.79
634.875	19945.65
635.229	19825.43
635.583	19712.89
635.937	19763.51
636.291	19752.21
636.645	19708.14
636.999	19692.1
637.352	19807.57
637.706	19620.68
638.06	19709.04
638.413	19704.52
638.767	19615.26
639.121	19614.36
639.474	19550.4
639.828	19549.95
640.181	19513.34
640.534	19554.47
640.888	19566
641.241	19453.01
641.594	19439.9
641.947	19478.32
642.301	19428.6
642.654	19501.82
643.007	19486.68
643.36	19497.07
643.713	19455.49
644.066	19531.87
644.419	19410.07
644.771	19261.15
645.124	19219.79
645.477	19060.7
645.83	18934.15
646.182	18990.42
646.535	18923.08
646.888	18938.67
647.24	18846.24
647.593	19035.84
647.945	18965.79
648.298	18872
648.65	18812.57
649.002	18871.78
649.355	18809.41
649.707	18842.17
650.059	18758.56
650.411	19188.38
650.763	19067.93
651.115	19365.78
651.467	19230.19
651.819	19149.96
652.171	19197.64
652.523	19045.56
652.875	19099.57
653.227	19022.96
653.578	19181.83
653.93	19180.47
654.282	19010.53
654.633	19052.34
654.985	19076.74
655.337	18988.84
655.688	19069.96
656.039	19048.27
656.391	18951.1
656.742	18936.63
657.094	18850.08
657.445	19013.24
657.796	18965.33
658.147	18850.08
658.498	18942.28
658.849	18904.77
659.2	18922.85
659.551	18860.48
659.902	18928.95
660.253	18737.09
660.604	18831.1
660.955	18764.21
661.306	18797.66
661.656	18848.5
662.007	18737.09
662.358	18736.19
662.708	18813.02
663.059	18685.79
663.409	18626.13
663.76	18760.37
664.11	18792.23
664.461	18745
664.811	18741.16
665.161	18715.4
665.511	18631.33
665.862	18613.48
666.212	18677.66
666.562	18680.37
666.912	18581.84
667.262	18604.44
667.612	18554.95
667.962	18548.85
668.312	18497.78
668.662	18593.37
669.011	18516.31
669.361	18471.34
669.711	18444.44
670.06	18455.74
670.41	18366.48
670.76	18381.85
671.109	18393.6
671.459	18398.12
671.808	18367.84
672.157	18337.33
672.507	18215.07
672.856	18285.35
673.205	18202.87
673.554	18230.44
673.904	18160.84
674.253	18188.86
674.602	18306.14
674.951	17968.98
675.3	17820.51
675.649	18067.51
675.998	17972.59
676.346	18065.7
676.695	18091.91
677.044	17954.29
677.393	17997.22
677.741	17975.76
678.09	17868.64
678.438	17928.53
678.787	17847.17
679.135	17887.62
679.484	17771.02
679.832	17867.51
680.181	17745.25
680.529	17759.94
680.877	17741.41
681.225	17729.43
681.573	17800.17
681.922	17688.76
682.27	17647.86
682.618	17686.72
682.966	17616.44
683.314	17588.87
683.661	17561.3
684.009	17541.19
684.357	17376.45
684.705	17448.99
685.053	17477.92
685.4	17348.88
685.748	17379.39
686.095	17308.66
686.443	17233.85
686.79	17171.26
687.138	17183.23
687.485	17190.24
687.832	17197.47
688.18	17274.98
688.527	17145.5
688.874	17059.62
689.221	17110.24
689.568	16980.3
689.915	17100.07
690.262	17000.41
690.609	16980.08
690.956	16985.73
691.303	16860.53
691.65	16764.71
691.997	16753.64
692.344	16734.43
692.69	16759.52
693.037	16680.87
693.383	16660.08
693.73	16675.23
694.077	16531.95
694.423	16544.16
694.769	16563.59
695.116	16419.86
695.462	16420.54
695.808	16344.16
696.155	16388.45
696.501	16305.74
696.847	16351.62
697.193	16159.08
697.539	16212.86
697.885	16159.31
698.231	16068.24
698.577	16112.3
698.923	16130.61
699.269	15932.65
699.614	15940.33
699.96	16018.75
700.306	15980.55
700.651	15875.47
700.997	15811.52
701.342	15811.97
701.688	15783.95
702.033	15726.55
702.379	15762.03
702.724	15748.02
703.069	15687.68
703.415	15526.33
703.76	15485.2
704.105	15636.38
704.45	15501.02
704.795	15350.06
705.14	15283.17
705.485	15431.87
705.83	15307.8
706.175	15309.39
706.52	15118.2
706.865	15248.6
707.209	15233
707.554	15223.06
707.899	15272.1
708.243	15108.26
708.588	15073.01
708.932	15001.37
709.277	14960.92
709.621	15009.51
709.966	14900.36
710.31	14983.07
710.654	14818.78
710.998	14826.69
711.342	14857.87
711.687	14802.73
712.031	14732.45
712.375	14655.17
712.719	14651.78
713.063	14734.71
713.407	14725.45
713.75	14604.09
714.094	14552.57
714.438	14536.75
714.782	14607.71
715.125	14441.84
715.469	14492.01
715.812	14341.05
716.156	14281.39
716.499	14360.48
716.843	14412.91
717.186	14249.53
717.53	14386.47
717.873	14375.85
718.216	14280.03
718.559	14237.1
718.902	14115.97
719.246	14078.23
719.589	14031.68
719.932	14023.54
720.275	13947.39
720.617	14078.46
720.96	13941.74
721.303	13889.31
721.646	13963.66
721.989	13834.62
722.331	13944.68
722.674	13882.76
723.016	13843.89
723.359	13784.68
723.701	13785.13
724.044	13750.33
724.386	13688.86
724.729	13746.94
725.071	13623.1
725.413	13652.71
725.755	13653.84
726.097	13518.7
726.439	13512.14
726.782	13558.02
727.124	13572.48
727.465	13490.22
727.807	13538.13
728.149	13432.37
728.491	13423.11
728.833	13352.83
729.175	13412.26
729.516	13359.38
729.858	13239.38
730.199	13338.14
730.541	13296.33
730.882	13294.75
731.224	13225.6
731.565	13217.92
731.906	13213.85
732.248	13191.93
732.589	13140.86
732.93	13078.26
733.271	13058.82
733.612	13062.89
733.953	13128.43
734.294	13065.6
734.635	12996.9
734.976	13032.38
735.317	12960.29
735.658	13017.24
735.999	12991.25
736.339	12925.95
736.68	12941.09
737.021	12886.17
737.361	12784.48
737.702	12849.56
738.042	12854.76
738.383	12713.75
738.723	12811.6
739.063	12758.49
739.404	12725.72
739.744	12621.55
740.084	12586.29
740.424	12672.39
740.764	12588.55
741.104	12664.48
741.444	12557.59
741.784	12499.74
742.124	12572.96
742.464	12565.05
742.804	12450.48
743.143	12461.32
743.483	12444.15
743.823	12309.01
744.162	12297.49
744.502	12338.16
744.841	12288.22
745.181	12397.82
745.52	12348.56
745.86	12356.24
746.199	12211.84
746.538	12269.69
746.877	12304.27
747.216	12228.34
747.556	12267.88
747.895	12133.65
748.234	12104.72
748.573	12085.29
748.911	12070.37
749.25	12088.23
749.589	12001.9
749.928	12046.65
750.267	12036.48
750.605	12025.18
750.944	11980.66
751.283	11855.24
751.621	11976.59
751.96	11879.87
752.298	11879.19
752.636	11853.88
752.975	11782.02
753.313	11749.71
753.651	11794.9
753.989	11672.42
754.327	11742.25
754.666	11683.27
755.004	11613.89
755.342	11742.47
755.679	11621.8
756.017	11594.46
756.355	11594.46
756.693	11572.99
757.031	11591.97
757.368	11486.66
757.706	11464.97
758.044	11419.77
758.381	11435.82
758.719	11332.77
759.056	11394.46
759.394	11256.84
759.731	11209.83
760.068	11272.88
760.405	11192.43
760.743	11087.58
761.08	11155.37
761.417	11063.62
761.754	11020.68
762.091	11028.59
762.428	10990.86
762.765	10932.55
763.102	11041.7
763.438	10919.67
763.775	10846.68
764.112	10919.67
764.449	10993.11
764.785	10839.9
765.122	10809.39
765.458	10772.78
765.795	10729.17
766.131	10702.05
766.467	10616.85
766.804	10587.93
767.14	10606.91
767.476	10674.71
767.812	10596.29
768.148	10552.45
768.485	10534.14
768.821	10479.91
769.157	10435.62
769.492	10470.64
769.828	10401.72
770.164	10348.84
770.5	10270.2
770.836	10373.47
771.171	10317.2
771.507	10275.17
771.842	10204.44
772.178	10247.6
772.513	10136.87
772.849	10131.67
773.184	10088.05
773.519	10013.71
773.855	10015.74
774.19	9940.04
774.525	9955.4
774.86	9921.73
775.195	9892.58
775.53	9882.64
775.865	9838.57
776.2	9802.19
776.535	9787.72
776.87	9742.98
777.205	9746.82
777.539	9735.97
777.874	9687.39
778.209	9674.28
778.543	9559.71
778.878	9607.61
779.212	9580.04
779.547	9487.84
779.881	9524
780.215	9443.1
780.55	9519.93
780.884	9347.51
781.218	9385.02
781.552	9408.52
781.886	9365.81
782.22	9234.29
782.554	9188.19
782.888	9188.64
783.222	9192.71
783.556	9123.11
783.889	9134.86
784.223	9110.23
784.557	9087.18
784.89	9105.71
785.224	8963.56
785.557	9017.12
785.891	8964.47
786.224	8919.05
786.558	8930.8
786.891	8857.35
787.224	8851.02
787.557	8801.31
787.891	8801.76
788.224	8784.36
788.557	8782.55
788.89	8749.56
789.223	8659.62
789.556	8616.23
789.888	8652.39
790.221	8646.28
790.554	8577.59
790.887	8592.5
791.219	8556.79
791.552	8468.89
791.884	8457.59
792.217	8432.28
792.549	8366.29
792.882	8363.81
793.214	8340.98
793.546	8356.8
793.879	8299.17
794.211	8257.59
794.543	8285.84
794.875	8233.87
795.207	8185.73
795.539	8178.73
795.871	8158.39
796.203	8121.33
796.535	8022.57
796.867	8071.84
797.198	8019.41
797.53	8022.8
797.862	7974.89
798.193	7984.38
798.525	7874.33
798.856	7972.63
799.188	7829.36
799.519	7810.37
799.85	7793.43
800.182	7710.94
800.513	7756.82
800.844	7655.12
801.175	7699.42
801.506	7671.62
801.837	7640.21
802.168	7633.66
802.499	7562.02
802.83	7534.9
803.161	7523.15
803.491	7548.69
803.822	7536.48
804.153	7409.93
804.483	7379.2
804.814	7336.26
805.145	7433.43
805.475	7350.72
805.805	7322.25
806.136	7379.88
806.466	7332.42
806.796	7337.62
807.126	7248.58
807.457	7204.51
807.787	7199.32
808.117	7124.06
808.447	7120.22
808.777	7098.08
809.107	7091.52
809.436	7093.56
809.766	7089.49
810.096	7041.35
810.426	7053.33
810.755	7066.44
811.085	6939.44
811.414	6932.2
811.744	6875.94
812.073	6901.25
812.403	6891.3
812.732	6814.47
813.061	6836.61
813.39	6721.59
813.719	6770.4
814.049	6806.33
814.378	6830.51
814.707	6734.47
815.036	6784.19
815.365	6726.56
815.693	6617.64
816.022	6662.61
816.351	6639.11
816.68	6613.8
817.008	6598.88
817.337	6509.84
817.665	6564.98
817.994	6564.53
818.322	6539.45
818.651	6465.55
818.979	6508.71
819.307	6502.84
819.636	6482.95
819.964	6446.12
820.292	6438.43
820.62	6440.47
820.948	6440.01
821.276	6379.22
821.604	6390.07
821.932	6407.02
822.259	6457.41
822.587	6386.91
822.915	6384.42
823.243	6415.38
823.57	6372.22
823.898	6387.59
824.225	6324.99
824.553	6345.33
824.88	6349.85
825.207	6296.97
825.535	6335.16
825.862	6404.08
826.189	6340.58
826.516	6385.1
826.843	6426.91
827.17	6383.97
827.497	6382.61
827.824	6335.84
828.151	6337.87
828.478	6367.93
828.805	6381.26
829.131	6301.49
829.458	6312.79
829.785	6254.03
830.111	6357.53
830.438	6369.73
830.764	6332.45
831.09	6368.83
831.417	6375.16
831.743	6359.56
832.069	6397.53
832.395	6325.89
832.722	6313.92
833.048	6354.37
833.374	6351.88
833.7	6307.59
834.026	6289.06
834.351	6364.31
834.677	6316.18
835.003	6312.11
835.329	6295.61
835.654	6260.13
835.98	6275.95
836.306	6283.18
836.631	6329.06
836.956	6281.37
837.282	6318.66
837.607	6280.24
837.932	6236.18
838.258	6249.96
838.583	6268.49
838.908	6215.61
839.233	6205.9
839.558	6173.58
839.883	6154.6
840.208	6142.62
840.533	6139.91
840.858	6168.61
841.182	6183.3
841.507	6126.35
841.832	6147.37
842.156	6134.71
842.481	6109.4
842.805	6104.88
843.13	6086.8
843.454	6057.65
843.778	6094.71
844.103	6010.42
844.427	5997.09
844.751	6084.54
845.075	6043.41
845.399	6042.06
845.723	6003.64
846.047	6008.39
846.371	5983.08
846.695	5973.36
847.019	5946.69
847.343	5946.69
847.666	5861.5
847.99	5871.67
848.313	5881.61
848.637	5857.66
848.96	5830.09
849.284	5802.29
849.607	5824.44
849.931	5753.7
850.254	5771.78
850.577	5695.18
850.9	5649.98
851.223	5673.71
851.546	5642.97
851.869	5577.21
852.192	5597.78
852.515	5562.75
852.838	5562.52
853.161	5565.91
853.483	5555.52
853.806	5516.87
854.129	5507.61
854.451	5454.73
854.774	5438.91
855.096	5429.19
855.419	5443.66
855.741	5415.41
856.063	5403.88
856.385	5384.67
856.708	5395.52
857.03	5372.25
857.352	5394.17
857.674	5358.69
857.996	5368.86
858.318	5345.58
858.64	5348.97
858.961	5328.86
859.283	5329.31
859.605	5264.45
859.926	5263.55
860.248	5208.41
860.57	5181.97
860.891	5234.85
861.212	5220.39
861.534	5230.33
861.855	5226.03
862.176	5259.93
862.498	5195.3
862.819	5200.95
863.14	5175.19
863.461	5181.29
863.782	5164.34
864.103	5177.45
864.424	5168.41
864.745	5188.52
865.065	5160.05
865.386	5128.86
865.707	5134.29
866.027	5111.69
866.348	5120.95
866.668	5117.34
866.989	5136.09
867.309	5062.88
867.63	5084.12
867.95	5072.82
868.27	5038.02
868.59	5013.39
868.91	5025.36
869.23	5009.09
869.55	5034.4
869.87	5052.48
870.19	5022.2
870.51	5001.63
870.83	5000.28
871.15	4994.85
871.469	4993.72
871.789	4973.39
872.109	4999.15
872.428	4949.43
872.748	4974.06
873.067	4972.71
873.386	4941.75
873.706	4931.35
874.025	4899.04
874.344	4908.76
874.663	4851.81
874.982	4943.33
875.301	4909.43
875.62	4954.4
875.939	4916.66
876.258	4878.25
876.577	4879.38
876.896	4857.91
877.214	4825.82
877.533	4837.8
877.852	4834.18
878.17	4825.14
878.489	4812.03
878.807	4793.05
879.125	4812.03
879.444	4758.48
879.762	4778.59
880.08	4739.72
880.398	4751.7
880.716	4774.97
881.034	4781.07
881.352	4735.88
881.67	4732.71
881.988	4719.16
882.306	4692.72
882.624	4684.81
882.941	4668.08
883.259	4638.71
883.577	4703.34
883.894	4646.39
884.212	4647.29
884.529	4659.95
884.846	4625.37
885.164	4607.29
885.481	4593.96
885.798	4572.72
886.115	4557.35
886.432	4601.42
886.75	4546.5
887.067	4554.64
887.383	4511.25
887.7	4474.19
888.017	4490.24
888.334	4520.74
888.651	4485.72
888.967	4497.24
889.284	4447.75
889.6	4430.35
889.917	4392.84
890.233	4404.81
890.55	4405.49
890.866	4391.48
891.182	4418.15
891.498	4377.92
891.815	4368.66
892.131	4367.3
892.447	4320.07
892.763	4310.8
893.079	4315.32
893.395	4250.69
893.71	4288.43
894.026	4254.08
894.342	4217.25
894.657	4190.81
894.973	4182.9
895.289	4208.43
895.604	4183.8
895.92	4207.76
896.235	4166.18
896.55	4147.65
896.865	4091.38
897.181	4099.51
897.496	4097.7
897.811	4040.76
898.126	4061.32
898.441	4041.66
898.756	4048.21
899.071	4025.16
899.386	4047.53
899.7	3960.76
900.015	3937.26
900.33	3935.67
900.644	3898.16
900.959	3911.27
901.273	3939.06
901.588	3849.12
901.902	3837.14
902.216	3863.36
902.531	3859.29
902.845	3812.06
903.159	3821.33
903.473	3772.74
903.787	3785.17
904.101	3725.96
904.415	3776.58
904.729	3770.03
905.042	3728.67
905.356	3724.83
905.67	3696.13
905.984	3671.5
906.297	3696.36
906.611	3638.28
906.924	3615.23
907.237	3577.26
907.551	3605.74
907.864	3582.69
908.177	3584.5
908.491	3581.78
908.804	3577.49
909.117	3546.53
909.43	3508.11
909.743	3515.8
910.056	3466.31
910.368	3510.83
910.681	3447.55
910.994	3485.29
911.307	3468.34
911.619	3417.27
911.932	3409.81
912.244	3424.05
912.557	3416.36
912.869	3401
913.181	3370.04
913.494	3345.18
913.806	3327.78
914.118	3291.17
914.43	3313.54
914.742	3357.84
915.054	3277.39
915.366	3275.13
915.678	3297.95
915.99	3253.88
916.302	3217.27
916.613	3195.81
916.925	3186.31
917.236	3208.23
917.548	3186.54
917.859	3186.99
918.171	3125.98
918.482	3148.58
918.794	3158.52
919.105	3182.47
919.416	3117.84
919.727	3110.38
920.038	3086.88
920.349	3067.45
920.66	3090.72
920.971	3044.4
921.282	3036.04
921.593	3000.1
921.903	2972.53
922.214	2968.24
922.525	2949.94
922.835	2973.66
923.146	2918.52
923.456	2948.35
923.767	2945.42
924.077	2941.12
924.387	2908.36
924.697	2879.88
925.008	2939.32
925.318	2887.79
925.628	2865.19
925.938	2850.28
926.248	2853.89
926.558	2842.37
926.867	2872.65
927.177	2823.84
927.487	2777.29
927.796	2824.06
928.106	2761.47
928.416	2786.78
928.725	2754.46
929.034	2743.16
929.344	2744.07
929.653	2741.58
929.962	2701.13
930.271	2694.58
930.581	2703.16
930.89	2721.02
931.199	2699.1
931.508	2685.76
931.817	2629.72
932.125	2706.78
932.434	2651.19
932.743	2598.53
933.051	2609.83
933.36	2585.2
933.669	2604.18
933.977	2593.34
934.286	2601.7
934.594	2563.51
934.902	2525.77
935.21	2549.27
935.519	2534.35
935.827	2519.67
936.135	2503.39
936.443	2497.97
936.751	2455.71
937.059	2515.15
937.367	2497.75
937.674	2469.72
937.982	2504.52
938.29	2478.54
938.597	2471.53
938.905	2429.95
939.213	2405.32
939.52	2414.58
939.827	2434.24
940.135	2382.95
940.442	2406.22
940.749	2399.89
941.056	2387.24
941.363	2382.04
941.67	2361.93
941.977	2345.43
942.284	2335.26
942.591	2358.31
942.898	2338.43
943.205	2313.12
943.511	2316.28
943.818	2307.02
944.125	2282.84
944.431	2281.25
944.738	2315.38
945.044	2287.81
945.35	2249.62
945.657	2231.99
945.963	2227.47
946.269	2245.55
946.575	2247.58
946.881	2231.31
947.187	2198.32
947.493	2218.88
947.799	2223.63
948.105	2176.62
948.41	2156.96
948.716	2165.32
949.022	2145.44
949.327	2156.06
949.633	2146.34
949.938	2150.18
950.244	2119.9
950.549	2084.42
950.854	2127.13
951.16	2125.55
951.465	2090.3
951.77	2094.59
952.075	2088.26
952.38	2086.23
952.685	2084.42
952.99	2049.85
953.294	2058.66
953.599	2054.14
953.904	2071.32
954.209	2017.53
954.513	2023.63
954.818	2018.21
955.122	2008.27
955.426	2039.45
955.731	2017.31
956.035	2012.79
956.339	1977.08
956.643	1982.73
956.948	1961.71
957.252	1947.25
957.556	1953.13
957.86	1964.2
958.163	1933.69
958.467	1950.41
958.771	1929.85
959.075	1946.8
959.378	1902.28
959.682	1901.15
959.985	1900.25
960.289	1876.74
960.592	1892.79
960.896	1863.64
961.199	1884.65
961.502	1895.95
961.805	1886.91
962.108	1867.71
962.411	1864.09
962.714	1825.67
963.017	1846.46
963.32	1862.96
963.623	1833.81
963.926	1824.77
964.228	1816.41
964.531	1806.46
964.833	1813.92
965.136	1766.92
965.438	1755.62
965.741	1765.11
966.043	1787.48
966.345	1764.88
966.648	1779.12
966.95	1757.65
967.252	1738.67
967.554	1726.24
967.856	1698.9
968.158	1683.76
968.46	1711.55
968.761	1721.49
969.063	1671.33
969.365	1681.72
969.666	1684.21
969.968	1675.39
970.269	1655.73
970.571	1698.22
970.872	1698.22
971.174	1693.47
971.475	1669.74
971.776	1637.88
972.077	1625.23
972.378	1647.15
972.679	1639.69
972.98	1625.68
973.281	1610.54
973.582	1643.53
973.883	1628.62
974.183	1574.83
974.484	1594.27
974.785	1612.12
975.085	1589.52
975.386	1572.12
975.686	1588.16
975.986	1579.8
976.287	1580.48
976.587	1546.81
976.887	1531.22
977.187	1547.71
977.487	1537.09
977.787	1525.79
978.087	1522.86
978.387	1542.06
978.687	1516.53
978.987	1517.43
979.286	1509.3
979.586	1501.61
979.885	1492.12
980.185	1475.17
980.484	1507.26
980.784	1483.99
981.083	1440.15
981.382	1475.17
981.682	1456.19
981.981	1453.25
982.28	1470.43
982.579	1447.6
982.878	1463.87
983.177	1443.54
983.475	1413.71
983.774	1434.5
984.073	1394.72
984.372	1397.66
984.67	1437.89
984.969	1403.08
985.267	1395.63
985.566	1385.46
985.864	1382.97
986.162	1385.01
986.461	1378.23
986.759	1378.9
987.057	1355.4
987.355	1373.25
987.653	1340.49
987.951	1346.59
988.249	1331.45
988.547	1355.18
988.844	1309.75
989.142	1314.05
989.44	1285.35
989.737	1299.81
990.035	1316.31
990.332	1304.56
990.63	1285.12
990.927	1278.57
991.224	1282.64
991.521	1284.9
991.819	1257.33
992.116	1244.44
992.413	1262.75
992.71	1256.42
993.006	1272.01
993.303	1233.15
993.6	1230.21
993.897	1231.79
994.193	1234.5
994.49	1237.44
994.787	1223.88
995.083	1215.74
995.379	1204.45
995.676	1187.72
995.972	1204.45
996.268	1171.68
996.565	1216.87
996.861	1177.78
997.157	1204.9
997.453	1189.08
997.749	1188.17
998.044	1145.69
998.34	1165.8
998.636	1135.75
998.932	1140.94
999.227	1145.46
999.523	1145.01
999.818	1113.15
1000.114	1109.31
1000.409	1126.48
1000.704	1112.92
1001	1104.34
1001.295	1092.36
1001.59	1090.1
1001.885	1090.78
1002.18	1074.51
1002.475	1083.54
1002.77	1061.62
1003.065	1066.14
1003.359	1067.27
1003.654	1059.82
1003.949	1054.39
1004.243	1064.11
1004.538	1024.79
1004.832	1063.88
1005.127	1036.99
1005.421	1041.74
1005.715	1018.01
1006.009	1011
1006.304	1028.18
1006.598	1024.34
1006.892	1009.42
1007.186	995.64
1007.48	992.25
1007.773	965.81
1008.067	978.01
1008.361	949.76
1008.655	969.88
1008.948	974.4
1009.242	963.1
1009.535	949.54
1009.829	964.68
1010.122	958.35
1010.415	961.06
1010.708	940.72
1011.001	938.69
1011.295	899.14
1011.588	914.96
1011.881	915.19
1012.173	895.75
1012.466	920.61
1012.759	919.03
1013.052	899.59
1013.344	890.78
1013.637	884.68
1013.93	888.75
1014.222	874.06
1014.514	867.51
1014.807	877.9
1015.099	888.75
1015.391	879.71
1015.683	857.34
1015.976	856.66
1016.268	871.35
1016.56	855.08
1016.851	839.71
1017.143	841.29
1017.435	829.31
1017.727	822.76
1018.018	831.35
1018.31	801.07
1018.602	824.34
1018.893	808.07
1019.185	812.14
1019.476	804.46
1019.767	804.68
1020.058	789.32
1020.35	782.99
1020.641	788.41
1020.932	789.77
1021.223	776.21
1021.514	782.76
1021.804	799.71
1022.095	787.73
1022.386	792.93
1022.677	768.3
1022.967	769.88
1023.258	760.62
1023.548	752.48
1023.839	786.15
1024.129	753.38
1024.419	730.11
1024.709	752.48
1025	735.76
1025.29	732.59
1025.58	721.75
1025.87	708.41
1026.16	711.8
1026.449	705.02
1026.739	695.98
1027.029	715.65
1027.319	715.65
1027.608	694.85
1027.898	691.46
1028.187	687.62
1028.477	677.91
1028.766	700.5
1029.055	677
1029.344	689.21
1029.634	683.78
1029.923	661.86
1030.212	659.15
1030.501	664.12
1030.79	655.31
1031.078	633.16
1031.367	636.55
1031.656	639.94
1031.945	646.04
1032.233	639.04
1032.522	638.81
1032.81	624.8
1033.099	655.76
1033.387	631.35
1033.675	628.64
1033.963	611.47
1034.251	606.04
1034.54	608.53
1034.828	615.08
1035.116	613.05
1035.403	609.66
1035.691	614.86
1035.979	608.53
1036.267	608.76
1036.554	615.53
1036.842	601.07
1037.129	615.53
1037.417	597.91
1037.704	613.05
1037.992	609.89
1038.279	586.16
1038.566	588.42
1038.853	588.42
1039.14	588.42
