Data from foam_black_FLMS001491_00085.txt Node
Date: Wed Feb 08 10:44:51 GMT 2017
User: dcchb
Spectrometer: FLMS00149
Trigger mode: 0
Integration Time (sec): 2.000000E-2
Scans to average: 10
Electric dark correction enabled: true
Nonlinearity correction enabled: false
Boxcar width: 0
XAxis mode: Wavelengths
Number of Pixels in Spectrum: 2048
>>>>>Begin Spectral Data<<<<<
341.393	-21.92
341.776	-21.92
342.16	-21.92
342.543	-67.12
342.927	-71.18
343.31	-65.08
343.693	-79.09
344.077	-49.49
344.46	-72.09
344.843	-36.61
345.226	-26.21
345.61	-34.35
345.993	-27.8
346.376	-11.98
346.759	17.63
347.142	34.12
347.525	23.28
347.908	73.9
348.291	57.85
348.674	89.72
349.057	106.21
349.44	130.17
349.823	124.29
350.206	171.52
350.588	197.28
350.971	203.38
351.354	222.37
351.737	220.33
352.119	254.68
352.502	271.18
352.884	260.11
353.267	260.78
353.65	279.99
354.032	295.81
354.414	296.72
354.797	294
355.179	306.88
355.562	291.07
355.944	305.08
356.326	314.34
356.709	320.22
357.091	339.43
357.473	339.2
357.855	336.26
358.238	326.55
358.62	313.89
359.002	340.56
359.384	324.06
359.766	343.27
360.148	344.4
360.53	340.1
360.912	327.22
361.294	325.42
361.676	335.13
362.057	327
362.439	338.52
362.821	333.32
363.203	325.87
363.584	335.13
363.966	310.73
364.348	323.38
364.729	333.32
365.111	335.13
365.493	320.9
365.874	321.8
366.256	320.67
366.637	317.05
367.019	313.66
367.4	324.29
367.781	317.96
368.163	302.82
368.544	316.6
368.925	325.19
369.306	326.09
369.688	319.99
370.069	325.87
370.45	332.42
370.831	327.22
371.212	304.17
371.593	325.64
371.974	313.44
372.355	316.83
372.736	326.09
373.117	330.84
373.498	325.87
373.879	313.44
374.26	323.83
374.641	321.8
375.021	331.52
375.402	319.09
375.783	329.48
376.163	367
376.544	343.04
376.925	335.36
377.305	347.56
377.686	345.98
378.066	325.19
378.447	350.5
378.827	347.56
379.208	352.08
379.588	358.86
379.968	353.89
380.349	359.09
380.729	344.4
381.109	365.19
381.489	357.73
381.87	343.49
382.25	347.11
382.63	360.44
383.01	361.12
383.39	366.54
383.77	368.58
384.15	397.73
384.53	367.67
384.91	354.79
385.29	378.75
385.67	368.35
386.049	392.98
386.429	365.87
386.809	372.65
387.189	375.81
387.568	365.87
387.948	382.59
388.328	362.93
388.707	384.4
389.087	385.07
389.466	399.54
389.846	396.37
390.225	407.67
390.605	400.44
390.984	376.04
391.363	406.32
391.743	396.37
392.122	397.28
392.501	402.7
392.881	406.54
393.26	414.68
393.639	418.97
394.018	426.43
394.397	412.42
394.776	429.59
395.155	431.85
395.534	430.72
395.913	417.62
396.292	429.37
396.671	435.02
397.05	421.23
397.429	418.29
397.808	435.24
398.186	455.36
398.565	445.19
398.944	447.45
399.323	451.06
399.701	444.73
400.08	435.69
400.458	439.31
400.837	466.43
401.215	471.17
401.594	462.59
401.972	445.19
402.351	465.07
402.729	500.33
403.107	466.2
403.486	496.26
403.864	486.99
404.242	483.38
404.62	482.47
404.999	476.15
405.377	485.86
405.755	500.1
406.133	504.62
406.511	491.06
406.889	510.04
407.267	501.23
407.645	526.77
408.023	498.97
408.401	541.45
408.779	547.33
409.156	524.28
409.534	525.41
409.912	536.26
410.29	556.37
410.667	550.72
411.045	539.87
411.422	550.72
411.8	561.79
412.178	544.39
412.555	562.25
412.933	569.25
413.31	573.54
413.687	580.1
414.065	599.31
414.442	578.52
414.819	600.44
415.197	597.05
415.574	619.87
415.951	616.03
416.328	618.97
416.705	620.55
417.082	614.45
417.46	643.15
417.837	639.31
418.214	633.43
418.591	645.41
418.967	639.08
419.344	646.31
419.721	663.71
420.098	643.37
420.475	659.87
420.852	675.46
421.228	653.32
421.605	656.48
421.982	675.91
422.358	688.57
422.735	710.94
423.111	701.45
423.488	711.39
423.864	700.32
424.241	725.63
424.617	733.77
424.994	705.29
425.37	724.73
425.746	722.47
426.123	745.07
426.499	737.61
426.875	739.42
427.251	732.41
427.627	778.51
428.003	774.44
428.379	777.61
428.756	797.72
429.132	796.36
429.507	792.3
429.883	798.85
430.259	809.92
430.635	803.59
431.011	804.27
431.387	837.72
431.763	847.21
432.138	846.31
432.514	851.73
432.89	868
433.265	866.42
433.641	904.83
434.016	898.06
434.392	889.47
434.767	914.55
435.143	936.7
435.518	915.68
435.894	918.62
436.269	934.44
436.644	933.76
437.02	944.38
437.395	943.48
437.77	979.18
438.145	1001.78
438.52	993.42
438.895	998.84
439.271	999.75
439.646	1024.38
440.021	1028
440.395	1053.53
440.77	1003.82
441.145	1020.99
441.52	1049.24
441.895	1062.8
442.27	1046.07
442.645	1051.27
443.019	1051.05
443.394	1108.9
443.769	1093.76
444.143	1093.3
444.518	1084.72
444.892	1097.82
445.267	1095.11
445.641	1114.1
446.016	1111.61
446.39	1119.97
446.764	1097.6
447.139	1126.52
447.513	1111.16
447.887	1127.88
448.262	1152.29
448.636	1177.37
449.01	1161.33
449.384	1197.03
449.758	1192.06
450.132	1164.49
450.506	1197.03
450.88	1229.12
451.254	1205.39
451.628	1218.95
452.002	1250.59
452.376	1249.91
452.75	1259.85
453.123	1271.38
453.497	1283.58
453.871	1305.28
454.244	1333.07
454.618	1334.2
454.992	1361.55
455.365	1347.76
455.739	1368.33
456.112	1385.27
456.486	1381.66
456.859	1401.32
457.232	1384.82
457.606	1416.01
457.979	1437.02
458.352	1476.12
458.725	1476.57
459.099	1483.8
459.472	1495.78
459.845	1502.11
460.218	1560.86
460.591	1549.56
460.964	1556.8
461.337	1574.65
461.71	1601.54
462.083	1633.18
462.456	1628.66
462.829	1662.33
463.201	1658.94
463.574	1665.27
463.947	1668.88
464.32	1738.49
464.692	1764.93
465.065	1738.26
465.438	1767.64
465.81	1803.34
466.183	1793.85
466.555	1822.32
466.928	1844.92
467.3	1841.08
467.672	1870.01
468.045	1905.71
468.417	1919.72
468.789	1966.95
469.161	1975.09
469.534	1987.97
469.906	2032.04
470.278	2019.83
470.65	2071.58
471.022	2077.01
471.394	2131.47
471.766	2114.29
472.138	2147.97
472.51	2175.76
472.882	2240.17
473.253	2265.03
473.625	2273.16
473.997	2287.4
474.369	2336.21
474.74	2356.1
475.112	2390.45
475.484	2440.39
475.855	2439.03
476.227	2487.39
476.598	2568.97
476.97	2551.57
477.341	2586.82
477.713	2647.61
478.084	2671.12
478.455	2759.25
478.827	2724.45
479.198	2826.37
479.569	2832.47
479.94	2904.1
480.311	2895.74
480.682	3010.99
481.053	3025.68
481.424	3089.64
481.795	3092.57
482.166	3139.13
482.537	3148.17
482.908	3202.85
483.279	3237.43
483.65	3295.96
484.021	3350.65
484.391	3425.67
484.762	3449.63
485.133	3452.11
485.503	3492.34
485.874	3572.34
486.244	3560.36
486.615	3692.78
486.985	3687.59
487.356	3735.72
487.726	3807.36
488.097	3834.25
488.467	3911.54
488.837	3931.65
489.207	3952.44
489.578	4069.95
489.948	4085.09
490.318	4085.32
490.688	4141.59
491.058	4167.12
491.428	4245.99
491.798	4262.94
492.168	4356.04
492.538	4364.41
492.908	4397.62
493.278	4464.29
493.648	4463.84
494.017	4514.91
494.387	4558.3
494.757	4615.7
495.126	4629.93
495.496	4645.3
495.866	4701.12
496.235	4728.24
496.605	4832.42
496.974	4806.2
497.344	4797.39
497.713	4834
498.082	4894.11
498.452	4994.22
498.821	4978.17
499.19	4946.54
499.559	5031.96
499.928	5078.51
500.298	5071.96
500.667	5152.41
501.036	5123.48
501.405	5227.66
501.774	5182.69
502.143	5253.42
502.512	5289.35
502.88	5351.27
503.249	5366.41
503.618	5391.27
503.987	5415.9
504.356	5437.82
504.724	5443.92
505.093	5447.31
505.462	5507.65
505.83	5580.64
506.199	5577.48
506.567	5664.26
506.936	5605.28
507.304	5744.93
507.672	5783.12
508.041	5772.05
508.409	5801.2
508.777	5850.02
509.145	5895.66
509.514	5932.27
509.882	5987.19
510.25	5988.32
510.618	6018.15
510.986	6050.01
511.354	6097.92
511.722	6204.36
512.09	6200.97
512.458	6190.12
512.826	6281.64
513.193	6286.61
513.561	6326.84
513.929	6331.81
514.297	6462.2
514.664	6434.41
515.032	6485.48
515.4	6540.62
515.767	6555.76
516.135	6624.91
516.502	6625.59
516.869	6771.35
517.237	6759.37
517.604	6741.07
517.972	6818.13
518.339	6850.44
518.706	6888.86
519.073	6938.12
519.44	7027.39
519.808	7059.25
520.175	7051.11
520.542	7159.59
520.909	7224.67
521.276	7220.38
521.643	7299.92
522.009	7337.21
522.376	7404.78
522.743	7442.52
523.11	7542.4
523.477	7640.7
523.843	7624.43
524.21	7753.24
524.577	7825.33
524.943	7814.03
525.31	7874.37
525.676	7935.84
526.043	8014.48
526.409	8049.73
526.776	8165.21
527.142	8184.42
527.508	8193.46
527.874	8282.72
528.241	8298.99
528.607	8390.51
528.973	8429.61
529.339	8445.2
529.705	8545.99
530.071	8604.97
530.437	8608.14
530.803	8732.2
531.169	8773.55
531.535	8818.3
531.901	8767.91
532.267	8846.55
532.632	8865.98
532.998	8956.37
533.364	9021.23
533.73	9039.99
534.095	9078.86
534.461	9091.29
534.826	9191.85
535.192	9183.94
535.557	9253.54
535.923	9303.71
536.288	9322.92
536.653	9365.18
537.019	9343.03
537.384	9356.36
537.749	9500.32
538.114	9466.42
538.479	9575.57
538.845	9581.22
539.21	9604.27
539.575	9639.52
539.94	9699.63
540.305	9740.53
540.67	9747.31
541.034	9815.34
541.399	9855.79
541.764	9917.03
542.129	9883.13
542.494	9903.47
542.858	9917.48
543.223	9967.87
543.587	10096.91
543.952	10043.35
544.316	10088.55
544.681	10064.82
545.045	10133.52
545.41	10199.51
545.774	10245.61
546.138	10223.91
546.503	10366.73
546.867	10365.83
547.231	10320.63
547.595	10420.29
547.959	10440.86
548.324	10454.19
548.688	10550.46
549.052	10596.33
549.416	10598.14
549.779	10596.56
550.143	10655.99
550.507	10720.4
550.871	10695.31
551.235	10773.73
551.599	10876.55
551.962	10944.57
552.326	10922.65
552.689	10963.78
553.053	11026.38
553.417	11034.51
553.78	11128.75
554.143	11223.21
554.507	11228.63
554.87	11269.31
555.234	11346.59
555.597	11354.96
555.96	11432.47
556.323	11506.82
556.686	11550.43
557.05	11577.1
557.413	11711.1
557.776	11689.64
558.139	11771.89
558.502	11777.09
558.865	11852.57
559.228	11982.74
559.59	12011.66
559.953	12026.58
560.316	12258.43
560.679	12198.55
561.041	12294.82
561.404	12323.52
561.767	12440.8
562.129	12386.34
562.492	12551.31
562.854	12483.74
563.217	12580.01
563.579	12690.06
563.941	12716.95
564.304	12812.54
564.666	12894.35
565.028	12917.63
565.39	12883.28
565.753	13087.57
566.115	13126.89
566.477	13180.22
566.839	13250.05
567.201	13291.63
567.563	13315.36
567.925	13462.24
568.287	13428.8
568.648	13460.21
569.01	13569.13
569.372	13650.71
569.734	13593.31
570.095	13727.77
570.457	13850.03
570.819	13865.85
571.18	13832.63
571.542	13972.51
571.903	14022.68
572.265	14119.63
572.626	14062.91
572.987	14080.08
573.349	14179.74
573.71	14314.88
574.071	14279.85
574.432	14272.17
574.794	14345.16
575.155	14368.21
575.516	14457.92
575.877	14469.9
576.238	14491.14
576.599	14682.78
576.96	14494.76
577.32	14714.19
577.681	14683.68
578.042	14617.47
578.403	14673.51
578.763	14749.44
579.124	14761.65
579.485	14796
579.845	14884.13
580.206	14871.02
580.566	14761.19
580.927	14917.12
581.287	14955.09
581.648	14923.68
582.008	14982.66
582.368	14868.99
582.728	14987.63
583.089	15042.99
583.449	14965.93
583.809	15018.36
584.169	15076.21
584.529	14936.33
584.889	15134.07
585.249	14979.72
585.609	15037.34
585.969	15074.63
586.329	15013.39
586.688	15153.27
587.048	15186.95
587.408	15061.75
587.768	15032.37
588.127	15139.04
588.487	15074.86
588.846	15239.37
589.206	15166.15
589.565	15151.92
589.925	15239.37
590.284	15203.44
590.643	15203.89
591.003	15184.01
591.362	15349.88
591.721	15167.06
592.08	15240.05
592.44	15293.38
592.799	15234.85
593.158	15257.68
593.517	15256.32
593.876	15304.23
594.235	15257.68
594.593	15192.59
594.952	15291.12
595.311	15334.29
595.67	15314.17
596.029	15346.49
596.387	15392.59
596.746	15448.18
597.104	15360.5
597.463	15305.13
597.822	15435.98
598.18	15348.07
598.538	15387.62
598.897	15526.6
599.255	15343.33
599.613	15602.08
599.972	15468.07
600.33	15569.76
600.688	15414.74
601.046	15509.2
601.404	15565.24
601.762	15640.04
602.12	15722.07
602.478	15548.07
602.836	15564.34
603.194	15570.89
603.552	15533.6
603.91	15474.17
604.268	15588.74
604.625	15552.36
604.983	15691.79
605.341	15673.49
605.698	15749.64
606.056	15781.51
606.413	15762.07
606.771	15828.06
607.128	15862.41
607.485	15729.08
607.843	15777.89
608.2	15848.17
608.557	15965
608.914	15935.4
609.272	15910.54
609.629	16016.98
609.986	16103.53
610.343	15963.42
610.7	16002.52
611.057	15962.29
611.414	15964.33
611.771	15966.81
612.127	16033.7
612.484	16045.45
612.841	16190.08
613.198	16059.46
613.554	16033.25
613.911	16100.14
614.267	16035.74
614.624	16129.07
614.98	16148.73
615.337	16278.89
615.693	16150.54
616.05	16232.12
616.406	16252.23
616.762	16182.85
617.118	16194.38
617.475	16254.94
617.831	16332.68
618.187	16296.52
618.543	16236.86
618.899	16390.76
619.255	16334.94
619.611	16243.19
619.967	16252.68
620.323	16383.07
620.678	16380.59
621.034	16229.63
621.39	16361.6
621.746	16307.82
622.101	16413.81
622.457	16357.08
622.812	16420.13
623.168	16370.19
623.523	16393.47
623.879	16471.21
624.234	16348.04
624.589	16463.52
624.945	16353.24
625.3	16419.91
625.655	16412.45
626.01	16374.26
626.365	16421.72
626.72	16354.6
627.075	16338.1
627.43	16448.83
627.785	16379
628.14	16382.62
628.495	16362.06
628.85	16398.66
629.205	16303.98
629.559	16371.09
629.914	16341.94
630.269	16393.24
630.623	16377.65
630.978	16280.02
631.332	16331.55
631.687	16338.55
632.041	16329.97
632.396	16301.49
632.75	16253.13
633.104	16285.22
633.459	16199.8
633.813	16199.12
634.167	16156.41
634.521	16137.43
634.875	16230.53
635.229	16132.91
635.583	16149.18
635.937	16087.49
636.291	16122.97
636.645	16125.45
636.999	16034.38
637.352	16101.27
637.706	16003.42
638.06	16002.52
638.413	16008.39
638.767	15983.76
639.121	15977.66
639.474	15882.75
639.828	15905.8
640.181	16002.07
640.534	16089.07
640.888	15846.36
641.241	15792.58
641.594	15783.31
641.947	15822.41
642.301	15838.23
642.654	15876.87
643.007	15859.47
643.36	15750.55
643.713	15730.89
644.066	15810.66
644.419	15612.02
644.771	15554.17
645.124	15356.88
645.477	15286.83
645.83	15249.54
646.182	15294.29
646.535	15206.15
646.888	15209.54
647.24	15178.36
647.593	15232.82
647.945	15244.34
648.298	15131.58
648.65	15188.98
649.002	15096.78
649.355	15101.75
649.707	15084.35
650.059	14983.56
650.411	15190.56
650.763	15174.29
651.115	15417
651.467	15360.05
651.819	15388.97
652.171	15275.76
652.523	15183.33
652.875	15232.59
653.227	15166.38
653.578	15302.65
653.93	15205.7
654.282	15185.82
654.633	15129.77
654.985	15145.14
655.337	15133.16
655.688	15166.61
656.039	15235.08
656.391	15034.18
656.742	15130.22
657.094	15165.7
657.445	15281.18
657.796	15162.77
658.147	15054.75
658.498	15109.66
658.849	15177
659.2	15037.34
659.551	15037.8
659.902	15008.64
660.253	15035.08
660.604	15116.89
660.955	14998.93
661.306	15054.52
661.656	15037.12
662.007	15053.62
662.358	14937.69
662.708	14977.23
663.059	14964.8
663.409	14874.86
663.76	15002.09
664.11	14984.01
664.461	15030.79
664.811	15005.03
665.161	14952.6
665.511	14953.73
665.862	14953.96
666.212	14900.17
666.562	14946.73
666.912	14897.46
667.262	14901.76
667.612	14816.11
667.962	14922.55
668.312	14873.73
668.662	14972.49
669.011	14778.82
669.361	14843.68
669.711	14927.07
670.06	14846.84
670.41	14865.82
670.76	14826.05
671.109	14901.3
671.459	14882.77
671.808	14767.3
672.157	14910.79
672.507	14723.91
672.856	14805.71
673.205	14751.93
673.554	14811.36
673.904	14776.11
674.253	14884.35
674.602	14813.62
674.951	14575.21
675.3	14523.46
675.649	14722.55
675.998	14640.52
676.346	14626.96
676.695	14735.88
677.044	14680.52
677.393	14651.14
677.741	14644.81
678.09	14592.61
678.438	14520.52
678.787	14595.1
679.135	14657.47
679.484	14543.35
679.832	14551.93
680.181	14525.04
680.529	14511.26
680.877	14400.75
681.225	14445.04
681.573	14469.9
681.922	14296.12
682.27	14320.08
682.618	14301.77
682.966	14331.15
683.314	14403.46
683.661	14220.42
684.009	14236.91
684.357	14180.64
684.705	14109.69
685.053	14176.58
685.4	14139.06
685.748	14133.19
686.095	14167.76
686.443	14142.9
686.79	13990.37
687.138	14132.28
687.485	14086.64
687.832	13975.68
688.18	14054.77
688.527	13971.38
688.874	13960.76
689.221	13887.32
689.568	13856.13
689.915	13732.29
690.262	13753.76
690.609	13803.7
690.956	13721.9
691.303	13638.96
691.65	13568.23
691.997	13556.25
692.344	13498.4
692.69	13443.49
693.037	13447.78
693.383	13420.21
693.73	13461.11
694.077	13311.97
694.423	13227.67
694.769	13317.39
695.116	13246.88
695.462	13267.22
695.808	13223.38
696.155	13205.08
696.501	13097.06
696.847	13015.93
697.193	12981.81
697.539	13048.47
697.885	12942.71
698.231	12881.47
698.577	12823.17
698.923	12797.4
699.269	12791.98
699.614	12733
699.96	12698.42
700.306	12718.31
700.651	12597.18
700.997	12594.02
701.342	12536.17
701.688	12511.08
702.033	12484.19
702.379	12476.06
702.724	12485.1
703.069	12546.79
703.415	12330.07
703.76	12278.77
704.105	12301.82
704.45	12362.61
704.795	12246.91
705.14	12185.67
705.485	12214.82
705.83	12173.69
706.175	12186.57
706.52	12161.26
706.865	11994.26
707.209	12030.19
707.554	11961.27
707.899	11989.29
708.243	11940.25
708.588	11836.07
708.932	11774.15
709.277	11784.32
709.621	11769.63
709.966	11632.24
710.31	11735.06
710.654	11612.12
710.998	11625.01
711.342	11644.67
711.687	11569.87
712.031	11558.57
712.375	11470.21
712.719	11549.53
713.063	11417.1
713.407	11469.53
713.75	11447.38
714.094	11396.99
714.438	11336.65
714.782	11315.41
715.125	11324.22
715.469	11301.85
715.812	11220.5
716.156	11237.22
716.499	11243.09
716.843	11224.11
717.186	11161.74
717.53	11222.3
717.873	11272.02
718.216	11130.33
718.559	11086.71
718.902	11005.81
719.246	11051.23
719.589	10999.94
719.932	10994.06
720.275	10935.76
720.617	10903.22
720.96	10958.13
721.303	10982.76
721.646	10964.46
721.989	10870.22
722.331	10881.07
722.674	10850.34
723.016	10868.41
723.359	10834.52
723.701	10842.43
724.044	10795.2
724.386	10759.04
724.729	10781.19
725.071	10670.45
725.413	10717.46
725.755	10775.54
726.097	10672.26
726.439	10598.14
726.782	10623.9
727.124	10685.37
727.465	10581.42
727.807	10578.03
728.149	10571.93
728.491	10523.79
728.833	10561.08
729.175	10463.23
729.516	10433.4
729.858	10453.06
730.199	10543.23
730.541	10420.52
730.882	10384.81
731.224	10339.39
731.565	10326.51
731.906	10317.47
732.248	10343.46
732.589	10246.96
732.93	10278.6
733.271	10210.13
733.612	10248.32
733.953	10290.35
734.294	10217.36
734.635	10187.3
734.976	10263.23
735.317	10235.89
735.658	10215.78
735.999	10169
736.339	10095.33
736.68	10116.12
737.021	10102.33
737.361	10051.71
737.702	10118.15
738.042	10114.76
738.383	9991.15
738.723	10137.59
739.063	10025.5
739.404	10058.94
739.744	10000.19
740.084	9885.39
740.424	9936.01
740.764	9949.57
741.104	9981.21
741.444	9901.66
741.784	9856.46
742.124	9924.71
742.464	9902.56
742.804	9914.32
743.143	9912.96
743.483	9836.35
743.823	9831.61
744.162	9759.52
744.502	9799.74
744.841	9716.58
745.181	9721.55
745.52	9696.69
745.86	9719.97
746.199	9627.77
746.538	9656.47
746.877	9617.83
747.216	9664.38
747.556	9652.63
747.895	9593.87
748.234	9519.3
748.573	9531.5
748.911	9554.55
749.25	9567.66
749.589	9567.66
749.928	9529.24
750.267	9557.71
750.605	9438.4
750.944	9461.67
751.283	9408.57
751.621	9429.58
751.96	9365.63
752.298	9373.09
752.636	9393.65
752.975	9363.82
753.313	9280.89
753.651	9278.63
753.989	9318.63
754.327	9231.85
754.666	9211.51
755.004	9236.14
755.342	9183.04
755.679	9180.78
756.017	9150.95
756.355	9174.45
756.693	9063.72
757.031	9136.03
757.368	9081.34
757.706	9089.48
758.044	9016.26
758.381	8948.69
758.719	8944.4
759.056	9002.93
759.394	8875.02
759.731	8876.83
760.068	8801.35
760.405	8837.28
760.743	8760
761.08	8814.91
761.417	8758.19
761.754	8762.93
762.091	8710.96
762.428	8686.1
762.765	8661.47
763.102	8658.3
763.438	8654.91
763.775	8553.45
764.112	8628.47
764.449	8531.3
764.785	8534.01
765.122	8486.56
765.458	8463.05
765.795	8469.16
766.131	8472.09
766.467	8469.61
766.804	8445.88
767.14	8334.92
767.476	8324.75
767.812	8277.07
768.148	8285.66
768.485	8242.95
768.821	8231.2
769.157	8160.46
769.492	8174.7
769.828	8182.61
770.164	8070.52
770.5	8055.61
770.836	8009.28
771.171	8069.84
771.507	7987.13
771.842	7927.25
772.178	7935.16
772.513	7884.54
772.849	7896.29
773.184	7839.57
773.519	7847.03
773.855	7849.96
774.19	7808.38
774.525	7744.2
774.86	7708.5
775.195	7704.43
775.53	7754.37
775.865	7632.34
776.2	7620.36
776.535	7565.45
776.87	7590.76
777.205	7569.29
777.539	7532.91
777.874	7541.72
778.209	7455.85
778.543	7455.4
778.878	7476.19
779.212	7361.39
779.547	7294.27
779.881	7404.55
780.215	7324.33
780.55	7360.94
780.884	7331.78
781.218	7272.35
781.552	7265.35
781.886	7247.49
782.22	7214.27
782.554	7149.64
782.888	7119.59
783.222	7045.92
783.556	7094.05
783.889	7032.58
784.223	6951.23
784.557	6915.98
784.89	6967.5
785.224	6939.25
785.557	6891.57
785.891	6909.42
786.224	6853.61
786.558	6863.55
786.891	6813.61
787.224	6743.55
787.557	6783.1
787.891	6716.89
788.224	6697.23
788.557	6728.41
788.89	6702.42
789.223	6744
789.556	6658.58
789.888	6655.64
790.221	6635.76
790.554	6549.21
790.887	6583.78
791.219	6499.04
791.552	6496.33
791.884	6496.1
792.217	6417.01
792.549	6427.18
792.882	6421.53
793.214	6378.82
793.546	6376.1
793.879	6355.09
794.211	6283.22
794.543	6348.08
794.875	6280.51
795.207	6299.5
795.539	6209.78
795.871	6273.73
796.203	6243.9
796.535	6215.66
796.867	6247.75
797.198	6191.25
797.53	6173.17
797.862	6135.43
798.193	6141.76
798.525	6094.08
798.856	6068.99
799.188	6021.54
799.519	6033.06
799.85	6063.12
800.182	6043.23
800.513	5968.88
800.844	5989.9
801.175	5971.37
801.506	5963.46
801.837	5924.36
802.168	5972.27
802.499	5856.57
802.83	5846.17
803.161	5865.61
803.491	5876.91
803.822	5904.48
804.153	5833.29
804.483	5804.37
804.814	5732.28
805.145	5774.09
805.475	5727.53
805.805	5671.26
806.136	5718.72
806.466	5716.01
806.796	5727.31
807.126	5683.92
807.457	5691.6
807.787	5686.18
808.117	5623.81
808.447	5648.21
808.777	5626.07
809.107	5561.89
809.436	5576.35
809.766	5549.91
810.096	5528.44
810.426	5622.45
810.755	5587.2
811.085	5524.37
811.414	5525.5
811.744	5463.59
812.073	5493.19
812.403	5534.32
812.732	5470.14
813.061	5463.81
813.39	5464.49
813.719	5445.05
814.049	5498.61
814.378	5371.16
814.707	5409.12
815.036	5377.49
815.365	5354.89
815.693	5338.62
816.022	5377.03
816.351	5291.61
816.68	5330.93
817.008	5280.09
817.337	5223.82
817.665	5253.2
817.994	5263.82
818.322	5231.95
818.651	5220.43
818.979	5180.2
819.307	5236.47
819.636	5229.92
819.964	5134.1
820.292	5200.77
820.62	5167.1
820.948	5153.99
821.276	5136.59
821.604	5152.63
821.932	5169.36
822.259	5182.24
822.587	5132.07
822.915	5125.74
823.243	5157.83
823.57	5146.08
823.898	5175.01
824.225	5089.36
824.553	5159.19
824.88	5130.71
825.207	5120.32
825.535	5124.84
825.862	5119.19
826.189	5064.73
826.516	5130.71
826.843	5130.26
827.17	5148.34
827.497	5134.78
827.824	5130.26
828.151	5112.63
828.478	5167.77
828.805	5145.18
829.131	5137.49
829.458	5139.75
829.785	5099.75
830.111	5125.06
830.438	5193.54
830.764	5134.78
831.09	5146.98
831.417	5106.98
831.743	5143.37
832.069	5137.04
832.395	5121.9
832.722	5061.56
833.048	5094.33
833.374	5099.98
833.7	5053.88
834.026	5073.99
834.351	5118.51
834.677	5113.09
835.003	5100.88
835.329	5108.57
835.654	5095.46
835.98	5036.25
836.306	5072.41
836.631	5066.53
836.956	5100.2
837.282	5041
837.607	4997.83
837.932	4989.02
838.258	4994.9
838.583	4969.13
838.908	4911.06
839.233	4970.26
839.558	5002.35
839.883	4985.63
840.208	4966.88
840.533	4939.31
840.858	4967.1
841.182	4980.66
841.507	4942.69
841.832	4909.7
842.156	4903.6
842.481	4911.51
842.805	4950.38
843.13	4912.87
843.454	4875.35
843.778	4849.59
844.103	4852.08
844.427	4860.21
844.751	4831.96
845.075	4829.25
845.399	4846.43
845.723	4785.64
846.047	4822.7
846.371	4759.87
846.695	4763.94
847.019	4683.27
847.343	4697.96
847.666	4685.3
847.99	4652.08
848.313	4694.79
848.637	4667.67
848.96	4655.24
849.284	4612.53
849.607	4592.42
849.931	4553.1
850.254	4596.26
850.577	4524.63
850.9	4492.99
851.223	4534.34
851.546	4495.93
851.869	4450.96
852.192	4513.55
852.515	4435.82
852.838	4415.48
853.161	4426.78
853.483	4408.7
853.806	4403.5
854.129	4388.81
854.451	4359.21
854.774	4390.84
855.096	4342.48
855.419	4313.56
855.741	4311.75
856.063	4292.32
856.385	4356.95
856.708	4297.51
857.03	4274.24
857.352	4299.1
857.674	4224.97
857.996	4224.07
858.318	4191.98
858.64	4154.24
858.961	4244.86
859.283	4183.84
859.605	4168.48
859.926	4151.98
860.248	4159.89
860.57	4149.5
860.891	4133
861.212	4118.31
861.534	4143.85
861.855	4119.67
862.176	4096.84
862.498	4128.25
862.819	4137.29
863.14	4128.25
863.461	4090.74
863.782	3989.27
864.103	4036.96
864.424	4081.25
864.745	4048.03
865.065	4030.18
865.386	3999.44
865.707	4045.32
866.027	4050.97
866.348	4028.37
866.668	4053
866.989	3998.31
867.309	3979.1
867.63	3984.08
867.95	4002.15
868.27	3958.31
868.59	4004.19
868.91	3947.24
869.23	3952.66
869.55	3978.88
869.87	3930.74
870.19	3977.52
870.51	3959.22
870.83	3975.26
871.15	3921.25
871.469	3914.02
871.789	3912.67
872.109	3906.79
872.428	3907.24
872.748	3915.83
873.067	3911.31
873.386	3875.6
873.706	3873.8
874.025	3880.35
874.344	3865.21
874.663	3853.68
874.982	3844.64
875.301	3822.27
875.62	3829.73
875.939	3847.81
876.258	3828.37
876.577	3812.33
876.896	3832.44
877.214	3828.6
877.533	3802.61
877.852	3779.56
878.17	3811.2
878.489	3764.42
878.807	3782.73
879.125	3796.96
879.444	3782.95
879.762	3787.92
880.08	3765.32
880.398	3787.92
880.716	3759
881.034	3751.09
881.352	3720.58
881.67	3686.91
881.988	3699.79
882.306	3749.96
882.624	3690.3
882.941	3608.94
883.259	3688.72
883.577	3683.74
883.894	3623.86
884.212	3665.21
884.529	3634.03
884.846	3634.25
885.164	3603.3
885.481	3635.84
885.798	3644.2
886.115	3579.79
886.432	3588.61
886.75	3616.4
887.067	3601.71
887.383	3596.29
887.7	3605.78
888.017	3575.27
888.334	3593.13
888.651	3571.21
888.967	3554.93
889.284	3519.46
889.6	3524.65
889.917	3479.68
890.233	3524.2
890.55	3505.67
890.866	3509.06
891.182	3488.27
891.498	3492.34
891.815	3473.36
892.131	3452.11
892.447	3457.08
892.763	3429.51
893.079	3416.86
893.395	3415.28
893.71	3396.75
894.026	3392.68
894.342	3378.44
894.657	3356.07
894.973	3367.82
895.289	3338.22
895.604	3352.91
895.92	3363.98
896.235	3312.46
896.55	3336.41
896.865	3288.28
897.181	3285.56
897.496	3269.97
897.811	3280.37
898.126	3280.59
898.441	3241.27
898.756	3284.89
899.071	3238.33
899.386	3254.15
899.7	3222.06
900.015	3234.27
900.33	3187.94
900.644	3191.1
900.959	3184.78
901.273	3157.66
901.588	3144.32
901.902	3110.43
902.216	3141.61
902.531	3128.96
902.845	3125.12
903.159	3115.85
903.473	3077.66
903.787	3100.26
904.101	3084.89
904.415	3082.86
904.729	3051.9
905.042	3030.43
905.356	3032.01
905.67	3035.85
905.984	3011.22
906.297	2987.27
906.611	2945.01
906.924	2974.39
907.237	2949.75
907.551	2937.55
907.864	2950.2
908.177	2953.59
908.491	2978.23
908.804	2934.84
909.117	2909.53
909.43	2907.49
909.743	2908.62
910.056	2916.53
910.368	2898.68
910.681	2863.65
910.994	2892.35
911.307	2834.5
911.619	2838.8
911.932	2805.58
912.244	2824.11
912.557	2803.32
912.869	2809.64
913.181	2783.66
913.494	2832.92
913.806	2745.46
914.118	2750.66
914.43	2742.3
914.742	2786.59
915.054	2729.65
915.366	2719.02
915.678	2731.68
915.99	2683.55
916.302	2714.28
916.613	2714.96
916.925	2646.48
917.236	2668.18
917.548	2634.28
917.859	2691.23
918.171	2663.88
918.482	2608.74
918.794	2624.56
919.105	2594.73
919.416	2591.34
919.727	2588.86
920.038	2570.55
920.349	2570.55
920.66	2588.86
920.971	2566.71
921.282	2503.21
921.593	2491.69
921.903	2477.9
922.214	2511.8
922.525	2506.37
922.835	2501.18
923.146	2439.48
923.456	2443.33
923.767	2462.31
924.077	2424.79
924.387	2462.08
924.697	2423.89
925.008	2397.9
925.318	2406.49
925.628	2411.01
925.938	2381.86
926.248	2388.41
926.558	2372.82
926.867	2333.72
927.177	2346.6
927.487	2357
927.796	2322.88
928.106	2321.75
928.416	2320.84
928.725	2298.02
929.034	2260.73
929.344	2302.54
929.653	2305.7
929.962	2283.33
930.271	2287.17
930.581	2243.1
930.89	2241.52
931.199	2184.12
931.508	2206.95
931.817	2231.58
932.125	2228.64
932.434	2217.57
932.743	2226.16
933.051	2218.7
933.36	2150.23
933.669	2146.61
933.977	2169.66
934.286	2173.5
934.594	2172.15
934.902	2141.86
935.21	2159.04
935.519	2121.07
935.827	2163.56
936.135	2124.01
936.443	2096.67
936.751	2104.35
937.059	2074.07
937.367	2094.63
937.674	2092.83
937.982	2084.46
938.29	2070.45
938.597	2052.83
938.905	2032.26
939.213	2006.95
939.52	2027.52
939.827	2036.56
940.135	2018.93
940.442	2014.86
940.749	2015.99
941.056	1992.04
941.363	1979.38
941.67	1965.82
941.977	1968.31
942.284	1967.86
942.591	1944.81
942.898	1968.08
943.205	1935.32
943.511	1960.17
943.818	1921.98
944.125	1942.32
944.431	1901.19
944.738	1903.68
945.044	1903.9
945.35	1912.04
945.657	1884.47
945.963	1869.56
946.269	1850.8
946.575	1876.79
946.881	1853.74
947.187	1839.05
947.493	1818.03
947.799	1842.44
948.105	1830.69
948.41	1808.77
948.716	1821.2
949.022	1781.42
949.327	1807.18
949.633	1782.78
949.938	1753.63
950.244	1790.69
950.549	1768.09
950.854	1743.91
951.16	1768.32
951.465	1747.98
951.77	1765.83
952.075	1750.91
952.38	1721.76
952.685	1721.54
952.99	1685.15
953.294	1734.19
953.599	1695.77
953.904	1687.64
954.209	1690.8
954.513	1701.2
954.818	1681.09
955.122	1656.23
955.426	1656.91
955.731	1645.15
956.035	1648.54
956.339	1623.01
956.643	1634.53
956.948	1619.17
957.252	1606.51
957.556	1615.55
957.86	1608.77
958.163	1624.14
958.467	1622.33
958.771	1607.42
959.075	1630.24
959.378	1605.38
959.682	1597.47
959.985	1575.33
960.289	1565.16
960.592	1546.85
960.896	1579.17
961.199	1521.32
961.502	1536.46
961.805	1540.07
962.108	1517.7
962.411	1539.62
962.714	1531.71
963.017	1530.81
963.32	1528.77
963.623	1513.63
963.926	1515.67
964.228	1503.69
964.531	1514.99
964.833	1508.66
965.136	1444.93
965.438	1485.61
965.741	1445.16
966.043	1432.5
966.345	1483.8
966.648	1458.72
966.95	1451.71
967.252	1462.56
967.554	1436.12
967.856	1410.58
968.158	1454.43
968.46	1424.82
968.761	1395.67
969.063	1401.55
969.365	1382.34
969.666	1400.19
969.968	1403.8
970.269	1397.93
970.571	1401.77
970.872	1413.07
971.174	1399.29
971.475	1376.01
971.776	1351.38
972.077	1363.13
972.378	1373.3
972.679	1384.14
972.98	1393.86
973.281	1340.53
973.582	1315.9
973.883	1330.59
974.183	1314.32
974.484	1297.14
974.785	1318.38
975.085	1297.59
975.386	1328.33
975.686	1300.3
975.986	1301.66
976.287	1303.47
976.587	1278.61
976.887	1285.62
977.187	1274.77
977.487	1264.37
977.787	1286.29
978.087	1255.56
978.387	1249.01
978.687	1266.86
978.987	1259.18
979.286	1240.87
979.586	1227.99
979.885	1238.61
980.185	1236.13
980.484	1207.2
980.784	1223.47
981.083	1216.47
981.382	1210.82
981.682	1227.09
981.981	1192.29
982.28	1178.73
982.579	1175.11
982.878	1199.52
983.177	1165.17
983.475	1149.12
983.774	1185.73
984.073	1182.57
984.372	1157.71
984.67	1186.64
984.969	1139.41
985.267	1132.63
985.566	1156.13
985.864	1158.39
986.162	1137.15
986.461	1135.56
986.759	1134.66
987.057	1112.29
987.355	1133.76
987.653	1134.21
987.951	1126.3
988.249	1134.43
988.547	1091.72
988.844	1102.8
989.142	1096.47
989.44	1096.47
989.737	1085.17
990.035	1108.45
990.332	1082.23
990.63	1074.1
990.927	1089.69
991.224	1097.82
991.521	1073.64
991.819	1051.95
992.116	1056.92
992.413	1065.28
992.71	1057.6
993.006	1061.89
993.303	1035.23
993.6	1050.82
993.897	1058.5
994.193	1042.68
994.49	1016.92
994.787	1023.02
995.083	1020.99
995.379	1001.56
995.676	990.71
995.972	1004.95
996.268	998.39
996.565	1001.33
996.861	976.02
997.157	984.61
997.453	973.76
997.749	982.8
998.044	996.58
998.34	978.28
998.636	968.79
998.932	949.35
999.227	960.65
999.523	951.84
999.818	980.54
1000.114	952.29
1000.409	970.6
1000.704	956.59
1001	956.81
1001.295	922.24
1001.59	944.16
1001.885	935.12
1002.18	917.72
1002.475	918.17
1002.77	915.23
1003.065	893.76
1003.359	939.18
1003.654	910.03
1003.949	898.51
1004.243	884.04
1004.538	886.08
1004.832	888.11
1005.127	890.82
1005.421	887.89
1005.715	903.48
1006.009	874.33
1006.304	864.61
1006.598	887.43
1006.892	853.08
1007.186	852.86
1007.48	857.83
1007.773	855.12
1008.067	860.32
1008.361	855.12
1008.655	854.67
1008.948	830.94
1009.242	839.75
1009.535	827.55
1009.829	837.72
1010.122	821.45
1010.415	807.89
1010.708	794.56
1011.001	792.75
1011.295	814.89
1011.588	830.26
1011.881	801.33
1012.173	804.05
1012.466	802.92
1012.759	797.49
1013.052	782.13
1013.344	772.41
1013.637	789.13
1013.93	772.64
1014.222	805.63
1014.514	764.95
1014.807	764.73
1015.099	773.76
1015.391	765.63
1015.683	795.46
1015.976	758.4
1016.268	766.53
1016.56	754.1
1016.851	764.95
1017.143	747.78
1017.435	731.05
1017.727	728.34
1018.018	746.2
1018.31	720.88
1018.602	736.25
1018.893	711.62
1019.185	710.72
1019.476	699.42
1019.767	738.29
1020.058	703.03
1020.35	717.72
1020.641	688.57
1020.932	689.47
1021.223	679.08
1021.514	720.66
1021.804	675.01
1022.095	687.89
1022.386	693.32
1022.677	686.99
1022.967	671.39
1023.258	664.62
1023.548	652.41
1023.839	677.04
1024.129	676.59
1024.419	657.84
1024.709	650.6
1025	642.92
1025.29	631.17
1025.58	644.28
1025.87	641.57
1026.16	644.95
1026.449	642.69
1026.739	646.54
1027.029	654.45
1027.319	658.97
1027.608	618.06
1027.898	637.72
1028.187	615.13
1028.477	624.39
1028.766	624.84
1029.055	621.23
1029.344	617.16
1029.634	603.6
1029.923	600.44
1030.212	612.64
1030.501	580.1
1030.79	611.51
1031.078	606.76
1031.367	598.18
1031.656	598.4
1031.945	591.17
1032.233	596.59
1032.522	553.88
1032.81	576.03
1033.099	581.68
1033.387	563.15
1033.675	566.76
1033.963	585.3
1034.251	587.1
1034.54	569.48
1034.828	549.59
1035.116	575.13
1035.403	561.57
1035.691	571.28
1035.979	539.19
1036.267	551.85
1036.554	543.71
1036.842	547.33
1037.129	545.75
1037.417	524.73
1037.704	559.53
1037.992	539.19
1038.279	558.86
1038.566	535.35
1038.853	535.35
1039.14	535.35
