Data from foam2_polystyrene_foam_FLMS001491_00008.txt Node
Date: Wed Feb 08 10:57:26 GMT 2017
User: dcchb
Spectrometer: FLMS00149
Trigger mode: 0
Integration Time (sec): 2.000000E-2
Scans to average: 10
Electric dark correction enabled: true
Nonlinearity correction enabled: false
Boxcar width: 0
XAxis mode: Wavelengths
Number of Pixels in Spectrum: 2048
>>>>>Begin Spectral Data<<<<<
341.393	-1.6
341.776	-1.6
342.16	-1.6
342.543	-46.11
342.927	-57.41
343.31	-45.66
343.693	-64.42
344.077	-61.71
344.46	-62.39
344.843	-56.74
345.226	-45.21
345.61	-37.3
345.993	-26
346.376	12.64
346.759	7.22
347.142	27.78
347.525	39.98
347.908	54.9
348.291	69.59
348.674	86.09
349.057	101.23
349.44	105.97
349.823	143.71
350.206	176.93
350.588	202.92
350.971	211.73
351.354	225.52
351.737	266.65
352.119	241.11
352.502	273.2
352.884	276.59
353.267	294.67
353.65	311.62
354.032	301.67
354.414	310.94
354.797	325.4
355.179	352.29
355.562	360.65
355.944	340.54
356.326	342.35
356.709	334.67
357.091	355.23
357.473	354.1
357.855	334.21
358.238	352.29
358.62	351.39
359.002	329.69
359.384	359.07
359.766	355
360.148	363.82
360.53	346.19
360.912	370.37
361.294	329.47
361.676	341.9
362.057	341.67
362.439	350.94
362.821	336.25
363.203	334.67
363.584	352.97
363.966	335.8
364.348	321.11
364.729	352.52
365.111	349.13
365.493	334.67
365.874	346.19
366.256	317.27
366.637	340.99
367.019	312.75
367.4	349.36
367.781	329.92
368.163	352.97
368.544	331.05
368.925	333.76
369.306	346.19
369.688	335.34
370.069	342.8
370.45	339.19
370.831	331.05
371.212	346.42
371.593	337.83
371.974	337.83
372.355	345.74
372.736	356.59
373.117	341.22
373.498	356.81
373.879	336.7
374.26	353.87
374.641	344.16
375.021	342.12
375.402	348.45
375.783	358.85
376.163	376.25
376.544	372.86
376.925	378.96
377.305	360.88
377.686	388.22
378.066	372.63
378.447	360.65
378.827	403.82
379.208	363.59
379.588	405.85
379.968	391.39
380.349	409.47
380.729	385.74
381.109	408.34
381.489	417.38
381.87	404.27
382.25	412.18
382.63	406.3
383.01	405.85
383.39	414.44
383.77	422.57
384.15	409.24
384.53	410.14
384.91	403.59
385.29	420.09
385.67	442.91
386.049	434.78
386.429	443.82
386.809	440.43
387.189	437.26
387.568	445.17
387.948	464.15
388.328	441.78
388.707	448.11
389.087	458.05
389.466	463.02
389.846	457.6
390.225	477.26
390.605	498.73
390.984	474.32
391.363	497.37
391.743	477.71
392.122	497.6
392.501	486.07
392.881	488.33
393.26	489.92
393.639	493.08
394.018	480.2
394.397	521.1
394.776	501.89
395.155	525.4
395.534	510.03
395.913	534.21
396.292	531.72
396.671	540.99
397.05	557.03
397.429	546.64
397.808	549.12
398.186	555.45
398.565	551.16
398.944	535.57
399.323	567.65
399.701	571.5
400.08	584.15
400.458	576.92
400.837	566.75
401.215	582.8
401.594	596.13
401.972	556.13
402.351	599.74
402.729	583.93
403.107	605.85
403.486	617.82
403.864	618.95
404.242	627.09
404.62	637.26
404.999	637.48
405.377	639.29
405.755	637.26
406.133	663.02
406.511	660.53
406.889	661.66
407.267	682
407.645	670.7
408.023	683.36
408.401	691.27
408.779	710.7
409.156	712.96
409.534	711.38
409.912	724.26
410.29	745.95
410.667	738.27
411.045	735.79
411.422	752.96
411.8	769.68
412.178	769.46
412.555	786.86
412.933	779.63
413.31	797.25
413.687	822.11
414.065	828.44
414.442	835.9
414.819	843.81
415.197	853.75
415.574	851.94
415.951	861.21
416.328	857.36
416.705	875.67
417.082	876.57
417.46	890.58
417.837	920.41
418.214	909.79
418.591	932.39
418.967	902.34
419.344	938.04
419.721	952.05
420.098	941.2
420.475	934.42
420.852	978.94
421.228	977.14
421.605	969.23
421.982	1001.99
422.358	998.83
422.735	1001.32
423.111	1016
423.488	1028.21
423.864	1027.53
424.241	1047.42
424.617	1067.08
424.994	1043.35
425.37	1057.59
425.746	1071.82
426.123	1098.71
426.499	1097.58
426.875	1132.39
427.251	1124.48
427.627	1135.1
428.003	1165.38
428.379	1163.35
428.756	1199.95
429.132	1189.33
429.507	1220.97
429.883	1229.78
430.259	1268.2
430.635	1264.59
431.011	1263.23
431.387	1302.1
431.763	1326.96
432.138	1333.28
432.514	1366.96
432.89	1338.26
433.265	1390.68
433.641	1384.58
434.016	1378.25
434.392	1453.28
434.767	1467.29
435.143	1445.82
435.518	1462.55
435.894	1492.83
436.269	1500.96
436.644	1540.28
437.02	1539.61
437.395	1542.09
437.77	1573.96
438.145	1610.79
438.52	1593.39
438.895	1615.08
439.271	1616.67
439.646	1650.56
440.021	1702.99
440.395	1684.91
440.77	1674.29
441.145	1722.43
441.52	1723.78
441.895	1720.17
442.27	1771.01
442.645	1759.26
443.019	1775.31
443.394	1763.78
443.769	1799.94
444.143	1810.33
444.518	1833.16
444.892	1847.17
445.267	1857.79
445.641	1891.46
446.016	1877.22
446.39	1897.11
446.764	1921.97
447.139	1933.95
447.513	1929.88
447.887	1930.1
448.262	1949.54
448.636	1970.56
449.01	2012.36
449.384	2038.8
449.758	2034.28
450.132	2056.2
450.506	2070.21
450.88	2112.25
451.254	2103.89
451.628	2128.74
452.002	2168.97
452.376	2159.7
452.75	2203.09
453.123	2217.1
453.497	2257.55
453.871	2255.75
454.244	2295.74
454.618	2292.81
454.992	2340.49
455.365	2333.71
455.739	2392.47
456.112	2397.21
456.486	2462.52
456.859	2482.18
457.232	2516.53
457.606	2497.77
457.979	2550.88
458.352	2606.02
458.725	2630.65
459.099	2632.01
459.472	2694.38
459.845	2691.21
460.218	2712.91
460.591	2751.78
460.964	2759.46
461.337	2805.11
461.71	2872.45
462.083	2907.71
462.456	2896.18
462.829	2942.73
463.201	2956.97
463.574	3002.39
463.947	3063.18
464.32	3071.77
464.692	3109.06
465.065	3148.6
465.438	3194.03
465.81	3192.22
466.183	3233.35
466.555	3303.4
466.928	3334.59
467.3	3374.59
467.672	3366.45
468.045	3471.98
468.417	3446.67
468.789	3515.83
469.161	3606.67
469.534	3556.05
469.906	3637.86
470.278	3701.13
470.65	3745.2
471.022	3815.25
471.394	3868.36
471.766	3918.07
472.138	3954.46
472.51	4062.25
472.882	4076.26
473.253	4160.33
473.625	4225.64
473.997	4303.6
474.369	4338.63
474.74	4362.36
475.112	4499.3
475.484	4542.47
475.855	4580.88
476.227	4651.61
476.598	4759.41
476.97	4779.75
477.341	4870.37
477.713	4946.75
478.084	5025.84
478.455	5146.97
478.827	5186.52
479.198	5334.31
479.569	5356.23
479.94	5459.96
480.311	5531.59
480.682	5653.62
481.053	5779.72
481.424	5868.98
481.795	5915.08
482.166	5997.12
482.537	6036.21
482.908	6221.07
483.279	6290.89
483.65	6428.29
484.021	6536.09
484.391	6557.1
484.762	6626.25
485.133	6699.02
485.503	6812.91
485.874	6966.36
486.244	6973.59
486.615	7173.13
486.985	7218.1
487.356	7381.26
487.726	7414.93
488.097	7580.8
488.467	7637.98
488.837	7789.61
489.207	7866.22
489.578	8002.26
489.948	8057.85
490.318	8230.73
490.688	8250.16
491.058	8353.21
491.428	8463.04
491.798	8474.11
492.168	8692.64
492.538	8758.17
492.908	8797.49
493.278	8931.5
493.648	8989.13
494.017	9070.26
494.387	9132.63
494.757	9294.2
495.126	9317.71
495.496	9433.86
495.866	9461.88
496.235	9541.2
496.605	9693.29
496.974	9760.63
497.344	9763.57
497.713	9841.54
498.082	9936.22
498.452	9988.2
498.821	10147.29
499.19	10168.98
499.559	10223.45
499.928	10353.84
500.298	10408.3
500.667	10457.11
501.036	10407.17
501.405	10587.96
501.774	10660.95
502.143	10697.33
502.512	10708.86
502.88	10859.36
503.249	10939.13
503.618	10982.07
503.987	11178.45
504.356	11160.14
504.724	11181.16
505.093	11274.72
505.462	11393.13
505.83	11366.01
506.199	11487.82
506.567	11700.92
506.936	11637.42
507.304	11793.57
507.672	11853.01
508.041	11956.28
508.409	12064.98
508.777	12147.92
509.145	12216.61
509.514	12224.98
509.882	12390.62
510.25	12459.32
510.618	12558.53
510.986	12597.17
511.354	12814.11
511.722	12811.63
512.09	12932.53
512.458	12873.32
512.826	13069.7
513.193	13130.94
513.561	13166.42
513.929	13256.13
514.297	13420.88
514.664	13500.2
515.032	13542.91
515.4	13679.4
515.767	13792.39
516.135	13878.72
516.502	13866.97
516.869	14142.66
517.237	14163.23
517.604	14164.59
517.972	14310.57
518.339	14407.29
518.706	14503.11
519.073	14530.23
519.44	14607.51
519.808	14816.32
520.175	14866.49
520.542	15041.85
520.909	15170.21
521.276	15171.56
521.643	15325.91
522.009	15487.71
522.376	15593.47
522.743	15757.99
523.11	15815.84
523.477	15989.62
523.843	16115.04
524.21	16243.63
524.577	16399.1
524.943	16451.08
525.31	16558.42
525.676	16764.52
526.043	16821.01
526.409	16889.49
526.776	17168.35
527.142	17199.53
527.508	17213.54
527.874	17391.62
528.241	17586.87
528.607	17700.31
528.973	17762.68
529.339	17863.92
529.705	18008.78
530.071	18127.64
530.437	18248.77
530.803	18323.57
531.169	18415.77
531.535	18342.33
531.901	18592.94
532.267	18579.61
532.632	18811.69
532.998	18870.68
533.364	18984.12
533.73	19056.43
534.095	19200.16
534.461	19326.71
534.826	19343.43
535.192	19507.04
535.557	19559.25
535.923	19520.38
536.288	19604.44
536.653	19718.34
537.019	19690.32
537.384	19820.93
537.749	19902.51
538.114	20013.7
538.479	20129.85
538.845	20181.38
539.21	20101.38
539.575	20396.29
539.94	20393.57
540.305	20495.49
540.67	20511.76
541.034	20693
541.399	20654.36
541.764	20807.35
542.129	20830.62
542.494	20932.77
542.858	20954.92
543.223	21035.36
543.587	21071.75
543.952	21067.68
544.316	21181.58
544.681	21188.13
545.045	21312.42
545.41	21509.48
545.774	21541.79
546.138	21574.33
546.503	21577.95
546.867	21665.4
547.231	21984.49
547.595	21957.6
547.959	21979.75
548.324	22020.2
548.688	22061.55
549.052	22202.57
549.416	22219.74
549.779	22217.25
550.143	22394.65
550.507	22589.67
550.871	22700.63
551.235	22732.5
551.599	22898.59
551.962	22927.97
552.326	22971.36
552.689	23068.53
553.053	23064.46
553.417	23111.92
553.78	23452.25
554.143	23327.06
554.507	23479.82
554.87	23531.34
555.234	23767.27
555.597	23595.3
555.96	23815.18
556.323	23944.67
556.686	24017.89
557.05	24177.88
557.413	24187.15
557.776	24273.92
558.139	24462.62
558.502	24506.23
558.865	24540.58
559.228	24692.9
559.59	24825.77
559.953	25065.54
560.316	25227.57
560.679	25210.17
561.041	25321.81
561.404	25605.64
561.767	25750.27
562.129	25431.18
562.492	25917.04
562.854	25847.44
563.217	25933.32
563.579	26081.79
563.941	26271.84
564.304	26319.52
564.666	26572.39
565.028	26615.11
565.39	26710.47
565.753	26823.01
566.115	26984.14
566.477	27074.98
566.839	27076.34
567.201	27372.15
567.563	27266.61
567.925	27598.13
568.287	27626.38
568.648	27625.7
569.01	27814.85
569.372	28043.77
569.734	27940.95
570.095	28096.42
570.457	28204.89
570.819	28250.54
571.18	28208.51
571.542	28343.42
571.903	28438.56
572.265	28524.66
572.626	28723.52
572.987	28789.51
573.349	28762.17
573.71	28957.64
574.071	28976.17
574.432	29117.19
574.794	29261.36
575.155	29231.53
575.516	29310.4
575.877	29357.18
576.238	29417.74
576.599	29543.39
576.96	29637.85
577.32	29585.87
577.681	29772.08
578.042	29709.04
578.403	29787.9
578.763	29850.05
579.124	29878.97
579.485	29990.84
579.845	30107.67
580.206	30072.19
580.566	30076.94
580.927	30024.28
581.287	30158.51
581.648	30047.56
582.008	30292.07
582.368	30056.37
582.728	30185.86
583.089	30194.9
583.449	30231.73
583.809	30245.52
584.169	30356.25
584.529	30250.26
584.889	30657.26
585.249	30281.68
585.609	30437.6
585.969	30496.13
586.329	30439.86
586.688	30453.2
587.048	30431.28
587.408	30337.72
587.768	30393.76
588.127	30237.61
588.487	30323.03
588.846	30510.14
589.206	30332.75
589.565	30283.03
589.925	30549.47
590.284	30460.2
590.643	30395.12
591.003	30598.5
591.362	30439.41
591.721	30564.61
592.08	30500.88
592.44	30719.63
592.799	30631.5
593.158	30582.23
593.517	30665.17
593.876	30617.26
594.235	30613.42
594.593	30819.29
594.952	30693.64
595.311	30691.61
595.67	30683.25
596.029	30819.29
596.387	30867.65
596.746	30900.64
597.104	30763.7
597.463	30781.78
597.822	31008.89
598.18	30769.8
598.538	30774.77
598.897	30928.21
599.255	30805.5
599.613	31114.2
599.972	30855.22
600.33	31013.86
600.688	30837.59
601.046	31000.75
601.404	31143.35
601.762	31101.31
602.12	31280.07
602.478	31144.48
602.836	31220.86
603.194	31109.68
603.552	31153.07
603.91	31013.41
604.268	31212.05
604.625	31096.57
604.983	31259.28
605.341	31193.74
605.698	31302.44
606.056	31356.22
606.413	31263.12
606.771	31402.78
607.128	31384.47
607.485	31241.65
607.843	31327.3
608.2	31375.88
608.557	31495.2
608.914	31469.89
609.272	31551.02
609.629	31771.13
609.986	31711.69
610.343	31639.15
610.7	32004.79
611.057	31806.16
611.414	31850.45
611.771	31856.78
612.127	32008.41
612.484	32033.95
612.841	31944
613.198	31926.6
613.554	31869.66
613.911	32087.96
614.267	32036.43
614.624	32010.44
614.98	32117.33
615.337	32299.48
615.693	32197.56
616.05	32229.65
616.406	32306.48
616.762	32339.7
617.118	32235.3
617.475	32333.37
617.831	32358.46
618.187	32452.47
618.543	32435.29
618.899	32647.26
619.255	32604.55
619.611	32387.61
619.967	32620.37
620.323	32670.31
620.678	32433.94
621.034	32403.65
621.39	32502.41
621.746	32439.13
622.101	32744.44
622.457	32503.31
622.812	32572.24
623.168	32706.92
623.523	32746.24
623.879	32826.47
624.234	32547.15
624.589	32754.6
624.945	32816.98
625.3	32749.18
625.655	32689.97
626.01	32687.26
626.365	32684.1
626.72	32708.28
627.075	32686.36
627.43	32640.26
627.785	32468.06
628.14	32665.57
628.495	32669.18
628.85	32634.38
629.205	32403.88
629.559	32494.72
629.914	32424.9
630.269	32505.35
630.623	32417.89
630.978	32230.55
631.332	32444.1
631.687	32421.51
632.041	32373.15
632.396	32337.44
632.75	32138.8
633.104	32259.93
633.459	31983.33
633.813	31984.23
634.167	32014.06
634.521	32034.17
634.875	32111.23
635.229	32027.62
635.583	31797.79
635.937	31821.97
636.291	31869.43
636.645	32014.51
636.999	31714.41
637.352	31883.44
637.706	31685.25
638.06	31860.17
638.413	31707.63
638.767	31686.38
639.121	31691.13
639.474	31513.73
639.828	31501.76
640.181	31535.88
640.534	31586.27
640.888	31416.33
641.241	31294.76
641.594	31334.76
641.947	31443.23
642.301	31301.54
642.654	31263.8
643.007	31363.23
643.36	31158.49
643.713	31167.98
644.066	31271.93
644.419	31143.35
644.771	30931.15
645.124	30613.42
645.477	30618.62
645.83	30331.17
646.182	30100.44
646.535	30189.25
646.888	30233.77
647.24	30067.9
647.593	30167.55
647.945	30182.92
648.298	29996.71
648.65	29812.08
649.002	29834.46
649.355	29957.84
649.707	29915.36
650.059	30071.51
650.411	30409.13
650.763	30344.95
651.115	30711.27
651.467	30560.99
651.819	30602.57
652.171	30445.06
652.523	30367.1
652.875	30408.23
653.227	30388.34
653.578	30569.35
653.93	30425.4
654.282	30254.11
654.633	30114.22
654.985	30151.96
655.337	30166.88
655.688	30196.03
656.039	30283.26
656.391	30069.03
656.742	30087.33
657.094	30190.83
657.445	30394.44
657.796	30061.34
658.147	29979.08
658.498	29981.8
658.849	30286.87
659.2	30116.26
659.551	30009.59
659.902	30050.27
660.253	30024.06
660.604	30112.64
660.955	29785.19
661.306	29982.25
661.656	29862.7
662.007	30068.8
662.358	29930.95
662.708	29808.47
663.059	29860.9
663.409	29743.38
663.76	29866.09
664.11	29927.56
664.461	29932.98
664.811	29818.18
665.161	29887.56
665.511	29851.63
665.862	29780.67
666.212	29826.55
666.562	29825.64
666.912	29849.37
667.262	29679.88
667.612	29632.88
667.962	29719.88
668.312	29646.66
668.662	29739.09
669.011	29611.18
669.361	29657.96
669.711	29756.27
670.06	29612.99
670.41	29516.05
670.76	29621.35
671.109	29592.88
671.459	29641.01
671.808	29443.05
672.157	29512.2
672.507	29262.95
672.856	29405.09
673.205	29343.85
673.554	29452.77
673.904	29290.52
674.253	29533.9
674.602	29353.79
674.951	28930.98
675.3	28899.79
675.649	29340.46
675.998	29251.42
676.346	29175.72
676.695	29356.28
677.044	29103.4
677.393	29167.13
677.741	29204.64
678.09	29069.96
678.438	28973.46
678.787	29026.79
679.135	29091.42
679.484	28871.32
679.832	28965.33
680.181	28893.92
680.529	28892.33
680.877	28881.26
681.225	28720.59
681.573	28866.35
681.922	28599.69
682.27	28540.7
682.618	28587.03
682.966	28427.71
683.314	28571.66
683.661	28437.2
684.009	28295.51
684.357	28303.42
684.705	28154.05
685.053	28084.67
685.4	28079.93
685.748	27933.26
686.095	27933.04
686.443	27875.19
686.79	27759.03
687.138	27762.42
687.485	27719.48
687.832	27642.2
688.18	27600.39
688.527	27514.74
688.874	27441.3
689.221	27482.43
689.568	27279.27
689.915	27324.92
690.262	27244.47
690.609	27196.78
690.956	27106.39
691.303	27105.94
691.65	26930.13
691.997	26945.94
692.344	26822.11
692.69	26776.91
693.037	26887.19
693.383	26637.7
693.73	26781.43
694.077	26555.22
694.423	26503.92
694.769	26517.93
695.116	26368.78
695.462	26350.25
695.808	26284.27
696.155	26324.72
696.501	26084.05
696.847	26107.77
697.193	25888.12
697.539	25983.26
697.885	25820.55
698.231	25731.06
698.577	25777.16
698.923	25621.23
699.269	25422.14
699.614	25391.41
699.96	25316.83
700.306	25276.16
700.651	25251.75
700.997	25223.73
701.342	25115.71
701.688	25061.7
702.033	24909.16
702.379	24907.35
702.724	24819.45
703.069	24750.97
703.415	24584.65
703.76	24694.25
704.105	24687.25
704.45	24441.15
704.795	24391.66
705.14	24289.52
705.485	24207.03
705.83	24235.96
706.175	24199.58
706.52	24079.35
706.865	24060.6
707.209	24019.92
707.554	23939.92
707.899	23936.98
708.243	23974.04
708.588	23884.1
708.932	23738.12
709.277	23631.68
709.621	23584.45
709.966	23531.57
710.31	23683.88
710.654	23368.86
710.998	23506.71
711.342	23434.4
711.687	23314.63
712.031	23114.18
712.375	23081.19
712.719	23139.72
713.063	23102.66
713.407	23141.75
713.75	22920.97
714.094	22948.31
714.438	22892.49
714.782	22904.02
715.125	22769.78
715.469	22872.38
715.812	22710.12
716.156	22552.84
716.499	22719.84
716.843	22722.33
717.186	22521.43
717.53	22633.97
717.873	22558.26
718.216	22493.41
718.559	22443.69
718.902	22214.09
719.246	22241.66
719.589	22122.12
719.932	22054.32
720.275	22073.53
720.617	22015.45
720.96	22025.17
721.303	22018.84
721.646	21942.69
721.989	21811.62
722.331	21869.47
722.674	21764.39
723.016	21859.07
723.359	21778.4
723.701	21812.29
724.044	21563.94
724.386	21404.17
724.729	21681.45
725.071	21564.62
725.413	21479.65
725.755	21470.61
726.097	21345.41
726.439	21292.31
726.782	21384.28
727.124	21439.2
727.465	21249.82
727.807	21174.12
728.149	21156.04
728.491	21045.53
728.833	21236.94
729.175	21052.09
729.516	20917.63
729.858	20970.06
730.199	20995.37
730.541	20935.93
730.882	20892.77
731.224	20869.04
731.565	20818.42
731.906	20761.02
732.248	20659.1
732.589	20707.01
732.93	20508.37
733.271	20559.67
733.612	20652.55
733.953	20531.2
734.294	20482.16
734.635	20464.76
734.976	20520.58
735.317	20438.77
735.658	20432.67
735.999	20347.47
736.339	20351.09
736.68	20432.44
737.021	20388.6
737.361	20245.56
737.702	20292.56
738.042	20228.83
738.383	20144.99
738.723	20259.11
739.063	20155.84
739.404	20180.47
739.744	20056.18
740.084	19921.95
740.424	20028.84
740.764	19804.21
741.104	19964.88
741.444	19849.18
741.784	19737.09
742.124	19848.28
742.464	19669.75
742.804	19714.27
743.143	19714.27
743.483	19640.6
743.823	19543.43
744.162	19456.42
744.502	19677.66
744.841	19487.61
745.181	19533.26
745.52	19343.43
745.86	19434.28
746.199	19491
746.538	19397.67
746.877	19440.15
747.216	19423.66
747.556	19286.94
747.895	19423.88
748.234	19231.8
748.573	19265.47
748.911	19203.32
749.25	19239.48
749.589	19033.16
749.928	19068.86
750.267	19113.83
750.605	19102.08
750.944	19010.33
751.283	18940.05
751.621	18874.74
751.96	18837.91
752.298	18819.15
752.636	18794.52
752.975	18699.38
753.313	18602.89
753.651	18759.04
753.989	18629.1
754.327	18647.18
754.666	18404.93
755.004	18538.26
755.342	18460.97
755.679	18460.29
756.017	18307.08
756.355	18329.9
756.693	18363.8
757.031	18305.04
757.368	18241.09
757.706	18161.32
758.044	18034.09
758.381	18133.52
758.719	18086.97
759.056	17985.05
759.394	17987.99
759.731	17869.57
760.068	17818.95
760.405	17686.53
760.743	17656.24
761.08	17636.36
761.417	17515.68
761.754	17585.51
762.091	17436.14
762.428	17414.22
762.765	17220.32
763.102	17355.69
763.438	17221
763.775	17179.65
764.112	17251.28
764.449	17217.84
764.785	17123.83
765.122	17081.12
765.458	16893.78
765.795	16787.79
766.131	16825.08
766.467	16831.86
766.804	16671.64
767.14	16638.19
767.476	16740.11
767.812	16553.22
768.148	16521.59
768.485	16437.52
768.821	16333.12
769.157	16318.43
769.492	16245.89
769.828	16201.82
770.164	16051.54
770.5	16055.61
770.836	16109.17
771.171	15915.05
771.507	15960.24
771.842	15884.31
772.178	15823.52
772.513	15871.88
772.849	15733.81
773.184	15674.38
773.519	15687.03
773.855	15633.02
774.19	15495.62
774.525	15512.12
774.86	15491.1
775.195	15465.34
775.53	15302.18
775.865	15292.92
776.2	15144.45
776.535	15057.9
776.87	15081.62
777.205	15020.38
777.539	14978.35
777.874	14998.91
778.209	14842.08
778.543	14822.2
778.878	14721.86
779.212	14771.8
779.547	14610
779.881	14742.88
780.215	14581.3
780.55	14539.72
780.884	14447.97
781.218	14484.12
781.552	14451.36
781.886	14400.96
782.22	14306.5
782.554	14170.46
782.888	14193.28
783.222	14124.13
783.556	14000.97
783.889	14022.89
784.223	13868.32
784.557	13894.54
784.89	13927.76
785.224	13868.55
785.557	13789.68
785.891	13803.24
786.224	13650.25
786.558	13680.3
786.891	13512.17
787.224	13515.34
787.557	13486.86
787.891	13449.8
788.224	13394.21
788.557	13433.76
788.89	13297.94
789.223	13393.53
789.556	13197.83
789.888	13230.15
790.221	13220.2
790.554	13118.96
790.887	13179.3
791.219	13016.59
791.552	12960.55
791.884	12977.05
792.217	12967.55
792.549	12823.38
792.882	12821.34
793.214	12733.89
793.546	12730.5
793.879	12622.48
794.211	12518.53
794.543	12622.7
794.875	12517.62
795.207	12543.84
795.539	12443.05
795.871	12372.77
796.203	12332.32
796.535	12249.38
796.867	12241.02
797.198	12237.86
797.53	12232.66
797.862	12126.45
798.193	12173
798.525	12019.33
798.856	12055.49
799.188	12011.65
799.519	11878.32
799.85	11881.03
800.182	11888.26
800.513	11899.33
800.844	11765.33
801.175	11848.26
801.506	11784.31
801.837	11788.83
802.168	11742.95
802.499	11714.03
802.83	11554.71
803.161	11554.26
803.491	11567.14
803.822	11490.98
804.153	11523.52
804.483	11432.91
804.814	11400.82
805.145	11348.16
805.475	11412.79
805.805	11282.4
806.136	11234.49
806.466	11261.61
806.796	11203.31
807.126	11130.09
807.457	11085.8
807.787	11194.04
808.117	11085.8
808.447	10996.98
808.777	11066.14
809.107	10932.13
809.436	10915.86
809.766	10968.06
810.096	10926.7
810.426	10916.53
810.755	10897.33
811.085	10911.79
811.414	10829.53
811.744	10768.52
812.073	10695.07
812.403	10730.55
812.732	10635.41
813.061	10722.87
813.39	10599.71
813.719	10580.72
814.049	10638.8
814.378	10560.16
814.707	10521.29
815.036	10462.76
815.365	10421.86
815.693	10352.93
816.022	10455.3
816.351	10317.91
816.68	10292.82
817.008	10373.5
817.337	10280.85
817.665	10216.89
817.994	10242.2
818.322	10237
818.651	10165.82
818.979	10150.68
819.307	10142.77
819.636	10149.78
819.964	10104.8
820.292	10131.47
820.62	10115.65
820.948	10058.93
821.276	10171.02
821.604	9989.1
821.932	10087.63
822.259	10117.46
822.587	10137.57
822.915	10102.09
823.243	10069.55
823.57	10008.31
823.898	10103.68
824.225	10047.63
824.553	10004.69
824.88	10008.31
825.207	10064.13
825.535	10017.35
825.862	10068.42
826.189	10022.1
826.516	10094.86
826.843	10057.8
827.17	10039.27
827.497	10084.69
827.824	10052.38
828.151	10058.25
828.478	10055.54
828.805	10065.26
829.131	9997.24
829.458	10011.25
829.785	9963.34
830.111	10024.13
830.438	9997.01
830.764	9973.51
831.09	9999.04
831.417	9943.45
831.743	9965.37
832.069	9942.32
832.395	9936.67
832.722	9973.06
833.048	9934.64
833.374	9950.46
833.7	9867.97
834.026	9899.61
834.351	9927.41
834.677	9907.75
835.003	9881.76
835.329	9934.64
835.654	9912.72
835.98	9860.29
836.306	9749.79
836.631	9784.14
836.956	9833.63
837.282	9779.84
837.607	9818.26
837.932	9764.02
838.258	9809.67
838.583	9743.68
838.908	9698.71
839.233	9745.49
839.558	9748.43
839.883	9570.36
840.208	9609.68
840.533	9701.65
840.858	9597.7
841.182	9587.76
841.507	9630.92
841.832	9589.79
842.156	9549.79
842.481	9498.95
842.805	9526.97
843.13	9515.89
843.454	9472.28
843.778	9449.45
844.103	9447.42
844.427	9409.23
844.751	9398.38
845.075	9407.65
845.399	9343.02
845.723	9306.41
846.047	9316.13
846.371	9170.37
846.695	9229.35
847.019	9141.44
847.343	9130.82
847.666	9047.21
847.99	9029.13
848.313	8992.07
848.637	9003.82
848.96	8940.99
849.284	8879.3
849.607	8832.3
849.931	8835.46
850.254	8777.61
850.577	8674.11
850.9	8741.68
851.223	8640.44
851.546	8631.4
851.869	8490.16
852.192	8623.94
852.515	8474.57
852.838	8466.43
853.161	8509.82
853.483	8500.55
853.806	8494.9
854.129	8460.55
854.451	8391.4
854.774	8359.09
855.096	8342.14
855.419	8344.17
855.741	8280.9
856.063	8233.44
856.385	8223.27
856.708	8210.62
857.03	8159.55
857.352	8188.7
857.674	8085.65
857.996	8107.12
858.318	8078.64
858.64	8096.27
858.961	8092.2
859.283	8025.31
859.605	7993.9
859.926	8015.82
860.248	8000
860.57	7961.13
860.891	7994.8
861.212	7960.91
861.534	7934.01
861.855	7872.55
862.176	7931.08
862.498	7896.05
862.819	7877.29
863.14	7826.45
863.461	7757.3
863.782	7773.11
864.103	7809.27
864.424	7837.29
864.745	7783.96
865.065	7724.53
865.386	7737.41
865.707	7710.29
866.027	7681.14
866.348	7676.17
866.668	7706.68
866.989	7660.8
867.309	7588.94
867.63	7674.13
867.95	7610.41
868.27	7572.89
868.59	7540.58
868.91	7545.32
869.23	7522.05
869.55	7482.28
869.87	7535.38
870.19	7545.78
870.51	7511.2
870.83	7470.75
871.15	7455.61
871.469	7439.79
871.789	7470.07
872.109	7480.69
872.428	7427.14
872.748	7414.03
873.067	7428.04
873.386	7395.72
873.706	7353.01
874.025	7321.83
874.344	7348.04
874.663	7325.89
874.982	7348.72
875.301	7308.04
875.62	7262.39
875.939	7304.2
876.258	7293.13
876.577	7263.98
876.896	7282.96
877.214	7235.73
877.533	7254.94
877.852	7215.16
878.17	7211.77
878.489	7216.97
878.807	7241.6
879.125	7185.11
879.444	7187.59
879.762	7154.6
880.08	7174.71
880.398	7139.46
880.716	7080.93
881.034	7121.61
881.352	7135.39
881.67	7072.34
881.988	7060.37
882.306	7052.68
882.624	7040.93
882.941	7048.16
883.259	6997.32
883.577	6956.41
883.894	6974.27
884.212	6889.75
884.529	6957.09
884.846	6916.41
885.164	6898.34
885.481	6878
885.798	6928.84
886.115	6873.48
886.432	6858.11
886.75	6814.5
887.067	6841.84
887.383	6843.87
887.7	6777.21
888.017	6808.17
888.334	6809.75
888.651	6712.58
888.967	6746.7
889.284	6675.52
889.6	6693.82
889.917	6633.48
890.233	6663.09
890.55	6614.95
890.866	6603.43
891.182	6618.57
891.498	6596.65
891.815	6601.85
892.131	6567.04
892.447	6523.66
892.763	6525.24
893.079	6518.68
893.395	6464
893.71	6495.63
894.026	6459.93
894.342	6449.31
894.657	6407.28
894.973	6375.64
895.289	6386.03
895.604	6353.27
895.92	6287.28
896.235	6311.23
896.55	6264.45
896.865	6249.99
897.181	6255.41
897.496	6253.61
897.811	6219.26
898.126	6168.19
898.441	6169.99
898.756	6194.85
899.071	6125.02
899.386	6146.49
899.7	6072.37
900.015	6060.84
900.33	6044.12
900.644	5990.11
900.959	6054.97
901.273	5976.55
901.588	5948.08
901.902	5955.76
902.216	5858.36
902.531	5893.84
902.845	5921.41
903.159	5894.29
903.473	5882.09
903.787	5832.37
904.101	5748.76
904.415	5798.7
904.729	5798.25
905.042	5706.5
905.356	5723.68
905.67	5727.74
905.984	5729.33
906.297	5667.63
906.611	5622.44
906.924	5628.76
907.237	5558.94
907.551	5583.57
907.864	5583.12
908.177	5524.59
908.491	5496.79
908.804	5442.33
909.117	5488.43
909.43	5452.5
909.743	5413.18
910.056	5358.26
910.368	5414.98
910.681	5343.12
910.994	5330.92
911.307	5282.78
911.619	5239.4
911.932	5240.75
912.244	5241.88
912.557	5244.14
912.869	5202.33
913.181	5181.77
913.494	5182.22
913.806	5083.02
914.118	5159.85
914.43	5080.98
914.742	5090.47
915.054	5052.06
915.366	5049.8
915.678	5022
915.99	4986.07
916.302	5028.55
916.613	4957.82
916.925	4963.92
917.236	4938.16
917.548	4885.28
917.859	4881.89
918.171	4881.89
918.482	4824.94
918.794	4844.38
919.105	4800.09
919.416	4838.5
919.727	4765.06
920.038	4704.49
920.349	4710.82
920.66	4712.18
920.971	4679.86
921.282	4715.79
921.593	4655
921.903	4607.55
922.214	4619.53
922.525	4614.33
922.835	4529.13
923.146	4546.31
923.456	4565.74
923.767	4518.74
924.077	4534.56
924.387	4498.17
924.697	4442.58
925.008	4418.17
925.318	4415.01
925.628	4432.86
925.938	4406.65
926.248	4351.96
926.558	4358.97
926.867	4352.19
927.177	4359.42
927.487	4300.44
927.796	4225.19
928.106	4260.66
928.416	4268.57
928.725	4243.49
929.034	4191.06
929.344	4174.79
929.653	4224.28
929.962	4184.73
930.271	4122.59
930.581	4126.43
930.89	4067.22
931.199	4065.19
931.508	4069.71
931.817	4065.64
932.125	4059.54
932.434	4038.52
932.743	3990.62
933.051	3933.22
933.36	3925.53
933.669	3961.69
933.977	3919.2
934.286	3897.06
934.594	3899.54
934.902	3821.13
935.21	3911.52
935.519	3834.24
935.827	3806.89
936.135	3823.84
936.443	3736.61
936.751	3783.84
937.059	3761.47
937.367	3798.53
937.674	3738.64
937.982	3753.11
938.29	3731.19
938.597	3734.35
938.905	3664.75
939.213	3646.44
939.52	3662.26
939.827	3672.43
940.135	3599.44
940.442	3634.24
940.749	3617.07
941.056	3585.88
941.363	3565.32
941.67	3520.35
941.977	3496.84
942.284	3518.31
942.591	3536.84
942.898	3483.74
943.205	3479.22
943.511	3428.6
943.818	3416.39
944.125	3390.18
944.431	3423.17
944.738	3437.41
945.044	3425.88
945.35	3386.79
945.657	3367.81
945.963	3331.65
946.269	3363.29
946.575	3294.36
946.881	3332.78
947.187	3297.53
947.493	3289.16
947.799	3261.82
948.105	3255.27
948.41	3239.22
948.716	3248.26
949.022	3210.75
949.327	3199.68
949.633	3152.9
949.938	3203.29
950.244	3154.93
950.549	3153.35
950.854	3139.79
951.16	3131.65
951.465	3105.67
951.77	3112.67
952.075	3083.52
952.38	3071.54
952.685	3063.63
952.99	3029.96
953.294	3023.86
953.599	3027.93
953.904	2991.32
954.209	2976.86
954.513	2995.16
954.818	2980.02
955.122	2952.9
955.426	2932.79
955.731	2951.09
956.035	2924.43
956.339	2850.08
956.643	2886.46
956.948	2867.71
957.252	2884.43
957.556	2864.77
957.86	2807.37
958.163	2819.12
958.467	2815.73
958.771	2801.95
959.075	2828.61
959.378	2778.44
959.682	2748.16
959.985	2753.13
960.289	2787.26
960.592	2737.32
960.896	2737.09
961.199	2721.95
961.502	2727.6
961.805	2686.92
962.108	2695.06
962.411	2704.55
962.714	2706.36
963.017	2635.85
963.32	2649.86
963.623	2643.76
963.926	2629.97
964.228	2633.14
964.531	2580.03
964.833	2588.17
965.136	2567.83
965.438	2561.73
965.741	2563.53
966.043	2533.03
966.345	2521.05
966.648	2514.27
966.95	2519.47
967.252	2510.65
967.554	2498.23
967.856	2528.05
968.158	2447.61
968.46	2461.84
968.761	2483.31
969.063	2417.55
969.365	2431.11
969.666	2403.99
969.968	2409.41
970.269	2381.62
970.571	2410.32
970.872	2399.47
971.174	2367.83
971.475	2392.01
971.776	2334.16
972.077	2364.9
972.378	2326.48
972.679	2330.77
972.98	2336.65
973.281	2284.67
973.582	2331.22
973.883	2279.7
974.183	2288.97
974.484	2273.82
974.785	2238.35
975.085	2265.01
975.386	2252.58
975.686	2226.14
975.986	2217.33
976.287	2199.02
976.587	2165.8
976.887	2166.48
977.187	2179.36
977.487	2161.28
977.787	2164.67
978.087	2178.23
978.387	2140.27
978.687	2145.24
978.987	2146.82
979.286	2119.48
979.586	2075.64
979.885	2075.19
980.185	2088.52
980.484	2077.67
980.784	2103.66
981.083	2052.81
981.382	2093.26
981.682	2060.95
981.981	2034.73
982.28	2032.02
982.579	2015.53
982.878	2043.55
983.177	2007.84
983.475	2034.51
983.774	2001.52
984.073	1985.47
984.372	1964.68
984.67	1955.87
984.969	1952.7
985.267	1942.53
985.566	1964.91
985.864	1943.89
986.162	1904.57
986.461	1918.81
986.759	1906.6
987.057	1925.58
987.355	1891.91
987.653	1901.86
987.951	1883.1
988.249	1895.3
988.547	1857.56
988.844	1862.76
989.142	1841.52
989.44	1811.69
989.737	1827.51
990.035	1821.41
990.332	1815.08
990.63	1813.5
990.927	1795.42
991.224	1764.01
991.521	1796.77
991.819	1797.45
992.116	1774.4
992.413	1765.14
992.71	1753.16
993.006	1741.41
993.303	1728.98
993.6	1682.43
993.897	1719.04
994.193	1709.09
994.49	1699.38
994.787	1696.44
995.083	1656.89
995.379	1686.27
995.676	1679.49
995.972	1689.66
996.268	1623.9
996.565	1674.29
996.861	1639.49
997.157	1658.7
997.453	1627.29
997.749	1620.28
998.044	1631.58
998.34	1618.25
998.636	1606.72
998.932	1577.35
999.227	1564.69
999.523	1566.05
999.818	1517.69
1000.114	1548.19
1000.409	1557.69
1000.704	1548.42
1001	1543.22
1001.295	1553.39
1001.59	1522.43
1001.885	1527.18
1002.18	1511.13
1002.475	1518.82
1002.77	1514.52
1003.065	1473.17
1003.359	1462.55
1003.654	1460.29
1003.949	1490.12
1004.243	1458.25
1004.538	1442.66
1004.832	1434.98
1005.127	1453.06
1005.421	1450.8
1005.715	1414.86
1006.009	1399.27
1006.304	1392.49
1006.598	1390.91
1006.892	1404.92
1007.186	1374.86
1007.48	1372.15
1007.773	1384.13
1008.067	1373.74
1008.361	1343.45
1008.655	1323.57
1008.948	1337.35
1009.242	1343.23
1009.535	1339.16
1009.829	1333.06
1010.122	1317.01
1010.415	1296
1010.708	1283.34
1011.001	1268.65
1011.295	1287.18
1011.588	1274.75
1011.881	1271.36
1012.173	1270.69
1012.466	1272.72
1012.759	1255.09
1013.052	1271.82
1013.344	1252.61
1013.637	1223.91
1013.93	1251.25
1014.222	1223
1014.514	1212.38
1014.807	1217.35
1015.099	1192.27
1015.391	1196.11
1015.683	1205.6
1015.976	1198.37
1016.268	1188.43
1016.56	1135.32
1016.851	1131.48
1017.143	1156.57
1017.435	1133.52
1017.727	1154.08
1018.018	1115.89
1018.31	1107.3
1018.602	1117.02
1018.893	1098.49
1019.185	1105.49
1019.476	1080.86
1019.767	1099.39
1020.058	1106.85
1020.35	1060.97
1020.641	1038.83
1020.932	1057.36
1021.223	1051.26
1021.514	1068.88
1021.804	1026.4
1022.095	1047.64
1022.386	1028.43
1022.677	1016.91
1022.967	1030.24
1023.258	1006.51
1023.548	1013.97
1023.839	1029.11
1024.129	1006.51
1024.419	1014.2
1024.709	984.82
1025	990.24
1025.29	987.3
1025.58	978.04
1025.87	953.18
1026.16	975.33
1026.449	943.69
1026.739	945.05
1027.029	952.28
1027.319	919.51
1027.608	929
1027.898	927.19
1028.187	910.47
1028.477	939.17
1028.766	905.5
1029.055	907.08
1029.344	913.63
1029.634	905.5
1029.923	901.88
1030.212	898.72
1030.501	873.64
1030.79	869.79
1031.078	863.24
1031.367	889.45
1031.656	870.7
1031.945	877.7
1032.233	864.6
1032.522	853.97
1032.81	844.26
1033.099	846.52
1033.387	833.41
1033.675	826.4
1033.963	813.3
1034.251	808.78
1034.54	818.04
1034.828	800.64
1035.116	840.64
1035.403	801.55
1035.691	797.48
1035.979	775.56
1036.267	777.14
1036.554	788.67
1036.842	799.29
1037.129	777.82
1037.417	776.69
1037.704	757.03
1037.992	771.04
1038.279	779.63
1038.566	755.22
1038.853	755.22
1039.14	755.22
