Data from foam_black_FLMS001491_00044.txt Node
Date: Wed Feb 08 10:43:56 GMT 2017
User: dcchb
Spectrometer: FLMS00149
Trigger mode: 0
Integration Time (sec): 2.000000E-2
Scans to average: 10
Electric dark correction enabled: true
Nonlinearity correction enabled: false
Boxcar width: 0
XAxis mode: Wavelengths
Number of Pixels in Spectrum: 2048
>>>>>Begin Spectral Data<<<<<
341.393	-19.93
341.776	-19.93
342.16	-19.93
342.543	-58.35
342.927	-62.41
343.31	-80.27
343.693	-67.84
344.077	-66.03
344.46	-61.51
344.843	-45.01
345.226	-30.78
345.61	-37.56
345.993	-14.28
346.376	-3.21
346.759	-0.04
347.142	33.4
347.525	50.8
347.908	60.75
348.291	64.36
348.674	89.9
349.057	107.3
349.44	108.88
349.823	148.65
350.206	162.44
350.588	189.11
350.971	204.02
351.354	211.25
351.737	221.65
352.119	226.62
352.502	263.68
352.884	255.32
353.267	270.68
353.65	271.36
354.032	307.52
354.414	286.28
354.797	290.8
355.179	303
355.562	324.02
355.944	305.49
356.326	319.95
356.709	332.6
357.091	316.33
357.473	327.41
357.855	340.74
358.238	335.54
358.62	339.16
359.002	347.52
359.384	331.25
359.766	348.65
360.148	331.93
360.53	323.79
360.912	331.02
361.294	329.44
361.676	315.43
362.057	363.11
362.439	317.69
362.821	311.36
363.203	317.01
363.584	328.76
363.966	314.53
364.348	328.08
364.729	317.24
365.111	327.41
365.493	321.98
365.874	294.64
366.256	321.08
366.637	311.36
367.019	296.67
367.4	307.07
367.781	328.08
368.163	325.6
368.544	316.33
368.925	307.75
369.306	321.98
369.688	303.68
370.069	337.58
370.45	325.6
370.831	315.66
371.212	300.74
371.593	295.32
371.974	305.03
372.355	333.28
372.736	310.46
373.117	333.06
373.498	305.49
373.879	302.32
374.26	313.85
374.641	321.53
375.021	315.88
375.402	326.73
375.783	324.24
376.163	336.9
376.544	324.69
376.925	330.8
377.305	345.49
377.686	331.02
378.066	318.37
378.447	344.13
378.827	336.45
379.208	342.55
379.588	341.19
379.968	330.12
380.349	341.64
380.729	335.54
381.109	346.16
381.489	358.59
381.87	339.84
382.25	341.42
382.63	367.86
383.01	340.74
383.39	373.51
383.77	370.12
384.15	368.99
384.53	368.31
384.91	357.46
385.29	349.78
385.67	361.3
386.049	387.52
386.429	373.73
386.809	378.48
387.189	386.16
387.568	387.29
387.948	387.74
388.328	367.18
388.707	397.46
389.087	379.16
389.466	389.55
389.846	398.14
390.225	379.61
390.605	395.88
390.984	408.53
391.363	400.17
391.743	394.3
392.122	388.42
392.501	376.44
392.881	408.08
393.26	406.5
393.639	410.34
394.018	396.78
394.397	403.56
394.776	407.4
395.155	398.37
395.534	431.36
395.913	387.07
396.292	432.49
396.671	431.36
397.05	396.33
397.429	430
397.808	436.1
398.186	425.26
398.565	426.84
398.944	433.17
399.323	436.78
399.701	451.47
400.08	427.07
400.458	468.65
400.837	415.77
401.215	437.01
401.594	427.29
401.972	444.92
402.351	441.75
402.729	458.7
403.107	446.05
403.486	445.6
403.864	452.83
404.242	468.87
404.62	469.55
404.999	469.32
405.377	488.53
405.755	481.3
406.133	496.22
406.511	491.92
406.889	495.99
407.267	511.58
407.645	492.15
408.023	489.89
408.401	508.42
408.779	500.74
409.156	505.93
409.534	514.07
409.912	504.35
410.29	519.72
410.667	519.72
411.045	520.62
411.422	514.29
411.8	513.39
412.178	508.64
412.555	553.16
412.933	533.5
413.31	539.15
413.687	543.22
414.065	565.14
414.442	574.41
414.819	579.38
415.197	564.01
415.574	580.96
415.951	561.75
416.328	568.98
416.705	590.9
417.082	599.49
417.46	582.54
417.837	595.2
418.214	580.51
418.591	593.39
418.967	606.5
419.344	617.12
419.721	636.55
420.098	614.4
420.475	630.9
420.852	618.47
421.228	627.29
421.605	615.99
421.982	629.32
422.358	615.76
422.735	644.23
423.111	640.17
423.488	651.69
423.864	656.66
424.241	660.05
424.617	674.06
424.994	662.77
425.37	684.69
425.746	660.96
426.123	684.69
426.499	674.06
426.875	690.33
427.251	678.58
427.627	702.54
428.003	695.98
428.379	717.68
428.756	736.21
429.132	734.63
429.507	728.07
429.883	755.42
430.259	765.81
430.635	754.29
431.011	774.63
431.387	787.96
431.763	796.77
432.138	781.86
432.514	788.41
432.89	780.05
433.265	807.17
433.641	818.92
434.016	815.53
434.392	843.78
434.767	837.45
435.143	832.7
435.518	851.01
435.894	847.17
436.269	865.92
436.644	856.43
437.02	860.95
437.395	875.41
437.77	883.78
438.145	908.86
438.52	913.15
438.895	891.91
439.271	931.91
439.646	942.08
440.021	923.1
440.395	923.55
440.77	932.59
441.145	941.63
441.52	944.79
441.895	954.96
442.27	973.94
442.645	980.04
443.019	996.32
443.394	978.69
443.769	960.61
444.143	966.71
444.518	982.53
444.892	989.08
445.267	1025.92
445.641	999.03
446.016	983.89
446.39	1018.91
446.764	1025.02
447.139	1032.47
447.513	1028.41
447.887	1031.12
448.262	1039.7
448.636	1041.74
449.01	1055.07
449.384	1049.2
449.758	1093.94
450.132	1085.13
450.506	1104.56
450.88	1094.39
451.254	1104.11
451.628	1107.27
452.002	1107.5
452.376	1120.38
452.75	1117.22
453.123	1130.1
453.497	1127.39
453.871	1142.98
454.244	1198.12
454.618	1176.42
454.992	1182.75
455.365	1196.31
455.739	1214.61
456.112	1242.41
456.486	1256.2
456.859	1241.96
457.232	1248.51
457.606	1250.77
457.979	1298.91
458.352	1292.58
458.725	1306.59
459.099	1315.86
459.472	1334.84
459.845	1334.39
460.218	1371.9
460.591	1358.79
460.964	1395.4
461.337	1390.43
461.71	1409.64
462.083	1434.27
462.456	1449.41
462.829	1460.26
463.201	1465.91
463.574	1514.27
463.947	1484.21
464.32	1528.73
464.692	1509.07
465.065	1529.41
465.438	1559.24
465.81	1583.42
466.183	1565.79
466.555	1604.44
466.928	1615.28
467.3	1588.62
467.672	1631.55
468.045	1669.97
468.417	1678.78
468.789	1673.36
469.161	1719.91
469.534	1754.71
469.906	1768.05
470.278	1773.24
470.65	1817.31
471.022	1840.59
471.394	1868.61
471.766	1898.66
472.138	1917.87
472.51	1930.08
472.882	1955.16
473.253	2002.39
473.625	1975.05
473.997	2027.02
474.369	2082.61
474.74	2039
475.112	2082.16
475.484	2122.84
475.855	2147.47
476.227	2161.93
476.598	2224.98
476.97	2196.06
477.341	2278.32
477.713	2305.66
478.084	2334.81
478.455	2405.54
478.827	2413.45
479.198	2451.87
479.569	2481.02
479.94	2492.77
480.311	2531.19
480.682	2617.52
481.053	2633.33
481.424	2683.05
481.795	2702.26
482.166	2740.45
482.537	2777.29
482.908	2829.71
483.279	2854.8
483.65	2911.29
484.021	2982.25
484.391	3009.6
484.762	2994.91
485.133	3049.82
485.503	3115.81
485.874	3138.41
486.244	3187.44
486.615	3197.16
486.985	3222.47
487.356	3293.66
487.726	3331.62
488.097	3374.33
488.467	3381.56
488.837	3450.49
489.207	3497.49
489.578	3542.24
489.948	3562.8
490.318	3618.62
490.688	3633.76
491.058	3668.34
491.428	3700.88
491.798	3753.98
492.168	3801.44
492.538	3824.94
492.908	3887.09
493.278	3914.43
493.648	3955.79
494.017	3932.96
494.387	3975.9
494.757	4037.59
495.126	4073.3
495.496	4070.59
495.866	4135.89
496.235	4192.16
496.605	4208.66
496.974	4254.54
497.344	4296.79
497.713	4333.85
498.082	4366.85
498.452	4389.67
498.821	4419.28
499.19	4405.27
499.559	4469.67
499.928	4489.11
500.298	4564.36
500.667	4540.4
501.036	4546.73
501.405	4631.93
501.774	4614.07
502.143	4616.79
502.512	4726.84
502.88	4692.94
503.249	4696.78
503.618	4745.14
503.987	4789.44
504.356	4839.38
504.724	4811.58
505.093	4898.36
505.462	4912.82
505.83	4906.27
506.199	4954.4
506.567	5001.41
506.936	4978.13
507.304	5061.29
507.672	5062.2
508.041	5057.9
508.409	5125.47
508.777	5190.78
509.145	5219.26
509.514	5250.89
509.882	5247.5
510.25	5275.07
510.618	5289.08
510.986	5326.37
511.354	5369.99
511.722	5513.94
512.09	5506.25
512.458	5503.09
512.826	5592.8
513.193	5594.61
513.561	5642.75
513.929	5696.08
514.297	5761.84
514.664	5773.59
515.032	5816.98
515.4	5850.2
515.767	5891.78
516.135	5926.13
516.502	5896.53
516.869	6013.81
517.237	6042.96
517.604	6040.02
517.972	6103.3
518.339	6123.19
518.706	6114.15
519.073	6200.47
519.44	6249.06
519.808	6289.51
520.175	6370.64
520.542	6328.83
520.909	6430.97
521.276	6396.17
521.643	6502.61
522.009	6548.94
522.376	6637.75
522.743	6639.33
523.11	6717.97
523.477	6759.1
523.843	6817.41
524.21	6848.14
524.577	6919.55
524.943	6968.14
525.31	6988.25
525.676	7088.58
526.043	7111.41
526.409	7145.53
526.776	7316.6
527.142	7226.21
527.508	7303.27
527.874	7369.93
528.241	7409.03
528.607	7452.87
528.973	7504.17
529.339	7607.44
529.705	7544.62
530.071	7664.61
530.437	7707.78
530.803	7743.48
531.169	7784.84
531.535	7776.48
531.901	7793.88
532.267	7935.34
532.632	7947.55
532.998	7926.08
533.364	7986.87
533.73	7970.6
534.095	8039.75
534.461	8139.18
534.826	8161.55
535.192	8175.34
535.557	8210.59
535.923	8260.76
536.288	8243.81
536.653	8294.65
537.019	8358.83
537.384	8332.17
537.749	8395.44
538.114	8462.33
538.479	8427.98
538.845	8576.68
539.21	8570.81
539.575	8641.76
539.94	8649.67
540.305	8681.54
540.67	8739.61
541.034	8801.08
541.399	8777.35
541.764	8833.4
542.129	8904.58
542.494	8914.3
542.858	8909.55
543.223	8967.18
543.587	9052.6
543.952	9037.91
544.316	9041.53
544.681	9080.17
545.045	9150.23
545.41	9187.96
545.774	9185.48
546.138	9186.83
546.503	9268.64
546.867	9270
547.231	9354.51
547.595	9381.18
547.959	9418.02
548.324	9418.24
548.688	9385.93
549.052	9381.63
549.416	9449.88
549.779	9478.13
550.143	9551.57
550.507	9662.3
550.871	9665.69
551.235	9644.9
551.599	9771.23
551.962	9755.86
552.326	9809.87
552.689	9873.37
553.053	9865.46
553.417	9915.4
553.78	10022.07
554.143	9955.63
554.507	10138
554.87	10060.94
555.234	10219.58
555.597	10078.56
555.96	10219.8
556.323	10208.73
556.686	10315.62
557.05	10401.49
557.413	10394.49
557.776	10439.68
558.139	10530.98
558.502	10562.62
558.865	10592
559.228	10674.93
559.59	10646.68
559.953	10737.3
560.316	10874.47
560.679	10749.28
561.041	10943.85
561.404	10895.94
561.767	10982.49
562.129	10889.16
562.492	11140
562.854	11097.74
563.217	11078.76
563.579	11215.93
563.941	11289.6
564.304	11311.98
564.666	11416.61
565.028	11475.59
565.39	11507.68
565.753	11577.51
566.115	11631.29
566.477	11708.35
566.839	11766.2
567.201	11828.8
567.563	11895.92
567.925	12003.71
568.287	11997.83
568.648	12082.13
569.01	12119.19
569.372	12211.16
569.734	12158.96
570.095	12292.29
570.457	12366.86
570.819	12415.22
571.18	12391.5
571.542	12478.5
571.903	12475.11
572.265	12549.46
572.626	12614.09
572.987	12568.67
573.349	12663.35
573.71	12788.1
574.071	12716.01
574.432	12818.83
574.794	12856.12
575.155	12865.38
575.516	12803.46
575.877	12918.94
576.238	12903.8
576.599	12915.55
576.96	13004.81
577.32	13049.78
577.681	13038.48
578.042	13091.82
578.403	13122.78
578.763	13134.3
579.124	13208.2
579.485	13147.86
579.845	13165.26
580.206	13131.36
580.566	13137.01
580.927	13182.66
581.287	13209.78
581.648	13221.98
582.008	13176.33
582.368	13232.83
582.728	13281.42
583.089	13275.54
583.449	13268.08
583.809	13258.14
584.169	13266.28
584.529	13268.54
584.889	13374.75
585.249	13283.9
585.609	13248.65
585.969	13343.79
586.329	13315.77
586.688	13414.52
587.048	13345.6
587.408	13337.91
587.768	13356.89
588.127	13403.67
588.487	13338.59
588.846	13464.01
589.206	13313.51
589.565	13424.92
589.925	13485.03
590.284	13487.74
590.643	13487.51
591.003	13567.96
591.362	13549.21
591.721	13526.38
592.08	13640.28
592.44	13654.97
592.799	13687.96
593.158	13635.08
593.517	13609.32
593.876	13712.14
594.235	13608.19
594.593	13583.1
594.952	13667.17
595.311	13617.45
595.67	13633.05
596.029	13759.6
596.387	13774.96
596.746	13702.42
597.104	13691.8
597.463	13681.63
597.822	13782.19
598.18	13732.03
598.538	13741.52
598.897	13839.59
599.255	13777.45
599.613	13871.46
599.972	13788.75
600.33	13846.15
600.688	13719.37
601.046	13860.84
601.404	13911.68
601.762	13901.96
602.12	13865.36
602.478	13916.65
602.836	13957.1
603.194	13831.01
603.552	13833.27
603.91	13798.92
604.268	13908.29
604.625	13878.91
604.983	13908.52
605.341	13850.44
605.698	13871.68
606.056	13964.11
606.413	14092.24
606.771	14002.98
607.128	14038.91
607.485	14017.22
607.843	14019.93
608.2	14008.4
608.557	14113.03
608.914	14093.15
609.272	14168.4
609.629	14148.96
609.986	14189.64
610.343	14197.78
610.7	14243.88
611.057	14215.86
611.414	14203.88
611.771	14191.45
612.127	14333.82
612.484	14379.92
612.841	14363.87
613.198	14331.56
613.554	14303.08
613.911	14420.6
614.267	14344.67
614.624	14326.81
614.98	14528.39
615.337	14492.01
615.693	14471.89
616.05	14519.35
616.406	14553.93
616.762	14468.5
617.118	14537.65
617.475	14557.77
617.831	14580.82
618.187	14623.08
618.543	14600.93
618.899	14655.62
619.255	14691.55
619.611	14712.11
619.967	14708.05
620.323	14785.56
620.678	14692.9
621.034	14631.66
621.39	14611.32
621.746	14733.13
622.101	14845.89
622.457	14700.59
622.812	14763.86
623.168	14715.28
623.523	14767.7
623.879	14794.82
624.234	14703.53
624.589	14800.02
624.945	14767.48
625.3	14797.31
625.655	14741.26
626.01	14723.41
626.365	14797.76
626.72	14778.78
627.075	14789.63
627.43	14783.07
627.785	14685
628.14	14816.97
628.495	14722.73
628.85	14719.34
629.205	14684.32
629.559	14769.06
629.914	14720.25
630.269	14745.33
630.623	14756.86
630.978	14583.75
631.332	14652.23
631.687	14610.65
632.041	14618.56
632.396	14669.85
632.75	14561.38
633.104	14575.39
633.459	14501.05
633.813	14583.53
634.167	14454.04
634.521	14499.24
634.875	14493.14
635.229	14494.94
635.583	14481.38
635.937	14503.53
636.291	14480.03
636.645	14341.5
636.999	14445.68
637.352	14404.55
637.706	14275.97
638.06	14398
638.413	14319.81
638.767	14309.41
639.121	14334.72
639.474	14294.27
639.828	14277.32
640.181	14369.07
640.534	14322.52
640.888	14272.58
641.241	14185.8
641.594	14191.9
641.947	14249.98
642.301	14256.08
642.654	14290.88
643.007	14288.4
643.36	14258.11
643.713	14221.28
644.066	14310.32
644.419	14125.69
644.771	13965.01
645.124	13963.66
645.477	13846.6
645.83	13797.11
646.182	13735.19
646.535	13688.41
646.888	13861.97
647.24	13720.27
647.593	13847.05
647.945	13827.62
648.298	13699.94
648.65	13583.78
649.002	13660.62
649.355	13708.3
649.707	13644.57
650.059	13610
650.411	13863.77
650.763	13796.88
651.115	13977.9
651.467	13908.97
651.819	13980.16
652.171	13841.18
652.523	13871.01
652.875	13851.12
653.227	13795.75
653.578	13865.36
653.93	13825.13
654.282	13712.37
654.633	13796.66
654.985	13702.87
655.337	13805.02
655.688	13772.93
656.039	13836.2
656.391	13692.25
656.742	13666.49
657.094	13666.49
657.445	13790.33
657.796	13616.55
658.147	13718.69
658.498	13543.78
658.849	13764.34
659.2	13653.16
659.551	13608.19
659.902	13702.2
660.253	13673.5
660.604	13687.28
660.955	13630.79
661.306	13780.39
661.656	13638.47
662.007	13633.95
662.358	13585.36
662.708	13641.18
663.059	13572.71
663.409	13609.54
663.76	13716.89
664.11	13735.64
664.461	13731.12
664.811	13708.07
665.161	13657.68
665.511	13569.32
665.862	13595.98
666.212	13661.97
666.562	13692.03
666.912	13620.16
667.262	13676.89
667.612	13637.11
667.962	13631.01
668.312	13590.33
668.662	13602.54
669.011	13637.57
669.361	13562.31
669.711	13580.84
670.06	13569.32
670.41	13574.97
670.76	13537.23
671.109	13576.55
671.459	13526.38
671.808	13520.96
672.157	13532.94
672.507	13543.1
672.856	13548.98
673.205	13527.06
673.554	13512.6
673.904	13471.24
674.253	13600.96
674.602	13514.18
674.951	13243.23
675.3	13157.58
675.649	13376.56
675.998	13482.54
676.346	13494.74
676.695	13363.67
677.044	13327.29
677.393	13349.44
677.741	13363.9
678.09	13294.75
678.438	13197.8
678.787	13304.69
679.135	13334.3
679.484	13245.03
679.832	13342.88
680.181	13275.77
680.529	13318.7
680.877	13254.98
681.225	13270.12
681.573	13266.73
681.922	13175.66
682.27	13111.93
682.618	13145.83
682.966	13121.19
683.314	13167.07
683.661	13066.73
684.009	13050.24
684.357	12904.48
684.705	12990.35
685.053	13043.23
685.4	12993.97
685.748	12925.49
686.095	12891.82
686.443	12931.82
686.79	12772.5
687.138	12860.64
687.485	12835.78
687.832	12887.75
688.18	12849.56
688.527	12672.62
688.874	12739.96
689.221	12677.82
689.568	12680.3
689.915	12677.36
690.262	12648.66
690.609	12659.06
690.956	12582.9
691.303	12511.49
691.65	12487.54
691.997	12429.69
692.344	12383.59
692.69	12314.21
693.037	12352.85
693.383	12273.53
693.73	12253.87
694.077	12257.71
694.423	12316.02
694.769	12194.21
695.116	12152.41
695.462	12048.68
695.808	12062.01
696.155	12052.75
696.501	11998.96
696.847	11919.42
697.193	11856.6
697.539	11965.29
697.885	11980.66
698.231	11843.94
698.577	11862.02
698.923	11877.16
699.269	11761.46
699.614	11740.44
699.96	11735.47
700.306	11765.07
700.651	11685.3
700.997	11640.33
701.342	11619.09
701.688	11673.32
702.033	11642.36
702.379	11660.44
702.724	11602.59
703.069	11622.7
703.415	11486.66
703.76	11505.19
704.105	11560.56
704.45	11501.12
704.795	11428.58
705.14	11428.36
705.485	11470.39
705.83	11438.53
706.175	11479.43
706.52	11377.51
706.865	11434.23
707.209	11322.37
707.554	11380.45
707.899	11365.31
708.243	11312.43
708.588	11281.47
708.932	11264.97
709.277	11236.27
709.621	11201.92
709.966	11209.61
710.31	11238.98
710.654	11087.12
710.998	11173
711.342	11120.12
711.687	11159.89
712.031	11076.05
712.375	10974.13
712.719	11027.92
713.063	11004.64
713.407	11061.59
713.75	10877.19
714.094	10956.96
714.438	10846.23
714.782	10857.98
715.125	10851.2
715.469	10841.25
715.812	10752.44
716.156	10709.51
716.499	10695.5
716.843	10681.26
717.186	10713.57
717.53	10681.71
717.873	10634.03
718.216	10604.65
718.559	10599.23
718.902	10469.51
719.246	10480.81
719.589	10422.73
719.932	10397.65
720.275	10382.74
720.617	10354.71
720.96	10345.9
721.303	10267.26
721.646	10280.37
721.989	10191.78
722.331	10239.69
722.674	10222.74
723.016	10295.96
723.359	10178.22
723.701	10217.09
724.044	10094.16
724.386	10017.32
724.729	10129.18
725.071	10105.45
725.413	10107.71
725.755	10044.21
726.097	9996.53
726.439	10002.63
726.782	10025.23
727.124	9968.51
727.465	9987.72
727.807	9963.76
728.149	9965.35
728.491	9987.94
728.833	9954.5
729.175	9897.1
729.516	9914.95
729.858	9842.18
730.199	9896.65
730.541	9865.01
730.882	9852.58
731.224	9915.18
731.565	9750.66
731.906	9802.41
732.248	9891.67
732.589	9833.15
732.93	9845.35
733.271	9825.01
733.612	9802.41
733.953	9842.86
734.294	9846.25
734.635	9785.24
734.976	9821.39
735.317	9768.97
735.658	9772.58
735.999	9829.76
736.339	9795.41
736.68	9744.11
737.021	9745.24
737.361	9783.2
737.702	9769.87
738.042	9727.16
738.383	9747.72
738.723	9712.47
739.063	9735.97
739.404	9717.89
739.744	9799.7
740.084	9672.02
740.424	9643.77
740.764	9594.28
741.104	9705.24
741.444	9622.3
741.784	9608.97
742.124	9554.73
742.464	9567.62
742.804	9619.37
743.143	9551.12
743.483	9497.11
743.823	9496.66
744.162	9519.93
744.502	9479.26
744.841	9471.57
745.181	9453.95
745.52	9461.63
745.86	9399.03
746.199	9339.15
746.538	9361.97
746.877	9397.45
747.216	9385.25
747.556	9331.69
747.895	9291.24
748.234	9297.79
748.573	9322.65
748.911	9310.45
749.25	9264.8
749.589	9195.42
749.928	9199.49
750.267	9214.4
750.605	9160.17
750.944	9177.34
751.283	9179.38
751.621	9159.72
751.96	9093.96
752.298	9123.79
752.636	9090.11
752.975	9030.91
753.313	8991.81
753.651	9085.59
753.989	8930.8
754.327	8969.67
754.666	8964.02
755.004	8860.97
755.342	8925.6
755.679	8834.98
756.017	8787.75
756.355	8857.58
756.693	8790.01
757.031	8819.16
757.368	8745.04
757.706	8801.99
758.044	8712.27
758.381	8774.19
758.719	8747.3
759.056	8716.34
759.394	8670.92
759.731	8641.76
760.068	8630.47
760.405	8538.04
760.743	8583.46
761.08	8593.4
761.417	8550.69
761.754	8556.34
762.091	8518.83
762.428	8394.77
762.765	8485.16
763.102	8463.01
763.438	8386.4
763.775	8383.47
764.112	8329.68
764.449	8398.83
764.785	8349.34
765.122	8309.8
765.458	8306.63
765.795	8280.42
766.131	8212.85
766.467	8213.75
766.804	8185.05
767.14	8134.88
767.476	8117.48
767.812	8065.96
768.148	8105.73
768.485	8074.55
768.821	8054.21
769.157	8029.8
769.492	7924.04
769.828	7966.98
770.164	7942.8
770.5	7899.41
770.836	7881.78
771.171	7841.33
771.507	7797.04
771.842	7734.44
772.178	7739.42
772.513	7793.43
772.849	7639.76
773.184	7639.53
773.519	7706.42
773.855	7640.43
774.19	7577.39
774.525	7553.21
774.86	7558.85
775.195	7498.07
775.53	7479.99
775.865	7428.24
776.2	7408.35
776.535	7387.56
776.87	7364.06
777.205	7348.24
777.539	7245.87
777.874	7250.39
778.209	7236.83
778.543	7191.63
778.878	7120.67
779.212	7099.21
779.547	7101.69
779.881	7164.29
780.215	7037.96
780.55	7034.12
780.884	6989.15
781.218	7047
781.552	7000.45
781.886	6916.16
782.22	6878.87
782.554	6855.37
782.888	6843.85
783.222	6776.95
783.556	6791.19
783.889	6820.12
784.223	6791.42
784.557	6763.4
784.89	6759.55
785.224	6719.78
785.557	6744.19
785.891	6680.69
786.224	6642.27
786.558	6642.95
786.891	6646.79
787.224	6569.73
787.557	6579.22
787.891	6566.11
788.224	6589.16
788.557	6532.89
788.89	6545.32
789.223	6521.82
789.556	6517.98
789.888	6480.92
790.221	6468.71
790.554	6396.17
790.887	6478.66
791.219	6421.48
791.552	6412.67
791.884	6400.24
792.217	6379.22
792.549	6365.44
792.882	6302.16
793.214	6246.12
793.546	6344.65
793.879	6270.75
794.211	6282.96
794.543	6275.5
794.875	6227.36
795.207	6292.67
795.539	6254.48
795.871	6267.36
796.203	6203.86
796.535	6166.35
796.867	6167.25
797.198	6119.12
797.53	6121.83
797.862	6104.66
798.193	6092.68
798.525	6021.04
798.856	6091.1
799.188	6045.9
799.519	6003.87
799.85	5978.11
800.182	5933.13
800.513	5930.65
800.844	5913.25
801.175	5987.6
801.506	5966.81
801.837	5845.45
802.168	5859.46
802.499	5866.47
802.83	5854.27
803.161	5824.89
803.491	5842.97
803.822	5804.78
804.153	5786.92
804.483	5767.04
804.814	5740.37
805.145	5698.34
805.475	5783.31
805.805	5712.12
806.136	5689.07
806.466	5694.27
806.796	5666.93
807.126	5644.78
807.457	5630.54
807.787	5595.52
808.117	5555.07
808.447	5583.99
808.777	5605.01
809.107	5551.22
809.436	5518.46
809.766	5565.24
810.096	5457.44
810.426	5460.61
810.755	5451.79
811.085	5450.66
811.414	5453.6
811.744	5411.57
812.073	5404.11
812.403	5353.26
812.732	5353.26
813.061	5376.09
813.39	5299.25
813.719	5248.86
814.049	5310.33
814.378	5292.25
814.707	5249.76
815.036	5250.67
815.365	5221.97
815.693	5144
816.022	5208.18
816.351	5173.61
816.68	5157.56
817.008	5166.6
817.337	5138.35
817.665	5128.64
817.994	5120.05
818.322	5135.42
818.651	5122.99
818.979	5056.77
819.307	5082.08
819.636	5013.39
819.964	5049.09
820.292	5047.73
820.62	5016.77
820.948	5014.74
821.276	5020.84
821.604	5031.69
821.932	4971.8
822.259	5005.7
822.587	5020.39
822.915	4964.12
823.243	4992.59
823.57	4972.26
823.898	4951.47
824.225	4915.31
824.553	4994.4
824.88	4980.84
825.207	4948.3
825.535	4944.91
825.862	4990.56
826.189	4954.18
826.516	4969.54
826.843	5010.9
827.17	5004.8
827.497	4991.24
827.824	4997.34
828.151	4961.86
828.478	4983.78
828.805	5039.6
829.131	5032.82
829.458	5005.93
829.785	4978.13
830.111	4970.9
830.438	5016.55
830.764	4955.76
831.09	4979.94
831.417	4968.19
831.743	4982.65
832.069	4989.88
832.395	4942.88
832.722	4980.62
833.048	4964.35
833.374	4993.05
833.7	4940.84
834.026	4973.16
834.351	5016.1
834.677	4969.54
835.003	4983.56
835.329	4915.31
835.654	4949.43
835.98	4982.88
836.306	4925.7
836.631	4930.22
836.956	4960.96
837.282	4994.4
837.607	4949.43
837.932	4942.65
838.258	4908.98
838.583	4954.63
838.908	4945.36
839.233	4921.18
839.558	4840.73
839.883	4901.98
840.208	4828.31
840.533	4881.86
840.858	4881.86
841.182	4878.02
841.507	4901.3
841.832	4813.39
842.156	4799.61
842.481	4839.38
842.805	4815.65
843.13	4843.67
843.454	4799.61
843.778	4812.94
844.103	4785.37
844.427	4815.88
844.751	4764.58
845.075	4776.78
845.399	4784.69
845.723	4748.31
846.047	4777.46
846.371	4737.23
846.695	4714.18
847.019	4668.08
847.343	4676.44
847.666	4636.45
847.99	4626.28
848.313	4607.07
848.637	4579.05
848.96	4588.31
849.284	4610.91
849.607	4603
849.931	4551.48
850.254	4501.53
850.577	4514.87
850.9	4478.26
851.223	4417.69
851.546	4443
851.869	4438.94
852.192	4473.74
852.515	4423.12
852.838	4424.02
853.161	4407.53
853.483	4366.62
853.806	4321.65
854.129	4376.57
854.451	4294.99
854.774	4299.73
855.096	4312.61
855.419	4287.75
855.741	4311.48
856.063	4250.47
856.385	4236.23
856.708	4253.63
857.03	4246.63
857.352	4233.74
857.674	4251.82
857.996	4222.9
858.318	4173.86
858.64	4180.41
858.961	4147.87
859.283	4186.74
859.605	4170.47
859.926	4203.01
860.248	4137.25
860.57	4132.05
860.891	4120.53
861.212	4093.86
861.534	4099.74
861.855	4106.52
862.176	4156.23
862.498	4113.07
862.819	4089.12
863.14	4098.38
863.461	4043.47
863.782	4080.08
864.103	4046.4
864.424	4027.87
864.745	4004.15
865.065	3984.49
865.386	3977.71
865.707	4017.71
866.027	4026.29
866.348	3988.55
866.668	3999.63
866.989	3949.46
867.309	3936.58
867.63	3956.24
867.95	3948.33
868.27	3944.94
868.59	3931.61
868.91	3955.33
869.23	3929.57
869.55	3900.87
869.87	3878.73
870.19	3901.55
870.51	3904.71
870.83	3884.83
871.15	3864.49
871.469	3858.39
871.789	3817.94
872.109	3849.57
872.428	3802.57
872.748	3831.5
873.067	3820.87
873.386	3824.26
873.706	3814.77
874.025	3785.39
874.344	3808.45
874.663	3812.51
874.982	3797.37
875.301	3770.71
875.62	3805.51
875.939	3716.92
876.258	3729.35
876.577	3704.49
876.896	3704.72
877.214	3722.12
877.533	3704.27
877.852	3739.97
878.17	3700.43
878.489	3672.18
878.807	3697.26
879.125	3670.14
879.444	3683.93
879.762	3627.21
880.08	3663.59
880.398	3619.98
880.716	3627.66
881.034	3642.8
881.352	3594.21
881.67	3639.86
881.988	3611.61
882.306	3565.51
882.624	3556.02
882.941	3545.85
883.259	3542.01
883.577	3524.84
883.894	3530.49
884.212	3549.47
884.529	3537.04
884.846	3482.13
885.164	3519.64
885.481	3482.58
885.798	3545.18
886.115	3494.78
886.432	3463.6
886.75	3488.45
887.067	3419.98
887.383	3484.16
887.7	3497.49
888.017	3471.28
888.334	3478.06
888.651	3435.12
888.967	3439.64
889.284	3442.58
889.6	3391.96
889.917	3372.52
890.233	3365.52
890.55	3389.02
890.866	3397.16
891.182	3394.67
891.498	3417.04
891.815	3359.64
892.131	3364.61
892.447	3343.6
892.763	3338.17
893.079	3321.68
893.395	3317.16
893.71	3308.35
894.026	3304.73
894.342	3300.66
894.657	3288.68
894.973	3275.35
895.289	3320.1
895.604	3284.62
895.92	3280.55
896.235	3303.83
896.55	3291.17
896.865	3246.43
897.181	3248.23
897.496	3256.37
897.811	3211.17
898.126	3231.51
898.441	3202.36
898.756	3228.57
899.071	3201.23
899.386	3172.76
899.7	3154.68
900.015	3174.79
900.33	3123.49
900.644	3124.62
900.959	3147.45
901.273	3132.98
901.588	3163.26
901.902	3114.23
902.216	3104.73
902.531	3142.25
902.845	3071.52
903.159	3080.33
903.473	3063.38
903.787	3094.11
904.101	3056.83
904.415	3071.74
904.729	3047.79
905.042	3054.57
905.356	3022.7
905.67	3063.83
905.984	3045.98
906.297	3017.28
906.611	2982.93
906.924	3023.15
907.237	2988.58
907.551	2980.22
907.864	2972.99
908.177	2947.9
908.491	2941.35
908.804	2933.21
909.117	2931.41
909.43	2949.03
909.743	2929.6
910.056	2895.93
910.368	2853.22
910.681	2883.72
910.994	2889.6
911.307	2850.96
911.619	2837.85
911.932	2850.73
912.244	2845.98
912.557	2862.71
912.869	2855.25
913.181	2859.32
913.494	2802.37
913.806	2776.38
914.118	2773.67
914.43	2771.64
914.742	2793.78
915.054	2772.99
915.366	2770.73
915.678	2747.68
915.99	2738.87
916.302	2711.52
916.613	2698.87
916.925	2691.41
917.236	2672.66
917.548	2687.8
917.859	2669.94
918.171	2633.79
918.482	2657.06
918.794	2647.8
919.105	2634.69
919.416	2606.67
919.727	2626.1
920.038	2586.56
920.349	2587.01
920.66	2542.26
920.971	2582.94
921.282	2554.69
921.593	2529.16
921.903	2537.29
922.214	2528.93
922.525	2506.78
922.835	2499.78
923.146	2493.68
923.456	2465.66
923.767	2490.06
924.077	2448.48
924.387	2479.44
924.697	2445.09
925.008	2432.66
925.318	2417.3
925.628	2433.11
925.938	2418.65
926.248	2392.21
926.558	2358.54
926.867	2365.55
927.177	2364.64
927.487	2342.04
927.796	2318.77
928.106	2324.87
928.416	2341.36
928.725	2272.21
929.034	2293.91
929.344	2330.29
929.653	2298.88
929.962	2250.97
930.271	2262.72
930.581	2222.72
930.89	2246
931.199	2194.7
931.508	2234.02
931.817	2189.05
932.125	2199.67
932.434	2201.93
932.743	2159.67
933.051	2146.34
933.36	2138.88
933.669	2134.59
933.977	2137.98
934.286	2116.96
934.594	2125.55
934.902	2096.85
935.21	2089.85
935.519	2104.99
935.827	2083.52
936.135	2080.35
936.443	2053.91
936.751	2019.11
937.059	2072.67
937.367	2053.24
937.674	2037.19
937.982	2011.2
938.29	1996.06
938.597	1994.26
938.905	1973.01
939.213	1975.27
939.52	1973.01
939.827	1967.59
940.135	1942.51
940.442	1935.27
940.749	1895.95
941.056	1935.27
941.363	1895.73
941.67	1920.13
941.977	1888.95
942.284	1888.72
942.591	1895.05
942.898	1875.84
943.205	1895.28
943.511	1866.12
943.818	1832.45
944.125	1838.1
944.431	1861.83
944.738	1812.57
945.044	1824.54
945.35	1806.24
945.657	1836.75
945.963	1796.75
946.269	1816.18
946.575	1794.03
946.881	1805.11
947.187	1816.41
947.493	1799.23
947.799	1761.04
948.105	1781.61
948.41	1740.02
948.716	1742.28
949.022	1740.48
949.327	1755.39
949.633	1735.73
949.938	1705.68
950.244	1737.09
950.549	1720.36
950.854	1696.64
951.16	1711.1
951.465	1667.48
951.77	1713.58
952.075	1684.21
952.38	1668.16
952.685	1650.54
952.99	1657.54
953.294	1641.04
953.599	1646.92
953.904	1633.81
954.209	1614.38
954.513	1660.03
954.818	1615.06
955.122	1628.62
955.426	1634.72
955.731	1609.63
956.035	1625.9
956.339	1596.75
956.643	1586.58
956.948	1581.84
957.252	1570.31
957.556	1548.62
957.86	1586.36
958.163	1554.94
958.467	1587.26
958.771	1552.01
959.075	1544.78
959.378	1556.53
959.682	1544.1
959.985	1522.86
960.289	1540.03
960.592	1551.56
960.896	1538.67
961.199	1519.69
961.502	1495.51
961.805	1517.66
962.108	1519.69
962.411	1500.71
962.714	1500.26
963.017	1499.81
963.32	1469.52
963.623	1492.8
963.926	1523.53
964.228	1457.77
964.531	1464.55
964.833	1493.03
965.136	1461.61
965.438	1455.51
965.741	1446.7
966.043	1459.58
966.345	1415.06
966.648	1451.67
966.95	1413.71
967.252	1429.07
967.554	1423.87
967.856	1426.13
968.158	1416.19
968.46	1411.45
968.761	1424.33
969.063	1395.63
969.365	1380.71
969.666	1395.4
969.968	1379.58
970.269	1375.74
970.571	1394.72
970.872	1397.21
971.174	1375.29
971.475	1373.48
971.776	1385.23
972.077	1372.35
972.378	1354.05
972.679	1351.79
972.98	1333.26
973.281	1358.79
973.582	1355.85
973.883	1329.87
974.183	1326.02
974.484	1341.84
974.785	1328.28
975.085	1331
975.386	1308.62
975.686	1297.55
975.986	1312.24
976.287	1292.8
976.587	1279.47
976.887	1287.83
977.187	1293.48
977.487	1283.31
977.787	1296.42
978.087	1265.69
978.387	1265.01
978.687	1276.76
978.987	1281.05
979.286	1262.52
979.586	1260.94
979.885	1256.87
980.185	1277.44
980.484	1229.3
980.784	1257.78
981.083	1240.38
981.382	1258.68
981.682	1226.37
981.981	1242.86
982.28	1195.18
982.579	1186.37
982.878	1211
983.177	1194.28
983.475	1225.01
983.774	1202.64
984.073	1178.23
984.372	1202.86
984.67	1150.66
984.969	1191.79
985.267	1160.61
985.566	1159.02
985.864	1166.93
986.162	1148.18
986.461	1156.99
986.759	1146.37
987.057	1149.08
987.355	1153.15
987.653	1145.92
987.951	1145.01
988.249	1142.07
988.547	1140.27
988.844	1105.47
989.142	1105.92
989.44	1093.26
989.737	1109.31
990.035	1052.59
990.332	1101.85
990.63	1119.93
990.927	1067.73
991.224	1065.47
991.521	1081.74
991.819	1067.5
992.116	1055.75
992.413	1093.49
992.71	1044.45
993.006	1062.98
993.303	1062.98
993.6	1027.5
993.897	1042.19
994.193	1035.64
994.49	1061.85
994.787	1039.03
995.083	1042.64
995.379	1040.38
995.676	1044.68
995.972	1019.82
996.268	1016.43
996.565	1013.04
996.861	1013.94
997.157	1013.26
997.453	1010.55
997.749	996.99
998.044	992.93
998.34	985.24
998.636	995.19
998.932	947.5
999.227	977.33
999.523	941.18
999.818	976.2
1000.114	970.78
1000.409	932.14
1000.704	978.46
1001	946.15
1001.295	944.79
1001.59	936.88
1001.885	955.41
1002.18	923.78
1002.475	933.72
1002.77	901.85
1003.065	902.31
1003.359	904.57
1003.654	907.28
1003.949	894.4
1004.243	911.57
1004.538	914.06
1004.832	883.32
1005.127	885.13
1005.421	891.69
1005.715	889.43
1006.009	863.66
1006.304	907.05
1006.598	848.75
1006.892	859.37
1007.186	848.52
1007.48	858.69
1007.773	835.42
1008.067	834.06
1008.361	834.74
1008.655	837.45
1008.948	848.97
1009.242	834.74
1009.535	832.48
1009.829	836.55
1010.122	810.56
1010.415	813.5
1010.708	816.21
1011.001	825.92
1011.295	818.47
1011.588	797.68
1011.881	798.58
1012.173	785.47
1012.466	820.28
1012.759	790.67
1013.052	794.29
1013.344	770.11
1013.637	771.01
1013.93	788.86
1014.222	773.5
1014.514	799.26
1014.807	764.46
1015.099	776.89
1015.391	749.54
1015.683	745.93
1015.976	762.2
1016.268	744.34
1016.56	709.54
1016.851	744.12
1017.143	746.83
1017.435	748.64
1017.727	723.33
1018.018	722.88
1018.31	718.13
1018.602	733.27
1018.893	707.06
1019.185	719.94
1019.476	700.5
1019.767	717.9
1020.058	721.75
1020.35	703.44
1020.641	692.82
1020.932	688.3
1021.223	675.87
1021.514	663.89
1021.804	688.53
1022.095	690.33
1022.386	665.25
1022.677	681.52
1022.967	667.96
1023.258	679.04
1023.548	648.53
1023.839	666.15
1024.129	660.51
1024.419	674.97
1024.709	644.46
1025	642.43
1025.29	644.23
1025.58	643.33
1025.87	640.84
1026.16	644.23
1026.449	628.87
1026.739	634.07
1027.029	629.09
1027.319	620.73
1027.608	629.77
1027.898	636.1
1028.187	610.11
1028.477	630.68
1028.766	615.31
1029.055	601.07
1029.344	627.74
1029.634	600.17
1029.923	607.63
1030.212	606.27
1030.501	603.56
1030.79	596.55
1031.078	604.91
1031.367	578.7
1031.656	594.97
1031.945	591.58
1032.233	591.13
1032.522	591.81
1032.81	575.08
1033.099	591.81
1033.387	580.73
1033.675	567.85
1033.963	561.75
1034.251	565.37
1034.54	558.59
1034.828	563.78
1035.116	579.15
1035.403	552.03
1035.691	551.81
1035.979	556.33
1036.267	533.28
1036.554	558.59
1036.842	542.32
1037.129	530.11
1037.417	545.71
1037.704	545.25
1037.992	529.21
1038.279	530.57
1038.566	553.16
1038.853	553.16
1039.14	553.16
