Data from foam_black_FLMS001491_00039.txt Node
Date: Wed Feb 08 10:43:49 GMT 2017
User: dcchb
Spectrometer: FLMS00149
Trigger mode: 0
Integration Time (sec): 2.000000E-2
Scans to average: 10
Electric dark correction enabled: true
Nonlinearity correction enabled: false
Boxcar width: 0
XAxis mode: Wavelengths
Number of Pixels in Spectrum: 2048
>>>>>Begin Spectral Data<<<<<
341.393	-19.51
341.776	-19.51
342.16	-19.51
342.543	-59.05
342.927	-52.5
343.31	-62.67
343.693	-95.21
344.077	-81.42
344.46	-75.77
344.843	-43.23
345.226	-41.2
345.61	-41.88
345.993	-27.87
346.376	-3.91
346.759	28.63
347.142	21.4
347.525	57.33
347.908	62.3
348.291	77.89
348.674	113.82
349.057	111.79
349.44	115.86
349.823	147.95
350.206	165.8
350.588	166.7
350.971	190.21
351.354	203.77
351.737	226.36
352.119	224.78
352.502	246.02
352.884	248.74
353.267	251.45
353.65	277.66
354.032	270.43
354.414	279.02
354.797	302.75
355.179	284.44
355.562	303.42
355.944	314.95
356.326	310.88
356.709	316.53
357.091	288.96
357.473	320.37
357.855	323.76
358.238	304.55
358.62	327.15
359.002	309.53
359.384	320.82
359.766	317.89
360.148	302.97
360.53	329.41
360.912	319.02
361.294	321.28
361.676	313.82
362.057	316.53
362.439	303.42
362.821	330.99
363.203	293.71
363.584	314.72
363.966	293.03
364.348	299.81
364.729	292.35
365.111	304.33
365.493	300.49
365.874	288.96
366.256	283.54
366.637	294.16
367.019	293.48
367.4	276.53
367.781	298.45
368.163	300.94
368.544	283.31
368.925	294.38
369.306	310.43
369.688	301.84
370.069	303.65
370.45	290.54
370.831	285.57
371.212	290.77
371.593	281.96
371.974	301.16
372.355	292.58
372.736	297.32
373.117	300.49
373.498	284.44
373.879	286.48
374.26	295.97
374.641	291.67
375.021	314.27
375.402	283.99
375.783	304.55
376.163	297.32
376.544	285.57
376.925	288.96
377.305	314.27
377.686	317.44
378.066	306.14
378.447	299.13
378.827	325.57
379.208	298
379.588	323.99
379.968	306.14
380.349	312.24
380.729	299.81
381.109	323.31
381.489	320.37
381.87	297.1
382.25	338.23
382.63	306.59
383.01	302.07
383.39	317.21
383.77	320.37
384.15	314.95
384.53	337.55
384.91	325.8
385.29	307.72
385.67	310.43
386.049	336.19
386.429	332.35
386.809	338.45
387.189	325.12
387.568	324.67
387.948	322.41
388.328	322.86
388.707	334.84
389.087	311.79
389.466	322.86
389.846	350.88
390.225	324.21
390.605	336.42
390.984	329.41
391.363	332.8
391.743	332.12
392.122	333.93
392.501	346.13
392.881	329.64
393.26	355.85
393.639	331.9
394.018	328.73
394.397	343.2
394.776	356.98
395.155	353.14
395.534	352.91
395.913	337.32
396.292	376.42
396.671	360.37
397.05	366.47
397.429	342.52
397.808	368.06
398.186	366.02
398.565	343.42
398.944	370.77
399.323	354.27
399.701	354.04
400.08	361.05
400.458	335.97
400.837	352.46
401.215	365.12
401.594	334.38
401.972	368.28
402.351	367.6
402.729	381.61
403.107	372.8
403.486	365.34
403.864	378.22
404.242	363.31
404.62	378.68
404.999	374.16
405.377	387.26
405.755	392.01
406.133	399.69
406.511	383.42
406.889	360.37
407.267	415.06
407.645	385.23
408.023	383.65
408.401	378.22
408.779	422.52
409.156	399.01
409.534	373.93
409.912	398.11
410.29	387.04
410.667	385
411.045	394.95
411.422	400.14
411.8	410.54
412.178	418.45
412.555	405.12
412.933	418.45
413.31	437.21
413.687	420.48
414.065	424.33
414.442	432.01
414.819	411.22
415.197	437.21
415.574	458
415.951	416.42
416.328	429.3
416.705	438.34
417.082	451.44
417.46	428.62
417.837	443.31
418.214	424.55
418.591	449.18
418.967	446.02
419.344	436.3
419.721	448.96
420.098	462.74
420.475	445.79
420.852	453.02
421.228	455.06
421.605	455.96
421.982	467.49
422.358	448.96
422.735	459.58
423.111	452.35
423.488	467.26
423.864	465
424.241	483.53
424.617	477.2
424.994	471.78
425.37	485.79
425.746	506.58
426.123	503.19
426.499	469.52
426.875	484.44
427.251	513.59
427.627	501.39
428.003	503.87
428.379	491.89
428.756	522.63
429.132	513.14
429.507	483.31
429.883	521.95
430.259	521.27
430.635	505.68
431.011	499.58
431.387	525.57
431.763	536.86
432.138	523.53
432.514	530.76
432.89	542.06
433.265	548.84
433.641	557.43
434.016	532.12
434.392	561.27
434.767	570.54
435.143	561.95
435.518	560.59
435.894	568.05
436.269	574.6
436.644	574.15
437.02	586.35
437.395	569.41
437.77	575.06
438.145	587.03
438.52	558.33
438.895	610.08
439.271	604.66
439.646	625
440.021	614.38
440.395	614.38
440.77	615.96
441.145	585.68
441.52	634.71
441.895	605.79
442.27	627.03
442.645	625.45
443.019	637.88
443.394	613.92
443.769	639.01
444.143	651.21
444.518	660.93
444.892	622.51
445.267	660.25
445.641	651.21
446.016	638.78
446.39	652.57
446.764	645.34
447.139	653.92
447.513	674.04
447.887	688.27
448.262	656.18
448.636	654.83
449.01	652.34
449.384	680.59
449.758	670.87
450.132	681.95
450.506	682.4
450.88	672.91
451.254	684.43
451.628	674.94
452.002	670.42
452.376	703.19
452.75	710.19
453.123	706.35
453.497	709.29
453.871	722.62
454.244	719.23
454.618	705.22
454.992	712.45
455.365	725.79
455.739	761.49
456.112	752.23
456.486	744.54
456.859	745.22
457.232	791.77
457.606	764.88
457.979	780.02
458.352	775.5
458.725	798.78
459.099	794.03
459.472	814.37
459.845	806.24
460.218	803.98
460.591	820.25
460.964	826.35
461.337	814.82
461.71	846.46
462.083	841.49
462.456	860.02
462.829	844.88
463.201	861.83
463.574	844.65
463.947	861.38
464.32	879.23
464.692	907.48
465.065	884.65
465.438	902.5
465.81	919.91
466.183	937.08
466.555	933.92
466.928	948.83
467.3	942.96
467.672	922.62
468.045	949.06
468.417	957.87
468.789	970.53
469.161	975.27
469.534	992.67
469.906	989.51
470.278	1007.36
470.65	1026.57
471.022	1037.19
471.394	1031.54
471.766	1057.75
472.138	1055.72
472.51	1041.71
472.882	1048.72
473.253	1100.01
473.625	1092.33
473.997	1125.78
474.369	1112.44
474.74	1100.01
475.112	1138.2
475.484	1161.71
475.855	1158.09
476.227	1181.37
476.598	1217.3
476.97	1211.42
477.341	1267.47
477.713	1248.48
478.084	1273.34
478.455	1290.97
478.827	1292.32
479.198	1301.14
479.569	1315.15
479.94	1349.72
480.311	1358.31
480.682	1393.34
481.053	1404.86
481.424	1416.16
481.795	1422.04
482.166	1439.44
482.537	1447.12
482.908	1491.64
483.279	1462.04
483.65	1521.92
484.021	1548.82
484.391	1561.02
484.762	1575.26
485.133	1565.76
485.503	1589.94
485.874	1624.07
486.244	1664.74
486.615	1649.38
486.985	1669.72
487.356	1716.95
487.726	1720.11
488.097	1774.57
488.467	1723.73
488.837	1771.41
489.207	1786.32
489.578	1828.36
489.948	1840.33
490.318	1859.32
490.688	1870.16
491.058	1902.93
491.428	1871.74
491.798	1881.91
492.168	1913.55
492.538	1928.24
492.908	1963.49
493.278	1994
493.648	1982.93
494.017	2009.14
494.387	2026.77
494.757	2039.65
495.126	2048.92
495.496	2095.24
495.866	2078.97
496.235	2103.15
496.605	2124.85
496.974	2116.48
497.344	2151.96
497.713	2132.3
498.082	2133.66
498.452	2215.01
498.821	2215.92
499.19	2169.82
499.559	2197.84
499.928	2219.76
500.298	2235.35
500.667	2241.9
501.036	2292.3
501.405	2255.92
501.774	2234.67
502.143	2292.52
502.512	2290.94
502.88	2314.44
503.249	2324.16
503.618	2355.12
503.987	2349.02
504.356	2364.84
504.724	2377.72
505.093	2364.39
505.462	2391.96
505.83	2415.23
506.199	2407.78
506.567	2461.33
506.936	2485.97
507.304	2446.19
507.672	2474.21
508.041	2554.89
508.409	2509.47
508.777	2535.46
509.145	2546.76
509.514	2550.82
509.882	2587.21
510.25	2598.73
510.618	2593.76
510.986	2608.67
511.354	2634.21
511.722	2653.19
512.09	2709.91
512.458	2693.42
512.826	2711.95
513.193	2716.02
513.561	2749.91
513.929	2737.71
514.297	2745.85
514.664	2780.42
515.032	2825.17
515.4	2852.51
515.767	2806.64
516.135	2808.44
516.502	2836.24
516.869	2855.9
517.237	2862.9
517.604	2896.12
517.972	2925.5
518.339	2933.41
518.706	2931.15
519.073	2987.87
519.44	2990.13
519.808	3020.87
520.175	3040.53
520.542	3071.26
520.909	3091.6
521.276	3098.6
521.643	3107.87
522.009	3127.76
522.376	3151.26
522.743	3153.29
523.11	3198.49
523.477	3247.53
523.843	3229.45
524.21	3238.04
524.577	3301.76
524.943	3308.09
525.31	3330.92
525.676	3348.09
526.043	3362.33
526.409	3399.84
526.776	3431.25
527.142	3366.39
527.508	3464.25
527.874	3466.05
528.241	3450.69
528.607	3459.73
528.973	3513.51
529.339	3513.96
529.705	3543.11
530.071	3526.84
530.437	3640.06
530.803	3587.18
531.169	3617.46
531.535	3618.59
531.901	3621.08
532.267	3671.25
532.632	3682.32
532.998	3695.43
533.364	3758.02
533.73	3745.82
534.095	3771.81
534.461	3800.51
534.826	3825.14
535.192	3803.9
535.557	3818.13
535.923	3830.56
536.288	3881.86
536.653	3888.87
537.019	3926.83
537.384	3918.24
537.749	3937.9
538.114	3907.62
538.479	3920.05
538.845	3980.39
539.21	3968.64
539.575	3961.41
539.94	3988.3
540.305	3997.34
540.67	4025.36
541.034	4023.78
541.399	4064.23
541.764	4048.64
542.129	4017.68
542.494	4095.87
542.858	4071.23
543.223	4158.24
543.587	4137.45
543.952	4143.78
544.316	4161.18
544.681	4202.3
545.045	4259.48
545.41	4195.98
545.774	4190.55
546.138	4227.61
546.503	4260.38
546.867	4259.03
547.231	4279.36
547.595	4327.5
547.959	4281.4
548.324	4325.69
548.688	4332.92
549.052	4339.7
549.416	4371.57
549.779	4377.67
550.143	4343.32
550.507	4376.09
550.871	4451.11
551.235	4460.6
551.599	4456.08
551.962	4494.73
552.326	4506.48
552.689	4498.34
553.053	4506.7
553.417	4553.26
553.78	4575.4
554.143	4492.47
554.507	4544.44
554.87	4555.74
555.234	4602.29
555.597	4604.1
555.96	4614.05
556.323	4688.17
556.686	4645
557.05	4683.87
557.413	4723.42
557.776	4772.01
558.139	4691.11
558.502	4781.05
558.865	4788.5
559.228	4846.81
559.59	4819.92
559.953	4849.07
560.316	4900.59
560.679	4940.36
561.041	4889.29
561.404	4934.94
561.767	5063.3
562.129	4981.04
562.492	5040.7
562.854	5050.64
563.217	5040.02
563.579	5034.6
563.941	5125.44
564.304	5107.37
564.666	5165.9
565.028	5173.58
565.39	5194.6
565.753	5252.9
566.115	5271.43
566.477	5261.71
566.839	5258.1
567.201	5293.8
567.563	5329.28
567.925	5353.69
568.287	5336.96
568.648	5362.95
569.01	5379.9
569.372	5409.28
569.734	5445.89
570.095	5404.31
570.457	5499.67
570.819	5522.72
571.18	5513.91
571.542	5564.08
571.903	5559.56
572.265	5510.52
572.626	5564.98
572.987	5578.99
573.349	5614.92
573.71	5667.58
574.071	5613.79
574.432	5647.24
574.794	5673.45
575.155	5676.62
575.516	5682.94
575.877	5681.14
576.238	5709.16
576.599	5740.34
576.96	5711.64
577.32	5741.93
577.681	5833
578.042	5799.32
578.403	5815.14
578.763	5841.36
579.124	5762.49
579.485	5864.63
579.845	5878.19
580.206	5880.45
580.566	5852.66
580.927	5913.22
581.287	5896.05
581.648	5890.17
582.008	5901.02
582.368	5896.72
582.728	5890.62
583.089	5908.25
583.449	5927.23
583.809	5882.03
584.169	5934.91
584.529	5934.91
584.889	6017.85
585.249	5965.42
585.609	5919.55
585.969	5969.72
586.329	5910.06
586.688	5941.92
587.048	5910.73
587.408	5950.96
587.768	5951.86
588.127	5943.95
588.487	5946.44
588.846	5991.64
589.206	5904.86
589.565	5944.86
589.925	5946.21
590.284	5905.76
590.643	5896.05
591.003	5945.76
591.362	5969.04
591.721	5978.76
592.08	5944.41
592.44	5938.98
592.799	5926.55
593.158	5938.3
593.517	5927.23
593.876	5933.78
594.235	5982.6
594.593	5936.5
594.952	5953.22
595.311	5953.67
595.67	5909.6
596.029	6003.39
596.387	5990.51
596.746	5964.74
597.104	5973.11
597.463	5972.2
597.822	5995.25
598.18	6008.13
598.538	6034.8
598.897	5986.44
599.255	5976.04
599.613	6103.95
599.972	6070.5
600.33	6005.65
600.688	6097.4
601.046	6062.14
601.404	6117.96
601.762	6069.15
602.12	6105.31
602.478	6112.31
602.836	6070.05
603.194	6101.69
603.552	6088.81
603.91	6074.12
604.268	6027.34
604.625	6065.08
604.983	6107.11
605.341	6092.88
605.698	6143.95
606.056	6096.04
606.413	6127.23
606.771	6122.71
607.128	6131.97
607.485	6102.14
607.843	6075.02
608.2	6132.65
608.557	6139.43
608.914	6155.7
609.272	6162.48
609.629	6132.2
609.986	6225.75
610.343	6172.42
610.7	6169.94
611.057	6174.91
611.414	6197.51
611.771	6221.01
612.127	6255.58
612.484	6234.79
612.841	6216.04
613.198	6179.88
613.554	6259.65
613.911	6323.83
614.267	6303.72
614.624	6284.28
614.98	6320.22
615.337	6348.69
615.693	6332.87
616.05	6385.3
616.406	6403.38
616.762	6370.84
617.118	6421.68
617.475	6423.49
617.831	6464.17
618.187	6374.23
618.543	6411.51
618.899	6444.96
619.255	6438.63
619.611	6400.89
619.967	6438.18
620.323	6467.1
620.678	6428.01
621.034	6447.22
621.39	6431.62
621.746	6374.9
622.101	6434.34
622.457	6379.87
622.812	6402.25
623.168	6399.31
623.523	6395.24
623.879	6434.79
624.234	6313.66
624.589	6388.69
624.945	6306.2
625.3	6308.46
625.655	6355.92
626.01	6312.31
626.365	6346.43
626.72	6308.01
627.075	6289.03
627.43	6248.8
627.785	6309.59
628.14	6263.49
628.495	6201.12
628.85	6210.61
629.205	6237.05
629.559	6250.61
629.914	6263.72
630.269	6225.3
630.623	6264.17
630.978	6247.9
631.332	6290.16
631.687	6258.07
632.041	6339.65
632.396	6311.18
632.75	6292.19
633.104	6282.25
633.459	6298.07
633.813	6271.85
634.167	6285.64
634.521	6365.19
634.875	6341.46
635.229	6339.42
635.583	6296.26
635.937	6350.5
636.291	6369.03
636.645	6327.22
636.999	6303.04
637.352	6312.98
637.706	6293.1
638.06	6308.69
638.413	6282.48
638.767	6263.49
639.121	6294.45
639.474	6257.39
639.828	6300.1
640.181	6231.63
640.534	6266.43
640.888	6214.23
641.241	6232.31
641.594	6206.09
641.947	6242.93
642.301	6235.25
642.654	6216.49
643.007	6199.77
643.36	6186.43
643.713	6160.9
644.066	6158.86
644.419	6045.42
644.771	6062.82
645.124	5913.67
645.477	5895.82
645.83	5919.32
646.182	5935.59
646.535	5902.15
646.888	5881.36
647.24	5897.63
647.593	5919.55
647.945	5902.83
648.298	5872.09
648.65	5873.9
649.002	5841.58
649.355	5842.49
649.707	5816.27
650.059	5870.06
650.411	5908.25
650.763	5903.05
651.115	6035.7
651.467	6040.22
651.819	6012.88
652.171	6027.57
652.523	5955.25
652.875	5910.73
653.227	5968.36
653.578	5998.42
653.93	6045.42
654.282	6001.35
654.633	5960.22
654.985	5956.61
655.337	5993.9
655.688	5945.08
656.039	6033.22
656.391	5955.25
656.742	5967.23
657.094	5950.06
657.445	5959.55
657.796	5963.84
658.147	5958.19
658.498	5930.39
658.849	5952.32
659.2	5910.06
659.551	5919.1
659.902	5899.66
660.253	5915.48
660.604	5876.16
660.955	5859.89
661.306	5882.71
661.656	5847.23
662.007	5858.98
662.358	5848.36
662.708	5841.13
663.059	5819.44
663.409	5804.07
663.76	5782.83
664.11	5798.2
664.461	5769.04
664.811	5844.07
665.161	5838.42
665.511	5783.28
665.862	5774.47
666.212	5827.12
666.562	5806.78
666.912	5770.63
667.262	5745.09
667.612	5774.69
667.962	5842.71
668.312	5778.08
668.662	5819.21
669.011	5812.66
669.361	5777.63
669.711	5807.91
670.06	5854.46
670.41	5780.57
670.76	5780.57
671.109	5844.07
671.459	5832.32
671.808	5860.79
672.157	5836.16
672.507	5837.06
672.856	5821.02
673.205	5850.17
673.554	5865.76
673.904	5841.81
674.253	5869.83
674.602	5801.81
674.951	5751.64
675.3	5727.01
675.649	5840.68
675.998	5835.93
676.346	5858.31
676.695	5876.39
677.044	5784.86
677.393	5852.66
677.741	5883.62
678.09	5777.4
678.438	5839.78
678.787	5828.7
679.135	5814.92
679.484	5752.55
679.832	5813.11
680.181	5780.57
680.529	5790.29
680.877	5716.62
681.225	5720
681.573	5730.63
681.922	5697.86
682.27	5677.07
682.618	5623.28
682.966	5646.11
683.314	5623.06
683.661	5545.09
684.009	5559.56
684.357	5477.53
684.705	5518.2
685.053	5575.83
685.4	5532.21
685.748	5465.55
686.095	5473.23
686.443	5441.14
686.79	5469.39
687.138	5489.73
687.485	5440.24
687.832	5429.62
688.18	5466.9
688.527	5396.85
688.874	5383.52
689.221	5374.93
689.568	5367.92
689.915	5346.91
690.262	5392.33
690.609	5356.62
690.956	5354.36
691.303	5320.24
691.65	5316.85
691.997	5325.67
692.344	5346.23
692.69	5303.52
693.037	5303.97
693.383	5254.48
693.73	5301.26
694.077	5306.91
694.423	5272.11
694.769	5278.43
695.116	5296.74
695.462	5226.23
695.808	5209.74
696.155	5211.32
696.501	5230.3
696.847	5260.81
697.193	5219
697.539	5228.04
697.885	5171.77
698.231	5183.3
698.577	5216.52
698.923	5195.72
699.269	5123.18
699.614	5124.77
699.96	5136.97
700.306	5119.79
700.651	5146.23
700.997	5144.43
701.342	5025.11
701.688	5082.73
702.033	5055.84
702.379	5036.63
702.724	5014.94
703.069	5036.63
703.415	4963.64
703.76	4922.51
704.105	4961.83
704.45	4919.35
704.795	4953.25
705.14	4922.06
705.485	4904.43
705.83	4876.41
706.175	4852.68
706.52	4866.02
706.865	4829.86
707.209	4866.47
707.554	4762.97
707.899	4803.42
708.243	4791.67
708.588	4815.17
708.932	4723.87
709.277	4789.86
709.621	4677.55
709.966	4758.67
710.31	4706.02
710.654	4726.13
710.998	4686.81
711.342	4726.58
711.687	4704.44
712.031	4624.21
712.375	4682.97
712.719	4621.5
713.063	4677.09
713.407	4668.06
713.75	4673.7
714.094	4653.14
714.438	4625.57
714.782	4600.03
715.125	4619.24
715.469	4612.24
715.812	4600.94
716.156	4555.29
716.499	4645.46
716.843	4549.19
717.186	4589.19
717.53	4594.38
717.873	4597.77
718.216	4588.28
718.559	4537.44
718.902	4509.19
719.246	4579.92
719.589	4582.41
719.932	4560.71
720.275	4512.81
720.617	4531.56
720.96	4501.28
721.303	4535.4
721.646	4482.3
721.989	4517.1
722.331	4410.89
722.674	4510.77
723.016	4486.59
723.359	4511.68
723.701	4473.48
724.044	4452.69
724.386	4445.46
724.729	4447.5
725.071	4389.19
725.413	4424.22
725.755	4370.66
726.097	4381.96
726.439	4360.72
726.782	4391.68
727.124	4400.72
727.465	4337.22
727.807	4371.79
728.149	4328.86
728.491	4334.73
728.833	4321.4
729.175	4336.76
729.516	4288.86
729.858	4309.87
730.199	4310.1
730.541	4295.86
730.882	4287.05
731.224	4255.18
731.565	4258.57
731.906	4285.01
732.248	4260.61
732.589	4235.3
732.93	4166.83
733.271	4215.19
733.612	4221.51
733.953	4201.85
734.294	4224.9
734.635	4156.2
734.976	4208.86
735.317	4142.87
735.658	4133.83
735.999	4227.16
736.339	4156.66
736.68	4198.24
737.021	4142.19
737.361	4161.18
737.702	4159.59
738.042	4102.87
738.383	4139.03
738.723	4120.95
739.063	4118.24
739.404	4155.75
739.744	4118.92
740.084	4110.56
740.424	4080.73
740.764	4102.42
741.104	4134.06
741.444	4095.64
741.784	4096.09
742.124	4074.85
742.464	4119.6
742.804	4079.82
743.143	4085.7
743.483	4048.18
743.823	4039.15
744.162	4057.68
744.502	4065.59
744.841	4059.26
745.181	4066.26
745.52	4063.33
745.86	4050.22
746.199	4022.87
746.538	4085.47
746.877	4001.86
747.216	4044.57
747.556	4046.15
747.895	4030.78
748.234	4021.07
748.573	4004.57
748.911	4011.35
749.25	4016.32
749.589	3997.34
749.928	4014.06
750.267	3957.57
750.605	3989.65
750.944	4005.93
751.283	3944.46
751.621	3966.6
751.96	3986.72
752.298	3975.87
752.636	3970.22
752.975	3912.37
753.313	3912.37
753.651	3910.11
753.989	3912.82
754.327	3892.03
754.666	3873.05
755.004	3904.23
755.342	3886.61
755.679	3918.7
756.017	3870.34
756.355	3890.67
756.693	3835.31
757.031	3893.39
757.368	3827.4
757.706	3818.36
758.044	3782.2
758.381	3807.96
758.719	3808.42
759.056	3767.74
759.394	3794.63
759.731	3752.6
760.068	3764.12
760.405	3749.89
760.743	3725.03
761.08	3713.05
761.417	3712.15
761.754	3711.7
762.091	3680.06
762.428	3729.32
762.765	3697.23
763.102	3662.43
763.438	3671.02
763.775	3625.82
764.112	3664.01
764.449	3641.64
764.785	3593.73
765.122	3656.33
765.458	3577.46
765.795	3537.69
766.131	3583.79
766.467	3547.63
766.804	3544.24
767.14	3539.72
767.476	3549.44
767.812	3513.74
768.148	3553.51
768.485	3504.24
768.821	3484.13
769.157	3445.26
769.492	3437.81
769.828	3445.49
770.164	3450.46
770.5	3426.96
770.836	3417.92
771.171	3426.05
771.507	3427.18
771.842	3387.64
772.178	3372.72
772.513	3398.03
772.849	3353.29
773.184	3371.82
773.519	3314.19
773.855	3334.3
774.19	3311.48
774.525	3279.39
774.86	3294.98
775.195	3286.62
775.53	3269.9
775.865	3248.88
776.2	3262.67
776.535	3220.64
776.87	3196.91
777.205	3231.03
777.539	3211.14
777.874	3233.06
778.209	3153.07
778.543	3169.79
778.878	3155.1
779.212	3172.05
779.547	3154.42
779.881	3161.88
780.215	3136.8
780.55	3123.24
780.884	3115.78
781.218	3093.41
781.552	3084.14
781.886	3079.85
782.22	3065.84
782.554	3084.82
782.888	3051.37
783.222	3028.32
783.556	3068.55
783.889	3020.19
784.223	3003.92
784.557	3049.11
784.89	3017.93
785.224	2998.04
785.557	2982
785.891	3006.4
786.224	2972.05
786.558	3000.3
786.891	2944.26
787.224	2951.94
787.557	2995.33
787.891	2927.54
788.224	2924.82
788.557	2937.48
788.89	2894.32
789.223	2915.56
789.556	2899.97
789.888	2894.77
790.221	2863.81
790.554	2832.62
790.887	2835.79
791.219	2880.98
791.552	2831.27
791.884	2850.7
792.217	2833.53
792.549	2842.57
792.882	2788.1
793.214	2818.39
793.546	2791.72
793.879	2770.03
794.211	2772.74
794.543	2777.71
794.875	2757.15
795.207	2767.09
795.539	2765.28
795.871	2732.29
796.203	2747.43
796.535	2720.31
796.867	2730.93
797.198	2702.91
797.53	2688.22
797.862	2678.95
798.193	2671.95
798.525	2646.41
798.856	2679.41
799.188	2684.83
799.519	2609.35
799.85	2639.63
800.182	2646.19
800.513	2620.43
800.844	2584.72
801.175	2629.24
801.506	2579.52
801.837	2598.96
802.168	2573.42
802.499	2563.03
802.83	2561.22
803.161	2534.33
803.491	2563.03
803.822	2532.29
804.153	2558.28
804.483	2510.15
804.814	2505.4
805.145	2505.4
805.475	2520.09
805.805	2508.79
806.136	2499.07
806.466	2473.99
806.796	2527.09
807.126	2471.95
807.457	2462.69
807.787	2499.3
808.117	2489.36
808.447	2469.92
808.777	2456.81
809.107	2467.21
809.436	2456.36
809.766	2446.42
810.096	2429.7
810.426	2432.41
810.755	2420.43
811.085	2438.51
811.414	2419.53
811.744	2390.15
812.073	2410.71
812.403	2434.44
812.732	2387.89
813.061	2395.8
813.39	2397.83
813.719	2419.98
814.049	2372.75
814.378	2381.11
814.707	2411.39
815.036	2337.95
815.365	2385.4
815.693	2352.18
816.022	2372.07
816.351	2383.82
816.68	2354.44
817.008	2358.96
817.337	2342.69
817.665	2339.08
817.994	2351.51
818.322	2328
818.651	2326.65
818.979	2312.86
819.307	2313.99
819.636	2308.34
819.964	2288.46
820.292	2337.27
820.62	2320.55
820.948	2306.08
821.276	2316.03
821.604	2276.71
821.932	2305.18
822.259	2296.14
822.587	2298.63
822.915	2278.97
823.243	2262.92
823.57	2302.24
823.898	2279.87
824.225	2286.2
824.553	2275.35
824.88	2264.5
825.207	2252.07
825.535	2259.31
825.862	2274.67
826.189	2267.44
826.516	2306.08
826.843	2292.3
827.17	2254.11
827.497	2273.77
827.824	2269.02
828.151	2282.58
828.478	2262.24
828.805	2261.34
829.131	2272.64
829.458	2241
829.785	2206.88
830.111	2226.99
830.438	2245.29
830.764	2254.56
831.09	2239.19
831.417	2268.34
831.743	2220.89
832.069	2238.29
832.395	2198.29
832.722	2226.76
833.048	2190.15
833.374	2214.79
833.7	2226.76
834.026	2217.05
834.351	2206.88
834.677	2186.99
835.003	2195.13
835.329	2226.09
835.654	2229.02
835.98	2240.55
836.306	2212.07
836.631	2198.97
836.956	2164.84
837.282	2194
837.607	2182.02
837.932	2187.44
838.258	2199.42
838.583	2175.47
838.908	2229.48
839.233	2189.48
839.558	2197.61
839.883	2191.74
840.208	2166.65
840.533	2190.15
840.858	2201.23
841.182	2186.54
841.507	2219.53
841.832	2219.76
842.156	2202.81
842.481	2181.11
842.805	2196.26
843.13	2163.04
843.454	2200.32
843.778	2179.76
844.103	2168.91
844.427	2182.7
844.751	2173.88
845.075	2170.04
845.399	2183.6
845.723	2160.32
846.047	2132.08
846.371	2177.27
846.695	2175.92
847.019	2125.52
847.343	2123.26
847.666	2130.95
847.99	2113.09
848.313	2135.24
848.637	2105.86
848.96	2107.67
849.284	2118.07
849.607	2081
849.931	2076.94
850.254	2070.61
850.577	2055.92
850.9	2066.77
851.223	2050.27
851.546	2050.72
851.869	2050.72
852.192	2059.08
852.515	2025.41
852.838	2020.89
853.161	2026.77
853.483	2037.62
853.806	2008.46
854.129	1995.36
854.451	2027.45
854.774	1961.91
855.096	1964.62
855.419	1979.09
855.741	1947.45
856.063	1960.33
856.385	1955.81
856.708	1952.65
857.03	1968.01
857.352	1937.28
857.674	1917.17
857.996	1949.71
858.318	1881.69
858.64	1898.64
858.961	1906.32
859.283	1918.52
859.605	1848.24
859.926	1874.46
860.248	1873.78
860.57	1872.2
860.891	1851.63
861.212	1857.96
861.534	1850.73
861.855	1814.34
862.176	1835.59
862.498	1842.82
862.819	1832.42
863.14	1825.42
863.461	1789.71
863.782	1826.77
864.103	1804.85
864.424	1809.83
864.745	1766.66
865.065	1784.29
865.386	1808.02
865.707	1761.01
866.027	1771.41
866.348	1782.03
866.668	1785.65
866.989	1761.69
867.309	1772.76
867.63	1758.75
867.95	1767.11
868.27	1751.52
868.59	1742.26
868.91	1735.03
869.23	1730.51
869.55	1722.37
869.87	1751.52
870.19	1724.63
870.51	1732.77
870.83	1729.6
871.15	1709.26
871.469	1704.29
871.789	1726.21
872.109	1717.4
872.428	1713.56
872.748	1729.15
873.067	1725.08
873.386	1728.25
873.706	1703.84
874.025	1757.17
874.344	1724.63
874.663	1726.44
874.982	1686.89
875.301	1716.27
875.62	1736.38
875.939	1704.97
876.258	1719.66
876.577	1707.68
876.896	1738.19
877.214	1712.65
877.533	1715.82
877.852	1708.36
878.17	1709.49
878.489	1718.08
878.807	1712.88
879.125	1717.62
879.444	1688.02
879.762	1724.18
880.08	1722.14
880.398	1689.38
880.716	1709.04
881.034	1714.01
881.352	1691.41
881.67	1726.21
881.988	1701.58
882.306	1696.16
882.624	1703.16
882.941	1685.53
883.259	1693.9
883.577	1667.23
883.894	1679.43
884.212	1660
884.529	1679.66
884.846	1681.92
885.164	1700
885.481	1690.96
885.798	1671.98
886.115	1666.55
886.432	1677.63
886.75	1660.68
887.067	1652.99
887.383	1680.56
887.7	1666.33
888.017	1658.87
888.334	1692.99
888.651	1665.65
888.967	1635.59
889.284	1653.67
889.6	1656.61
889.917	1629.27
890.233	1642.6
890.55	1623.84
890.866	1600.34
891.182	1610.96
891.498	1612.54
891.815	1594.46
892.131	1588.14
892.447	1601.02
892.763	1577.97
893.079	1554.92
893.395	1580.45
893.71	1587.46
894.026	1582.94
894.342	1556.05
894.657	1549.27
894.973	1587.46
895.289	1572.77
895.604	1537.97
895.92	1547.46
896.235	1549.95
896.55	1564.41
896.865	1530.96
897.181	1516.73
897.496	1518.08
897.811	1522.38
898.126	1506.56
898.441	1511.08
898.756	1494.35
899.071	1514.47
899.386	1472.43
899.7	1450.29
900.015	1465.65
900.33	1463.39
900.644	1479.44
900.959	1473.11
901.273	1452.32
901.588	1455.71
901.902	1449.16
902.216	1433.79
902.531	1428.37
902.845	1425.88
903.159	1430.85
903.473	1424.98
903.787	1419.1
904.101	1420.46
904.415	1399.21
904.729	1393.57
905.042	1419.1
905.356	1375.26
905.67	1398.08
905.984	1391.98
906.297	1391.08
906.611	1364.41
906.924	1368.25
907.237	1368.71
907.551	1342.72
907.864	1362.61
908.177	1379.33
908.491	1359.89
908.804	1367.35
909.117	1352.89
909.43	1328.26
909.743	1369.38
910.056	1346.79
910.368	1338.2
910.681	1353.34
910.994	1284.64
911.307	1308.14
911.619	1329.61
911.932	1312.66
912.244	1314.47
912.557	1293.68
912.869	1308.6
913.181	1328.48
913.494	1293.91
913.806	1290.29
914.118	1287.58
914.43	1282.38
914.742	1300.69
915.054	1300.69
915.366	1271.99
915.678	1303.4
915.99	1296.62
916.302	1249.39
916.613	1282.16
916.925	1257.3
917.236	1245.32
917.548	1225.66
917.859	1262.27
918.171	1246
918.482	1226.11
918.794	1239.9
919.105	1259.78
919.416	1231.54
919.727	1230.86
920.038	1243.96
920.349	1229.73
920.66	1200.35
920.971	1231.08
921.282	1201.25
921.593	1207.36
921.903	1215.94
922.214	1202.38
922.525	1210.07
922.835	1216.39
923.146	1202.38
923.456	1210.52
923.767	1189.28
924.077	1199.22
924.387	1178.43
924.697	1155.83
925.008	1192.21
925.318	1185.21
925.628	1168.26
925.938	1166.9
926.248	1141.37
926.558	1135.49
926.867	1156.28
927.177	1119.67
927.487	1133.01
927.796	1121.71
928.106	1143.18
928.416	1128.49
928.725	1143.85
929.034	1112.22
929.344	1134.59
929.653	1106.11
929.962	1104.76
930.271	1074.93
930.581	1089.84
930.89	1084.42
931.199	1101.6
931.508	1110.18
931.817	1094.59
932.125	1075.38
932.434	1071.54
932.743	1052.78
933.051	1045.55
933.36	1084.19
933.669	1055.27
933.977	1059.56
934.286	1047.13
934.594	1055.72
934.902	1046.91
935.21	1037.87
935.519	1010.3
935.827	1019.11
936.135	1054.36
936.443	1017.76
936.751	980.24
937.059	1036.51
937.367	1035.16
937.674	1014.37
937.982	1033.35
938.29	1013.01
938.597	1021.37
938.905	984.99
939.213	987.93
939.52	984.76
939.827	1011.2
940.135	965.55
940.442	987.02
940.749	951.09
941.056	962.84
941.363	1000.36
941.67	958.32
941.977	959.9
942.284	980.69
942.591	944.99
942.898	946.8
943.205	957.19
943.511	959.68
943.818	949.06
944.125	943.18
944.431	923.75
944.738	933.01
945.044	930.75
945.35	936.85
945.657	938.44
945.963	937.31
946.269	926.23
946.575	935.27
946.881	913.8
947.187	906.35
947.493	900.02
947.799	909.51
948.105	917.87
948.41	901.83
948.716	912
949.022	891.21
949.327	902.96
949.633	866.57
949.938	875.16
950.244	869.96
950.549	892.79
950.854	884.2
951.16	867.7
951.465	883.52
951.77	890.75
952.075	855.73
952.38	877.42
952.685	855.95
952.99	878.55
953.294	900.47
953.599	850.3
953.904	849.4
954.209	860.7
954.513	855.05
954.818	850.53
955.122	832.68
955.426	854.6
955.731	839
956.035	862.73
956.339	849.62
956.643	843.3
956.948	833.58
957.252	867.03
957.556	849.85
957.86	836.29
958.163	849.62
958.467	845.1
958.771	827.03
959.075	829.29
959.378	829.06
959.682	830.64
959.985	845.78
960.289	814.37
960.592	806.69
960.896	813.69
961.199	818.44
961.502	828.38
961.805	822.73
962.108	821.83
962.411	814.37
962.714	808.04
963.017	782.06
963.32	794.03
963.623	807.14
963.926	794.94
964.228	788.16
964.531	792
964.833	781.38
965.136	794.48
965.438	756.52
965.741	763.07
966.043	773.69
966.345	786.12
966.648	763.75
966.95	787.25
967.252	753.58
967.554	778.89
967.856	738.22
968.158	772.56
968.46	750.42
968.761	762.85
969.063	746.8
969.365	759.23
969.666	763.07
969.968	751.77
970.269	742.73
970.571	731.66
970.872	745.9
971.174	737.99
971.475	732.34
971.776	721.49
972.077	728.05
972.378	723.07
972.679	716.52
972.98	742.06
973.281	732.57
973.582	721.49
973.883	738.67
974.183	715.84
974.484	706.35
974.785	711.55
975.085	697.09
975.386	683.3
975.686	716.52
975.986	689.63
976.287	701.83
976.587	678.56
976.887	705.45
977.187	684.66
977.487	678.1
977.787	700.48
978.087	695.96
978.387	660.48
978.687	674.04
978.987	672.45
979.286	662.28
979.586	664.54
979.885	687.59
980.185	680.36
980.484	672.91
980.784	673.13
981.083	674.26
981.382	643.3
981.682	657.99
981.981	668.61
982.28	655.05
982.579	656.64
982.878	635.62
983.177	635.62
983.475	669.52
983.774	647.37
984.073	683.53
984.372	659.12
984.67	665.9
984.969	651.89
985.267	625
985.566	637.43
985.864	642.4
986.162	640.14
986.461	640.36
986.759	624.32
987.057	630.42
987.355	620.7
987.653	608.73
987.951	634.04
988.249	628.16
988.547	618.67
988.844	620.7
989.142	608.95
989.44	597.2
989.737	616.64
990.035	604.21
990.332	616.64
990.63	619.35
990.927	598.11
991.224	605.34
991.521	617.54
991.819	612.34
992.116	613.02
992.413	600.82
992.71	593.81
993.006	565.79
993.303	593.59
993.6	570.31
993.897	581.61
994.193	592
994.49	573.25
994.787	574.38
995.083	580.93
995.379	584.77
995.676	570.76
995.972	572.57
996.268	579.58
996.565	572.57
996.861	580.48
997.157	582.74
997.453	556.3
997.749	564.66
998.044	552.91
998.34	572.57
998.636	560.14
998.932	566.02
999.227	588.16
999.523	550.42
999.818	571.44
1000.114	560.59
1000.409	570.54
1000.704	546.36
1001	558.56
1001.295	566.47
1001.59	568.5
1001.885	558.56
1002.18	570.54
1002.475	549.97
1002.77	566.24
1003.065	558.33
1003.359	553.59
1003.654	542.51
1003.949	528.96
1004.243	549.29
1004.538	539.35
1004.832	552.91
1005.127	524.44
1005.421	551.55
1005.715	528.28
1006.009	532.8
1006.304	529.86
1006.598	498.22
1006.892	518.79
1007.186	533.25
1007.48	526.92
1007.773	508.62
1008.067	516.75
1008.361	527.6
1008.655	501.39
1008.948	516.3
1009.242	533.47
1009.535	508.16
1009.829	514.04
1010.122	496.19
1010.415	495.51
1010.708	501.61
1011.001	502.29
1011.295	505
1011.588	490.54
1011.881	497.77
1012.173	503.42
1012.466	480.82
1012.759	505.45
1013.052	493.02
1013.344	485.57
1013.637	503.42
1013.93	498.9
1014.222	512.46
1014.514	496.19
1014.807	517.43
1015.099	489.18
1015.391	509.52
1015.683	488.73
1015.976	513.59
1016.268	475.62
1016.56	489.86
1016.851	470.2
1017.143	480.82
1017.435	485.34
1017.727	470.2
1018.018	481.27
1018.31	460.71
1018.602	474.04
1018.893	467.71
1019.185	472.46
1019.476	475.17
1019.767	483.98
1020.058	451.44
1020.35	471.1
1020.641	470.43
1020.932	453.93
1021.223	461.16
1021.514	489.86
1021.804	466.36
1022.095	467.71
1022.386	456.64
1022.677	446.25
1022.967	469.07
1023.258	453.48
1023.548	447.38
1023.839	453.48
1024.129	448.96
1024.419	451.67
1024.709	436.08
1025	472.69
1025.29	444.89
1025.58	434.04
1025.87	444.21
1026.16	439.47
1026.449	432.46
1026.739	437.66
1027.029	435.4
1027.319	442.86
1027.608	441.73
1027.898	442.63
1028.187	437.43
1028.477	425.68
1028.766	424.33
1029.055	434.27
1029.344	416.42
1029.634	425
1029.923	422.07
1030.212	433.36
1030.501	435.4
1030.79	433.36
1031.078	427.94
1031.367	421.16
1031.656	446.25
1031.945	424.33
1032.233	413.25
1032.522	410.99
1032.81	419.35
1033.099	429.75
1033.387	401.95
1033.675	421.84
1033.963	407.83
1034.251	420.03
1034.54	419.58
1034.828	395.4
1035.116	416.19
1035.403	431.33
1035.691	407.15
1035.979	432.46
1036.267	410.09
1036.554	382.29
1036.842	427.26
1037.129	396.98
1037.417	402.86
1037.704	408.96
1037.992	388.62
1038.279	399.69
1038.566	403.08
1038.853	403.08
1039.14	403.08
