Data from foam2_polystyrene_foam_FLMS001491_00055.txt Node
Date: Wed Feb 08 10:58:10 GMT 2017
User: dcchb
Spectrometer: FLMS00149
Trigger mode: 0
Integration Time (sec): 2.000000E-2
Scans to average: 10
Electric dark correction enabled: true
Nonlinearity correction enabled: false
Boxcar width: 0
XAxis mode: Wavelengths
Number of Pixels in Spectrum: 2048
>>>>>Begin Spectral Data<<<<<
341.393	-26.12
341.776	-26.12
342.16	-26.12
342.543	-69.05
342.927	-77.87
343.31	-76.28
343.693	-50.3
344.077	-47.81
344.46	-55.04
344.843	-41.48
345.226	-54.36
345.61	-38.09
345.993	-35.15
346.376	-2.39
346.759	17.27
347.142	24.73
347.525	47.33
347.908	49.82
348.291	67.44
348.674	81
349.057	113.32
349.44	122.36
349.823	130.72
350.206	180.43
350.588	207.1
350.971	212.52
351.354	226.31
351.737	238.74
352.119	250.71
352.502	270.15
352.884	278.51
353.267	276.93
353.65	284.61
354.032	283.26
354.414	296.59
354.797	316.93
355.179	319.41
355.562	333.42
355.944	333.65
356.326	323.71
356.709	320.32
357.091	330.71
357.473	351.5
357.855	352.41
358.238	358.06
358.62	346.53
359.002	351.05
359.384	328.68
359.766	330.26
360.148	364.84
360.53	360.54
360.912	354.89
361.294	352.18
361.676	356.25
362.057	358.06
362.439	338.4
362.821	352.41
363.203	340.65
363.584	345.85
363.966	340.2
364.348	354.89
364.729	345.17
365.111	319.19
365.493	328
365.874	327.1
366.256	343.59
366.637	336.59
367.019	318.28
367.4	333.2
367.781	332.75
368.163	342.69
368.544	332.07
368.925	333.88
369.306	342.01
369.688	329.58
370.069	332.52
370.45	348.56
370.831	334.33
371.212	361.45
371.593	329.81
371.974	346.08
372.355	338.62
372.736	352.41
373.117	313.99
373.498	353.76
373.879	338.85
374.26	355.34
374.641	345.4
375.021	325.51
375.402	369.58
375.783	365.29
376.163	356.47
376.544	371.61
376.925	371.39
377.305	365.51
377.686	368.22
378.066	394.89
378.447	363.03
378.827	379.07
379.208	383.59
379.588	383.82
379.968	386.3
380.349	375.23
380.729	382.24
381.109	402.35
381.489	394.66
381.87	386.3
382.25	395.57
382.63	410.26
383.01	403.93
383.39	414.78
383.77	403.03
384.15	390.6
384.53	412.97
384.91	418.39
385.29	421.1
385.67	400.99
386.049	448.22
386.429	438.51
386.809	412.97
387.189	437.15
387.568	409.58
387.948	445.28
388.328	429.92
388.707	432.4
389.087	449.13
389.466	447.77
389.846	451.61
390.225	458.84
390.605	468.34
390.984	456.36
391.363	475.11
391.743	482.57
392.122	483.25
392.501	492.06
392.881	490.93
393.26	485.96
393.639	500.65
394.018	500.65
394.397	508.56
394.776	503.81
395.155	486.19
395.534	508.33
395.913	513.08
396.292	510.59
396.671	529.35
397.05	530.03
397.429	510.59
397.808	510.14
398.186	531.84
398.565	512.4
398.944	524.6
399.323	537.71
399.701	564.15
400.08	560.31
400.458	567.54
400.837	540.42
401.215	573.87
401.594	570.93
401.972	580.42
402.351	572.97
402.729	583.59
403.107	577.26
403.486	583.59
403.864	602.34
404.242	591.04
404.62	595.34
404.999	587.43
405.377	602.79
405.755	603.47
406.133	633.53
406.511	631.95
406.889	649.57
407.267	665.39
407.645	644.15
408.023	663.36
408.401	655.45
408.779	655
409.156	673.75
409.534	686.63
409.912	692.74
410.29	708.55
410.667	717.37
411.045	699.29
411.422	721.44
411.8	738.84
412.178	740.19
412.555	730.7
412.933	731.38
413.31	769.34
413.687	755.33
414.065	773.41
414.442	798.72
414.819	778.61
415.197	772.06
415.574	797.14
415.951	818.61
416.328	817.03
416.705	831.26
417.082	829.46
417.46	826.74
417.837	840.3
418.214	859.06
418.591	889.57
418.967	886.86
419.344	876.69
419.721	863.13
420.098	894.31
420.475	882.11
420.852	903.35
421.228	912.84
421.605	917.36
421.982	951.26
422.358	950.13
422.735	952.39
423.111	941.32
423.488	970.47
423.864	965.72
424.241	991.03
424.617	972.05
424.994	1000.52
425.37	1009.34
425.746	1019.06
426.123	1026.96
426.499	1038.04
426.875	1058.15
427.251	1078.94
427.627	1053.18
428.003	1069.68
428.379	1100.86
428.756	1087.53
429.132	1095.66
429.507	1133.18
429.883	1167.98
430.259	1176.57
430.635	1155.1
431.011	1190.8
431.387	1197.36
431.763	1238.48
432.138	1240.07
432.514	1230.35
432.89	1246.85
433.265	1292.27
433.641	1300.18
434.016	1280.07
434.392	1309.22
434.767	1343.11
435.143	1334.08
435.518	1369.1
435.894	1365.71
436.269	1403.23
436.644	1424.02
437.02	1410.23
437.395	1427.63
437.77	1445.26
438.145	1468.08
438.52	1477.57
438.895	1504.92
439.271	1495.43
439.646	1519.61
440.021	1537.01
440.395	1535.88
440.77	1532.26
441.145	1575.88
441.52	1598.47
441.895	1619.27
442.27	1594.41
442.645	1596.67
443.019	1618.14
443.394	1652.26
443.769	1666.27
444.143	1672.82
444.518	1708.08
444.892	1692.03
445.267	1718.25
445.641	1711.24
446.016	1769.54
446.39	1758.7
446.764	1759.37
447.139	1768.19
447.513	1781.97
447.887	1804.35
448.262	1808.86
448.636	1806.38
449.01	1838.24
449.384	1872.14
449.758	1867.85
450.132	1896.77
450.506	1902.42
450.88	1908.75
451.254	1955.98
451.628	1962.08
452.002	2001.4
452.376	1980.61
452.75	1984.91
453.123	2016.77
453.497	2029.65
453.871	2075.52
454.244	2088.41
454.618	2126.37
454.992	2172.02
455.365	2151
455.739	2205.46
456.112	2218.12
456.486	2221.96
456.859	2256.31
457.232	2319.59
457.606	2292.47
457.979	2284.33
458.352	2380.38
458.725	2403.2
459.099	2401.17
459.472	2406.36
459.845	2455.63
460.218	2455.63
460.591	2476.64
460.964	2466.25
461.337	2557.77
461.71	2576.08
462.083	2586.02
462.456	2641.16
462.829	2636.87
463.201	2679.58
463.574	2694.94
463.947	2677.09
464.32	2803.64
464.692	2798.67
465.065	2827.37
465.438	2832.79
465.81	2875.05
466.183	2894.49
466.555	2969.29
466.928	3015.61
467.3	3023.07
467.672	3058.78
468.045	3131.77
468.417	3113.46
468.789	3158.21
469.161	3161.82
469.534	3222.61
469.906	3294.02
470.278	3315.72
470.65	3382.83
471.022	3408.6
471.394	3499.67
471.766	3517.29
472.138	3529.05
472.51	3630.96
472.882	3647.23
473.253	3675.71
473.625	3776.95
473.997	3831.41
474.369	3808.13
474.74	3900.56
475.112	3930.84
475.484	4006.1
475.855	4071.86
476.227	4104.85
476.598	4187.56
476.97	4233.21
477.341	4370.38
477.713	4425.07
478.084	4433.65
478.455	4539.41
478.827	4571.96
479.198	4696.25
479.569	4715.46
479.94	4869.35
480.311	4844.49
480.682	5009.46
481.053	5118.38
481.424	5213.3
481.795	5256.46
482.166	5379.17
482.537	5343.69
482.908	5494.87
483.279	5507.3
483.65	5651.48
484.021	5745.94
484.391	5866.61
484.762	5843.34
485.133	5920.85
485.503	6002.88
485.874	6116.32
486.244	6224.34
486.615	6302.31
486.985	6352.93
487.356	6463.66
487.726	6553.37
488.097	6632.69
488.467	6718.11
488.837	6846.25
489.207	6841.5
489.578	6914.72
489.948	7022.51
490.318	7140.25
490.688	7222.73
491.058	7323.07
491.428	7391.32
491.798	7434.93
492.168	7633.57
492.538	7646.45
492.908	7777.75
493.278	7863.39
493.648	7876.28
494.017	8005.31
494.387	8047.57
494.757	8101.35
495.126	8173.22
495.496	8261.8
495.866	8330.5
496.235	8403.95
496.605	8482.59
496.974	8496.6
497.344	8566.2
497.713	8684.16
498.082	8705.41
498.452	8779.98
498.821	8851.62
499.19	8976.59
499.559	9005.74
499.928	9098.39
500.298	9110.37
500.667	9209.57
501.036	9238.95
501.405	9346.97
501.774	9371.38
502.143	9486.18
502.512	9471.71
502.88	9602.11
503.249	9616.8
503.618	9736.34
503.987	9704.7
504.356	9770.01
504.724	9925.94
505.093	9924.13
505.462	9971.81
505.83	10060.85
506.199	10137.69
506.567	10192.83
506.936	10243.67
507.304	10368.64
507.672	10409.54
508.041	10476.66
508.409	10493.83
508.777	10614.51
509.145	10684.11
509.514	10694.28
509.882	10816.99
510.25	10812.02
510.618	10974.73
510.986	11043.65
511.354	11148.28
511.722	11200.03
512.09	11271.67
512.458	11341.27
512.826	11456.29
513.193	11504.2
513.561	11501.94
513.929	11684.99
514.297	11798.43
514.664	11817.19
515.032	11911.88
515.4	11964.08
515.767	12067.35
516.135	12191.64
516.502	12160.23
516.869	12338.08
517.237	12376.27
517.604	12362.94
517.972	12568.81
518.339	12623.95
518.706	12645.87
519.073	12771.97
519.44	12878.86
519.808	13001.11
520.175	13006.54
520.542	13199.3
520.909	13242.24
521.276	13260.99
521.643	13371.27
522.009	13578.5
522.376	13648.55
522.743	13737.82
523.11	13865.95
523.477	14018.04
523.843	14071.37
524.21	14312.04
524.577	14337.8
524.943	14425.03
525.31	14467.74
525.676	14681.52
526.043	14696.89
526.409	14774.4
526.776	14973.72
527.142	14997.9
527.508	15125.12
527.874	15274.27
528.241	15296.87
528.607	15400.82
528.973	15554.27
529.339	15539.58
529.705	15746.35
530.071	15869.51
530.437	15932.56
530.803	16010.53
531.169	16092.33
531.535	16099.34
531.901	16187.7
532.267	16208.03
532.632	16363.28
532.998	16497.52
533.364	16550.4
533.73	16715.37
534.095	16811.18
534.461	16712.2
534.826	16771.86
535.192	16934.79
535.557	17082.59
535.923	17072.64
536.288	17184.51
536.653	17210.04
537.019	17213.43
537.384	17426.08
537.749	17538.85
538.114	17505.85
538.479	17570.94
538.845	17626.53
539.21	17624.49
539.575	17790.82
539.94	17753.76
540.305	17898.84
540.67	17907.88
541.034	18060.87
541.399	18093.86
541.764	18106.29
542.129	18213.41
542.494	18286.17
542.858	18358.49
543.223	18328.43
543.587	18442.33
543.952	18497.01
544.316	18540.4
544.681	18589.44
545.045	18683.22
545.41	18762.32
545.774	18809.32
546.138	18911.24
546.503	18849.09
546.867	18985.36
547.231	19129.77
547.595	19184
547.959	19212.02
548.324	19289.99
548.688	19323.88
549.052	19262.19
549.416	19420.38
549.779	19425.12
550.143	19507.61
550.507	19712.8
550.871	19757.77
551.235	19762.52
551.599	19959.57
551.962	19926.58
552.326	20003.64
552.689	20096.97
553.053	20088.61
553.417	20258.55
553.78	20398.43
554.143	20393.01
554.507	20480.01
554.87	20549.84
555.234	20671.42
555.597	20694.7
555.96	20759.55
556.323	20829.16
556.686	20839.1
557.05	21001.13
557.413	21147.34
557.776	21087
558.139	21234.79
558.502	21303.04
558.865	21435.92
559.228	21486.09
559.59	21595.01
559.953	21556.82
560.316	21936.92
560.679	22061.44
561.041	22077.48
561.404	22084.94
561.767	22177.14
562.129	22132.17
562.492	22399.51
562.854	22458.27
563.217	22467.3
563.579	22634.53
563.941	22684.25
564.304	22770.12
564.666	22968.76
565.028	22923.56
565.39	23072.03
565.753	23198.81
566.115	23368.52
566.477	23366.49
566.839	23577.33
567.201	23700.72
567.563	23696.2
567.925	23817.1
568.287	23892.13
568.648	23909.53
569.01	24121.5
569.372	24349.52
569.734	24214.15
570.095	24382.28
570.457	24586.12
570.819	24537.76
571.18	24554.26
571.542	24639.45
571.903	24629.06
572.265	24670.64
572.626	24933.45
572.987	24905.43
573.349	24955.37
573.71	25113.11
574.071	25020.68
574.432	25169.38
574.794	25281.92
575.155	25278.98
575.516	25331.18
575.877	25402.14
576.238	25588.35
576.599	25561.01
576.96	25539.54
577.32	25541.57
577.681	25675.36
578.042	25620.67
578.403	25800.32
578.763	25777.95
579.124	25807.56
579.485	25929.81
579.845	25970.04
580.206	25835.13
580.566	25955.35
580.927	25909.25
581.287	26064.5
581.648	25932.3
582.008	26108.79
582.368	26078.28
582.728	26153.76
583.089	26100.43
583.449	26219.97
583.809	26183.37
584.169	26223.82
584.529	26104.05
584.889	26348.33
585.249	26180.43
585.609	26060.88
585.969	26211.61
586.329	26206.64
586.688	26168.9
587.048	26107.66
587.408	26103.59
587.768	26162.57
588.127	26158.96
588.487	25988.79
588.846	26215.68
589.206	26003.26
589.565	26102.46
589.925	26314.66
590.284	26199.41
590.643	26163.03
591.003	26195.34
591.362	26354.89
591.721	26389.69
592.08	26311.72
592.44	26295.68
592.799	26301.78
593.158	26213.19
593.517	26260.88
593.876	26543.81
594.235	26362.34
594.593	26435.11
594.952	26413.87
595.311	26330.71
595.67	26338.39
596.029	26397.82
596.387	26515.11
596.746	26621.55
597.104	26414.55
597.463	26434.88
597.822	26481.66
598.18	26395.79
598.538	26508.78
598.897	26545.39
599.255	26401.21
599.613	26804.14
599.972	26528.89
600.33	26765.95
600.688	26605.28
601.046	26602.79
601.404	26763.69
601.762	26672.62
602.12	27000.97
602.478	26956.9
602.836	26890.92
603.194	26904.7
603.552	26986.06
603.91	26890.92
604.268	27060.63
604.625	26859.73
604.983	27052.04
605.341	26846.17
605.698	27000.29
606.056	27057.24
606.413	27004.81
606.771	27125.26
607.128	27103.12
607.485	26968.2
607.843	27073.51
608.2	27240.96
608.557	27165.49
608.914	27116.9
609.272	27337.23
609.629	27327.74
609.986	27407.74
610.343	27402.54
610.7	27479.15
611.057	27506.72
611.414	27323
611.771	27500.39
612.127	27499.04
612.484	27581.97
612.841	27709.88
613.198	27539.49
613.554	27452.94
613.911	27717.56
614.267	27701.52
614.624	27607.73
614.98	27668.3
615.337	27693.83
615.693	27750.1
616.05	27692.48
616.406	27963.43
616.762	27899.93
617.118	27765.7
617.475	27823.55
617.831	27956.2
618.187	27938.57
618.543	28048.17
618.899	28118.68
619.255	28088.4
619.611	27984.45
619.967	28126.36
620.323	28230.77
620.678	28156.87
621.034	28049.3
621.39	27998.23
621.746	27824.45
622.101	28260.82
622.457	27995.97
622.812	28031
623.168	28108.74
623.523	28098.8
623.879	28121.62
624.234	27980.15
624.589	28052.47
624.945	28090.66
625.3	28099.02
625.655	27989.19
626.01	28104.44
626.365	28056.76
626.72	28160.94
627.075	28044.79
627.43	28071.23
627.785	28011.57
628.14	28033.26
628.495	27995.07
628.85	27935.41
629.205	27858.12
629.559	28037.55
629.914	27960.95
630.269	27863.32
630.623	27916.65
630.978	27852.25
631.332	28015.41
631.687	28013.15
632.041	27709.43
632.396	27971.57
632.75	27707.62
633.104	27789.2
633.459	27727.28
633.813	27693.16
634.167	27620.39
634.521	27475.53
634.875	27577.23
635.229	27580.84
635.583	27395.76
635.937	27457.23
636.291	27302.21
636.645	27331.13
636.999	27287.29
637.352	27428.53
637.706	27197.35
638.06	27412.49
638.413	27236.67
638.767	27143.57
639.121	27196.9
639.474	26950.12
639.828	27144.24
640.181	27103.12
640.534	27006.39
640.888	27028.31
641.241	26777.93
641.594	26939.05
641.947	27027.41
642.301	26869
642.654	26918.94
643.007	26702
643.36	26755.78
643.713	26619.74
644.066	26664.93
644.419	26556.69
644.771	26434.21
645.124	26179.98
645.477	26084.84
645.83	26028.34
646.182	25771.85
646.535	25848.91
646.888	25865.63
647.24	25625.19
647.593	25904.28
647.945	25810.72
648.298	25564.85
648.65	25642.59
649.002	25416.61
649.355	25608.47
649.707	25562.36
650.059	25633.1
650.411	25931.85
650.763	25907.67
651.115	26283.93
651.467	26117.83
651.819	26146.76
652.171	26037.15
652.523	25933.65
652.875	25976.82
653.227	25909.02
653.578	25958.74
653.93	25942.47
654.282	25916.71
654.633	25785.18
654.985	25832.87
655.337	25858.63
655.688	25798.06
656.039	25946.31
656.391	25733.66
656.742	25789.25
657.094	25782.7
657.445	25778.63
657.796	25704.73
658.147	25628.13
658.498	25658.63
658.849	25757.61
659.2	25662.93
659.551	25577.73
659.902	25656.37
660.253	25526.43
660.604	25688.46
660.955	25450.5
661.306	25610.5
661.656	25524.85
662.007	25500.9
662.358	25505.87
662.708	25422.03
663.059	25382.26
663.409	25332.99
663.76	25544.74
664.11	25424.74
664.461	25426.1
664.811	25442.59
665.161	25365.53
665.511	25364.4
665.862	25357.17
666.212	25453.21
666.562	25402.37
666.912	25416.83
667.262	25348.13
667.612	25398.75
667.962	25434.46
668.312	25315.59
668.662	25442.82
669.011	25354.01
669.361	25207.12
669.711	25374.57
670.06	25238.53
670.41	25212.77
670.76	25215.48
671.109	25192.43
671.459	25153.56
671.808	25119.89
672.157	25122.15
672.507	24985.2
672.856	25067.91
673.205	25035.15
673.554	25083.28
673.904	25046.22
674.253	25151.53
674.602	25094.13
674.951	24675.83
675.3	24516.06
675.649	24915.6
675.998	24823.4
676.346	24781.14
676.695	24991.08
677.044	24761.48
677.393	24820.69
677.741	24905.88
678.09	24855.72
678.438	24794.02
678.787	24713.12
679.135	24848.26
679.484	24707.02
679.832	24838.99
680.181	24567.36
680.529	24662.95
680.877	24620.24
681.225	24605.55
681.573	24776.85
681.922	24453.47
682.27	24490.3
682.618	24464.77
682.966	24350.19
683.314	24429.74
683.661	24314.26
684.009	24179.58
684.357	24263.87
684.705	24082.63
685.053	24227.03
685.4	24106.81
685.748	23971.67
686.095	24086.25
686.443	23911.56
686.79	23914.27
687.138	23941.84
687.485	23889.41
687.832	23818.91
688.18	23800.83
688.527	23591.79
688.874	23658.46
689.221	23572.81
689.568	23509.54
689.915	23492.81
690.262	23471.35
690.609	23504.79
690.956	23448.07
691.303	23347.28
691.65	23266.61
691.997	23180.05
692.344	23137.8
692.69	23085.59
693.037	23196.1
693.383	22876.11
693.73	22983.68
694.077	22913.85
694.423	22795.43
694.769	22786.62
695.116	22831.59
695.462	22704.13
695.808	22657.58
696.155	22480.64
696.501	22348.44
696.847	22424.59
697.193	22311.38
697.539	22362.67
697.885	22179.63
698.231	22110.93
698.577	22147.31
698.923	22015.57
699.269	21926.3
699.614	21736.02
699.96	21803.59
700.306	21736.7
700.651	21644.5
700.997	21549.36
701.342	21621.9
701.688	21458.29
702.033	21417.61
702.379	21482.92
702.724	21421
703.069	21423.72
703.415	21195.7
703.76	21193.44
704.105	21184.63
704.45	21095.82
704.795	21053.33
705.14	21005.42
705.485	20980.79
705.83	20891.07
706.175	20920.9
706.52	20852.43
706.865	20701.25
707.209	20650.86
707.554	20668.03
707.899	20628.48
708.243	20600.91
708.588	20474.36
708.932	20417.19
709.277	20285.67
709.621	20406.12
709.966	20229.85
710.31	20290.86
710.654	20088.38
710.998	20124.54
711.342	20123.19
711.687	19999.57
712.031	19976.52
712.375	19848.16
712.719	19856.53
713.063	19868.73
713.407	19874.38
713.75	19774.04
714.094	19790.76
714.438	19666.02
714.782	19690.2
715.125	19553.48
715.469	19624.89
715.812	19569.53
716.156	19428.51
716.499	19408.18
716.843	19441.62
717.186	19329.31
717.53	19444.79
717.873	19374.28
718.216	19246.15
718.559	19280.04
718.902	19170.22
719.246	19091.35
719.589	19061.97
719.932	19033.95
720.275	19084.57
720.617	19122.99
720.96	18981.75
721.303	18995.53
721.646	18978.36
721.989	18845.25
722.331	18896.1
722.674	18776.1
723.016	18781.07
723.359	18764.8
723.701	18807.06
724.044	18650.68
724.386	18587.63
724.729	18600.97
725.071	18612.04
725.413	18562.77
725.755	18495.43
726.097	18409.78
726.439	18324.36
726.782	18428.31
727.124	18319.84
727.465	18366.85
727.807	18371.59
728.149	18225.16
728.491	18166.17
728.833	18189.45
729.175	17988.33
729.516	17976.12
729.858	18030.36
730.199	18105.16
730.541	17927.31
730.882	18009.79
731.224	18036.91
731.565	17875.11
731.906	17871.72
732.248	17927.76
732.589	17738.62
732.93	17732.06
733.271	17715.57
733.612	17798.73
733.953	17794.66
734.294	17701.55
734.635	17610.48
734.976	17607.77
735.317	17490.49
735.658	17655.45
735.999	17655.23
736.339	17539.07
736.68	17559.41
737.021	17542.01
737.361	17462.24
737.702	17519.41
738.042	17426.99
738.383	17294.33
738.723	17415.69
739.063	17408.23
739.404	17398.74
739.744	17459.3
740.084	17285.07
740.424	17339.3
740.764	17268.12
741.104	17293.66
741.444	17105.41
741.784	17136.37
742.124	17100.44
742.464	17152.42
742.804	17042.81
743.143	16967.11
743.483	17007.11
743.823	16821.58
744.162	16790.39
744.502	16993.78
744.841	16836.72
745.181	16885.3
745.52	16865.87
745.86	16784.97
746.199	16757.85
746.538	16725.31
746.877	16787.45
747.216	16697.29
747.556	16698.64
747.895	16606.44
748.234	16598.98
748.573	16552.43
748.911	16479.89
749.25	16577.97
749.589	16370.97
749.928	16366.67
750.267	16417.75
750.605	16358.54
750.944	16402.15
751.283	16272.89
751.621	16296.62
751.96	16103.86
752.298	16206.45
752.636	16147.02
752.975	16097.3
753.313	16068.15
753.651	16128.94
753.989	15951.32
754.327	15927.14
754.666	15819.34
755.004	15961.71
755.342	15855.73
755.679	15874.26
756.017	15746.8
756.355	15809.4
756.693	15806.01
757.031	15716.97
757.368	15613.93
757.706	15698.44
758.044	15541.61
758.381	15530.76
758.719	15587.26
759.056	15524.66
759.394	15469.07
759.731	15361.5
760.068	15352.92
760.405	15292.58
760.743	15256.65
761.08	15335.74
761.417	15178
761.754	15139.14
762.091	15101.62
762.428	15064.56
762.765	15025.24
763.102	15046.71
763.438	15014.17
763.775	14874.06
764.112	14873.38
764.449	14809.2
764.785	14754.29
765.122	14738.69
765.458	14561.98
765.795	14605.82
766.131	14531.24
766.467	14479.49
766.804	14330.34
767.14	14324.02
767.476	14401.53
767.812	14262.1
768.148	14326.95
768.485	14180.52
768.821	14194.75
769.157	14082.44
769.492	13998.83
769.828	13997.47
770.164	13853.29
770.5	13835.89
770.836	13844.03
771.171	13797.48
771.507	13713.86
771.842	13624.83
772.178	13589.8
772.513	13606.07
772.849	13537.37
773.184	13518.16
773.519	13422.12
773.855	13406.53
774.19	13420.08
774.525	13376.7
774.86	13246.98
775.195	13270.71
775.53	13152.07
775.865	13146.87
776.2	13079.08
776.535	12963.37
776.87	12948.91
777.205	12858.29
777.539	12911.4
777.874	12851.51
778.209	12762.93
778.543	12749.37
778.878	12586.89
779.212	12662.36
779.547	12550.96
779.881	12567.68
780.215	12477.28
780.55	12561.35
780.884	12425.53
781.218	12489.94
781.552	12411.98
781.886	12349.38
782.22	12162.49
782.554	12203.85
782.888	12089.27
783.222	12046.56
783.556	12052.66
783.889	11956.17
784.223	11879.56
784.557	11884.76
784.89	11897.19
785.224	11869.39
785.557	11842.95
785.891	11733.35
786.224	11770.41
786.558	11690.86
786.891	11576.29
787.224	11539.91
787.557	11519.12
787.891	11513.92
788.224	11472.57
788.557	11492.23
788.89	11397.54
789.223	11380.82
789.556	11334.26
789.888	11306.69
790.221	11264.21
790.554	11215.85
790.887	11188.73
791.219	11082.07
791.552	11067.15
791.884	11067.6
792.217	11027.38
792.549	10972.24
792.882	10888.63
793.214	10879.59
793.546	10887.04
793.879	10817.22
794.211	10788.29
794.543	10757.78
794.875	10779.02
795.207	10806.59
795.539	10699.93
795.871	10657.22
796.203	10564.57
796.535	10572.48
796.867	10602.08
797.198	10506.49
797.53	10480.28
797.862	10424.68
798.193	10468.52
798.525	10384.91
798.856	10391.69
799.188	10257.91
799.519	10213.62
799.85	10153.96
800.182	10185.59
800.513	10231.69
800.844	10159.15
801.175	10172.03
801.506	10207.29
801.837	10003.9
802.168	10019.04
802.499	10003.23
802.83	9871.48
803.161	9945.37
803.491	9892.95
803.822	9844.36
804.153	9864.25
804.483	9808.43
804.814	9745.38
805.145	9737.47
805.475	9763.46
805.805	9704.25
806.136	9669.45
806.466	9686.17
806.796	9665.83
807.126	9565.05
807.457	9477.36
807.787	9517.14
808.117	9556.68
808.447	9424.94
808.777	9445.27
809.107	9407.99
809.436	9370.02
809.766	9378.61
810.096	9312.85
810.426	9377.03
810.755	9324.6
811.085	9251.38
811.414	9279.18
811.744	9200.76
812.073	9197.15
812.403	9270.59
812.732	9131.84
813.061	9159.63
813.39	9083.48
813.719	9047.09
814.049	9123.47
814.378	9043.02
814.707	9042.57
815.036	8994.66
815.365	8960.99
815.693	8865.4
816.022	8930.03
816.351	8844.16
816.68	8813.2
817.008	8848.45
817.337	8764.84
817.665	8725.97
817.994	8792.86
818.322	8740.21
818.651	8751.73
818.979	8643.49
819.307	8724.39
819.636	8738.85
819.964	8647.33
820.292	8669.7
820.62	8653.88
820.948	8641.45
821.276	8693.66
821.604	8532.53
821.932	8591.51
822.259	8595.58
822.587	8564.62
822.915	8572.08
823.243	8610.04
823.57	8551.06
823.898	8574.11
824.225	8538.41
824.553	8571.4
824.88	8554
825.207	8543.15
825.535	8551.06
825.862	8624.96
826.189	8574.56
826.516	8597.39
826.843	8582.25
827.17	8561.46
827.497	8627.67
827.824	8665.63
828.151	8633.09
828.478	8630.83
828.805	8630.61
829.131	8575.92
829.458	8614.11
829.785	8534.56
830.111	8628.12
830.438	8564.85
830.764	8580.21
831.09	8581.34
831.417	8490.5
831.743	8584.28
832.069	8584.51
832.395	8499.08
832.722	8533.66
833.048	8490.72
833.374	8546.09
833.7	8468.8
834.026	8517.62
834.351	8496.6
834.677	8494.34
835.003	8526.2
835.329	8464.28
835.654	8457.73
835.98	8424.96
836.306	8429.93
836.631	8351.52
836.956	8430.84
837.282	8400.56
837.607	8398.97
837.932	8310.84
838.258	8349.94
838.583	8266.77
838.908	8196.04
839.233	8332.54
839.558	8253.44
839.883	8216.38
840.208	8231.07
840.533	8255.7
840.858	8224.74
841.182	8216.61
841.507	8168.7
841.832	8173.67
842.156	8184.29
842.481	8147.46
842.805	8116.5
843.13	8102.03
843.454	8059.55
843.778	8049.6
844.103	8056.84
844.427	8061.36
844.751	8002.6
845.075	7934.13
845.399	7956.05
845.723	7917.4
846.047	7904.98
846.371	7883.51
846.695	7869.04
847.019	7853.45
847.343	7823.4
847.666	7742.72
847.99	7624.53
848.313	7662.72
848.637	7700.46
848.96	7658.2
849.284	7618.2
849.607	7539.34
849.931	7546.34
850.254	7486
850.577	7479
850.9	7427.25
851.223	7387.02
851.546	7381.6
851.869	7346.8
852.192	7379.57
852.515	7260.92
852.838	7239.46
853.161	7270.64
853.483	7199.68
853.806	7163.3
854.129	7206.69
854.451	7138.44
854.774	7137.31
855.096	7112.45
855.419	7115.62
855.741	7061.38
856.063	6988.62
856.385	7030.2
856.708	7043.76
857.03	6952.91
857.352	6990.42
857.674	6894.61
857.996	6924.44
858.318	6878.56
858.64	6830.43
858.961	6870.88
859.283	6768.51
859.605	6815.74
859.926	6772.12
860.248	6765.12
860.57	6778
860.891	6790.2
861.212	6793.82
861.534	6701.17
861.855	6665.01
862.176	6657.78
862.498	6704.78
862.819	6737.55
863.14	6637.66
863.461	6679.25
863.782	6661.62
864.103	6672.47
864.424	6667.95
864.745	6603.32
865.065	6601.96
865.386	6574.16
865.707	6531
866.027	6599.47
866.348	6491
866.668	6531.68
866.989	6542.53
867.309	6447.16
867.63	6449.87
867.95	6490.32
868.27	6432.25
868.59	6505.24
868.91	6437.44
869.23	6399.03
869.55	6366.03
869.87	6422.75
870.19	6359.03
870.51	6416.88
870.83	6397.67
871.15	6378.24
871.469	6367.39
871.789	6376.88
872.109	6322.19
872.428	6344.11
872.748	6340.27
873.067	6367.62
873.386	6373.72
873.706	6308.41
874.025	6305.47
874.344	6290.1
874.663	6278.8
874.982	6244.23
875.301	6220.5
875.62	6274.96
875.939	6144.12
876.258	6214.4
876.577	6184.8
876.896	6253.27
877.214	6152.93
877.533	6151.58
877.852	6184.57
878.17	6147.51
878.489	6131.24
878.807	6132.82
879.125	6124.68
879.444	6123.1
879.762	6110.67
880.08	6095.53
880.398	6046.27
880.716	6104.57
881.034	6051.69
881.352	6057.34
881.67	6019.15
881.988	6020.51
882.306	6001.3
882.624	6000.17
882.941	6011.92
883.259	5965.82
883.577	5918.81
883.894	5897.12
884.212	5893.73
884.529	5925.14
884.846	5958.81
885.164	5905.93
885.481	5874.75
885.798	5896.22
886.115	5863.22
886.432	5824.58
886.75	5814.64
887.067	5818.48
887.383	5762.21
887.7	5760.63
888.017	5768.53
888.334	5738.48
888.651	5765.37
888.967	5750
889.284	5671.81
889.6	5682.66
889.917	5709.33
890.233	5643.11
890.55	5676.79
890.866	5654.64
891.182	5625.94
891.498	5551.59
891.815	5580.74
892.131	5541.65
892.447	5490.35
892.763	5480.41
893.079	5474.08
893.395	5500.07
893.71	5523.8
894.026	5540.29
894.342	5414.65
894.657	5428.88
894.973	5425.27
895.289	5412.16
895.604	5441.99
895.92	5354.99
896.235	5326.29
896.55	5404.7
896.865	5345.95
897.181	5329.9
897.496	5310.69
897.811	5268.21
898.126	5226.18
898.441	5277.7
898.756	5235.44
899.071	5227.31
899.386	5214.2
899.7	5163.35
900.015	5132.85
900.33	5129.23
900.644	5086.07
900.959	5101.66
901.273	5100.98
901.588	5045.84
901.902	5000.87
902.216	5062.79
902.531	5024.15
902.845	5033.86
903.159	4975.79
903.473	4917.71
903.787	4921.55
904.101	4920.65
904.415	4893.53
904.729	4898.5
905.042	4881.1
905.356	4849.69
905.67	4831.38
905.984	4797.03
906.297	4824.15
906.611	4761.33
906.924	4759.3
907.237	4780.99
907.551	4742.57
907.864	4714.55
908.177	4651.05
908.491	4701.44
908.804	4657.6
909.117	4646.53
909.43	4654.44
909.743	4599.3
910.056	4603.14
910.368	4557.04
910.681	4587.77
910.994	4525.63
911.307	4475.69
911.619	4509.81
911.932	4539.87
912.244	4475.46
912.557	4442.69
912.869	4412.19
913.181	4403.37
913.494	4402.69
913.806	4365.86
914.118	4385.75
914.43	4340.1
914.742	4309.14
915.054	4374.9
915.366	4310.95
915.678	4322.25
915.99	4257.16
916.302	4244.06
916.613	4266.2
916.925	4242.25
917.236	4249.7
917.548	4140.33
917.859	4162.93
918.171	4121.57
918.482	4095.13
918.794	4091.97
919.105	4083.38
919.416	4070.27
919.727	4061.69
920.038	4055.36
920.349	3991.18
920.66	3983.04
920.971	3981.46
921.282	3972.2
921.593	3990.28
921.903	3932.65
922.214	3955.48
922.525	3925.87
922.835	3892.2
923.146	3840.45
923.456	3840.9
923.767	3861.69
924.077	3839.32
924.387	3823.5
924.697	3782.37
925.008	3772.43
925.318	3745.09
925.628	3742.83
925.938	3753.9
926.248	3690.4
926.558	3726.1
926.867	3708.48
927.177	3669.15
927.487	3683.62
927.796	3646.78
928.106	3598.65
928.416	3652.88
928.725	3638.87
929.034	3581.47
929.344	3607.91
929.653	3612.89
929.962	3489.5
930.271	3554.36
930.581	3546.45
930.89	3489.95
931.199	3474.58
931.508	3476.84
931.817	3474.36
932.125	3437.07
932.434	3442.04
932.743	3428.71
933.051	3410.18
933.36	3420.57
933.669	3365.66
933.977	3332.44
934.286	3361.37
934.594	3371.99
934.902	3337.86
935.21	3343.74
935.519	3331.31
935.827	3273.23
936.135	3251.76
936.443	3255.38
936.751	3251.76
937.059	3235.49
937.367	3229.39
937.674	3263.74
937.982	3202.5
938.29	3192.33
938.597	3188.94
938.905	3154.37
939.213	3169.73
939.52	3124.54
939.827	3122.05
940.135	3108.94
940.442	3071.43
940.749	3116.4
941.056	3083.41
941.363	3057.65
941.67	3094.25
941.977	3032.34
942.284	3035.5
942.591	2990.75
942.898	2951.21
943.205	2973.13
943.511	2973.81
943.818	2979.91
944.125	2939
944.431	2925.9
944.738	2919.8
945.044	2950.53
945.35	2905.56
945.657	2897.42
945.963	2878.22
946.269	2865.79
946.575	2834.6
946.881	2815.62
947.187	2836.41
947.493	2825.56
947.799	2802.06
948.105	2741.95
948.41	2801.38
948.716	2767.03
949.022	2703.3
949.327	2741.72
949.633	2713.47
949.938	2734.49
950.244	2679.12
950.549	2702.63
950.854	2680.03
951.16	2677.09
951.465	2647.71
951.77	2647.49
952.075	2641.84
952.38	2638.45
952.685	2616.98
952.99	2622.85
953.294	2601.61
953.599	2598.67
953.904	2573.14
954.209	2574.04
954.513	2550.99
954.818	2580.82
955.122	2550.31
955.426	2526.81
955.731	2514.61
956.035	2508.51
956.339	2511.9
956.643	2537.89
956.948	2473.03
957.252	2506.7
957.556	2439.58
957.86	2440.03
958.163	2445.01
958.467	2433.03
958.771	2423.09
959.075	2416.08
959.378	2404.33
959.682	2386.48
959.985	2393.93
960.289	2383.09
960.592	2342.64
960.896	2362.07
961.199	2371.79
961.502	2312.35
961.805	2374.95
962.108	2282.3
962.411	2285.46
962.714	2311.22
963.017	2295.18
963.32	2311.22
963.623	2289.08
963.926	2269.19
964.228	2235.75
964.531	2255.86
964.833	2240.27
965.136	2237.1
965.438	2216.31
965.741	2199.82
966.043	2192.36
966.345	2182.64
966.648	2155.52
966.95	2179.02
967.252	2166.82
967.554	2162.53
967.856	2155.97
968.158	2154.17
968.46	2139.93
968.761	2115.75
969.063	2128.63
969.365	2088.18
969.666	2101.06
969.968	2066.94
970.269	2093.15
970.571	2077.11
970.872	2085.92
971.174	2042.31
971.475	2047.5
971.776	2033.04
972.077	2023.32
972.378	2036.88
972.679	2030.33
972.98	2002.08
973.281	1976.09
973.582	1989.88
973.883	2007.28
974.183	1976.32
974.484	1973.83
974.785	1962.53
975.085	1960.27
975.386	1948.52
975.686	1933.83
975.986	1923.44
976.287	1936.55
976.587	1890.44
976.887	1884.34
977.187	1896.55
977.487	1880.73
977.787	1859.71
978.087	1889.54
978.387	1874.85
978.687	1864.46
978.987	1878.69
979.286	1844.57
979.586	1819.71
979.885	1837.56
980.185	1840.28
980.484	1783.78
980.784	1763.89
981.083	1806.83
981.382	1784.46
981.682	1804.57
981.981	1759.6
982.28	1758.92
982.579	1771.13
982.878	1730
983.177	1746.49
983.475	1710.11
983.774	1725.03
984.073	1737.23
984.372	1727.29
984.67	1711.47
984.969	1694.52
985.267	1686.16
985.566	1679.6
985.864	1685.48
986.162	1657.46
986.461	1647.51
986.759	1668.53
987.057	1668.08
987.355	1642.99
987.653	1611.81
987.951	1607.97
988.249	1612.26
988.547	1609.32
988.844	1617.91
989.142	1631.24
989.44	1604.35
989.737	1591.24
990.035	1562.09
990.332	1561.64
990.63	1585.82
990.927	1555.76
991.224	1557.57
991.521	1546.95
991.819	1531.36
992.116	1505.82
992.413	1518.7
992.71	1536.1
993.006	1525.03
993.303	1494.07
993.6	1536.56
993.897	1498.36
994.193	1468.31
994.49	1488.87
994.787	1480.29
995.083	1464.24
995.379	1478.93
995.676	1464.02
995.972	1454.52
996.268	1486.16
996.565	1457.24
996.861	1452.49
997.157	1395.32
997.453	1431.47
997.749	1444.13
998.044	1410.23
998.34	1406.16
998.636	1398.71
998.932	1393.73
999.227	1395.99
999.523	1389.21
999.818	1349.89
1000.114	1328.88
1000.409	1339.72
1000.704	1356
1001	1348.09
1001.295	1340.63
1001.59	1316.22
1001.885	1325.71
1002.18	1327.07
1002.475	1310.57
1002.77	1292.27
1003.065	1298.6
1003.359	1288.88
1003.654	1294.53
1003.949	1304.92
1004.243	1261.76
1004.538	1234.42
1004.832	1293.17
1005.127	1251.82
1005.421	1252.27
1005.715	1266.28
1006.009	1238.48
1006.304	1210.91
1006.598	1235.09
1006.892	1231.48
1007.186	1215.66
1007.48	1203.46
1007.773	1191.93
1008.067	1179.28
1008.361	1199.39
1008.655	1184.7
1008.948	1165.94
1009.242	1174.31
1009.535	1164.81
1009.829	1165.72
1010.122	1137.24
1010.415	1179.28
1010.708	1153.51
1011.001	1152.16
1011.295	1149
1011.588	1101.54
1011.881	1123.01
1012.173	1107.19
1012.466	1138.83
1012.759	1101.76
1013.052	1106.06
1013.344	1087.75
1013.637	1078.71
1013.93	1054.99
1014.222	1082.33
1014.514	1079.17
1014.807	1051.37
1015.099	1083.46
1015.391	1039.39
1015.683	1042.56
1015.976	1038.26
1016.268	1055.66
1016.56	1054.99
1016.851	999.85
1017.143	1034.65
1017.435	1019.73
1017.727	1010.69
1018.018	1007.08
1018.31	984.71
1018.602	977.02
1018.893	974.76
1019.185	984.03
1019.476	980.19
1019.767	984.93
1020.058	965.05
1020.35	959.62
1020.641	963.24
1020.932	959.62
1021.223	959.17
1021.514	934.09
1021.804	938.38
1022.095	940.41
1022.386	923.46
1022.677	905.39
1022.967	920.98
1023.258	916.23
1023.548	900.64
1023.839	903.13
1024.129	922.11
1024.419	902.22
1024.709	903.8
1025	881.21
1025.29	886.63
1025.58	876.69
1025.87	867.42
1026.16	846.86
1026.449	853.41
1026.739	870.81
1027.029	839.85
1027.319	857.93
1027.608	846.18
1027.898	825.61
1028.187	853.41
1028.477	826.97
1028.766	828.78
1029.055	810.93
1029.344	818.16
1029.634	809.12
1029.923	821.09
1030.212	793.07
1030.501	805.95
1030.79	782.23
1031.078	800.3
1031.367	791.72
1031.656	767.31
1031.945	772.51
1032.233	761.89
1032.522	779.74
1032.81	751.04
1033.099	746.97
1033.387	759.17
1033.675	766.18
1033.963	768.67
1034.251	754.2
1034.54	733.19
1034.828	742.45
1035.116	754.43
1035.403	723.24
1035.691	719.85
1035.979	718.05
1036.267	684.6
1036.554	713.53
1036.842	706.52
1037.129	697.48
1037.417	689.8
1037.704	680.08
1037.992	684.37
1038.279	703.13
1038.566	703.36
1038.853	703.36
1039.14	703.36
