Data from foam_black_FLMS001491_00032.txt Node
Date: Wed Feb 08 10:43:47 GMT 2017
User: dcchb
Spectrometer: FLMS00149
Trigger mode: 0
Integration Time (sec): 2.000000E-2
Scans to average: 10
Electric dark correction enabled: true
Nonlinearity correction enabled: false
Boxcar width: 0
XAxis mode: Wavelengths
Number of Pixels in Spectrum: 2048
>>>>>Begin Spectral Data<<<<<
341.393	-16.26
341.776	-16.26
342.16	-16.26
342.543	-64.84
342.927	-53.09
343.31	-56.93
343.693	-89.25
344.077	-74.11
344.46	-51.06
344.843	-32.08
345.226	-37.5
345.61	-33.43
345.993	-26.65
346.376	-2.02
346.759	3.18
347.142	36.4
347.525	42.72
347.908	67.81
348.291	81.14
348.674	76.85
349.057	94.93
349.44	116.85
349.823	156.62
350.206	177.64
350.588	167.24
350.971	192.1
351.354	212.89
351.737	226
352.119	234.81
352.502	250.4
352.884	247.01
353.267	230.97
353.65	269.61
354.032	276.39
354.414	278.2
354.797	289.27
355.179	292.21
355.562	310.06
355.944	312.1
356.326	328.82
356.709	334.69
357.091	298.31
357.473	332.89
357.855	341.93
358.238	331.76
358.62	318.42
359.002	332.21
359.384	321.81
359.766	335.6
360.148	317.07
360.53	337.63
360.912	330.63
361.294	333.56
361.676	331.76
362.057	321.81
362.439	303.06
362.821	288.37
363.203	337.18
363.584	304.86
363.966	310.97
364.348	289.72
364.729	282.72
365.111	316.39
365.493	296.96
365.874	302.61
366.256	305.32
366.637	281.81
367.019	282.72
367.4	305.99
367.781	278.2
368.163	299.89
368.544	286.56
368.925	309.38
369.306	291.31
369.688	292.89
370.069	297.18
370.45	290.63
370.831	277.97
371.212	294.02
371.593	306.67
371.974	283.17
372.355	294.02
372.736	300.8
373.117	307.12
373.498	304.41
373.879	294.02
374.26	287.24
374.641	286.11
375.021	306.9
375.402	308.93
375.783	324.07
376.163	318.88
376.544	310.29
376.925	317.97
377.305	288.14
377.686	310.29
378.066	302.15
378.447	312.55
378.827	327.24
379.208	304.41
379.588	318.88
379.968	329.05
380.349	310.51
380.729	317.97
381.109	297.63
381.489	326.11
381.87	312.55
382.25	332.89
382.63	323.4
383.01	322.27
383.39	324.53
383.77	327.01
384.15	339.67
384.53	307.35
384.91	305.32
385.29	323.17
385.67	305.32
386.049	341.93
386.429	323.4
386.809	309.38
387.189	320.91
387.568	345.09
387.948	333.79
388.328	351.42
388.707	330.85
389.087	339.21
389.466	347.58
389.846	334.02
390.225	340.57
390.605	355.94
390.984	346.9
391.363	347.12
391.743	364.75
392.122	334.24
392.501	330.4
392.881	355.03
393.26	348.25
393.639	349.84
394.018	353.45
394.397	355.49
394.776	354.36
395.155	343.73
395.534	351.64
395.913	354.13
396.292	370.4
396.671	368.37
397.05	366.11
397.429	369.95
397.808	370.17
398.186	362.26
398.565	347.8
398.944	363.85
399.323	368.82
399.701	384.64
400.08	355.26
400.458	363.62
400.837	364.07
401.215	371.98
401.594	392.55
401.972	375.37
402.351	370.63
402.729	384.86
403.107	390.29
403.486	377.41
403.864	348.48
404.242	383.28
404.62	400.68
404.999	361.81
405.377	400.46
405.755	383.51
406.133	395.71
406.511	398.2
406.889	381.7
407.267	414.69
407.645	386.44
408.023	391.87
408.401	410.17
408.779	401.81
409.156	419.44
409.534	411.98
409.912	409.27
410.29	400.23
410.667	407.01
411.045	413.34
411.422	419.66
411.8	414.24
412.178	423.51
412.555	417.63
412.933	423.96
413.31	423.96
413.687	425.54
414.065	411.98
414.442	421.02
414.819	435.93
415.197	438.19
415.574	449.49
415.951	436.84
416.328	436.61
416.705	443.62
417.082	439.55
417.46	434.58
417.837	453.11
418.214	409.95
418.591	449.27
418.967	438.65
419.344	464.41
419.721	457.18
420.098	475.26
420.475	453.79
420.852	439.32
421.228	469.15
421.605	478.87
421.982	463.73
422.358	478.19
422.735	461.47
423.111	494.69
423.488	466.22
423.864	470.74
424.241	477.97
424.617	470.06
424.994	469.38
425.37	463.96
425.746	497.63
426.123	487.46
426.499	497.18
426.875	504.41
427.251	492.43
427.627	494.92
428.003	497.63
428.379	516.38
428.756	509.83
429.132	524.75
429.507	519.32
429.883	503.5
430.259	515.03
430.635	505.99
431.011	544.18
431.387	530.62
431.763	534.24
432.138	539.21
432.514	546.67
432.89	536.5
433.265	564.29
433.641	531.3
434.016	551.64
434.392	567.91
434.767	580.79
435.143	557.06
435.518	561.58
435.894	597.74
436.269	567
436.644	562.94
437.02	572.88
437.395	596.38
437.77	594.8
438.145	602.26
438.52	607
438.895	595.25
439.271	592.77
439.646	602.03
440.021	614.24
440.395	611.3
440.77	625.08
441.145	630.28
441.52	624.63
441.895	604.07
442.27	618.75
442.645	630.73
443.019	620.56
443.394	608.59
443.769	638.87
444.143	623.27
444.518	652.43
444.892	647.45
445.267	661.01
445.641	631.18
446.016	635.48
446.39	650.62
446.764	672.99
447.139	655.59
447.513	648.36
447.887	662.37
448.262	652.43
448.636	676.83
449.01	694.01
449.384	663.95
449.758	672.99
450.132	689.26
450.506	663.5
450.88	705.53
451.254	680.22
451.628	681.13
452.002	707.11
452.376	697.62
452.75	686.32
453.123	698.98
453.497	707.79
453.871	694.01
454.244	771.52
454.618	742.37
454.992	734.46
455.365	738.98
455.739	754.57
456.112	741.24
456.486	761.8
456.859	769.49
457.232	769.94
457.606	771.97
457.979	781.91
458.352	780.11
458.725	803.83
459.099	800.22
459.472	808.81
459.845	812.42
460.218	809.48
460.591	811.29
460.964	820.33
461.337	841.8
461.71	845.64
462.083	843.61
462.456	869.6
462.829	856.04
463.201	861.46
463.574	845.87
463.947	857.62
464.32	895.13
464.692	881.8
465.065	904.62
465.438	871.4
465.81	933.32
466.183	928.35
466.555	934.23
466.928	947.79
467.3	935.58
467.672	935.13
468.045	964.28
468.417	981.23
468.789	984.4
469.161	974.45
469.534	958.63
469.906	1031.17
470.278	996.6
470.65	1006.09
471.022	1032.53
471.394	1029.14
471.766	1056.71
472.138	1040.89
472.51	1104.62
472.882	1072.08
473.253	1100.32
473.625	1123.6
473.997	1109.82
474.369	1130.83
474.74	1160.44
475.112	1146.88
475.484	1175.8
475.855	1202.47
476.227	1180.1
476.598	1224.16
476.97	1249.47
477.341	1268.23
477.713	1274.33
478.084	1283.6
478.455	1282.01
478.827	1288.34
479.198	1307.32
479.569	1280.66
479.94	1352.97
480.311	1389.81
480.682	1392.29
481.053	1421.22
481.424	1417.38
481.795	1435.68
482.166	1448.56
482.537	1453.99
482.908	1501.44
483.279	1503.03
483.65	1522.23
484.021	1540.54
484.391	1574.21
484.762	1569.46
485.133	1592.97
485.503	1580.76
485.874	1624.6
486.244	1621.21
486.615	1674.55
486.985	1712.29
487.356	1737.82
487.726	1695.11
488.097	1760.65
488.467	1782.11
488.837	1758.39
489.207	1834.32
489.578	1810.81
489.948	1854.65
490.318	1905.05
490.688	1883.58
491.058	1867.08
491.428	1914.54
491.798	1903.92
492.168	1917.7
492.538	1936.23
492.908	1957.93
493.278	1971.26
493.648	2016.23
494.017	1977.59
494.387	2033.41
494.757	2032.96
495.126	2051.71
495.496	2059.4
495.866	2099.39
496.235	2077.47
496.605	2136.23
496.974	2119.51
497.344	2138.49
497.713	2166.28
498.082	2188.66
498.452	2182.1
498.821	2244.25
499.19	2221.88
499.559	2227.07
499.928	2226.62
500.298	2239.28
500.667	2250.12
501.036	2246.73
501.405	2297.81
501.774	2277.69
502.143	2322.21
502.512	2308.65
502.88	2283.57
503.249	2351.82
503.618	2357.92
503.987	2387.07
504.356	2376.67
504.724	2371.7
505.093	2397.24
505.462	2410.12
505.83	2425.71
506.199	2436.79
506.567	2457.8
506.936	2420.29
507.304	2511.59
507.672	2535.09
508.041	2526.28
508.409	2529.21
508.777	2589.1
509.145	2583
509.514	2577.12
509.882	2582.32
510.25	2598.59
510.618	2627.97
510.986	2636.55
511.354	2634.52
511.722	2660.96
512.09	2685.37
512.458	2698.47
512.826	2695.99
513.193	2730.34
513.561	2727.85
513.929	2795.42
514.297	2788.19
514.664	2752.94
515.032	2828.64
515.4	2820.73
515.767	2826.38
516.135	2868.64
516.502	2831.35
516.869	2890.79
517.237	2879.94
517.604	2886.94
517.972	2942.54
518.339	2939.15
518.706	2964.91
519.073	2975.98
519.44	2969.88
519.808	3049.2
520.175	3051.46
520.542	3064.79
520.909	3069.76
521.276	3068.41
521.643	3117.45
522.009	3149.99
522.376	3199.25
522.743	3164.68
523.11	3201.29
523.477	3208.74
523.843	3241.51
524.21	3295.29
524.577	3319.25
524.943	3341.85
525.31	3347.95
525.676	3353.37
526.043	3342.75
526.409	3381.85
526.776	3448.51
527.142	3430.21
527.508	3482.63
527.874	3458.91
528.241	3476.76
528.607	3505.23
528.973	3508.17
529.339	3472.92
529.705	3557.89
530.071	3595.4
530.437	3606.7
530.803	3583.2
531.169	3640.14
531.535	3681.5
531.901	3624.55
532.267	3708.62
532.632	3704.78
532.998	3740.25
533.364	3752.68
533.73	3745.9
534.095	3787.71
534.461	3788.16
534.826	3808.28
535.192	3814.6
535.557	3855.51
535.923	3862.29
536.288	3897.99
536.653	3909.29
537.019	3937.76
537.384	3908.16
537.749	3936.63
538.114	3955.39
538.479	3982.51
538.845	3929.63
539.21	3987.03
539.575	4029.29
539.94	4033.35
540.305	4033.35
540.67	4030.64
541.034	4054.37
541.399	4089.4
541.764	4089.17
542.129	4080.58
542.494	4120.58
542.858	4094.14
543.223	4123.75
543.587	4133.92
543.952	4149.06
544.316	4182.5
544.681	4150.19
545.045	4181.37
545.41	4224.54
545.774	4220.47
546.138	4253.24
546.503	4253.46
546.867	4266.12
547.231	4321.03
547.595	4293.23
547.959	4313.57
548.324	4329.84
548.688	4347.7
549.052	4342.5
549.416	4392.89
549.779	4347.92
550.143	4370.75
550.507	4389.73
550.871	4384.31
551.235	4472.66
551.599	4449.61
551.962	4493.91
552.326	4505.43
552.689	4528.03
553.053	4507.92
553.417	4543.85
553.78	4632.21
554.143	4592.66
554.507	4588.59
554.87	4659.1
555.234	4650.06
555.597	4632.89
555.96	4674.92
556.323	4663.39
556.686	4690.51
557.05	4716.5
557.413	4753.79
557.776	4756.5
558.139	4751.53
558.502	4752.21
558.865	4823.39
559.228	4867.23
559.59	4853.22
559.953	4933.22
560.316	4963.5
560.679	4912.88
561.041	5004.4
561.404	5027
561.767	5037.62
562.129	5042.14
562.492	5052.76
562.854	5004.63
563.217	5042.37
563.579	5074.01
563.941	5097.51
564.304	5112.65
564.666	5182.7
565.028	5213.66
565.39	5235.36
565.753	5234
566.115	5245.98
566.477	5295.69
566.839	5279.2
567.201	5353.32
567.563	5363.49
567.925	5391.74
568.287	5396.71
568.648	5403.04
569.01	5386.09
569.372	5499.98
569.734	5491.17
570.095	5483.26
570.457	5495.69
570.819	5529.59
571.18	5553.77
571.542	5565.74
571.903	5532.98
572.265	5534.78
572.626	5590.38
572.987	5651.16
573.349	5637.38
573.71	5684.84
574.071	5676.25
574.432	5657.72
574.794	5712.63
575.155	5714.21
575.516	5709.47
575.877	5676.48
576.238	5765.06
576.599	5712.41
576.96	5753.08
577.32	5777.94
577.681	5800.77
578.042	5808.9
578.403	5837.6
578.763	5883.02
579.124	5819.75
579.485	5890.71
579.845	5868.79
580.206	5881.67
580.566	5868.79
580.927	5948.78
581.287	5898.39
581.648	5904.27
582.008	5886.41
582.368	5926.86
582.728	5931.61
583.089	5913.3
583.449	5892.74
583.809	5939.97
584.169	5930.25
584.529	5922.57
584.889	5942.91
585.249	5970.03
585.609	5917.15
585.969	5995.79
586.329	5938.62
586.688	5954.89
587.048	5956.24
587.408	5918.5
587.768	5935.23
588.127	5950.82
588.487	5909.92
588.846	6004.6
589.206	5914.21
589.565	5930.25
589.925	5993.3
590.284	5948.11
590.643	5925.28
591.003	5963.25
591.362	5990.82
591.721	6024.71
592.08	5993.08
592.44	6022.23
592.799	5945.17
593.158	5986.07
593.517	5945.85
593.876	5991.04
594.235	5920.76
594.593	5978.61
594.952	5954.21
595.311	5935.23
595.67	5970.48
596.029	6011.38
596.387	6030.82
596.746	6043.25
597.104	5982.91
597.463	5986.07
597.822	6024.94
598.18	6008.67
598.538	5989.24
598.897	6055.9
599.255	5967.77
599.613	6047.09
599.972	6038.95
600.33	6070.81
600.688	6048.89
601.046	6078.95
601.404	6135.22
601.762	6112.4
602.12	6087.09
602.478	6080.31
602.836	6094.77
603.194	6096.8
603.552	6122.11
603.91	6075.79
604.268	6074.43
604.625	6113.98
604.983	6138.38
605.341	6081.44
605.698	6120.53
606.056	6150.59
606.413	6127.08
606.771	6109.68
607.128	6098.84
607.485	6142.9
607.843	6077.14
608.2	6166.41
608.557	6215.67
608.914	6131.38
609.272	6182.9
609.629	6190.59
609.986	6216.12
610.343	6160.3
610.7	6231.94
611.057	6224.94
611.414	6105.16
611.771	6171.38
612.127	6257.02
612.484	6214.77
612.841	6243.92
613.198	6239.4
613.554	6254.31
613.911	6328.21
614.267	6367.98
614.624	6289.79
614.98	6338.38
615.337	6377.02
615.693	6381.99
616.05	6400.3
616.406	6418.6
616.762	6403.24
617.118	6398.49
617.475	6387.19
617.831	6433.29
618.187	6459.73
618.543	6465.38
618.899	6490.69
619.255	6415.89
619.611	6499.5
619.967	6484.14
620.323	6486.17
620.678	6477.13
621.034	6438.04
621.39	6385.38
621.746	6418.38
622.101	6474.42
622.457	6384.93
622.812	6393.97
623.168	6418.15
623.523	6385.16
623.879	6401.43
624.234	6397.36
624.589	6311.03
624.945	6334.99
625.3	6365.95
625.655	6327.53
626.01	6323.92
626.365	6320.07
626.72	6310.58
627.075	6299.28
627.43	6304.03
627.785	6258.38
628.14	6268.32
628.495	6249.79
628.85	6296.57
629.205	6226.52
629.559	6311.94
629.914	6291.83
630.269	6296.12
630.623	6229.68
630.978	6264.26
631.332	6232.62
631.687	6313.97
632.041	6297.93
632.396	6321.88
632.75	6297.02
633.104	6318.49
633.459	6245.27
633.813	6267.87
634.167	6329.79
634.521	6356.91
634.875	6363.24
635.229	6362.78
635.583	6257.48
635.937	6339.73
636.291	6347.64
636.645	6360.07
636.999	6360.98
637.352	6310.81
637.706	6335.67
638.06	6303.35
638.413	6369.34
638.767	6253.18
639.121	6273.75
639.474	6282.79
639.828	6283.24
640.181	6323.46
640.534	6286.85
640.888	6254.76
641.241	6241.66
641.594	6209.12
641.947	6257.7
642.301	6221.09
642.654	6229.23
643.007	6198.04
643.36	6208.89
643.713	6170.93
644.066	6143.58
644.419	6103.13
644.771	6037.6
645.124	5956.47
645.477	5966.64
645.83	5913.53
646.182	5913.53
646.535	5948.78
646.888	5975
647.24	5912.63
647.593	5920.31
647.945	5932.29
648.298	5882.12
648.65	5898.84
649.002	5847.77
649.355	5880.76
649.707	5843.48
650.059	5875.11
650.411	5937.03
650.763	5902.91
651.115	5973.42
651.467	5976.58
651.819	5986.3
652.171	6033.98
652.523	5966.64
652.875	5999.18
653.227	5930.93
653.578	6022
653.93	6032.17
654.282	5976.81
654.633	5944.04
654.985	5956.69
655.337	5971.16
655.688	6025.62
656.039	5978.61
656.391	5929.8
656.742	5989.24
657.094	5991.04
657.445	5994.43
657.796	5977.71
658.147	5949.69
658.498	5972.29
658.849	5966.41
659.2	5919.41
659.551	5925.73
659.902	6018.61
660.253	5923.25
660.604	5924.38
660.955	5896.58
661.306	5905.4
661.656	5869.01
662.007	5876.02
662.358	5886.41
662.708	5897.03
663.059	5880.09
663.409	5847.09
663.76	5848
664.11	5885.96
664.461	5860.65
664.811	5854.78
665.161	5793.08
665.511	5802.8
665.862	5845.28
666.212	5801.22
666.562	5817.49
666.912	5786.75
667.262	5777.26
667.612	5773.87
667.962	5855.23
668.312	5816.58
668.662	5818.84
669.011	5832.18
669.361	5784.27
669.711	5790.14
670.06	5814.32
670.41	5829.24
670.76	5847.77
671.109	5856.81
671.459	5852.06
671.808	5827.43
672.157	5847.77
672.507	5818.84
672.856	5783.36
673.205	5822.91
673.554	5904.27
673.904	5909.69
674.253	5909.01
674.602	5903.59
674.951	5796.25
675.3	5753.54
675.649	5915.79
675.998	5872.63
676.346	5849.35
676.695	5917.37
677.044	5822.69
677.393	5813.65
677.741	5839.86
678.09	5849.8
678.438	5850.26
678.787	5842.8
679.135	5848
679.484	5789.47
679.832	5775.46
680.181	5783.36
680.529	5821.78
680.877	5701.79
681.225	5679.64
681.573	5722.35
681.922	5708.79
682.27	5739.52
682.618	5689.13
682.966	5648.45
683.314	5615.91
683.661	5553.99
684.009	5543.6
684.357	5561.9
684.705	5543.37
685.053	5568
685.4	5572.75
685.748	5467.22
686.095	5472.64
686.443	5509.02
686.79	5435.58
687.138	5448.46
687.485	5444.16
687.832	5432.87
688.18	5457.05
688.527	5398.97
688.874	5406.88
689.221	5373.66
689.568	5424.5
689.915	5403.26
690.262	5378.4
690.609	5387.44
690.956	5349.03
691.303	5381.34
691.65	5297.73
691.997	5311.51
692.344	5291.17
692.69	5333.89
693.037	5347.44
693.383	5316.94
693.73	5302.25
694.077	5280.55
694.423	5287.78
694.769	5257.28
695.116	5285.3
695.462	5277.39
695.808	5260.67
696.155	5233.1
696.501	5221.12
696.847	5229.26
697.193	5225.19
697.539	5273.32
697.885	5237.84
698.231	5179.76
698.577	5220.89
698.923	5172.76
699.269	5164.62
699.614	5104.74
699.96	5123.04
700.306	5153.55
700.651	5129.37
700.997	5121.46
701.342	5111.07
701.688	5118.75
702.033	5074.68
702.379	5067.9
702.724	5050.73
703.069	5048.24
703.415	4970.73
703.76	4956.27
704.105	4995.14
704.45	5016.83
704.795	4953.1
705.14	4921.92
705.485	4934.35
705.83	4917.4
706.175	4914.91
706.52	4876.95
706.865	4845.08
707.209	4833.11
707.554	4835.82
707.899	4831.07
708.243	4807.57
708.588	4818.42
708.932	4760.34
709.277	4764.18
709.621	4755.6
709.966	4775.48
710.31	4763.28
710.654	4667.46
710.998	4711.98
711.342	4707.91
711.687	4720.34
712.031	4659.1
712.375	4706.11
712.719	4635.15
713.063	4645.77
713.407	4650.51
713.75	4621.36
714.094	4642.38
714.438	4638.76
714.782	4667.24
715.125	4615.71
715.469	4635.15
715.812	4626.33
716.156	4561.25
716.499	4582.49
716.843	4595.83
717.186	4649.16
717.53	4582.94
717.873	4601.7
718.216	4590.4
718.559	4592.89
718.902	4570.74
719.246	4552.89
719.589	4583.17
719.932	4489.16
720.275	4511.99
720.617	4577.97
720.96	4514.47
721.303	4516.96
721.646	4536.84
721.989	4500.91
722.331	4444.19
722.674	4512.66
723.016	4499.56
723.359	4471.76
723.701	4478.99
724.044	4436.51
724.386	4434.25
724.729	4446.9
725.071	4435.38
725.413	4444.42
725.755	4396.06
726.097	4418.2
726.439	4392.67
726.782	4379.79
727.124	4389.5
727.465	4408.94
727.807	4388.6
728.149	4372.33
728.491	4351.76
728.833	4348.15
729.175	4343.18
729.516	4310.64
729.858	4293.91
730.199	4295.04
730.541	4282.61
730.882	4273.57
731.224	4294.59
731.565	4275.16
731.906	4260.47
732.248	4284.87
732.589	4227.7
732.93	4200.13
733.271	4218.21
733.612	4241.48
733.953	4215.04
734.294	4220.69
734.635	4203.29
734.976	4192.67
735.317	4210.52
735.658	4172.33
735.999	4196.51
736.339	4153.13
736.68	4174.37
737.021	4174.59
737.361	4170.53
737.702	4177.08
738.042	4178.21
738.383	4169.62
738.723	4165.1
739.063	4182.05
739.404	4168.72
739.744	4128.27
740.084	4098.66
740.424	4067.7
740.764	4085.33
741.104	4111.09
741.444	4110.41
741.784	4086.69
742.124	4079.91
742.464	4104.76
742.804	4105.22
743.143	4078.55
743.483	4074.03
743.823	4101.38
744.162	4094.37
744.502	4074.94
744.841	4088.49
745.181	4039.46
745.52	4058.89
745.86	4090.98
746.199	4079.45
746.538	4051.43
746.877	4061.15
747.216	4035.16
747.556	4055.95
747.895	4046.46
748.234	4020.02
748.573	4040.13
748.911	4016.18
749.25	4063.41
749.589	4059.79
749.928	3997.65
750.267	3996.07
750.605	3974.37
750.944	3962.62
751.283	3971.44
751.621	4045.33
751.96	3940.93
752.298	3968.72
752.636	3917.2
752.975	3928.05
753.313	3953.81
753.651	3956.52
753.989	3884.21
754.327	3911.55
754.666	3894.38
755.004	3918.33
755.342	3876.97
755.679	3921.27
756.017	3878.56
756.355	3884.43
756.693	3865.45
757.031	3894.6
757.368	3822.96
757.706	3858.67
758.044	3813.02
758.381	3831.78
758.719	3807.37
759.056	3775.96
759.394	3809.86
759.731	3764.21
760.068	3778.9
760.405	3782.97
760.743	3755.17
761.08	3733.93
761.417	3714.49
761.754	3714.72
762.091	3695.28
762.428	3745.45
762.765	3685.34
763.102	3703.42
763.438	3648.05
763.775	3636.98
764.112	3641.5
764.449	3650.54
764.785	3653.03
765.122	3597.89
765.458	3600.82
765.795	3567.38
766.131	3550.66
766.467	3581.61
766.804	3564.21
767.14	3567.38
767.476	3519.92
767.812	3549.75
768.148	3497.55
768.485	3509.53
768.821	3494.61
769.157	3493.71
769.492	3486.02
769.828	3462.52
770.164	3405.8
770.5	3401.73
770.836	3496.87
771.171	3409.42
771.507	3413.48
771.842	3392.02
772.178	3411.45
772.513	3371.68
772.849	3336.2
773.184	3335.07
773.519	3326.03
773.855	3283.09
774.19	3314.05
774.525	3268.4
774.86	3293.49
775.195	3309.53
775.53	3284.9
775.865	3272.47
776.2	3271.57
776.535	3188.63
776.87	3209.2
777.205	3196.99
777.539	3204.45
777.874	3187.73
778.209	3194.73
778.543	3187.5
778.878	3148.18
779.212	3204.68
779.547	3155.64
779.881	3201.29
780.215	3151.12
780.55	3153.15
780.884	3124.68
781.218	3138.46
781.552	3118.12
781.886	3137.11
782.22	3068.18
782.554	3082.64
782.888	3093.27
783.222	3079.26
783.556	3053.72
783.889	3048.75
784.223	3042.87
784.557	3048.3
784.89	3054.62
785.224	3004.68
785.557	2969.2
785.891	3005.13
786.224	2994.74
786.558	2985.02
786.891	3006.94
787.224	2946.83
787.557	2938.69
787.891	2902.99
788.224	2954.06
788.557	2957.45
788.89	2936.43
789.223	2887.17
789.556	2930.11
789.888	2880.84
790.221	2881.52
790.554	2859.6
790.887	2858.47
791.219	2852.37
791.552	2856.89
791.884	2872.93
792.217	2829.54
792.549	2814.86
792.882	2835.87
793.214	2795.87
793.546	2811.92
793.879	2766.72
794.211	2781.64
794.543	2747.74
794.875	2765.14
795.207	2775.76
795.539	2759.04
795.871	2764.24
796.203	2729.21
796.535	2735.54
796.867	2732.15
797.198	2705.71
797.53	2700.51
797.862	2671.36
798.193	2723.11
798.525	2630
798.856	2650.57
799.188	2649.66
799.519	2670.23
799.85	2604.01
800.182	2635.2
800.513	2611.02
800.844	2604.69
801.175	2619.83
801.506	2595.65
801.837	2568.76
802.168	2617.8
802.499	2592.26
802.83	2548.42
803.161	2546.61
803.491	2547.07
803.822	2543.45
804.153	2517.24
804.483	2521.3
804.814	2523.79
805.145	2519.27
805.475	2557.24
805.805	2511.36
806.136	2478.37
806.466	2506.61
806.796	2495.09
807.126	2465.71
807.457	2502.32
807.787	2481.98
808.117	2474.07
808.447	2477.01
808.777	2458.48
809.107	2510.68
809.436	2481.3
809.766	2462.77
810.096	2463.9
810.426	2465.03
810.755	2436.33
811.085	2453.51
811.414	2433.17
811.744	2392.95
812.073	2438.37
812.403	2454.64
812.732	2397.69
813.061	2415.32
813.39	2410.8
813.719	2397.47
814.049	2414.64
814.378	2399.27
814.707	2400.85
815.036	2374.41
815.365	2360.63
815.693	2320.18
816.022	2368.09
816.351	2358.14
816.68	2338.03
817.008	2356.11
817.337	2326.28
817.665	2329.67
817.994	2326.28
818.322	2370.35
818.651	2279.28
818.979	2300.29
819.307	2357.47
819.636	2310.01
819.964	2280.63
820.292	2303.46
820.62	2310.69
820.948	2317.69
821.276	2311.82
821.604	2285.6
821.932	2314.08
822.259	2300.29
822.587	2310.01
822.915	2277.92
823.243	2300.29
823.57	2272.5
823.898	2313.63
824.225	2299.61
824.553	2291.48
824.88	2246.28
825.207	2273.63
825.535	2296.9
825.862	2290.12
826.189	2278.37
826.516	2283.34
826.843	2296.22
827.17	2227.3
827.497	2290.58
827.824	2316.34
828.151	2308.43
828.478	2269.78
828.805	2246.28
829.131	2282.67
829.458	2240.41
829.785	2264.14
830.111	2234.31
830.438	2273.63
830.764	2221.65
831.09	2229.79
831.417	2220.52
831.743	2231.59
832.069	2198.15
832.395	2200.18
832.722	2237.92
833.048	2199.96
833.374	2208.32
833.7	2236.57
834.026	2224.59
834.351	2200.86
834.677	2208.54
835.003	2253.06
835.329	2226.4
835.654	2239.28
835.98	2213.52
836.306	2213.06
836.631	2190.47
836.956	2212.84
837.282	2195.44
837.607	2187.53
837.932	2199.05
838.258	2181.88
838.583	2207.87
838.908	2214.87
839.233	2195.44
839.558	2163.8
839.883	2193.63
840.208	2177.36
840.533	2190.01
840.858	2183.23
841.182	2197.92
841.507	2218.26
841.832	2194.08
842.156	2197.7
842.481	2191.14
842.805	2174.65
843.13	2200.63
843.454	2154.99
843.778	2187.75
844.103	2160.41
844.427	2178.26
844.751	2153.18
845.075	2151.37
845.399	2157.47
845.723	2155.66
846.047	2155.66
846.371	2155.21
846.695	2131.48
847.019	2168.32
847.343	2124.93
847.666	2122.67
847.99	2113.18
848.313	2173.06
848.637	2108.43
848.96	2122.67
849.284	2108.89
849.607	2100.07
849.931	2093.74
850.254	2104.37
850.577	2067.08
850.9	2063.01
851.223	2069.34
851.546	2064.59
851.869	2053.75
852.192	2065.27
852.515	2050.81
852.838	2039.28
853.161	2009
853.483	2000.64
853.806	1996.35
854.129	2021.43
854.451	2000.64
854.774	2008.55
855.096	1955.44
855.419	2000.41
855.741	1960.64
856.063	1951.38
856.385	1953.64
856.708	1935.78
857.03	1938.72
857.352	1932.84
857.674	1920.64
857.996	1898.95
858.318	1929
858.64	1924.03
858.961	1895.11
859.283	1935.1
859.605	1902.79
859.926	1921.55
860.248	1871.6
860.57	1850.13
860.891	1910.7
861.212	1827.76
861.534	1839.74
861.855	1819.4
862.176	1874.99
862.498	1853.52
862.819	1853.75
863.14	1809.46
863.461	1808.78
863.782	1785.5
864.103	1818.5
864.424	1816.24
864.745	1829.57
865.065	1781.44
865.386	1769.91
865.707	1778.5
866.027	1791.61
866.348	1776.69
866.668	1778.27
866.989	1778.5
867.309	1783.02
867.63	1774.43
867.95	1760.19
868.27	1745.73
868.59	1756.13
868.91	1752.06
869.23	1730.14
869.55	1752.28
869.87	1724.94
870.19	1754.77
870.51	1750.25
870.83	1746.63
871.15	1722.68
871.469	1753.19
871.789	1748.22
872.109	1755.22
872.428	1715.68
872.748	1715
873.067	1740.08
873.386	1741.66
873.706	1731.04
874.025	1751.15
874.344	1743.92
874.663	1750.48
874.982	1714.32
875.301	1718.39
875.62	1719.74
875.939	1723.58
876.258	1722
876.577	1709.8
876.896	1729.46
877.214	1691.72
877.533	1729.69
877.852	1719.52
878.17	1740.31
878.489	1722
878.807	1749.12
879.125	1743.92
879.444	1762.45
879.762	1697.14
880.08	1724.71
880.398	1710.25
880.716	1725.17
881.034	1723.81
881.352	1700.08
881.67	1698.73
881.988	1756.35
882.306	1720.19
882.624	1735.79
882.941	1695.79
883.259	1721.78
883.577	1726.75
883.894	1689.24
884.212	1722.23
884.529	1704.6
884.846	1698.73
885.164	1683.59
885.481	1679.29
885.798	1686.75
886.115	1658.5
886.432	1690.37
886.75	1712.29
887.067	1695.79
887.383	1646.52
887.7	1681.55
888.017	1674.32
888.334	1676.81
888.651	1676.35
888.967	1668.9
889.284	1658.28
889.6	1649.46
889.917	1660.76
890.233	1631.61
890.55	1640.42
890.866	1641.55
891.182	1640.42
891.498	1619.18
891.815	1612.85
892.131	1623.02
892.447	1597.03
892.763	1614.89
893.079	1600.42
893.395	1599.07
893.71	1603.59
894.026	1594.1
894.342	1564.94
894.657	1569.92
894.973	1541.22
895.289	1560.43
895.604	1552.06
895.92	1560.43
896.235	1546.87
896.55	1531.27
896.865	1531.95
897.181	1525.62
897.496	1543.7
897.811	1513.19
898.126	1518.17
898.441	1532.4
898.756	1525.85
899.071	1501.44
899.386	1486.75
899.7	1480.65
900.015	1481.78
900.33	1471.16
900.644	1489.92
900.959	1470.48
901.273	1486.08
901.588	1462.12
901.902	1440.65
902.216	1438.39
902.531	1453.08
902.845	1447.66
903.159	1464.16
903.473	1427.1
903.787	1415.8
904.101	1436.13
904.415	1424.16
904.729	1424.61
905.042	1383.03
905.356	1420.77
905.67	1399.53
905.984	1393.65
906.297	1389.58
906.611	1382.35
906.924	1407.43
907.237	1401.11
907.551	1383.03
907.864	1373.31
908.177	1368.34
908.491	1359.98
908.804	1357.49
909.117	1345.06
909.43	1352.52
909.743	1354.55
910.056	1358.85
910.368	1348.68
910.681	1325.18
910.994	1346.19
911.307	1314.78
911.619	1319.3
911.932	1310.71
912.244	1341.45
912.557	1345.97
912.869	1333.76
913.181	1327.66
913.494	1334.89
913.806	1300.77
914.118	1291.73
914.43	1303.93
914.742	1289.47
915.054	1284.05
915.366	1259.87
915.678	1301
915.99	1284.95
916.302	1269.13
916.613	1256.03
916.925	1284.05
917.236	1271.85
917.548	1267.55
917.859	1262.13
918.171	1254.44
918.482	1249.92
918.794	1255.12
919.105	1255.35
919.416	1233.2
919.727	1241.34
920.038	1233.43
920.349	1237.95
920.66	1230.49
920.971	1254.67
921.282	1246.99
921.593	1213.77
921.903	1216.48
922.214	1197.27
922.525	1209.47
922.835	1218.29
923.146	1155.69
923.456	1216.25
923.767	1187.1
924.077	1202.92
924.387	1207.67
924.697	1187.78
925.008	1183.26
925.318	1152.75
925.628	1174.67
925.938	1159.08
926.248	1157.72
926.558	1163.83
926.867	1142.13
927.177	1140.32
927.487	1126.54
927.796	1145.07
928.106	1130.15
928.416	1113.88
928.725	1135.8
929.034	1114.79
929.344	1129.93
929.653	1104.84
929.962	1114.79
930.271	1102.58
930.581	1085.41
930.89	1105.07
931.199	1093.54
931.508	1075.24
931.817	1083.83
932.125	1101
932.434	1071.4
932.743	1049.48
933.051	1099.87
933.36	1054.68
933.669	1048.57
933.977	1044.05
934.286	1050.38
934.594	1051.74
934.902	1057.16
935.21	1058.74
935.519	1021.46
935.827	1053.32
936.135	1022.36
936.443	1051.29
936.751	1024.39
937.059	1044.96
937.367	1033.89
937.674	1011.06
937.982	1015.81
938.29	1027.33
938.597	1008.12
938.905	976.26
939.213	985.3
939.52	995.47
939.827	1003.38
940.135	976.49
940.442	1001.8
940.749	964.06
941.056	987.56
941.363	974.68
941.67	971.51
941.977	971.74
942.284	957.05
942.591	965.41
942.898	961.34
943.205	962.93
943.511	953.89
943.818	940.33
944.125	945.53
944.431	930.61
944.738	955.47
945.044	936.49
945.35	938.29
945.657	908.46
945.963	937.62
946.269	933.55
946.575	898.3
946.881	922.02
947.187	886.09
947.493	909.14
947.799	893.1
948.105	910.5
948.41	940.55
948.716	914.57
949.022	921.35
949.327	901.23
949.633	918.18
949.938	913.21
950.244	916.15
950.549	913.89
950.854	914.34
951.16	892.65
951.465	894.91
951.77	921.8
952.075	895.58
952.38	903.72
952.685	885.41
952.99	877.28
953.294	856.04
953.599	879.99
953.904	870.73
954.209	868.01
954.513	858.97
954.818	872.53
955.122	880.44
955.426	862.36
955.731	854.45
956.035	878.41
956.339	844.96
956.643	866.21
956.948	853.55
957.252	859.2
957.556	853.33
957.86	863.04
958.163	816.04
958.467	834.79
958.771	857.39
959.075	838.86
959.378	838.41
959.682	852.87
959.985	823.5
960.289	837.73
960.592	822.14
960.896	832.99
961.199	798.19
961.502	812.42
961.805	772.42
962.108	798.64
962.411	796.15
962.714	810.84
963.017	825.3
963.32	824.63
963.623	830.05
963.926	824.85
964.228	790.05
964.531	802.48
964.833	792.76
965.136	802.93
965.438	767.9
965.741	798.64
966.043	773.1
966.345	775.36
966.648	782.59
966.95	774.68
967.252	787.11
967.554	764.97
967.856	771.52
968.158	774.68
968.46	753.67
968.761	753.67
969.063	735.14
969.365	763.61
969.666	756.83
969.968	757.28
970.269	754.8
970.571	759.54
970.872	759.32
971.174	744.18
971.475	751.41
971.776	741.69
972.077	724.97
972.378	728.36
972.679	752.76
972.98	740.79
973.281	703.27
973.582	734.91
973.883	725.19
974.183	726.1
974.484	712.54
974.785	729.03
975.085	707.11
975.386	711.86
975.686	714.57
975.986	682.71
976.287	731.97
976.587	704.4
976.887	707.79
977.187	719.32
977.487	718.19
977.787	723.61
978.087	700.79
978.387	691.3
978.687	677.06
978.987	694.46
979.286	683.39
979.586	709.37
979.885	688.36
980.185	700.56
980.484	676.15
980.784	682.93
981.083	673.89
981.382	656.72
981.682	659.66
981.981	661.24
982.28	656.49
982.579	653.33
982.878	682.48
983.177	677.51
983.475	663.05
983.774	659.21
984.073	659.43
984.372	619.43
984.67	631.18
984.969	658.08
985.267	651.52
985.566	661.92
985.864	641.81
986.162	646.32
986.461	627.34
986.759	652.88
987.057	628.25
987.355	651.07
987.653	656.49
987.951	636.61
988.249	607
988.547	635.25
988.844	647.68
989.142	623.5
989.44	640.22
989.737	647.68
990.035	658.53
990.332	600.22
990.63	598.19
990.927	607.91
991.224	598.19
991.521	616.27
991.819	619.88
992.116	603.16
992.413	604.07
992.71	608.81
993.006	613.33
993.303	607
993.6	619.88
993.897	600.68
994.193	585.54
994.49	605.65
994.787	618.75
995.083	622.14
995.379	589.83
995.676	588.02
995.972	594.12
996.268	590.96
996.565	608.81
996.861	574.46
997.157	583.5
997.453	581.47
997.749	589.38
998.044	581.02
998.34	602.48
998.636	584.18
998.932	567.91
999.227	570.85
999.523	566.33
999.818	587.57
1000.114	573.56
1000.409	567.91
1000.704	559.55
1001	550.96
1001.295	554.8
1001.59	565.2
1001.885	590.06
1002.18	577.85
1002.475	551.64
1002.77	569.49
1003.065	560.68
1003.359	549.6
1003.654	556.84
1003.949	546.44
1004.243	562.49
1004.538	558.19
1004.832	545.54
1005.127	527.46
1005.421	563.39
1005.715	532.2
1006.009	545.54
1006.304	525.65
1006.598	527.68
1006.892	551.41
1007.186	543.05
1007.48	538.08
1007.773	523.16
1008.067	518.87
1008.361	549.15
1008.655	531.75
1008.948	529.49
1009.242	512.99
1009.535	544.86
1009.829	525.65
1010.122	514.12
1010.415	530.17
1010.708	494.92
1011.001	504.63
1011.295	508.7
1011.588	503.05
1011.881	510.74
1012.173	506.67
1012.466	513.22
1012.759	498.08
1013.052	523.62
1013.344	526.33
1013.637	487.23
1013.93	505.99
1014.222	506.22
1014.514	503.5
1014.807	496.27
1015.099	465.76
1015.391	511.19
1015.683	500.11
1015.976	489.27
1016.268	522.94
1016.56	470.96
1016.851	477.74
1017.143	492.43
1017.435	483.84
1017.727	484.97
1018.018	502.37
1018.31	470.96
1018.602	487.23
1018.893	496.27
1019.185	492.43
1019.476	474.13
1019.767	464.41
1020.058	489.27
1020.35	478.87
1020.641	478.19
1020.932	473.45
1021.223	495.82
1021.514	459.21
1021.804	473.9
1022.095	452.88
1022.386	462.15
1022.677	460.79
1022.967	463.73
1023.258	480
1023.548	451.53
1023.839	469.61
1024.129	447.23
1024.419	445.88
1024.709	450.17
1025	464.86
1025.29	444.75
1025.58	437.52
1025.87	450.4
1026.16	413.11
1026.449	430.96
1026.739	461.47
1027.029	441.13
1027.319	430.06
1027.608	443.84
1027.898	426.9
1028.187	436.84
1028.477	440.45
1028.766	437.97
1029.055	421.92
1029.344	428.7
1029.634	449.72
1029.923	416.27
1030.212	428.25
1030.501	423.05
1030.79	427.12
1031.078	412.88
1031.367	425.54
1031.656	428.48
1031.945	431.42
1032.233	443.62
1032.522	400.68
1032.81	434.35
1033.099	416.73
1033.387	434.58
1033.675	434.58
1033.963	398.42
1034.251	433
1034.54	395.26
1034.828	418.08
1035.116	413.56
1035.403	393
1035.691	425.99
1035.979	419.21
1036.267	433.9
1036.554	424.18
1036.842	424.18
1037.129	393.9
1037.417	400.23
1037.704	419.44
1037.992	432.77
1038.279	401.13
1038.566	417.4
1038.853	417.4
1039.14	417.4
