Data from foam_black_FLMS001491_00009.txt Node
Date: Wed Feb 08 10:43:26 GMT 2017
User: dcchb
Spectrometer: FLMS00149
Trigger mode: 0
Integration Time (sec): 2.000000E-2
Scans to average: 10
Electric dark correction enabled: true
Nonlinearity correction enabled: false
Boxcar width: 0
XAxis mode: Wavelengths
Number of Pixels in Spectrum: 2048
>>>>>Begin Spectral Data<<<<<
341.393	-6.33
341.776	-6.33
342.16	-6.33
342.543	-53.56
342.927	-89.72
343.31	-66.21
343.693	-68.92
344.077	-51.52
344.46	-55.82
344.843	-73.44
345.226	-52.2
345.61	-23.95
345.993	-25.31
346.376	-9.94
346.759	3.62
347.142	18.76
347.525	58.76
347.908	71.18
348.291	69.38
348.674	98.75
349.057	106.89
349.44	129.49
349.823	135.59
350.206	162.71
350.588	195.48
350.971	193.67
351.354	240.9
351.737	224.4
352.119	247.23
352.502	258.3
352.884	265.76
353.267	269.82
353.65	276.83
354.032	295.81
354.414	303.04
354.797	305.75
355.179	318.64
355.562	338.3
355.944	329.03
356.326	353.21
356.709	323.16
357.091	337.39
357.473	338.07
357.855	343.95
358.238	354.57
358.62	355.02
359.002	347.11
359.384	353.66
359.766	360.67
360.148	332.65
360.53	344.62
360.912	345.53
361.294	354.57
361.676	337.62
362.057	344.4
362.439	354.57
362.821	334.23
363.203	324.51
363.584	338.3
363.966	326.77
364.348	343.27
364.729	329.71
365.111	322.03
365.493	359.09
365.874	334.23
366.256	337.17
366.637	350.27
367.019	350.05
367.4	336.71
367.781	311.86
368.163	315.25
368.544	330.84
368.925	320.44
369.306	336.04
369.688	329.26
370.069	327
370.45	327.45
370.831	339.88
371.212	325.19
371.593	327.22
371.974	316.83
372.355	343.27
372.736	338.3
373.117	335.36
373.498	336.94
373.879	350.73
374.26	343.95
374.641	315.25
375.021	331.06
375.402	357.5
375.783	353.44
376.163	362.48
376.544	362.02
376.925	352.53
377.305	358.86
377.686	357.96
378.066	367.22
378.447	348.69
378.827	352.53
379.208	383.49
379.588	378.3
379.968	383.94
380.349	361.12
380.729	371.06
381.109	386.2
381.489	385.98
381.87	381.01
382.25	363.61
382.63	377.84
383.01	387.33
383.39	384.4
383.77	387.79
384.15	391.63
384.53	388.01
384.91	384.62
385.29	417.16
385.67	393.21
386.049	428.46
386.429	402.48
386.809	406.54
387.189	401.8
387.568	424.85
387.948	397.5
388.328	413.77
388.707	402.02
389.087	415.36
389.466	430.27
389.846	441.12
390.225	428.92
390.605	436.15
390.984	418.52
391.363	422.14
391.743	436.15
392.122	450.61
392.501	449.03
392.881	437.05
393.26	455.58
393.639	451.74
394.018	467.11
394.397	459.2
394.776	480.67
395.155	465.75
395.534	451.51
395.913	480.21
396.292	466.43
396.671	467.11
397.05	491.51
397.429	507.33
397.808	495.13
398.186	482.47
398.565	499.87
398.944	497.16
399.323	498.52
399.701	526.54
400.08	515.69
400.458	519.31
400.837	514.11
401.215	516.6
401.594	539.19
401.972	511.17
402.351	513.66
402.729	528.8
403.107	536.03
403.486	557.73
403.864	529.7
404.242	553.66
404.62	547.1
404.999	549.82
405.377	565.41
405.755	557.05
406.133	549.59
406.511	576.71
406.889	558.4
407.267	566.54
407.645	581.45
408.023	598.4
408.401	598.4
408.779	581.68
409.156	608.57
409.534	617.38
409.912	620.1
410.29	599.98
410.667	618.97
411.045	633.2
411.422	615.58
411.8	643.82
412.178	669.36
412.555	662.13
412.933	635.24
413.31	678.17
413.687	695.57
414.065	675.24
414.442	679.98
414.819	696.48
415.197	687.44
415.574	729.7
415.951	722.92
416.328	717.04
416.705	693.99
417.082	723.37
417.46	752.3
417.837	722.69
418.214	728.57
418.591	744.84
418.967	763.14
419.344	753.88
419.721	758.62
420.098	781.9
420.475	793.2
420.852	784.16
421.228	772.86
421.605	817.83
421.982	808.11
422.358	805.63
422.735	823.48
423.111	798.62
423.488	813.99
423.864	836.14
424.241	851.28
424.617	847.21
424.994	883.14
425.37	875.91
425.746	849.7
426.123	849.92
426.499	877.04
426.875	894.21
427.251	933.99
427.627	955.91
428.003	919.98
428.379	920.43
428.756	956.36
429.132	919.52
429.507	967.66
429.883	935.79
430.259	965.85
430.635	986.41
431.011	1012.63
431.387	1001.56
431.763	1033.42
432.138	1035.9
432.514	1056.47
432.89	1031.16
433.265	1078.39
433.641	1069.12
434.016	1065.51
434.392	1081.78
434.767	1126.07
435.143	1090.82
435.518	1106.86
435.894	1138.73
436.269	1141.21
436.644	1173.3
437.02	1134.43
437.395	1159.74
437.77	1190.25
438.145	1204.71
438.52	1182.12
438.895	1208.78
439.271	1218.05
439.646	1238.39
440.021	1217.6
440.395	1216.92
440.77	1239.06
441.145	1239.74
441.52	1267.76
441.895	1251.49
442.27	1287.2
442.645	1293.3
443.019	1314.77
443.394	1290.36
443.769	1316.8
444.143	1306.18
444.518	1319.51
444.892	1303.47
445.267	1337.59
445.641	1334.65
446.016	1340.76
446.39	1360.19
446.764	1392.73
447.139	1383.01
447.513	1376.91
447.887	1386.86
448.262	1397.7
448.636	1396.8
449.01	1409
449.384	1430.47
449.758	1428.89
450.132	1480.87
450.506	1447.19
450.88	1468.66
451.254	1477.93
451.628	1477.48
452.002	1503.69
452.376	1531.26
452.75	1523.8
453.123	1555.44
453.497	1558.6
453.871	1573.07
454.244	1595.66
454.618	1628.88
454.992	1661.2
455.365	1612.39
455.739	1661.88
456.112	1689.45
456.486	1711.37
456.859	1691.71
457.232	1732.38
457.606	1755.21
457.979	1743.68
458.352	1793.4
458.725	1801.53
459.099	1805.15
459.472	1860.52
459.845	1859.84
460.218	1846.51
460.591	1902.77
460.964	1889.44
461.337	1944.13
461.71	1964.92
462.083	1977.8
462.456	1990.46
462.829	2026.84
463.201	2045.14
463.574	2039.27
463.947	2075.43
464.32	2078.82
464.692	2130.57
465.065	2146.84
465.438	2142.77
465.81	2177.57
466.183	2197.91
466.555	2259.83
466.928	2257.34
467.3	2281.07
467.672	2265.93
468.045	2329.43
468.417	2344.57
468.789	2384.8
469.161	2398.81
469.534	2436.09
469.906	2468.86
470.278	2484.23
470.65	2517.67
471.022	2557.67
471.394	2611
471.766	2647.16
472.138	2642.42
472.51	2719.7
472.882	2768.74
473.253	2807.61
473.625	2783.88
473.997	2877.66
474.369	2877.66
474.74	2945.01
475.112	2958.34
475.484	3005.12
475.855	3076.3
476.227	3140.03
476.598	3181.16
476.97	3165.57
477.341	3245.79
477.713	3307.71
478.084	3324.66
478.455	3392.91
478.827	3436.97
479.198	3547.7
479.569	3554.03
479.94	3632.67
480.311	3641.71
480.682	3723.07
481.053	3797.87
481.424	3831.54
481.795	3913.57
482.166	3951.99
482.537	3990.86
482.908	4053
483.279	4117.18
483.65	4243.96
484.021	4271.3
484.391	4258.42
484.762	4352.65
485.133	4371.64
485.503	4465.87
485.874	4524.17
486.244	4576.15
486.615	4659.09
486.985	4699.99
487.356	4768.46
487.726	4765.75
488.097	4939.98
488.467	4937.27
488.837	5006.87
489.207	5011.62
489.578	5127.55
489.948	5185.63
490.318	5288.45
490.688	5267.88
491.058	5376.36
491.428	5441.44
491.798	5452.06
492.168	5558.27
492.538	5573.41
492.908	5670.59
493.278	5684.37
493.648	5712.39
494.017	5776.8
494.387	5834.65
494.757	5901.09
495.126	5900.41
495.496	5978.37
495.866	6068.99
496.235	6033.74
496.605	6102.66
496.974	6104.47
497.344	6179.95
497.713	6208.2
498.082	6281.64
498.452	6345.82
498.821	6348.53
499.19	6396.22
499.559	6423.56
499.928	6487.74
500.298	6518.47
500.667	6592.82
501.036	6626.04
501.405	6746.04
501.774	6700.16
502.143	6698.58
502.512	6772.93
502.88	6874.17
503.249	6842.08
503.618	6958.01
503.987	6949.65
504.356	7021.28
504.724	7076.42
505.093	7044.56
505.462	7095.18
505.83	7161.17
506.199	7240.49
506.567	7325.01
506.936	7283.2
507.304	7405.68
507.672	7462.85
508.041	7476.41
508.409	7515.96
508.777	7593.7
509.145	7627.82
509.514	7629.4
509.882	7753.69
510.25	7746.01
510.618	7858.1
510.986	7831.66
511.354	7929.06
511.722	7981.94
512.09	8107.36
512.458	8047.92
512.826	8116.4
513.193	8147.58
513.561	8216.51
513.929	8249.05
514.297	8282.04
514.664	8366.11
515.032	8428.7
515.4	8596.61
515.767	8615.37
516.135	8584.41
516.502	8628.47
516.869	8738.53
517.237	8811.52
517.604	8816.04
517.972	8907.34
518.339	9004.28
518.706	8935.36
519.073	9049.93
519.44	9103.49
519.808	9158.63
520.175	9224.16
520.542	9323.14
520.909	9371.28
521.276	9314.11
521.643	9411.28
522.009	9616.7
522.376	9616.24
522.743	9680.2
523.11	9735.11
523.477	9834.77
523.843	9980.53
524.21	10046.52
524.577	10069.57
524.943	10203.35
525.31	10254.42
525.676	10377.13
526.043	10397.69
526.409	10454.64
526.776	10481.53
527.142	10565.82
527.508	10582.55
527.874	10670.91
528.241	10846.95
528.607	10812.37
528.973	10962.2
529.339	10957
529.705	11061.4
530.071	11091.69
530.437	11168.29
530.803	11245.81
531.169	11316.76
531.535	11311.12
531.901	11368.97
532.267	11421.17
532.632	11549.75
532.998	11636.3
533.364	11697.32
533.73	11690.77
534.095	11730.31
534.461	11808.05
534.826	11854.6
535.192	11915.62
535.557	11963.98
535.923	12029.97
536.288	12100.92
536.653	12161.26
537.019	12224.09
537.384	12219.57
537.749	12301.6
538.114	12362.39
538.479	12286.46
538.845	12392.44
539.21	12468.82
539.575	12485.55
539.94	12544.08
540.305	12622.04
540.67	12605.77
541.034	12713.11
541.399	12755.82
541.764	12749.95
542.129	12820
542.494	12863.39
542.858	12861.36
543.223	12961.47
543.587	13021.58
543.952	12980.45
544.316	13025.19
544.681	13035.36
545.045	13147.9
545.41	13268.13
545.774	13208.47
546.138	13255.24
546.503	13349.71
546.867	13365.52
547.231	13494.56
547.595	13471.06
547.959	13515.8
548.324	13567.1
548.688	13586.54
549.052	13575.69
549.416	13767.77
549.779	13776.36
550.143	13766.19
550.507	13913.76
550.871	13909.46
551.235	13958.05
551.599	14079.63
551.962	14076.24
552.326	14140.65
552.689	14219.06
553.053	14186.97
553.417	14248.44
553.78	14386.06
554.143	14395.33
554.507	14443.69
554.87	14489.79
555.234	14642.1
555.597	14586.51
555.96	14798.48
556.323	14803.45
556.686	14853.62
557.05	14948.99
557.413	14965.93
557.776	15033.28
558.139	15038.47
558.502	15133.16
558.865	15179.04
559.228	15301.97
559.59	15341.52
559.953	15369.09
560.316	15546.71
560.679	15538.8
561.041	15687.27
561.404	15772.01
561.767	15869.64
562.129	15789.42
562.492	16019.01
562.854	16018.34
563.217	16012.23
563.579	16066.02
563.941	16242.74
564.304	16227.82
564.666	16378.78
565.028	16385.56
565.39	16494.26
565.753	16620.81
566.115	16656.74
566.477	16711.88
566.839	16765.89
567.201	16893.12
567.563	16983.06
567.925	17014.92
568.287	17017.18
568.648	17061.02
569.01	17141.24
569.372	17301.47
569.734	17263.27
570.095	17256.04
570.457	17434.34
570.819	17460.33
571.18	17436.83
571.542	17745.52
571.903	17646.32
572.265	17721.57
572.626	17741.45
572.987	17795.24
573.349	17850.6
573.71	17982.13
574.071	17931.73
574.432	17935.57
574.794	18128.79
575.155	18022.12
575.516	18107.09
575.877	18157.26
576.238	18220.31
576.599	18222.12
576.96	18260.99
577.32	18343.47
577.681	18350.93
578.042	18423.02
578.403	18413.08
578.763	18414.88
579.124	18561.32
579.485	18528.55
579.845	18563.81
580.206	18541.43
580.566	18607.42
580.927	18566.97
581.287	18610.81
581.648	18548.89
582.008	18705.04
582.368	18590.25
582.728	18610.81
583.089	18645.39
583.449	18553.41
583.809	18678.83
584.169	18714.76
584.529	18720.64
584.889	18853.52
585.249	18699.4
585.609	18720.41
585.969	18892.84
586.329	18809.9
586.688	18836.34
587.048	18748.43
587.408	18742.33
587.768	18794.76
588.127	18734.87
588.487	18700.3
588.846	18888.09
589.206	18765.83
589.565	18829.56
589.925	18939.39
590.284	18935.32
590.643	18983.46
591.003	18951.37
591.362	18934.42
591.721	18957.47
592.08	18974.64
592.44	19013.29
592.799	19020.29
593.158	18965.83
593.517	19027.97
593.876	19097.8
594.235	19126.05
594.593	19127.41
594.952	19150.46
595.311	19113.85
595.67	19147.97
596.029	19262.77
596.387	19265.93
596.746	19297.35
597.104	19242.21
597.463	19294.41
597.822	19290.57
598.18	19312.49
598.538	19312.71
598.897	19526.94
599.255	19246.95
599.613	19464.57
599.972	19374.18
600.33	19432.03
600.688	19521.29
601.046	19532.82
601.404	19626.83
601.762	19521.97
602.12	19543.21
602.478	19593.16
602.836	19629.54
603.194	19435.87
603.552	19568.53
603.91	19535.08
604.268	19514.29
604.625	19559.94
604.983	19634.06
605.341	19577.79
605.698	19632.48
606.056	19745.24
606.413	19655.3
606.771	19674.51
607.128	19792.47
607.485	19618.02
607.843	19767.62
608.2	19762.87
608.557	19830.21
608.914	19794.28
609.272	19921.28
609.629	19896.2
609.986	19941.17
610.343	19844.68
610.7	20017.1
611.057	19960.38
611.414	19905.69
611.771	19965.58
612.127	20050.32
612.484	19992.69
612.841	20067.72
613.198	20017.78
613.554	19942.3
613.911	20096.19
614.267	20023.2
614.624	20075.86
614.98	20088.29
615.337	20147.94
615.693	20163.99
616.05	20081.05
616.406	20176.42
616.762	20065.01
617.118	20119.02
617.475	20161.73
617.831	20137.78
618.187	20117.21
618.543	20198.11
618.899	20304.78
619.255	20254.38
619.611	20324.89
619.967	20307.71
620.323	20326.92
620.678	20222.75
621.034	20224.1
621.39	20169.64
621.746	20267.94
622.101	20343.42
622.457	20161.05
622.812	20193.59
623.168	20289.18
623.523	20235.4
623.879	20323.99
624.234	20168.96
624.589	20239.47
624.945	20192.92
625.3	20205.8
625.655	20191.56
626.01	20297.77
626.365	20212.12
626.72	20249.64
627.075	20217.55
627.43	20212.58
627.785	20122.18
628.14	20184.55
628.495	20180.26
628.85	20173.48
629.205	20146.81
629.559	20267.94
629.914	20086.7
630.269	20204.21
630.623	20127.61
630.978	20016.65
631.332	20155.63
631.687	20148.4
632.041	20062.75
632.396	20083.09
632.75	20014.84
633.104	19968.06
633.459	19973.71
633.813	19859.82
634.167	19779.37
634.521	19828.86
634.875	19915.63
635.229	19781.63
635.583	19752.7
635.937	19773.04
636.291	19768.75
636.645	19874.05
636.999	19590.22
637.352	19821.85
637.706	19682.19
638.06	19746.37
638.413	19653.95
638.767	19584.57
639.121	19579.37
639.474	19433.16
639.828	19593.16
640.181	19645.81
640.534	19598.35
640.888	19554.97
641.241	19496.89
641.594	19481.07
641.947	19552.71
642.301	19444.23
642.654	19549.54
643.007	19651.91
643.36	19551.35
643.713	19511.13
644.066	19559.03
644.419	19418.47
644.771	19353.84
645.124	19151.81
645.477	19023
645.83	19111.14
646.182	18976
646.535	18857.81
646.888	19013.96
647.24	18842.67
647.593	18931.03
647.945	18903.01
648.298	18959.73
648.65	18914.53
649.002	18783.01
649.355	18822.33
649.707	18766.06
650.059	18846.28
650.411	19013.51
650.763	19026.62
651.115	19233.39
651.467	19219.83
651.819	19243.56
652.171	19128.99
652.523	19092.83
652.875	19156.11
653.227	19038.6
653.578	19090.12
653.93	19166.95
654.282	18995.43
654.633	19043.57
654.985	19061.19
655.337	19086.5
655.688	19086.28
656.039	19172.38
656.391	18901.42
656.742	18952.04
657.094	18940.07
657.445	19085.83
657.796	18941.42
658.147	18870.01
658.498	18968.77
658.849	18978.26
659.2	18846.74
659.551	18883.57
659.902	18922.44
660.253	18936.9
660.604	18928.54
660.955	18724.48
661.306	18874.98
661.656	18722.22
662.007	18750.02
662.358	18776
662.708	18719.06
663.059	18772.16
663.409	18622.56
663.76	18770.13
664.11	18760.86
664.461	18753.41
664.811	18704.59
665.161	18645.84
665.511	18671.83
665.862	18660.3
666.212	18696.01
666.562	18590.47
666.912	18558.83
667.262	18574.2
667.612	18580.53
667.962	18723.8
668.312	18552.05
668.662	18606.97
669.011	18567.65
669.361	18468.89
669.711	18439.52
670.06	18401.78
670.41	18387.77
670.76	18354.32
671.109	18484.71
671.459	18355.68
671.808	18248.56
672.157	18405.17
672.507	18208.33
672.856	18269.58
673.205	18378.05
673.554	18296.92
673.904	18190.71
674.253	18235.45
674.602	18182.35
674.951	17922.47
675.3	17898.74
675.649	18171.27
675.998	18057.83
676.346	17992.97
676.695	18186.41
677.044	18096.25
677.393	17985.29
677.741	18056.47
678.09	17966.76
678.438	17884.95
678.787	17986.65
679.135	17928.57
679.484	17855.35
679.832	17874.33
680.181	17723.38
680.529	17857.84
680.877	17853.99
681.225	17716.6
681.573	17794.11
681.922	17649.93
682.27	17647.67
682.618	17599.76
682.966	17594.57
683.314	17548.24
683.661	17585.3
684.009	17463.72
684.357	17468.24
684.705	17432.31
685.053	17433.21
685.4	17427.56
685.748	17274.35
686.095	17359.09
686.443	17334.01
686.79	17133.33
687.138	17218.76
687.485	17267.57
687.832	17172.88
688.18	17268.92
688.527	17096.95
688.874	17180.57
689.221	17071.64
689.568	16981.47
689.915	16960.68
690.262	17017.86
690.609	16963.85
690.956	16997.97
691.303	17008.82
691.65	16818.31
691.997	16856.96
692.344	16773.57
692.69	16738.32
693.037	16810.41
693.383	16612.22
693.73	16636.85
694.077	16585.33
694.423	16632.78
694.769	16485.67
695.116	16404.09
695.462	16428.72
695.808	16369.29
696.155	16458.55
696.501	16277.54
696.847	16386.69
697.193	16141.27
697.539	16270.53
697.885	16117.09
698.231	16166.81
698.577	16106.92
698.923	16077.32
699.269	16058.33
699.614	15966.13
699.96	15965.46
700.306	16020.82
700.651	15902.41
700.997	15838.68
701.342	15892.69
701.688	15835.52
702.033	15818.12
702.379	15792.35
702.724	15728.4
703.069	15802.3
703.415	15485.92
703.76	15492.25
704.105	15602.98
704.45	15512.59
704.795	15388.52
705.14	15389.2
705.485	15445.24
705.83	15431.68
706.175	15351.01
706.52	15240.28
706.865	15297.22
707.209	15212.48
707.554	15285.25
707.899	15210.45
708.243	15153.5
708.588	15084.58
708.932	14922.77
709.277	14993.5
709.621	14977.01
709.966	14920.29
710.31	14871.47
710.654	14802.77
710.998	14888.2
711.342	14832.38
711.687	14842.55
712.031	14675.32
712.375	14713.51
712.719	14755.77
713.063	14698.82
713.407	14680.97
713.75	14628.09
714.094	14555.78
714.438	14533.18
714.782	14627.64
715.125	14503.8
715.469	14449.79
715.812	14423.35
716.156	14384.25
716.499	14294.99
716.843	14378.38
717.186	14334.09
717.53	14369.57
717.873	14324.14
718.216	14249.79
718.559	14168.67
718.902	14122.34
719.246	14134.32
719.589	14079.63
719.932	13977.49
720.275	14089.12
720.617	13945.85
720.96	13974.32
721.303	13966.41
721.646	14009.35
721.989	13890.71
722.331	13856.81
722.674	13889.35
723.016	13867.43
723.359	13787.66
723.701	13848
724.044	13704.27
724.386	13599.42
724.729	13708.11
725.071	13687.32
725.413	13676.02
725.755	13622.47
726.097	13528.01
726.439	13598.51
726.782	13667.21
727.124	13609.59
727.465	13465.18
727.807	13478.06
728.149	13487.1
728.491	13399.87
728.833	13328.24
729.175	13393.77
729.516	13376.82
729.858	13347.22
730.199	13310.61
730.541	13283.49
730.882	13252.53
731.224	13258.63
731.565	13129.6
731.906	13157.85
732.248	13186.77
732.589	13181.35
732.93	13093.22
733.271	13166.89
733.612	13084.63
733.953	13173.21
734.294	13064.52
734.635	12949.04
734.976	13062.71
735.317	12966.66
735.658	12961.47
735.999	12881.7
736.339	12906.1
736.68	12931.86
737.021	12862.49
737.361	12811.41
737.702	12923.5
738.042	12737.97
738.383	12771.42
738.723	12784.75
739.063	12788.14
739.404	12795.82
739.744	12673.57
740.084	12629.05
740.424	12654.13
740.764	12546.56
741.104	12718.76
741.444	12625.2
741.784	12539.56
742.124	12517.64
742.464	12563.06
742.804	12525.55
743.143	12492.1
743.483	12467.69
743.823	12344.08
744.162	12359.22
744.502	12400.35
744.841	12320.35
745.181	12363.29
745.52	12359.68
745.86	12410.3
746.199	12308.38
746.538	12240.58
746.877	12290.3
747.216	12245.55
747.556	12207.59
747.895	12255.72
748.234	12179.57
748.573	12123.75
748.911	12103.64
749.25	12098.44
749.589	11993.36
749.928	12031.55
750.267	12077.87
750.605	12039.68
750.944	12024.09
751.283	12016.63
751.621	12014.6
751.96	11930.53
752.298	11911.78
752.636	11838.78
752.975	11845.11
753.313	11775.06
753.651	11781.16
753.989	11725.57
754.327	11748.17
754.666	11627.26
755.004	11638.11
755.342	11662.29
755.679	11601.05
756.017	11532.13
756.355	11532.13
756.693	11556.98
757.031	11511.34
757.368	11542.52
757.706	11437.21
758.044	11417.78
758.381	11462.52
758.719	11326.03
759.056	11389.76
759.394	11306.37
759.731	11258.91
760.068	11189.31
760.405	11192.02
760.743	11153.38
761.08	11114.06
761.417	11100.5
761.754	11078.35
762.091	11015.98
762.428	10971.24
762.765	10955.19
763.102	11040.16
763.438	11007.39
763.775	10831.81
764.112	10819.38
764.449	10909.09
764.785	10898.24
765.122	10810.11
765.458	10755.88
765.795	10750
766.131	10686.27
766.467	10684.01
766.804	10687.4
767.14	10663.9
767.476	10549.55
767.812	10537.12
768.148	10581.19
768.485	10502.55
768.821	10518.82
769.157	10454.41
769.492	10416.9
769.828	10469.78
770.164	10361.08
770.5	10322.21
770.836	10304.81
771.171	10222.56
771.507	10185.27
771.842	10182.11
772.178	10144.82
772.513	10132.39
772.849	10110.47
773.184	10063.46
773.519	10049.91
773.855	9969
774.19	9972.85
774.525	9976.91
774.86	9967.42
775.195	9937.59
775.53	9860.08
775.865	9853.75
776.2	9816.01
776.535	9699.41
776.87	9740.08
777.205	9720.2
777.539	9686.3
777.874	9739.63
778.209	9553.2
778.543	9579.18
778.878	9558.62
779.212	9562.46
779.547	9466.42
779.881	9515.68
780.215	9466.64
780.55	9432.52
780.884	9383.48
781.218	9438.4
781.552	9444.05
781.886	9367.66
782.22	9272.75
782.554	9274.78
782.888	9164.73
783.222	9169.7
783.556	9164.96
783.889	9184.62
784.223	9068.46
784.557	9060.55
784.89	9011.74
785.224	9020.33
785.557	9002.02
785.891	8932.65
786.224	8901.69
786.558	8945.53
786.891	8829.37
787.224	8833.21
787.557	8853.55
787.891	8843.61
788.224	8798.19
788.557	8844.29
788.89	8753.44
789.223	8689.49
789.556	8677.06
789.888	8698.3
790.221	8623.95
790.554	8555.26
790.887	8581.02
791.219	8575.59
791.552	8549.38
791.884	8514.58
792.217	8478.2
792.549	8429.83
792.882	8400.91
793.214	8282.72
793.546	8306
793.879	8286.34
794.211	8266.68
794.543	8187.13
794.875	8247.24
795.207	8220.12
795.539	8117.07
795.871	8217.41
796.203	8105.78
796.535	8028.04
796.867	8048.6
797.198	8000.69
797.53	8010.64
797.862	7983.29
798.193	7993.69
798.525	7952.33
798.856	7984.87
799.188	7842.05
799.519	7783.07
799.85	7764.09
800.182	7671.89
800.513	7739.23
800.844	7666.24
801.175	7782.17
801.506	7721.6
801.837	7650.42
802.168	7661.04
802.499	7580.37
802.83	7538.33
803.161	7450.2
803.491	7464.21
803.822	7538.78
804.153	7444.1
804.483	7379.92
804.814	7429.64
805.145	7383.99
805.475	7379.92
805.805	7357.09
806.136	7345.12
806.466	7321.62
806.796	7264.67
807.126	7212.69
807.457	7199.13
807.787	7197.1
808.117	7141.28
808.447	7146.48
808.777	7148.29
809.107	7131.56
809.436	7057.44
809.766	7076.2
810.096	7024
810.426	7031.91
810.755	7006.37
811.085	6999.14
811.414	6984
811.744	6954.62
812.073	6938.35
812.403	6926.37
812.732	6841.85
813.061	6834.4
813.39	6759.14
813.719	6788.97
814.049	6865.58
814.378	6779.93
814.707	6727.51
815.036	6757.56
815.365	6741.52
815.693	6604.8
816.022	6577.91
816.351	6631.92
816.68	6581.52
817.008	6614.74
817.337	6604.57
817.665	6528.42
817.994	6568.64
818.322	6553.95
818.651	6489.32
818.979	6474.18
819.307	6537
819.636	6477.34
819.964	6442.54
820.292	6417.01
820.62	6466.72
820.948	6430.57
821.276	6408.87
821.604	6386.72
821.932	6406.16
822.259	6397.57
822.587	6384.46
822.915	6379.27
823.243	6415.42
823.57	6350.34
823.898	6416.78
824.225	6361.64
824.553	6386.05
824.88	6346.27
825.207	6375.88
825.535	6379.49
825.862	6363
826.189	6388.08
826.516	6427.18
826.843	6422.66
827.17	6364.13
827.497	6412.26
827.824	6385.14
828.151	6370.68
828.478	6386.27
828.805	6402.09
829.131	6374.52
829.458	6305.37
829.785	6340.17
830.111	6329.1
830.438	6350.79
830.764	6363
831.09	6382.66
831.417	6394.41
831.743	6412.49
832.069	6389.89
832.395	6271.25
832.722	6348.08
833.048	6318.03
833.374	6364.58
833.7	6319.16
834.026	6362.77
834.351	6351.02
834.677	6294.52
835.003	6360.96
835.329	6333.62
835.654	6329.55
835.98	6293.85
836.306	6251.36
836.631	6243.9
836.956	6290
837.282	6254.98
837.607	6249.1
837.932	6247.29
838.258	6287.07
838.583	6271.7
838.908	6232.83
839.233	6201.42
839.558	6211.14
839.883	6198.48
840.208	6216.79
840.533	6182.66
840.858	6186.5
841.182	6201.87
841.507	6218.14
841.832	6135.21
842.156	6145.38
842.481	6095.88
842.805	6068.77
843.13	6062.44
843.454	6090.69
843.778	6083.68
844.103	6075.55
844.427	6047.3
844.751	6077.35
845.075	6012.27
845.399	6069.9
845.723	6017.47
846.047	6025.6
846.371	5974.31
846.695	5974.53
847.019	5969.56
847.343	5888.21
847.666	5856.12
847.99	5853.63
848.313	5843.91
848.637	5817.47
848.96	5792.62
849.284	5772.96
849.607	5717.59
849.931	5740.87
850.254	5725.73
850.577	5688.21
850.9	5697.03
851.223	5643.69
851.546	5650.92
851.869	5636.91
852.192	5592.17
852.515	5504.49
852.838	5584.26
853.161	5569.35
853.483	5526.86
853.806	5536.58
854.129	5511.72
854.451	5516.47
854.774	5497.71
855.096	5417.48
855.419	5405.96
855.741	5461.33
856.063	5415.9
856.385	5396.47
856.708	5386.98
857.03	5393.98
857.352	5414.77
857.674	5335
857.996	5350.82
858.318	5312.63
858.64	5348.33
858.961	5387.88
859.283	5311.5
859.605	5297.49
859.926	5255.68
860.248	5238.51
860.57	5245.29
860.891	5278.28
861.212	5293.65
861.534	5225.17
861.855	5219.3
862.176	5211.39
862.498	5205.96
862.819	5135.46
863.14	5210.03
863.461	5135.68
863.782	5219.98
864.103	5185.63
864.424	5180.2
864.745	5223.82
865.065	5168.45
865.386	5130.26
865.707	5105.63
866.027	5154.21
866.348	5135.01
866.668	5146.76
866.989	5125.51
867.309	5097.49
867.63	5104.72
867.95	5055.69
868.27	5009.13
868.59	5006.2
868.91	5038.29
869.23	5060.21
869.55	5019.76
869.87	5053.2
870.19	5026.76
870.51	4993.99
870.83	5025.86
871.15	5001
871.469	5022.01
871.789	4996.7
872.109	4977.04
872.428	4989.93
872.748	4966.88
873.067	4968.23
873.386	4990.38
873.706	4906.54
874.025	4937.5
874.344	4928.68
874.663	4936.37
874.982	4866.54
875.301	4895.46
875.62	4902.47
875.939	4911.28
876.258	4902.02
876.577	4869.93
876.896	4862.25
877.214	4896.14
877.533	4788.57
877.852	4896.82
878.17	4845.52
878.489	4841.91
878.807	4830.38
879.125	4825.64
879.444	4760.1
879.762	4754.68
880.08	4845.75
880.398	4740.21
880.716	4760.33
881.034	4735.24
881.352	4763.94
881.67	4768.69
881.988	4759.65
882.306	4721.46
882.624	4708.58
882.941	4695.92
883.259	4651.86
883.577	4655.7
883.894	4667.22
884.212	4627.22
884.529	4629.03
884.846	4620.22
885.164	4599.2
885.481	4533.67
885.798	4567.11
886.115	4558.52
886.432	4592.42
886.75	4570.05
887.067	4561.46
887.383	4516.04
887.7	4534.34
888.017	4500.9
888.334	4543.38
888.651	4467
888.967	4478.53
889.284	4456.83
889.6	4453.67
889.917	4419.32
890.233	4422.93
890.55	4376.83
890.866	4401.92
891.182	4352.65
891.498	4359.66
891.815	4374.12
892.131	4329.38
892.447	4274.24
892.763	4332.77
893.079	4326.21
893.395	4271.98
893.71	4232.43
894.026	4247.35
894.342	4202.38
894.657	4168.93
894.973	4234.46
895.289	4205.31
895.604	4207.8
895.92	4155.6
896.235	4140.68
896.55	4126.22
896.865	4134.58
897.181	4090.29
897.496	4069.05
897.811	4061.14
898.126	4038.09
898.441	4030.18
898.756	4037.18
899.071	4024.53
899.386	4040.57
899.7	3943.17
900.015	3985.43
900.33	3954.25
900.644	3941.14
900.959	3952.21
901.273	3905.43
901.588	3840.58
901.902	3831.99
902.216	3854.59
902.531	3874.25
902.845	3846.45
903.159	3835.38
903.473	3801.26
903.787	3788.6
904.101	3764.19
904.415	3747.47
904.729	3753.35
905.042	3739.34
905.356	3711.09
905.67	3704.31
905.984	3695.27
906.297	3672.67
906.611	3680.36
906.924	3671.99
907.237	3593.58
907.551	3624.09
907.864	3618.66
908.177	3570.98
908.491	3604.2
908.804	3569.62
909.117	3504.77
909.43	3569.85
909.743	3532.56
910.056	3503.41
910.368	3494.37
910.681	3481.49
910.994	3461.38
911.307	3420.93
911.619	3416.86
911.932	3444.88
912.244	3395.39
912.557	3408.5
912.869	3371.44
913.181	3385.22
913.494	3339.57
913.806	3358.78
914.118	3329.18
914.43	3334.83
914.742	3286.24
915.054	3301.16
915.366	3254.6
915.678	3278.78
915.99	3261.16
916.302	3260.48
916.613	3209.41
916.925	3218.9
917.236	3213.93
917.548	3184.1
917.859	3207.6
918.171	3186.13
918.482	3161.05
918.794	3140.03
919.105	3137.32
919.416	3081.73
919.727	3099.81
920.038	3098.45
920.349	3064.55
920.66	3061.16
920.971	3087.38
921.282	3082.18
921.593	3032.01
921.903	2998.79
922.214	2999.47
922.525	2986.36
922.835	2988.62
923.146	2968.51
923.456	2976.87
923.767	2962.41
924.077	2948.62
924.387	2918.79
924.697	2908.85
925.008	2919.92
925.318	2894.39
925.628	2919.02
925.938	2862.75
926.248	2854.39
926.558	2885.35
926.867	2841.51
927.177	2803.99
927.487	2837.67
927.796	2749.08
928.106	2802.64
928.416	2771.23
928.725	2757.89
929.034	2752.92
929.344	2766.03
929.653	2725.13
929.962	2722.41
930.271	2702.3
930.581	2706.37
930.89	2629.99
931.199	2685.35
931.508	2690.78
931.817	2652.36
932.125	2650.33
932.434	2654.17
932.743	2613.94
933.051	2618.01
933.36	2604.9
933.669	2602.42
933.977	2623.89
934.286	2590.89
934.594	2597.22
934.902	2559.93
935.21	2549.54
935.519	2545.24
935.827	2559.93
936.135	2539.82
936.443	2482.42
936.751	2513.15
937.059	2481.29
937.367	2476.55
937.674	2494.62
937.982	2469.77
938.29	2449.43
938.597	2491.01
938.905	2425.47
939.213	2431.12
939.52	2426.6
939.827	2443.55
940.135	2401.74
940.442	2384.8
940.749	2386.38
941.056	2390.9
941.363	2351.35
941.67	2349.54
941.977	2336.89
942.284	2340.28
942.591	2320.84
942.898	2331.01
943.205	2314.06
943.511	2326.94
943.818	2304.35
944.125	2300.96
944.431	2300.05
944.738	2296.21
945.044	2282.43
945.35	2256.66
945.657	2227.29
945.963	2265.48
946.269	2232.94
946.575	2236.78
946.881	2233.61
947.187	2202.65
947.493	2222.54
947.799	2192.03
948.105	2201.07
948.41	2174.63
948.716	2173.28
949.022	2171.92
949.327	2182.32
949.633	2135.99
949.938	2156.33
950.244	2156.55
950.549	2144.58
950.854	2122.88
951.16	2138.47
951.465	2113.39
951.77	2081.75
952.075	2094.86
952.38	2093.73
952.685	2101.41
952.99	2100.06
953.294	2061.87
953.599	2072.49
953.904	2038.36
954.209	2021.87
954.513	2037.46
954.818	2049.89
955.122	2008.99
955.426	1993.85
955.731	2019.16
956.035	2012.6
956.339	1997.46
956.643	1972.6
956.948	1956.56
957.252	1944.36
957.556	1971.02
957.86	1946.16
958.163	1929.89
958.467	1937.58
958.771	1947.29
959.075	1926.5
959.378	1880.85
959.682	1926.95
959.985	1914.3
960.289	1903.68
960.592	1907.52
960.896	1889.44
961.199	1860.06
961.502	1908.88
961.805	1862.32
962.108	1883.57
962.411	1862.1
962.714	1848.09
963.017	1844.02
963.32	1823.68
963.623	1806.05
963.926	1819.39
964.228	1805.38
964.531	1782.1
964.833	1766.28
965.136	1773.51
965.438	1778.71
965.741	1769.22
966.043	1762.44
966.345	1777.58
966.648	1764.93
966.95	1769.22
967.252	1758.6
967.554	1764.47
967.856	1737.13
968.158	1695.77
968.46	1687.19
968.761	1719.28
969.063	1704.14
969.365	1696.9
969.666	1698.71
969.968	1698.03
970.269	1681.76
970.571	1705.49
970.872	1677.02
971.174	1649.22
971.475	1667.07
971.776	1660.3
972.077	1628.66
972.378	1635.89
972.679	1631.82
972.98	1625.49
973.281	1639.5
973.582	1624.36
973.883	1594.99
974.183	1600.86
974.484	1584.14
974.785	1634.76
975.085	1593.63
975.386	1580.75
975.686	1581.65
975.986	1590.24
976.287	1578.04
976.587	1549.11
976.887	1577.59
977.187	1529.45
977.487	1560.86
977.787	1542.56
978.087	1547.53
978.387	1532.62
978.687	1540.07
978.987	1506.85
979.286	1511.82
979.586	1487.42
979.885	1509.56
980.185	1502.56
980.484	1483.58
980.784	1484.93
981.083	1459.85
981.382	1470.7
981.682	1455.78
981.981	1463.69
982.28	1456.46
982.579	1438.38
982.878	1449
983.177	1436.8
983.475	1395.22
983.774	1403.58
984.073	1428.21
984.372	1413.52
984.67	1410.58
984.969	1424.82
985.267	1394.99
985.566	1391.6
985.864	1364.94
986.162	1397.25
986.461	1342.34
986.759	1367.87
987.057	1376.91
987.355	1337.59
987.653	1357.03
987.951	1341.66
988.249	1337.59
988.547	1342.11
988.844	1309.57
989.142	1340.76
989.44	1335.78
989.737	1325.39
990.035	1297.37
990.332	1318.16
990.63	1303.92
990.927	1308.21
991.224	1295.56
991.521	1301.89
991.819	1280.87
992.116	1274.09
992.413	1256.69
992.71	1287.65
993.006	1243.36
993.303	1224.6
993.6	1239.29
993.897	1253.07
994.193	1255.11
994.49	1233.41
994.787	1236.58
995.083	1228.89
995.379	1199.06
995.676	1203.13
995.972	1185.96
996.268	1185.96
996.565	1195.45
996.861	1183.25
997.157	1180.76
997.453	1182.34
997.749	1191.38
998.044	1192.96
998.34	1137.37
998.636	1158.16
998.932	1168.33
999.227	1144.38
999.523	1136.24
999.818	1142.57
1000.114	1107.32
1000.409	1127.43
1000.704	1117.03
1001	1115.45
1001.295	1111.16
1001.59	1105.06
1001.885	1100.99
1002.18	1099.18
1002.475	1070.71
1002.77	1075.68
1003.065	1044.49
1003.359	1062.12
1003.654	1072.29
1003.949	1056.7
1004.243	1063.47
1004.538	1054.89
1004.832	1051.5
1005.127	1034.78
1005.421	1018.05
1005.715	999.07
1006.009	1020.31
1006.304	1006.08
1006.598	1007.43
1006.892	1004.95
1007.186	1016.24
1007.48	1006.98
1007.773	967.21
1008.067	973.76
1008.361	982.57
1008.655	980.09
1008.948	973.53
1009.242	979.86
1009.535	975.34
1009.829	925.63
1010.122	968.34
1010.415	964.04
1010.708	926.08
1011.001	931.73
1011.295	938.51
1011.588	964.72
1011.881	935.79
1012.173	940.99
1012.466	906.64
1012.759	919.07
1013.052	890.15
1013.344	884.5
1013.637	889.69
1013.93	893.54
1014.222	905.06
1014.514	888.11
1014.807	892.18
1015.099	871.16
1015.391	870.26
1015.683	854.21
1015.976	864.38
1016.268	853.31
1016.56	857.6
1016.851	845.18
1017.143	843.82
1017.435	842.01
1017.727	817.83
1018.018	835.01
1018.31	827.55
1018.602	826.87
1018.893	818.74
1019.185	828
1019.476	808.79
1019.767	809.02
1020.058	807.66
1020.35	813.76
1020.641	796.14
1020.932	802.46
1021.223	774.22
1021.514	791.39
1021.804	772.18
1022.095	764.73
1022.386	764.27
1022.677	757.27
1022.967	779.41
1023.258	765.86
1023.548	750.26
1023.839	753.2
1024.129	756.36
1024.419	730.15
1024.709	744.84
1025	736.7
1025.29	711.39
1025.58	750.26
1025.87	696.93
1026.16	702.13
1026.449	719.53
1026.739	726.76
1027.029	724.73
1027.319	689.02
1027.608	689.93
1027.898	695.8
1028.187	696.93
1028.477	694.67
1028.766	685.18
1029.055	657.16
1029.344	679.98
1029.634	677.72
1029.923	693.54
1030.212	657.61
1030.501	660.77
1030.79	675.91
1031.078	649.7
1031.367	658.74
1031.656	628.91
1031.945	641.79
1032.233	637.27
1032.522	648.34
1032.81	650.38
1033.099	635.92
1033.387	625.07
1033.675	611.28
1033.963	643.37
1034.251	628.23
1034.54	627.1
1034.828	605.41
1035.116	642.02
1035.403	622.81
1035.691	605.86
1035.979	604.05
1036.267	608.57
1036.554	598.18
1036.842	623.03
1037.129	592.53
1037.417	582.36
1037.704	575.58
1037.992	573.09
1038.279	595.46
1038.566	594.11
1038.853	594.11
1039.14	594.11
