Data from foam_black_FLMS001491_00003.txt Node
Date: Wed Feb 08 10:43:25 GMT 2017
User: dcchb
Spectrometer: FLMS00149
Trigger mode: 0
Integration Time (sec): 2.000000E-2
Scans to average: 10
Electric dark correction enabled: true
Nonlinearity correction enabled: false
Boxcar width: 0
XAxis mode: Wavelengths
Number of Pixels in Spectrum: 2048
>>>>>Begin Spectral Data<<<<<
341.393	-26.84
341.776	-26.84
342.16	-26.84
342.543	-42.65
342.927	-61.64
343.31	-76.33
343.693	-68.64
344.077	-67.96
344.46	-48.53
344.843	-56.44
345.226	-41.07
345.61	-31.81
345.993	-3.33
346.376	-26.84
346.759	11.81
347.142	33.73
347.525	43.9
347.908	55.42
348.291	51.13
348.674	105.36
349.057	119.6
349.44	117.57
349.823	131.58
350.206	155.08
350.588	192.59
350.971	212.03
351.354	229.65
351.737	233.27
352.119	254.74
352.502	252.25
352.884	277.34
353.267	286.15
353.65	301.29
354.032	314.17
354.414	322.99
354.797	312.59
355.179	336.54
355.562	311.91
355.944	327.96
356.326	325.25
356.709	346.04
357.091	338.13
357.473	339.93
357.855	332.7
358.238	348.07
358.62	347.39
359.002	333.16
359.384	327.73
359.766	327.73
360.148	340.39
360.53	340.61
360.912	362.98
361.294	333.38
361.676	340.61
362.057	351.46
362.439	349.65
362.821	337
363.203	346.71
363.584	342.87
363.966	317.56
364.348	358.92
364.729	329.54
365.111	311.23
365.493	333.83
365.874	327.51
366.256	338.8
366.637	338.58
367.019	319.37
367.4	320.05
367.781	324.57
368.163	351.01
368.544	318.69
368.925	327.96
369.306	355.3
369.688	334.74
370.069	350.78
370.45	320.73
370.831	339.03
371.212	354.4
371.593	320.27
371.974	320.5
372.355	344.45
372.736	350.33
373.117	339.26
373.498	324.57
373.879	332.93
374.26	343.32
374.641	349.88
375.021	345.13
375.402	317.34
375.783	354.17
376.163	381.06
376.544	352.14
376.925	364.79
377.305	355.08
377.686	361.4
378.066	346.04
378.447	360.95
378.827	367.73
379.208	359.14
379.588	380.16
379.968	364.34
380.349	370.67
380.729	360.27
381.109	380.39
381.489	392.59
381.87	381.97
382.25	381.29
382.63	380.16
383.01	386.04
383.39	386.94
383.77	395.75
384.15	390.78
384.53	382.65
384.91	401.85
385.29	395.3
385.67	412.02
386.049	409.76
386.429	413.38
386.809	404.11
387.189	409.54
387.568	409.54
387.948	429.65
388.328	428.75
388.707	436.43
389.087	418.12
389.466	413.83
389.846	413.38
390.225	410.89
390.605	428.52
390.984	416.54
391.363	436.66
391.743	437.33
392.122	450.89
392.501	470.33
392.881	466.26
393.26	454.96
393.639	453.38
394.018	463.77
394.397	454.06
394.776	452.02
395.155	451.34
395.534	463.55
395.913	458.58
396.292	471.68
396.671	467.61
397.05	478.46
397.429	492.02
397.808	473.72
398.186	473.26
398.565	497.67
398.944	482.53
399.323	510.33
399.701	497.22
400.08	511.91
400.458	508.97
400.837	523.66
401.215	511.23
401.594	546.93
401.972	535.41
402.351	507.39
402.729	536.54
403.107	546.93
403.486	541.29
403.864	536.99
404.242	550.32
404.62	531.12
404.999	558.69
405.377	548.29
405.755	539.25
406.133	557.56
406.511	584.67
406.889	576.99
407.267	591.45
407.645	590.32
408.023	615.63
408.401	571.34
408.779	598.46
409.156	586.48
409.534	614.96
409.912	615.63
410.29	627.84
410.667	619.48
411.045	647.27
411.422	638.01
411.8	632.81
412.178	634.62
412.555	648.85
412.933	640.72
413.31	664.9
413.687	688.63
414.065	671.23
414.442	703.99
414.819	709.87
415.197	687.27
415.574	717.78
415.951	689.08
416.328	700.83
416.705	709.87
417.082	721.85
417.46	735.63
417.837	717.55
418.214	748.96
418.591	742.41
418.967	758.91
419.344	743.09
419.721	768.62
420.098	769.53
420.475	780.6
420.852	779.25
421.228	795.29
421.605	789.64
421.982	797.32
422.358	820.6
422.735	816.08
423.111	826.25
423.488	833.71
423.864	818.79
424.241	834.84
424.617	836.19
424.994	838.68
425.37	853.59
425.746	842.52
426.123	862.86
426.499	877.32
426.875	903.08
427.251	914.61
427.627	902.63
428.003	907.6
428.379	914.16
428.756	905.34
429.132	931.33
429.507	930.2
429.883	936.08
430.259	989.86
430.635	1001.61
431.011	954.83
431.387	982.18
431.763	1004.78
432.138	1006.58
432.514	1043.64
432.89	1031.22
433.265	1049.52
433.641	1041.16
434.016	1080.71
434.392	1066.47
434.767	1086.36
435.143	1098.33
435.518	1120.7
435.894	1102.85
436.269	1110.54
436.644	1137.2
437.02	1158.9
437.395	1132.46
437.77	1194.83
438.145	1196.86
438.52	1205.22
438.895	1187.37
439.271	1201.61
439.646	1230.31
440.021	1223.53
440.395	1240.93
440.77	1241.15
441.145	1273.02
441.52	1268.27
441.895	1253.58
442.27	1248.16
442.645	1276.18
443.019	1313.92
443.394	1284.99
443.769	1324.77
444.143	1306.46
444.518	1310.3
444.892	1326.35
445.267	1339.68
445.641	1343.98
446.016	1339.46
446.39	1341.49
446.764	1357.31
447.139	1345.33
447.513	1389.62
447.887	1364.77
448.262	1401.15
448.636	1420.13
449.01	1435.5
449.384	1437.98
449.758	1457.87
450.132	1434.82
450.506	1447.7
450.88	1428.49
451.254	1479.57
451.628	1456.06
452.002	1493.12
452.376	1537.87
452.75	1522.73
453.123	1547.81
453.497	1552.33
453.871	1574.03
454.244	1615.83
454.618	1628.94
454.992	1652.22
455.365	1615.38
455.739	1669.84
456.112	1682.05
456.486	1666.23
456.859	1732.67
457.232	1721.82
457.606	1704.64
457.979	1754.81
458.352	1786.45
458.725	1801.82
459.099	1822.83
459.472	1875.26
459.845	1870.52
460.218	1882.49
460.591	1876.17
460.964	1916.16
461.337	1939.89
461.71	1982.38
462.083	1979.44
462.456	2004.3
462.829	2016.05
463.201	2011.3
463.574	2027.57
463.947	2061.7
464.32	2089.04
464.692	2101.02
465.065	2130.17
465.438	2157.74
465.81	2195.7
466.183	2212.88
466.555	2248.13
466.928	2269.38
467.3	2290.84
467.672	2291.3
468.045	2270.73
468.417	2367
468.789	2381.91
469.161	2401.8
469.534	2450.16
469.906	2465.98
470.278	2524.28
470.65	2532.19
471.022	2588.24
471.394	2613.55
471.766	2629.82
472.138	2658.07
472.51	2723.15
472.882	2739.19
473.253	2786.2
473.625	2804.95
473.997	2891.05
474.369	2864.16
474.74	2920.66
475.112	2986.19
475.484	3045.17
475.855	3074.55
476.227	3090.6
476.598	3155.45
476.97	3210.59
477.341	3269.58
477.713	3321.1
478.084	3319.29
478.455	3431.83
478.827	3431.15
479.198	3526.52
479.569	3536.01
479.94	3629.34
480.311	3639.96
480.682	3701.88
481.053	3782.1
481.424	3864.59
481.795	3891.48
482.166	3962.44
482.537	4008.31
482.908	4036.56
483.279	4090.57
483.65	4166.05
484.021	4263.22
484.391	4331.69
484.762	4337.12
485.133	4390.9
485.503	4430.22
485.874	4533.04
486.244	4533.95
486.615	4613.72
486.985	4750.89
487.356	4745.02
487.726	4770.78
488.097	4913.15
488.467	4896.2
488.837	4981.17
489.207	5036.76
489.578	5110.88
489.948	5164.89
490.318	5198.11
490.688	5254.61
491.058	5307.49
491.428	5335.74
491.798	5421.38
492.168	5543.64
492.538	5599.68
492.908	5632.22
493.278	5646.69
493.648	5657.76
494.017	5819.34
494.387	5817.53
494.757	5882.84
495.126	5894.59
495.496	5939.79
495.866	5980.24
496.235	6020.24
496.605	6118.99
496.974	6135.71
497.344	6188.14
497.713	6254.81
498.082	6248.71
498.452	6316.73
498.821	6334.81
499.19	6333.22
499.559	6467.01
499.928	6501.58
500.298	6552.43
500.667	6582.03
501.036	6563.27
501.405	6704.51
501.774	6692.08
502.143	6764.17
502.512	6832.87
502.88	6822.48
503.249	6847.11
503.618	6912.64
503.987	6948.8
504.356	6999.19
504.724	7080.32
505.093	7079.64
505.462	7069.93
505.83	7172.98
506.199	7234.22
506.567	7305.4
506.936	7294.78
507.304	7439.41
507.672	7394.44
508.041	7409.58
508.409	7526.19
508.777	7615.45
509.145	7640.76
509.514	7614.55
509.882	7710.81
510.25	7693.19
510.618	7756.69
510.986	7893.41
511.354	7871.26
511.722	7978.38
512.09	8059.28
512.458	8039.39
512.826	8099.28
513.193	8164.59
513.561	8224.25
513.929	8297.69
514.297	8290.91
514.664	8382.21
515.032	8444.35
515.4	8506.05
515.767	8494.3
516.135	8612.71
516.502	8567.51
516.869	8720.73
517.237	8788.75
517.604	8762.09
517.972	8874.4
518.339	8908.75
518.706	9002.08
519.073	9070.1
519.44	9122.08
519.808	9162.08
520.175	9165.01
520.542	9364.78
520.909	9418.79
521.276	9324.56
521.643	9421.73
522.009	9564.55
522.376	9606.81
522.743	9743.3
523.11	9765.45
523.477	9848.84
523.843	9920.25
524.21	10069.62
524.577	10091.54
524.943	10174.7
525.31	10192.1
525.676	10303.74
526.043	10354.13
526.409	10392.33
526.776	10529.5
527.142	10581.93
527.508	10630.29
527.874	10711.64
528.241	10771.75
528.607	10771.3
528.973	10983.27
529.339	10937.62
529.705	11090.84
530.071	11089.71
530.437	11203.15
530.803	11216.26
531.169	11310.27
531.535	11361.79
531.901	11381.68
532.267	11439.3
532.632	11602.01
532.998	11523.82
533.364	11696.02
533.73	11745.96
534.095	11712.74
534.461	11836.58
534.826	11777.6
535.192	11950.93
535.557	11965.17
535.923	11979.85
536.288	12075.67
536.653	12113.18
537.019	12104.6
537.384	12193.18
537.749	12234.31
538.114	12323.57
538.479	12307.76
538.845	12446.06
539.21	12386.62
539.575	12486.06
539.94	12574.64
540.305	12561.76
540.67	12617.8
541.034	12709.1
541.399	12714.75
541.764	12690.12
542.129	12801.98
542.494	12847.18
542.858	12936.67
543.223	12995.42
543.587	12973.05
543.952	13073.39
544.316	13086.72
544.681	13038.13
545.045	13255.75
545.41	13224.12
545.774	13239.48
546.138	13238.8
546.503	13349.54
546.867	13411
547.231	13497.78
547.595	13542.07
547.959	13597.21
548.324	13563.32
548.688	13559.7
549.052	13665.46
549.416	13745.91
549.779	13749.75
550.143	13785.23
550.507	13969.41
550.871	13907.26
551.235	13918.33
551.599	14127.82
551.962	14067.71
552.326	14111.32
552.689	14241.04
553.053	14185.22
553.417	14286.23
553.78	14433.35
554.143	14342.5
554.507	14360.58
554.87	14599.22
555.234	14647.35
555.597	14571.42
555.96	14650.52
556.323	14730.97
556.686	14833.56
557.05	14914.92
557.413	14961.92
557.776	14997.4
558.139	15097.06
558.502	15151.52
558.865	15155.14
559.228	15324.17
559.59	15349.03
559.953	15367.79
560.316	15492.08
560.679	15524.85
561.041	15639.42
561.404	15732.52
561.767	15941.11
562.129	15808.91
562.492	15961.9
562.854	16017.26
563.217	15911.73
563.579	16115.56
563.941	16195.56
564.304	16192.63
564.666	16337.25
565.028	16367.54
565.39	16359.85
565.753	16574.31
566.115	16656.34
566.477	16732.95
566.839	16735.44
567.201	16928.2
567.563	16879.61
567.925	16958.48
568.287	17041.19
568.648	17005.26
569.01	17151.7
569.372	17261.07
569.734	17182.43
570.095	17348.75
570.457	17377.45
570.819	17400.05
571.18	17505.36
571.542	17650.67
571.903	17606.15
572.265	17736.31
572.626	17627.39
572.987	17871.9
573.349	17795.75
573.71	17894.95
574.071	17858.12
574.432	17909.87
574.794	18078.45
575.155	18067.15
575.516	18041.39
575.877	18194.15
576.238	18109.86
576.599	18256.3
576.96	18247.94
577.32	18303.08
577.681	18226.47
578.042	18477.31
578.403	18416.07
578.763	18362.74
579.124	18502.39
579.485	18459.46
579.845	18538.33
580.206	18588.49
580.566	18545.33
580.927	18579.91
581.287	18617.19
581.648	18635.5
582.008	18650.64
582.368	18637.98
582.728	18678.89
583.089	18639.79
583.449	18560.47
583.809	18637.31
584.169	18661.03
584.529	18626.23
584.889	18853.8
585.249	18771.31
585.609	18642.28
585.969	18794.82
586.329	18757.08
586.688	18845.89
587.048	18703.07
587.408	18661.71
587.768	18748.72
588.127	18709.4
588.487	18776.06
588.846	18918.43
589.206	18834.14
589.565	18812.9
589.925	18900.12
590.284	18852.44
590.643	18893.12
591.003	19021.03
591.362	19042.49
591.721	19006.56
592.08	18983.06
592.44	19033.91
592.799	19063.51
593.158	19008.82
593.517	19080.01
593.876	19067.35
594.235	19112.1
594.593	19155.49
594.952	19110.97
595.311	19121.81
595.67	19132.21
596.029	19133.56
596.387	19431.86
596.746	19254.01
597.104	19169.27
597.463	19236.84
597.822	19417.17
598.18	19276.16
598.538	19289.72
598.897	19518.41
599.255	19337.18
599.613	19545.76
599.972	19394.8
600.33	19398.87
600.688	19396.61
601.046	19517.28
601.404	19526.77
601.762	19541.01
602.12	19667.56
602.478	19689.93
602.836	19582.14
603.194	19424.86
603.552	19512.99
603.91	19481.58
604.268	19673.21
604.625	19517.51
604.983	19621.69
605.341	19561.35
605.698	19704.4
606.056	19620.11
606.413	19704.85
606.771	19748.24
607.128	19776.71
607.485	19594.34
607.843	19653.55
608.2	19810.38
608.557	19779.88
608.914	19779.88
609.272	19841.79
609.629	19871.85
609.986	19916.59
610.343	19846.31
610.7	19978.29
611.057	19864.39
611.414	19891.74
611.771	19916.14
612.127	20029.13
612.484	19941.68
612.841	20008.57
613.198	19874.56
613.554	19921.11
613.911	20017.38
614.267	19947.78
614.624	20006.31
614.98	20078.85
615.337	20046.76
615.693	19993.43
616.05	20082.01
616.406	20145.29
616.762	20163.37
617.118	20085.18
617.475	20028.68
617.831	20156.59
618.187	20179.86
618.543	20190.03
618.899	20326.53
619.255	20230.71
619.611	20228.45
619.967	20340.99
620.323	20351.84
620.678	20256.92
621.034	20121.56
621.39	20222.12
621.746	20116.36
622.101	20389.12
622.457	20199.53
622.812	20220.54
623.168	20236.81
623.523	20242.46
623.879	20250.37
624.234	20136.48
624.589	20174.89
624.945	20182.58
625.3	20327.66
625.655	20195.23
626.01	20237.94
626.365	20159.07
626.72	20175.8
627.075	20149.81
627.43	20149.13
627.785	20166.76
628.14	20220.54
628.495	20202.01
628.85	20130.83
629.205	20120.66
629.559	20170.83
629.914	20147.32
630.269	20127.89
630.623	20069.81
630.978	19921.79
631.332	20199.3
631.687	20185.29
632.041	19938.52
632.396	20066.2
632.75	19969.7
633.104	19924.5
633.459	19841.34
633.813	19869.59
634.167	19857.16
634.521	19821
634.875	19871.17
635.229	19818.29
635.583	19702.59
635.937	19808.12
636.291	19770.84
636.645	19715.02
636.999	19699.88
637.352	19791.63
637.706	19678.41
638.06	19667.79
638.413	19717.28
638.767	19558.41
639.121	19550.28
639.474	19533.78
639.828	19581.01
640.181	19660.78
640.534	19609.03
640.888	19454.91
641.241	19402.71
641.594	19424.4
641.947	19592.76
642.301	19532.2
642.654	19459.21
643.007	19476.15
643.36	19501.01
643.713	19546.89
644.066	19609.48
644.419	19450.62
644.771	19323.16
645.124	19119.55
645.477	19051.76
645.83	18999.78
646.182	18894.25
646.535	18900.58
646.888	19009.73
647.24	18782.39
647.593	18936.06
647.945	19006.79
648.298	18791.2
648.65	18887.24
649.002	18773.35
649.355	18835.95
649.707	18821.26
650.059	18758.21
650.411	19069.84
650.763	19133.56
651.115	19269.15
651.467	19184.18
651.819	19238.87
652.171	19168.14
652.523	19079.33
652.875	19056.28
653.227	18979.22
653.578	19216.5
653.93	19162.26
654.282	19059.67
654.633	18983.96
654.985	18994.59
655.337	19000.91
655.688	18939.9
656.039	19110.29
656.391	18851.54
656.742	18909.62
657.094	18959.56
657.445	18996.62
657.796	18907.36
658.147	18889.73
658.498	18897.64
658.849	18859
659.2	18814.48
659.551	18875.94
659.902	18970.63
660.253	18800.01
660.604	18851.09
660.955	18809.96
661.306	18806.12
661.656	18665.55
662.007	18715.04
662.358	18658.77
662.708	18719.56
663.059	18797.75
663.409	18634.82
663.76	18801.82
664.11	18821.93
664.461	18648.61
664.811	18808.38
665.161	18693.35
665.511	18588.04
665.862	18666.01
666.212	18650.41
666.562	18697.87
666.912	18670.07
667.262	18569.96
667.612	18518.89
667.962	18505.33
668.312	18457.42
668.662	18612.67
669.011	18559.34
669.361	18503.3
669.711	18499.01
670.06	18467.37
670.41	18338.78
670.76	18294.26
671.109	18380.59
671.459	18384.66
671.808	18355.96
672.157	18330.2
672.507	18232.12
672.856	18301.27
673.205	18263.98
673.554	18332.68
673.904	18211.56
674.253	18262.63
674.602	18202.06
674.951	17917.78
675.3	17841.4
675.649	18082.97
675.998	18054.27
676.346	18051.79
676.695	18131.33
677.044	17919.81
677.393	17974.95
677.741	17955.06
678.09	17945.35
678.438	17879.36
678.787	17932.24
679.135	17895.41
679.484	17788.74
679.832	17892.24
680.181	17829.42
680.529	17772.24
680.877	17746.71
681.225	17762.53
681.573	17726.82
681.922	17629.42
682.27	17635.75
682.618	17624
682.966	17517.79
683.314	17629.65
683.661	17573.83
684.009	17523.89
684.357	17423.78
684.705	17381.07
685.053	17424.23
685.4	17345.59
685.748	17384.68
686.095	17373.38
686.443	17237.34
686.79	17239.15
687.138	17258.59
687.485	17194.86
687.832	17196.89
688.18	17224.24
688.527	17128.65
688.874	17085.71
689.221	17090
689.568	16962.1
689.915	16906.5
690.262	16998.25
690.609	17040.96
690.956	16897.01
691.303	16877.35
691.65	16825.15
691.997	16856.79
692.344	16683.69
692.69	16741.99
693.037	16659.51
693.383	16549.23
693.73	16630.81
694.077	16626.29
694.423	16424.94
694.769	16472.39
695.116	16427.2
695.462	16459.06
695.808	16404.6
696.155	16473.07
696.501	16285.73
696.847	16257.71
697.193	16257.03
697.539	16276.46
697.885	16115.34
698.231	16086.19
698.577	16164.6
698.923	16125.96
699.269	16057.71
699.614	16010.93
699.96	15986.75
700.306	15969.35
700.651	15781.11
700.997	15802.35
701.342	15764.61
701.688	15794.22
702.033	15841.9
702.379	15730.04
702.724	15689.36
703.069	15656.82
703.415	15456.83
703.76	15550.16
704.105	15539.76
704.45	15437.39
704.795	15477.16
705.14	15443.94
705.485	15441.01
705.83	15300.45
706.175	15297.96
706.52	15297.96
706.865	15234.01
707.209	15271.07
707.554	15152.65
707.899	15218.41
708.243	15116.72
708.588	15105.65
708.932	15037.85
709.277	14965.54
709.621	14988.36
709.966	14907.01
710.31	14891.87
710.654	14774.13
710.998	14861.36
711.342	14777.52
711.687	14808.25
712.031	14725.55
712.375	14693.23
712.719	14626.11
713.063	14689.39
713.407	14746.79
713.75	14606.68
714.094	14626.79
714.438	14510.41
714.782	14606.9
715.125	14521.48
715.469	14425.67
715.812	14380.02
716.156	14344.09
716.499	14322.62
716.843	14306.8
717.186	14286.46
717.53	14301.38
717.873	14260.92
718.216	14294.82
718.559	14213.92
718.902	14113.13
719.246	14009.86
719.589	14055.96
719.932	14041.95
720.275	14044.88
720.617	13965.34
720.96	13993.59
721.303	13965.79
721.646	13975.06
721.989	13905.68
722.331	13921.72
722.674	13871.78
723.016	13918.11
723.359	13839.24
723.701	13808.28
724.044	13734.84
724.386	13714.95
724.729	13744.55
725.071	13667.49
725.413	13707.04
725.755	13580.94
726.097	13581.85
726.439	13528.74
726.782	13562.86
727.124	13573.26
727.465	13484.67
727.807	13469.76
728.149	13441.74
728.491	13417.56
728.833	13404.45
729.175	13385.24
729.516	13345.92
729.858	13384.79
730.199	13386.15
730.541	13307.05
730.882	13327.84
731.224	13218.47
731.565	13278.13
731.906	13296.43
732.248	13242.19
732.589	13120.62
732.93	13169.2
733.271	13142.76
733.612	13111.8
733.953	13072.03
734.294	13051.01
734.635	13044.69
734.976	13009.21
735.317	13008.98
735.658	12951.13
735.999	12933.73
736.339	12946.38
736.68	12961.98
737.021	12826.61
737.361	12776.44
737.702	12833.62
738.042	12761.3
738.383	12733.28
738.723	12755.88
739.063	12776.67
739.404	12758.37
739.744	12710.91
740.084	12625.04
740.424	12667.52
740.764	12603.57
741.104	12634.07
741.444	12552.95
741.784	12552.95
742.124	12592.04
742.464	12526.73
742.804	12437.24
743.143	12439.96
743.483	12487.86
743.823	12340.75
744.162	12334.65
744.502	12327.87
744.841	12275.89
745.181	12377.58
745.52	12312.28
745.86	12250.36
746.199	12293.07
746.538	12268.66
746.877	12221.88
747.216	12289.68
747.556	12214.65
747.895	12186.85
748.234	12119.74
748.573	12212.16
748.911	12076.8
749.25	12137.59
749.589	12045.84
749.928	12024.6
750.267	12053.52
750.605	11937.6
750.944	11975.79
751.283	11909.12
751.621	11948.22
751.96	11859.18
752.298	11789.35
752.636	11898.05
752.975	11787.54
753.313	11798.84
753.651	11840.2
753.989	11776.24
754.327	11735.79
754.666	11605.85
755.004	11628.45
755.342	11651.95
755.679	11652.18
756.017	11554.78
756.355	11627.55
756.693	11503.26
757.031	11583.48
757.368	11525.86
757.706	11532.41
758.044	11399.3
758.381	11456.03
758.719	11314.34
759.056	11340.1
759.394	11335.35
759.731	11159.99
760.068	11265.3
760.405	11155.7
760.743	11128.8
761.08	11185.75
761.417	11127.9
761.754	11087.45
762.091	11042.25
762.428	11021.69
762.765	10955.47
763.102	11021.01
763.438	10956.15
763.775	10836.38
764.112	10853.33
764.449	10880
764.785	10815.14
765.122	10738.98
765.458	10781.47
765.795	10735.37
766.131	10650.4
766.467	10648.36
766.804	10635.26
767.14	10601.59
767.476	10634.58
767.812	10500.35
768.148	10584.64
768.485	10486.56
768.821	10491.76
769.157	10462.38
769.492	10427.13
769.828	10450.86
770.164	10372.67
770.5	10316.62
770.836	10364.08
771.171	10298.32
771.507	10240.24
771.842	10136.97
772.178	10163.86
772.513	10146.68
772.849	10071.66
773.184	10058.78
773.519	10038.21
773.855	9988.72
774.19	9924.54
774.525	9933.81
774.86	9877.54
775.195	9916.41
775.53	9867.14
775.865	9883.86
776.2	9789.18
776.535	9750.53
776.87	9779.91
777.205	9773.58
777.539	9646.13
777.874	9686.36
778.209	9626.92
778.543	9542.18
778.878	9546.02
779.212	9552.57
779.547	9510.99
779.881	9531.11
780.215	9489.75
780.55	9453.14
780.884	9454.72
781.218	9445.46
781.552	9352.13
781.886	9292.02
782.22	9290.21
782.554	9276.2
782.888	9176.09
783.222	9191.68
783.556	9231.23
783.889	9184.45
784.223	9137.44
784.557	9035.98
784.89	9079.59
785.224	9005.02
785.557	9018.8
785.891	8995.98
786.224	8898.58
786.558	8928.41
786.891	8890.22
787.224	8825.59
787.557	8812.48
787.891	8763.22
788.224	8806.6
788.557	8770.45
788.89	8710.56
789.223	8711.69
789.556	8699.71
789.888	8630.34
790.221	8583.11
790.554	8604.58
790.887	8579.94
791.219	8528.87
791.552	8532.26
791.884	8445.03
792.217	8381.76
792.549	8415.2
792.882	8362.32
793.214	8363.23
793.546	8363.9
793.879	8290.91
794.211	8240.29
794.543	8237.81
794.875	8208.88
795.207	8252.95
795.539	8162.55
795.871	8115.55
796.203	8081.43
796.535	8090.24
796.867	8121.65
797.198	8050.24
797.53	8005.95
797.862	7930.92
798.193	7939.96
798.525	7923.92
798.856	7953.75
799.188	7817.93
799.519	7819.29
799.85	7742.68
800.182	7709.23
800.513	7750.36
800.844	7660.19
801.175	7716.01
801.506	7695.67
801.837	7711.49
802.168	7639.4
802.499	7578.16
802.83	7554.43
803.161	7547.2
803.491	7557.15
803.822	7466.07
804.153	7415.23
804.483	7420.88
804.814	7409.35
805.145	7372.97
805.475	7436.7
805.805	7259.3
806.136	7308.11
806.466	7321.9
806.796	7314.44
807.126	7177.27
807.457	7221.79
807.787	7169.81
808.117	7134.56
808.447	7140.66
808.777	7149.7
809.107	7155.8
809.436	7130.04
809.766	7127.55
810.096	7114.67
810.426	6987.44
810.755	6986.77
811.085	6991.74
811.414	6946.31
811.744	6872.87
812.073	6937.95
812.403	6864.73
812.732	6779.09
813.061	6822.93
813.39	6786.54
813.719	6789.93
814.049	6756.49
814.378	6729.15
814.707	6768.92
815.036	6764.17
815.365	6686.21
815.693	6615.7
816.022	6671.75
816.351	6598.75
816.68	6534.8
817.008	6662.93
817.337	6551.3
817.665	6590.84
817.994	6572.77
818.322	6559.43
818.651	6548.58
818.979	6507.46
819.307	6536.38
819.636	6433.11
819.964	6396.95
820.292	6451.19
820.62	6449.15
820.948	6394.01
821.276	6449.6
821.604	6402.15
821.932	6415.93
822.259	6426.55
822.587	6359.21
822.915	6366.89
823.243	6385.2
823.57	6380.23
823.898	6370.51
824.225	6347.69
824.553	6351.98
824.88	6396.72
825.207	6406.89
825.535	6418.42
825.862	6377.06
826.189	6347.23
826.516	6395.82
826.843	6392.88
827.17	6369.83
827.497	6445.31
827.824	6311.08
828.151	6351.75
828.478	6355.37
828.805	6367.8
829.131	6318.31
829.458	6365.54
829.785	6254.36
830.111	6305.2
830.438	6369.38
830.764	6411.87
831.09	6388.14
831.417	6334.81
831.743	6399.21
832.069	6338.42
832.395	6354.24
832.722	6368.7
833.048	6289.38
833.374	6327.57
833.7	6328.03
834.026	6280.12
834.351	6323.51
834.677	6347.23
835.003	6278.76
835.329	6280.57
835.654	6322.6
835.98	6285.77
836.306	6301.81
836.631	6250.51
836.956	6254.36
837.282	6270.63
837.607	6248.71
837.932	6237.41
838.258	6278.08
838.583	6246.45
838.908	6192.44
839.233	6189.72
839.558	6210.51
839.883	6220.23
840.208	6190.4
840.533	6173.91
840.858	6232.66
841.182	6201.25
841.507	6246.22
841.832	6194.92
842.156	6150.86
842.481	6100.69
842.805	6119.9
843.13	6091.87
843.454	6074.02
843.778	6095.04
844.103	6041.25
844.427	6060.91
844.751	6034.25
845.075	6050.74
845.399	5969.39
845.723	5988.15
846.047	6008.71
846.371	6055.26
846.695	5978.43
847.019	5976.17
847.343	5932.78
847.666	5896.4
847.99	5802.62
848.313	5884.2
848.637	5799.68
848.96	5825.21
849.284	5783.63
849.607	5725.56
849.931	5738.66
850.254	5750.19
850.577	5677.2
850.9	5674.94
851.223	5674.48
851.546	5610.3
851.869	5610.08
852.192	5612.11
852.515	5570.76
852.838	5590.42
853.161	5569.18
853.483	5466.58
853.806	5543.19
854.129	5509.52
854.451	5531.21
854.774	5535.05
855.096	5448.5
855.419	5472.68
855.741	5426.35
856.063	5408.28
856.385	5371.44
856.708	5414.6
857.03	5371.89
857.352	5430.87
857.674	5369.41
857.996	5347.71
858.318	5326.24
858.64	5340.48
858.961	5321.27
859.283	5321.95
859.605	5294.61
859.926	5248.96
860.248	5265.91
860.57	5259.35
860.891	5225
861.212	5225.68
861.534	5204.44
861.855	5178.68
862.176	5231.11
862.498	5251.22
862.819	5189.3
863.14	5177.77
863.461	5172.8
863.782	5175.06
864.103	5188.39
864.424	5160.37
864.745	5152.92
865.065	5124.67
865.386	5117.89
865.707	5157.89
866.027	5110.2
866.348	5106.14
866.668	5098.91
866.989	5125.35
867.309	5086.93
867.63	5066.59
867.95	5032.24
868.27	5021.85
868.59	5063.65
868.91	5064.56
869.23	5024.11
869.55	5056.87
869.87	5057.78
870.19	5021.85
870.51	5014.84
870.83	4993.15
871.15	5020.26
871.469	5039.25
871.789	4997.89
872.109	4974.39
872.428	4948.63
872.748	5029.08
873.067	4985.24
873.386	4974.84
873.706	4880.61
874.025	4884.22
874.344	4939.36
874.663	4906.37
874.982	4902.07
875.301	4883.54
875.62	4866.14
875.939	4961.51
876.258	4861.85
876.577	4870.44
876.896	4806.71
877.214	4854.62
877.533	4854.62
877.852	4843.77
878.17	4868.4
878.489	4830.66
878.807	4835.86
879.125	4790.66
879.444	4809.65
879.762	4774.17
880.08	4774.62
880.398	4702.31
880.716	4761.29
881.034	4749.99
881.352	4717.45
881.67	4791.34
881.988	4738.24
882.306	4711.12
882.624	4671.12
882.941	4689.88
883.259	4653.95
883.577	4650.1
883.894	4641.06
884.212	4668.41
884.529	4661.18
884.846	4612.82
885.164	4613.49
885.481	4587.05
885.798	4578.24
886.115	4597.9
886.432	4575.98
886.75	4575.53
887.067	4538.47
887.383	4571.46
887.7	4543.89
888.017	4476.55
888.334	4486.49
888.651	4471.13
888.967	4493.95
889.284	4437.91
889.6	4432.48
889.917	4456.89
890.233	4429.54
890.55	4369.43
890.866	4401.75
891.182	4385.03
891.498	4384.8
891.815	4364.46
892.131	4288.53
892.447	4290.57
892.763	4330.11
893.079	4282.66
893.395	4271.36
893.71	4219.15
894.026	4238.36
894.342	4175.77
894.657	4194.75
894.973	4196.56
895.289	4190.68
895.604	4192.94
895.92	4139.38
896.235	4124.47
896.55	4155.2
896.865	4136.44
897.181	4044.47
897.496	4124.02
897.811	4006.28
898.126	4050.35
898.441	3994.98
898.756	4020.06
899.071	3994.3
899.386	4023.23
899.7	3988.2
900.015	3980.97
900.33	3928.77
900.644	3931.93
900.959	3962.44
901.273	3887.19
901.588	3892.38
901.902	3854.19
902.216	3834.53
902.531	3858.94
902.845	3846.06
903.159	3779.17
903.473	3776.91
903.787	3818.49
904.101	3740.07
904.415	3759.51
904.729	3762.22
905.042	3709.79
905.356	3717.7
905.67	3695.55
905.984	3742.33
906.297	3641.77
906.611	3660.75
906.924	3666.17
907.237	3613.07
907.551	3628.21
907.864	3609.45
908.177	3545.27
908.491	3589.79
908.804	3545.95
909.117	3565.84
909.43	3539.4
909.743	3527.2
910.056	3512.05
910.368	3497.59
910.681	3476.58
910.994	3482.22
911.307	3475.45
911.619	3418.05
911.932	3465.73
912.244	3415.33
912.557	3435.22
912.869	3405.62
913.181	3368.56
913.494	3356.35
913.806	3311.38
914.118	3378.27
914.43	3325.17
914.742	3325.39
915.054	3283.13
915.366	3277.71
915.678	3300.08
915.99	3237.71
916.302	3228.67
916.613	3244.04
916.925	3211.27
917.236	3190.71
917.548	3175.57
917.859	3182.8
918.171	3154.32
918.482	3212.4
918.794	3113.87
919.105	3163.36
919.416	3123.14
919.727	3088.34
920.038	3107.09
920.349	3056.93
920.66	3033.42
920.971	3070.03
921.282	3086.98
921.593	3037.26
921.903	3034.33
922.214	3020.09
922.525	2992.07
922.835	2955.23
923.146	2945.74
923.456	2959.07
923.767	2949.81
924.077	2967.66
924.387	2922.24
924.697	2905.29
925.008	2896.48
925.318	2899.19
925.628	2875.69
925.938	2902.13
926.248	2885.18
926.558	2805.18
926.867	2805.18
927.177	2847.21
927.487	2807.89
927.796	2792.75
928.106	2797.5
928.416	2781.23
928.725	2763.83
929.034	2766.99
929.344	2732.19
929.653	2730.83
929.962	2693.54
930.271	2683.83
930.581	2701.45
930.89	2679.53
931.199	2632.53
931.508	2705.75
931.817	2704.39
932.125	2659.87
932.434	2676.82
932.743	2640.21
933.051	2611.06
933.36	2621.46
933.669	2585.98
933.977	2580.78
934.286	2556.37
934.594	2538.97
934.902	2551.85
935.21	2583.04
935.519	2549.14
935.827	2541.68
936.135	2515.02
936.443	2488.13
936.751	2488.8
937.059	2508.01
937.367	2512.08
937.674	2497.62
937.982	2460.78
938.29	2455.81
938.597	2428.47
938.905	2404.74
939.213	2406.77
939.52	2437.05
939.827	2428.47
940.135	2423.27
940.442	2414
940.749	2375.14
941.056	2391.86
941.363	2326.32
941.67	2359.77
941.977	2328.13
942.284	2363.61
942.591	2350.5
942.898	2349.15
943.205	2337.62
943.511	2330.84
943.818	2327.9
944.125	2305.98
944.431	2307.11
944.738	2291.75
945.044	2291.75
945.35	2289.26
945.657	2274.8
945.963	2246.1
946.269	2228.7
946.575	2264.63
946.881	2251.07
947.187	2224.18
947.493	2217.85
947.799	2196.38
948.105	2169.49
948.41	2202.03
948.716	2186.67
949.022	2153.9
949.327	2173.78
949.633	2149.38
949.938	2136.72
950.244	2109.15
950.549	2141.47
950.854	2102.15
951.16	2102.83
951.465	2094.92
951.77	2091.53
952.075	2078.87
952.38	2063.05
952.685	2059.21
952.99	2075.93
953.294	2040.91
953.599	2040.68
953.904	2024.86
954.209	2019.66
954.513	2008.59
954.818	2003.62
955.122	2003.62
955.426	2007.46
955.731	1992.55
956.035	1997.07
956.339	1995.26
956.643	1976.95
956.948	1948.93
957.252	1964.07
957.556	1950.06
957.86	1941.25
958.163	1953.9
958.467	1955.03
958.771	1947.12
959.075	1898.99
959.378	1960.91
959.682	1922.49
959.985	1877.07
960.289	1889.27
960.592	1888.37
960.896	1903.74
961.199	1919.55
961.502	1861.25
961.805	1865.09
962.108	1854.25
962.411	1846.56
962.714	1828.48
963.017	1815.15
963.32	1849.27
963.623	1809.5
963.926	1801.59
964.228	1778.77
964.531	1793.46
964.833	1785.09
965.136	1791.2
965.438	1804.75
965.741	1774.25
966.043	1784.42
966.345	1756.62
966.648	1746.23
966.95	1762.5
967.252	1739.45
967.554	1725.21
967.856	1747.36
968.158	1696.74
968.46	1724.98
968.761	1691.54
969.063	1727.24
969.365	1671.88
969.666	1690.63
969.968	1690.86
970.269	1685.89
970.571	1681.82
970.872	1664.19
971.174	1678.88
971.475	1667.58
971.776	1671.65
972.077	1621.71
972.378	1626.23
972.679	1646.11
972.98	1626
973.281	1604.53
973.582	1636.4
973.883	1621.71
974.183	1617.87
974.484	1577.19
974.785	1617.87
975.085	1583.07
975.386	1613.35
975.686	1606.12
975.986	1591.65
976.287	1575.16
976.587	1550.07
976.887	1550.75
977.187	1544.65
977.487	1548.94
977.787	1564.08
978.087	1563.18
978.387	1545.55
978.687	1525.21
978.987	1490.41
979.286	1505.78
979.586	1502.62
979.885	1491.54
980.185	1487.25
980.484	1470.53
980.784	1471.43
981.083	1444.99
981.382	1477.31
981.682	1453.58
981.981	1465.33
982.28	1459.91
982.579	1436.85
982.878	1439.79
983.177	1417.87
983.475	1474.14
983.774	1407.25
984.073	1406.35
984.372	1404.54
984.67	1400.25
984.969	1390.53
985.267	1389.4
985.566	1407.48
985.864	1360.02
986.162	1386.69
986.461	1376.07
986.759	1377.2
987.057	1320.7
987.355	1354.82
987.653	1352.56
987.951	1340.59
988.249	1345.33
988.547	1310.3
988.844	1306.91
989.142	1348.72
989.44	1314.15
989.737	1300.36
990.035	1296.07
990.332	1314.37
990.63	1289.74
990.927	1304.88
991.224	1295.16
991.521	1269.63
991.819	1265.79
992.116	1258.33
992.413	1271.21
992.71	1242.96
993.006	1245.45
993.303	1240.25
993.6	1253.36
993.897	1218.1
994.193	1237.76
994.49	1233.92
994.787	1212.68
995.083	1231.89
995.379	1207.48
995.676	1173.13
995.972	1202.96
996.268	1201.15
996.565	1190.76
996.861	1178.56
997.157	1181.72
997.453	1186.69
997.749	1145.11
998.044	1167.26
998.34	1146.92
998.636	1160.48
998.932	1154.6
999.227	1142.4
999.523	1121.16
999.818	1127.03
1000.114	1092.01
1000.409	1122.51
1000.704	1111.21
1001	1091.1
1001.295	1108.28
1001.59	1089.29
1001.885	1100.37
1002.18	1078.22
1002.475	1082.06
1002.77	1052.23
1003.065	1079.8
1003.359	1057.2
1003.654	1063.08
1003.949	1045.9
1004.243	1053.59
1004.538	1052.23
1004.832	1054.94
1005.127	1045.45
1005.421	1024.21
1005.715	1022.85
1006.009	1022.4
1006.304	1045
1006.598	995.96
1006.892	1008.39
1007.186	1015.17
1007.48	1000.26
1007.773	995.51
1008.067	990.54
1008.361	991.44
1008.655	950.31
1008.948	979.92
1009.242	979.69
1009.535	945.34
1009.829	957.32
1010.122	930.65
1010.415	955.51
1010.708	922.52
1011.001	942.4
1011.295	924.78
1011.588	941.05
1011.881	914.38
1012.173	917.09
1012.466	901.73
1012.759	907.6
1013.052	890.65
1013.344	912.12
1013.637	856.08
1013.93	902.86
1014.222	883.42
1014.514	883.42
1014.807	877.1
1015.099	880.94
1015.391	878.45
1015.683	856.08
1015.976	842.97
1016.268	848.85
1016.56	845.46
1016.851	855.4
1017.143	858.34
1017.435	852.46
1017.727	855.18
1018.018	844.33
1018.31	838.9
1018.602	825.35
1018.893	832.13
1019.185	823.99
1019.476	816.53
1019.767	803.65
1020.058	820.83
1020.35	794.61
1020.641	795.74
1020.932	797.55
1021.223	793.71
1021.514	778.12
1021.804	785.12
1022.095	765.91
1022.386	761.17
1022.677	750.55
1022.967	760.49
1023.258	756.42
1023.548	743.09
1023.839	742.41
1024.129	763.2
1024.419	743.99
1024.709	754.84
1025	747.61
1025.29	728.17
1025.58	716.42
1025.87	732.47
1026.16	734.5
1026.449	715.52
1026.739	714.84
1027.029	707.61
1027.319	709.87
1027.608	705.57
1027.898	699.7
1028.187	696.31
1028.477	677.78
1028.766	652.92
1029.055	659.25
1029.344	685.69
1029.634	678.23
1029.923	688.63
1030.212	663.99
1030.501	670.77
1030.79	674.84
1031.078	645.69
1031.367	632.13
1031.656	640.49
1031.945	642.75
1032.233	658.8
1032.522	653.15
1032.81	646.82
1033.099	618.35
1033.387	651.56
1033.675	632.58
1033.963	615.41
1034.251	632.58
1034.54	628.29
1034.828	588.74
1035.116	622.64
1035.403	624.22
1035.691	612.24
1035.979	618.8
1036.267	616.99
1036.554	605.24
1036.842	613.6
1037.129	605.46
1037.417	597.78
1037.704	614.05
1037.992	607.5
1038.279	590.55
1038.566	588.06
1038.853	588.06
1039.14	588.06
