Data from foam2_polystyrene_foam_FLMS001491_00074.txt Node
Date: Wed Feb 08 10:58:28 GMT 2017
User: dcchb
Spectrometer: FLMS00149
Trigger mode: 0
Integration Time (sec): 2.000000E-2
Scans to average: 10
Electric dark correction enabled: true
Nonlinearity correction enabled: false
Boxcar width: 0
XAxis mode: Wavelengths
Number of Pixels in Spectrum: 2048
>>>>>Begin Spectral Data<<<<<
341.393	-14.59
341.776	-14.59
342.16	-14.59
342.543	-57.98
342.927	-68.37
343.31	-79.22
343.693	-77.41
344.077	-81.25
344.46	-47.13
344.843	-53.23
345.226	-24.99
345.61	-21.37
345.993	3.04
346.376	2.13
346.759	9.82
347.142	27.22
347.525	41
347.908	54.33
348.291	66.31
348.674	75.35
349.057	105.41
349.44	128.68
349.823	154.22
350.206	149.93
350.588	209.81
350.971	220.66
351.354	229.92
351.737	249.58
352.119	266.31
352.502	297.27
352.884	297.04
353.267	279.19
353.65	307.21
354.032	306.98
354.414	323.48
354.797	333.65
355.179	321.45
355.562	334.78
355.944	325.51
356.326	345.63
356.709	356.47
357.091	393.31
357.473	348.56
357.855	343.59
358.238	351.5
358.62	351.95
359.002	353.76
359.384	372.52
359.766	375.68
360.148	363.48
360.53	345.85
360.912	358.96
361.294	356.7
361.676	378.62
362.057	355.34
362.439	364.38
362.821	367.55
363.203	346.53
363.584	366.64
363.966	342.69
364.348	369.81
364.729	336.14
365.111	355.34
365.493	360.32
365.874	346.08
366.256	361.45
366.637	338.85
367.019	338.85
367.4	361.9
367.781	337.49
368.163	356.02
368.544	347.89
368.925	363.03
369.306	381.56
369.688	364.38
370.069	366.87
370.45	350.37
370.831	368
371.212	371.84
371.593	360.99
371.974	376.13
372.355	365.29
372.736	365.96
373.117	364.16
373.498	374.33
373.879	381.56
374.26	372.97
374.641	364.16
375.021	378.62
375.402	376.13
375.783	383.37
376.163	413.2
376.544	417.26
376.925	384.27
377.305	411.16
377.686	398.51
378.066	402.57
378.447	399.86
378.827	400.54
379.208	423.59
379.588	415.46
379.968	403.03
380.349	424.49
380.729	426.53
381.109	434.44
381.489	433.76
381.87	422.23
382.25	426.53
382.63	423.36
383.01	473.08
383.39	440.99
383.77	432.63
384.15	455
384.53	442.8
384.91	462.46
385.29	472.4
385.67	465.85
386.049	460.43
386.429	478.5
386.809	487.32
387.189	463.59
387.568	480.76
387.948	481.22
388.328	492.52
388.707	503.59
389.087	495.23
389.466	504.72
389.846	536.81
390.225	512.4
390.605	520.09
390.984	526.64
391.363	547.66
391.743	515.79
392.122	532.29
392.501	537.03
392.881	537.03
393.26	545.62
393.639	563.93
394.018	574.1
394.397	562.57
394.776	598.73
395.155	574.77
395.534	594.89
395.913	565.06
396.292	570.25
396.671	609.8
397.05	619.97
397.429	611.16
397.808	606.64
398.186	619.07
398.565	603.02
398.944	617.48
399.323	627.65
399.701	636.47
400.08	640.76
400.458	647.54
400.837	656.13
401.215	675.34
401.594	663.36
401.972	696.8
402.351	677.14
402.729	692.28
403.107	699.74
403.486	690.02
403.864	690.48
404.242	695.9
404.62	700.19
404.999	721.44
405.377	740.64
405.755	748.33
406.133	755.33
406.511	746.75
406.889	754.43
407.267	751.27
407.645	754.88
408.023	786.52
408.401	816.57
408.779	822.22
409.156	803.47
409.534	809.8
409.912	840.3
410.29	865.16
410.667	854.77
411.045	866.52
411.422	879.4
411.8	897.02
412.178	896.35
412.555	893.41
412.933	907.87
413.31	947.64
413.687	915.78
414.065	967.53
414.442	964.59
414.819	959.4
415.197	949.9
415.574	972.73
415.951	991.26
416.328	995.78
416.705	1011.37
417.082	1009.79
417.46	1024.48
417.837	1054.53
418.214	1047.3
418.591	1054.31
418.967	1085.49
419.344	1050.92
419.721	1084.14
420.098	1094.99
420.475	1124.59
420.852	1150.8
421.228	1147.64
421.605	1141.99
421.982	1155.1
422.358	1152.16
422.735	1171.82
423.111	1174.98
423.488	1185.6
423.864	1228.09
424.241	1247.3
424.617	1241.87
424.994	1250.91
425.37	1280.07
425.746	1274.87
426.123	1264.47
426.499	1304.47
426.875	1319.84
427.251	1329.1
427.627	1369.55
428.003	1378.14
428.379	1385.37
428.756	1397.58
429.132	1419.5
429.507	1457.46
429.883	1467.86
430.259	1487.29
430.635	1499.27
431.011	1508.31
431.387	1539.49
431.763	1586.05
432.138	1561.87
432.514	1605.93
432.89	1579.94
433.265	1648.19
433.641	1658.13
434.016	1675.08
434.392	1684.57
434.767	1736.55
435.143	1719.6
435.518	1753.73
435.894	1788.98
436.269	1807.51
436.644	1805.48
437.02	1856.32
437.395	1850.67
437.77	1896.32
438.145	1927.96
438.52	1897
438.895	1943.32
439.271	1937.9
439.646	1992.59
440.021	2004.57
440.395	2015.64
440.77	1990.1
441.145	2047.28
441.52	2096.31
441.895	2087.95
442.27	2078.01
442.645	2087.05
443.019	2150.32
443.394	2138.57
443.769	2151.91
444.143	2140.16
444.518	2190.55
444.892	2210.44
445.267	2241.4
445.641	2253.37
446.016	2282.98
446.39	2278.23
446.764	2302.64
447.139	2302.86
447.513	2329.08
447.887	2337.44
448.262	2358.23
448.636	2379.25
449.01	2390.77
449.384	2444.55
449.758	2417.44
450.132	2489.3
450.506	2499.02
450.88	2544.89
451.254	2492.69
451.628	2552.8
452.002	2581.05
452.376	2605.91
452.75	2666.7
453.123	2675.96
453.497	2691.55
453.871	2693.36
454.244	2769.07
454.618	2788.95
454.992	2815.39
455.365	2831.21
455.739	2885.67
456.112	2896.29
456.486	2882.06
456.859	2973.13
457.232	3041.37
457.606	3022.39
457.979	3062.39
458.352	3124.54
458.725	3111.66
459.099	3192.78
459.472	3206.12
459.845	3232.56
460.218	3278.2
460.591	3331.31
460.964	3343.29
461.337	3419.67
461.71	3458.31
462.083	3520.91
462.456	3507.8
462.829	3546.45
463.201	3606.33
463.574	3574.02
463.947	3643.39
464.32	3722.94
464.692	3771.98
465.065	3806.78
465.438	3874.8
465.81	3920.67
466.183	3923.39
466.555	3996.83
466.928	4076.15
467.3	4056.26
467.672	4114.57
468.045	4223.94
468.417	4202.47
468.789	4268.01
469.161	4282.47
469.534	4421.23
469.906	4449.25
470.278	4465.07
470.65	4554.56
471.022	4639.07
471.394	4733.99
471.766	4788.45
472.138	4836.36
472.51	4957.71
472.882	5045.84
473.253	5067.76
473.625	5143.92
473.997	5267.31
474.369	5311.15
474.74	5378.94
475.112	5471.14
475.484	5562.44
475.855	5576.22
476.227	5637.92
476.598	5826.61
476.97	5909.32
477.341	5945.93
477.713	6099.83
478.084	6142.76
478.455	6296.88
478.827	6304.11
479.198	6559.02
479.569	6466.37
479.94	6722.86
480.311	6733.26
480.682	6921.95
481.053	7059.57
481.424	7084.21
481.795	7229.74
482.166	7375.72
482.537	7455.5
482.908	7628.82
483.279	7729.61
483.65	7891.87
484.021	7973.45
484.391	8097.06
484.762	8193.1
485.133	8278.3
485.503	8339.09
485.874	8536.6
486.244	8606.65
486.615	8823.6
486.985	8902.46
487.356	9032.63
487.726	9107.66
488.097	9283.24
488.467	9292.28
488.837	9499.96
489.207	9669.9
489.578	9739.73
489.948	9855.66
490.318	10012.72
490.688	10035.32
491.058	10187.85
491.428	10413.38
491.798	10441.63
492.168	10621.97
492.538	10695.41
492.908	10796.88
493.278	10951.45
493.648	11001.62
494.017	11158.68
494.387	11261.95
494.757	11318.67
495.126	11540.36
495.496	11505.11
495.866	11616.74
496.235	11746.91
496.605	11832.33
496.974	11983.51
497.344	12087.69
497.713	12140.8
498.082	12234.35
498.452	12353.9
498.821	12430.96
499.19	12500.11
499.559	12630.95
499.928	12745.98
500.298	12796.37
500.667	12921.79
501.036	12947.56
501.405	13075.46
501.774	13122.69
502.143	13348.22
502.512	13313.65
502.88	13533.98
503.249	13564.71
503.618	13543.25
503.987	13665.05
504.356	13775.1
504.724	13821.2
505.093	13915.44
505.462	14019.62
505.83	14152.72
506.199	14230.23
506.567	14435.43
506.936	14417.35
507.304	14713.38
507.672	14712.03
508.041	14804.23
508.409	14926.94
508.777	15031.34
509.145	15111.57
509.514	15197.21
509.882	15189.98
510.25	15358.11
510.618	15540.93
510.986	15561.72
511.354	15763.75
511.722	15914.71
512.09	16042.16
512.458	15971.88
512.826	16261.82
513.193	16221.14
513.561	16360.35
513.929	16486.67
514.297	16683.28
514.664	16826.32
515.032	16818.87
515.4	17030.16
515.767	17109.25
516.135	17174.79
516.502	17196.26
516.869	17504.05
517.237	17593.31
517.604	17565.74
517.972	17781.78
518.339	17980.87
518.706	17995.33
519.073	18103.35
519.44	18259.28
519.808	18466.96
520.175	18484.58
520.542	18723.45
520.909	18865.14
521.276	18828.53
521.643	19090.44
522.009	19194.4
522.376	19369.31
522.743	19433.71
523.11	19615.85
523.477	19924.77
523.843	19996.86
524.21	20273.69
524.577	20330.64
524.943	20421.03
525.31	20634.13
525.676	20823.28
526.043	20967.91
526.409	21047.46
526.776	21287
527.142	21292.87
527.508	21488.35
527.874	21695.57
528.241	21667.55
528.607	21912.29
528.973	22144.15
529.339	22152.28
529.705	22421.2
530.071	22465.72
530.437	22686.28
530.803	22811.48
531.169	22823.23
531.535	22857.35
531.901	22981.64
532.267	23167.63
532.632	23294.4
532.998	23327.17
533.364	23623.66
533.73	23719.7
534.095	23869.75
534.461	23999.24
534.826	23971.9
535.192	24113.82
535.557	24291.21
535.923	24415.28
536.288	24526.46
536.653	24723.06
537.019	24523.97
537.384	24739.56
537.749	24841.48
538.114	24980.91
538.479	24982.27
538.845	25168.93
539.21	25176.39
539.575	25280.56
539.94	25324.4
540.305	25545.19
540.67	25452.99
541.034	25606.43
541.399	25782.92
541.764	25829.48
542.129	26044.84
542.494	25982.69
542.858	26079.41
543.223	26133.65
543.587	26359.63
543.952	26305.4
544.316	26438.73
544.681	26400.53
545.045	26691.6
545.41	26813.18
545.774	26863.12
546.138	26878.04
546.503	26999.61
546.867	27030.12
547.231	27185.15
547.595	27331.81
547.959	27354.41
548.324	27383.33
548.688	27505.59
549.052	27660.84
549.416	27766.6
549.779	27807.28
550.143	27835.75
550.507	28078
550.871	28119.13
551.235	28156.42
551.599	28410.2
551.962	28450.88
552.326	28478.45
552.689	28673.02
553.053	28554.6
553.417	28691.1
553.78	29063.52
554.143	29051.76
554.507	29171.08
554.87	29349.16
555.234	29667.79
555.597	29471.41
555.96	29595.93
556.323	29710.73
556.686	29828.24
557.05	30120.44
557.413	30051.29
557.776	30113.88
558.139	30413.31
558.502	30418.28
558.865	30625.73
559.228	30841.55
559.59	30905.05
559.953	30997.25
560.316	31369.9
560.679	31360.86
561.041	31479.72
561.404	31650.57
561.767	31886.27
562.129	31700.06
562.492	32115.41
562.854	32075.19
563.217	32200.38
563.579	32404.44
563.941	32556.08
564.304	32776.19
564.666	33048.95
565.028	32939.12
565.39	33083.75
565.753	33337.08
566.115	33280.58
566.477	33563.51
566.839	33693
567.201	33939.32
567.563	33804.41
567.925	34200.78
568.287	34094.57
568.648	34414.34
569.01	34509.7
569.372	34763.03
569.734	34629.02
570.095	34915.56
570.457	35147.42
570.819	35060.87
571.18	35149.91
571.542	35352.62
571.903	35421.99
572.265	35546.28
572.626	35577.92
572.987	35706.96
573.349	35636.9
573.71	35750.8
574.071	35919.83
574.432	36079.38
574.794	36344.68
575.155	36242.99
575.516	36121.63
575.877	36327.05
576.238	36340.61
576.599	36610.44
576.96	36574.73
577.32	36591.23
577.681	36732.24
578.042	36872.35
578.403	36899.24
578.763	36760.04
579.124	36843.2
579.485	37084.32
579.845	37198.22
580.206	37046.81
580.566	37174.94
580.927	37303.75
581.287	37241.38
581.648	37209.74
582.008	37406.12
582.368	37330.64
582.728	37464.42
583.089	37403.41
583.449	37361.15
583.809	37472.11
584.169	37609.51
584.529	37487.7
584.889	37704.42
585.249	37430.3
585.609	37429.4
585.969	37644.08
586.329	37508.04
586.688	37623.29
587.048	37403.64
587.408	37433.01
587.768	37562.73
588.127	37352.11
588.487	37348.5
588.846	37557.3
589.206	37257.2
589.565	37479.79
589.925	37619.22
590.284	37515.27
590.643	37618.32
591.003	37721.14
591.362	37695.15
591.721	37632.56
592.08	37599.11
592.44	37792.55
592.799	37650.63
593.158	37521.15
593.517	37546.23
593.876	37776.51
594.235	37632.1
594.593	37720.69
594.952	37787.58
595.311	37635.27
595.67	37627.58
596.029	37901.93
596.387	37952.55
596.746	37964.3
597.104	37945.77
597.463	37782.83
597.822	37994.13
598.18	37866.22
598.538	37805.88
598.897	37922.04
599.255	37647.02
599.613	38180.11
599.972	37982.38
600.33	38032.32
600.688	38060.57
601.046	38105.09
601.404	38285.65
601.762	38151.64
602.12	38463.95
602.478	38317.74
602.836	38306.21
603.194	38211.52
603.552	38254.01
603.91	38123.84
604.268	38362.48
604.625	38281.58
604.983	38406.32
605.341	38296.72
605.698	38570.84
606.056	38498.07
606.413	38544.17
606.771	38641.57
607.128	38738.52
607.485	38495.36
607.843	38619.42
608.2	38873.88
608.557	38900.54
608.914	38749.59
609.272	39008.11
609.629	39022.12
609.986	39046.3
610.343	39035
610.7	39226.19
611.057	39213.31
611.414	39076.13
611.771	39108.45
612.127	39255.56
612.484	39270.93
612.841	39415.11
613.198	39241.33
613.554	39261.89
613.911	39468.89
614.267	39354.32
614.624	39289.24
614.98	39425.5
615.337	39673.63
615.693	39604.48
616.05	39462.79
616.406	39681.99
616.762	39524.03
617.118	39671.37
617.475	39604.48
617.831	39729.9
618.187	39735.33
618.543	39882.21
618.899	39978.03
619.255	39923.12
619.611	39874.98
619.967	40119.95
620.323	40023.91
620.678	39983.45
621.034	39897.13
621.39	40032.49
621.746	39823.68
622.101	40417.12
622.457	40091.02
622.812	40196.56
623.168	40259.61
623.523	40201.75
623.879	40317
624.234	39989.33
624.589	39984.58
624.945	40177.35
625.3	40217.57
625.655	40157.91
626.01	40200.85
626.365	40220.28
626.72	40168.08
627.075	40113.17
627.43	40069.55
627.785	40218.7
628.14	40254.41
628.495	40076.33
628.85	40133.28
629.205	40056.45
629.559	40207.63
629.914	39923.79
630.269	39972.61
630.623	39750.92
630.978	39882.21
631.332	39911.82
631.687	40111.81
632.041	39908.2
632.396	39914.76
632.75	39744.14
633.104	39860.29
633.459	39666.63
633.813	39759.51
634.167	39518.61
634.521	39522.45
634.875	39608.1
635.229	39490.81
635.583	39322
635.937	39230.03
636.291	39227.09
636.645	39176.02
636.999	39154.32
637.352	39149.58
637.706	39029.81
638.06	39005.85
638.413	38763.15
638.767	38858.29
639.121	38905.97
639.474	38689.93
639.828	38620.78
640.181	38650.16
640.534	38593.21
640.888	38673.88
641.241	38429.37
641.594	38538.75
641.947	38564.96
642.301	38450.16
642.654	38348.02
643.007	38368.58
643.36	38282.71
643.713	38199.09
644.066	38438.18
644.419	38101.24
644.771	37988.48
645.124	37605.66
645.477	37572.22
645.83	37141.04
646.182	37011.56
646.535	36943.53
646.888	36919.81
647.24	36873.71
647.593	37056.53
647.945	36963.19
648.298	36722.75
648.65	36655.18
649.002	36555.75
649.355	36771.79
649.707	36473.26
650.059	36818.57
650.411	37251.1
650.763	37275.73
651.115	37615.61
651.467	37416.74
651.819	37479.79
652.171	37419.91
652.523	37273.24
652.875	37235.73
653.227	37086.81
653.578	37369.96
653.93	37192.12
654.282	37021.95
654.633	37070.08
654.985	37089.75
655.337	37105.56
655.688	37044.55
656.039	37188.27
656.391	37068.05
656.742	36882.97
657.094	36980.6
657.445	37041.16
657.796	36878
658.147	36788.96
658.498	36793.03
658.849	36869.41
659.2	36755.97
659.551	36758.23
659.902	36811.79
660.253	36704.44
660.604	36759.81
660.955	36601.17
661.306	36706.48
661.656	36706.25
662.007	36739.25
662.358	36677.78
662.708	36630.77
663.059	36775.63
663.409	36351.91
663.76	36665.35
664.11	36765.23
664.461	36701.73
664.811	36812.01
665.161	36599.59
665.511	36647.27
665.862	36729.98
666.212	36698.34
666.562	36721.39
666.912	36548.74
667.262	36520.72
667.612	36534.51
667.962	36531.57
668.312	36480.72
668.662	36588.06
669.011	36481.17
669.361	36480.72
669.711	36459.93
670.06	36372.25
670.41	36399.14
670.76	36301.29
671.109	36363.89
671.459	36344.23
671.808	36257.22
672.157	36344.45
672.507	36032.82
672.856	35932.04
673.205	36118.7
673.554	36145.82
673.904	36140.84
674.253	36173.16
674.602	36080.96
674.951	35516.91
675.3	35399.17
675.649	35979.72
675.998	35975.88
676.346	35944.24
676.695	36095.65
677.044	35783.11
677.393	36028.3
677.741	36045.25
678.09	35871.02
678.438	35731.59
678.787	35863.34
679.135	35875.99
679.484	35607.52
679.832	35766.84
680.181	35471.26
680.529	35513.52
680.877	35454.31
681.225	35433.74
681.573	35719.39
681.922	35209.79
682.27	35165.95
682.618	35289.34
682.966	35085.05
683.314	35296.8
683.661	35000.99
684.009	34825.4
684.357	34781.33
684.705	34880.76
685.053	34800.09
685.4	34814.78
685.748	34503.82
686.095	34447.78
686.443	34477.61
686.79	34403.71
687.138	34311.74
687.485	34476.71
687.832	34351.51
688.18	34288.46
688.527	34091.18
688.874	34102.25
689.221	33990.84
689.568	33834.69
689.915	33735.03
690.262	33837.63
690.609	33650.74
690.956	33549.27
691.303	33672.89
691.65	33399.22
691.997	33496.39
692.344	33142.28
692.69	33249.85
693.037	33179.34
693.383	32943.41
693.73	33106.8
694.077	32879.23
694.423	32843.76
694.769	32623.87
695.116	32573.25
695.462	32604.67
695.808	32457.78
696.155	32467.49
696.501	32220.04
696.847	32234.51
697.193	32131.01
697.539	32177.11
697.885	31967.17
698.231	31950.45
698.577	31861.41
698.923	31900.5
699.269	31628.42
699.614	31618.25
699.96	31570.34
700.306	31362.21
700.651	31358.6
700.997	31211.93
701.342	31182.78
701.688	31187.98
702.033	31071.15
702.379	31026.4
702.724	30798.84
703.069	30948.89
703.415	30510.71
703.76	30598.62
704.105	30486.08
704.45	30492.86
704.795	30366.08
705.14	30222.58
705.485	30328.57
705.83	30169.02
706.175	30106.2
706.52	30037.5
706.865	29941.23
707.209	29888.13
707.554	29755.02
707.899	29797.73
708.243	29597.74
708.588	29581.69
708.932	29338.99
709.277	29455.37
709.621	29405.65
709.966	29207.01
710.31	29252.66
710.654	28991.65
710.998	29160.46
711.342	29160.01
711.687	29037.98
712.031	28916.63
712.375	28783.75
712.719	28803.86
713.063	28766.57
713.407	28943.97
713.75	28587.6
714.094	28623.53
714.438	28441.84
714.782	28460.14
715.125	28401.16
715.469	28416.75
715.812	28232.35
716.156	28066.93
716.499	28164.78
716.843	28057.21
717.186	27850.89
717.53	28057.21
717.873	28039.36
718.216	27925.69
718.559	27791.01
718.902	27643.21
719.246	27603.67
719.589	27442.77
719.932	27437.8
720.275	27389.66
720.617	27355.31
720.96	27335.2
721.303	27398.47
721.646	27233.96
721.989	27052.04
722.331	27157.8
722.674	27127.97
723.016	27150.8
723.359	27129.33
723.701	27162.1
724.044	26885.04
724.386	26728.21
724.729	26935.44
725.071	26958.94
725.413	26792.84
725.755	26818.15
726.097	26679.62
726.439	26648.66
726.782	26652.28
727.124	26786.06
727.465	26531.6
727.807	26554.2
728.149	26399.63
728.491	26375
728.833	26413.64
729.175	26276.24
729.516	26298.39
729.858	26211.16
730.199	26217.04
730.541	26079.64
730.882	26080.32
731.224	26243.7
731.565	25891.4
731.906	25977.49
732.248	25934.56
732.589	25851.85
732.93	25701.57
733.271	25764.17
733.612	25752.19
733.953	25713.32
734.294	25594.91
734.635	25664.28
734.976	25669.93
735.317	25449.83
735.658	25504.51
735.999	25480.78
736.339	25312.43
736.68	25509.94
737.021	25363.73
737.361	25243.73
737.702	25274.46
738.042	25233.33
738.383	25155.82
738.723	25141.58
739.063	24987.69
739.404	25182.49
739.744	25064.75
740.084	24950.63
740.424	25069.95
740.764	24841.93
741.104	25068.14
741.444	24878.09
741.784	24639.23
742.124	24802.38
742.464	24863.17
742.804	24708.15
743.143	24549.74
743.483	24512.22
743.823	24475.39
744.162	24507.48
744.502	24549.06
744.841	24432
745.181	24528.27
745.52	24254.6
745.86	24435.39
746.199	24239.46
746.538	24313.36
746.877	24243.53
747.216	24417.08
747.556	24243.08
747.895	24128.73
748.234	24090.76
748.573	24005.34
748.911	23981.62
749.25	23904.33
749.589	23900.94
749.928	23893.71
750.267	23840.15
750.605	23796.54
750.944	23738.46
751.283	23624.34
751.621	23573.49
751.96	23559.03
752.298	23632.47
752.636	23539.82
752.975	23402.65
753.313	23287.85
753.651	23434.06
753.989	23239.26
754.327	23211.01
754.666	23142.09
755.004	23080.85
755.342	23052.6
755.679	22917.46
756.017	22916.11
756.355	22943.45
756.693	22840.85
757.031	22746.62
757.368	22680.41
757.706	22698.71
758.044	22630.46
758.381	22530.81
758.719	22456.23
759.056	22544.36
759.394	22370.13
759.731	22348.89
760.068	22187.76
760.405	22244.49
760.743	22201.77
761.08	22210.59
761.417	22061.21
761.754	21968.33
762.091	21981.89
762.428	21794.1
762.765	21731.28
763.102	21837.72
763.438	21723.14
763.775	21553.66
764.112	21568.57
764.449	21576.03
764.785	21439.08
765.122	21295.58
765.458	21235.25
765.795	21171.97
766.131	21156.38
766.467	21052.43
766.804	21054.23
767.14	20850.4
767.476	20971.3
767.812	20777.41
768.148	20714.36
768.485	20626.68
768.821	20433.69
769.157	20455.38
769.492	20463.29
769.828	20312.79
770.164	20191.88
770.5	20137.87
770.836	20160.92
771.171	19914.6
771.507	19938.33
771.842	19861.05
772.178	19890.88
772.513	19758.68
772.849	19700.37
773.184	19628.96
773.519	19600.94
773.855	19507.61
774.19	19433.03
774.525	19294.05
774.86	19281.63
775.195	19319.14
775.53	19203.21
775.865	19098.13
776.2	18991.46
776.535	18894.07
776.87	18880.73
777.205	18691.81
777.539	18830.34
777.874	18785.59
778.209	18560.51
778.543	18580.18
778.878	18539.5
779.212	18443.68
779.547	18377.24
779.881	18437.81
780.215	18210.47
780.55	18264.7
780.884	18213.86
781.218	18121.43
781.552	18126.4
781.886	18018.16
782.22	17822.91
782.554	17862.23
782.888	17697.71
783.222	17652.06
783.556	17592.4
783.889	17565.74
784.223	17365.52
784.557	17319.42
784.89	17319.42
785.224	17230.15
785.557	17151.96
785.891	17191.29
786.224	17105.41
786.558	17092.76
786.891	16947.45
787.224	16886.43
787.557	16763.95
787.891	16835.36
788.224	16875.36
788.557	16741.35
788.89	16634.69
789.223	16622.94
789.556	16524.64
789.888	16450.97
790.221	16476.95
790.554	16329.61
790.887	16270.41
791.219	16314.25
791.552	16175.04
791.884	16080.58
792.217	16103.18
792.549	16036.06
792.882	15948.83
793.214	15802.85
793.546	15935.05
793.879	15744.77
794.211	15685.34
794.543	15680.36
794.875	15718.78
795.207	15656.18
795.539	15499.58
795.871	15554.49
796.203	15360.6
796.535	15479.24
796.867	15387.49
797.198	15300.71
797.53	15283.76
797.862	15139.36
798.193	15268.62
798.525	15084.9
798.856	15163.54
799.188	14867.96
799.519	14965.13
799.85	14843.32
800.182	14874.51
800.513	14887.17
800.844	14753.38
801.175	14825.7
801.506	14693.05
801.837	14648.98
802.168	14594.74
802.499	14529.21
802.83	14496.89
803.161	14424.8
803.491	14461.19
803.822	14465.26
804.153	14366.05
804.483	14325.82
804.814	14208.31
805.145	14218.48
805.475	14123.12
805.805	14118.6
806.136	14159.05
806.466	14021.2
806.796	14058.03
807.126	13969.68
807.457	13933.97
807.787	13874.31
808.117	13837.48
808.447	13790.02
808.777	13839.06
809.107	13752.96
809.436	13684.71
809.766	13754.99
810.096	13622.57
810.426	13591.15
810.755	13695.33
811.085	13585.28
811.414	13585.28
811.744	13457.15
812.073	13362.69
812.403	13408.79
812.732	13233.88
813.061	13308.45
813.39	13194.1
813.719	13215.8
814.049	13230.49
814.378	13182.13
814.707	13235.01
815.036	13216.7
815.365	13043.6
815.693	12981.23
816.022	12968.35
816.351	12930.83
816.68	12859.42
817.008	12924.5
817.337	12847.44
817.665	12818.29
817.994	12863.94
818.322	12804.51
818.651	12721.12
818.979	12738.3
819.307	12772.42
819.636	12688.8
819.964	12644.29
820.292	12659.65
820.62	12645.64
820.948	12595.02
821.276	12595.7
821.604	12518.41
821.932	12618.75
822.259	12559.09
822.587	12593.89
822.915	12530.16
823.243	12585.76
823.57	12526.55
823.898	12562.25
824.225	12504.18
824.553	12512.09
824.88	12482.03
825.207	12504.18
825.535	12500.11
825.862	12560.22
826.189	12457.62
826.516	12496.95
826.843	12587.56
827.17	12531.29
827.497	12545.08
827.824	12491.3
828.151	12500.56
828.478	12403.16
828.805	12557.28
829.131	12452.43
829.458	12455.82
829.785	12456.72
830.111	12499.21
830.438	12520.45
830.764	12515.48
831.09	12438.19
831.417	12404.52
831.743	12524.97
832.069	12484.06
832.395	12412.43
832.722	12503.5
833.048	12388.93
833.374	12460.34
833.7	12371.3
834.026	12405.42
834.351	12511.41
834.677	12362.49
835.003	12419.66
835.329	12374.01
835.654	12369.94
835.98	12284.52
836.306	12236.84
836.631	12258.53
836.956	12263.05
837.282	12245.43
837.607	12160.68
837.932	12127.69
838.258	12160.68
838.583	12170.85
838.908	12074.81
839.233	12055.6
839.558	12010.4
839.883	12000.91
840.208	11961.59
840.533	12016.05
840.858	11972.89
841.182	11981.48
841.507	11936.06
841.832	11884.31
842.156	11889.28
842.481	11929.28
842.805	11838.21
843.13	11809.51
843.454	11791.65
843.778	11731.09
844.103	11700.81
844.427	11699.23
844.751	11700.81
845.075	11644.31
845.399	11639.34
845.723	11542.62
846.047	11499.01
846.371	11505.56
846.695	11444.32
847.019	11445
847.343	11281.16
847.666	11303.53
847.99	11250.88
848.313	11115.29
848.637	11134.72
848.96	11146.47
849.284	11073.71
849.607	11028.51
849.931	11009.53
850.254	10917.1
850.577	10892.24
850.9	10825.12
851.223	10839.81
851.546	10717.78
851.869	10671
852.192	10722.08
852.515	10612.48
852.838	10597.79
853.161	10567.28
853.483	10473.04
853.806	10527.05
854.129	10514.85
854.451	10471.01
854.774	10383.33
855.096	10320.96
855.419	10315.31
855.741	10248.64
856.063	10229.43
856.385	10171.13
856.708	10195.09
857.03	10176.55
857.352	10184.46
857.674	10104.92
857.996	10080.74
858.318	10053.62
858.64	10009.33
858.961	9985.37
859.283	9977.46
859.605	9933.4
859.926	9928.88
860.248	9874.42
860.57	9913.28
860.891	9916.9
861.212	9840.74
861.534	9778.6
861.855	9755.32
862.176	9772.95
862.498	9763.23
862.819	9793.29
863.14	9674.65
863.461	9720.07
863.782	9574.76
864.103	9746.74
864.424	9630.81
864.745	9655.66
865.065	9604.37
865.386	9514.2
865.707	9546.29
866.027	9573.63
866.348	9567.08
866.668	9505.39
866.989	9490.92
867.309	9351.27
867.63	9488.89
867.95	9471.71
868.27	9428.33
868.59	9389.23
868.91	9320.31
869.23	9328.67
869.55	9294.77
869.87	9354.43
870.19	9355.56
870.51	9346.07
870.83	9299.06
871.15	9252.06
871.469	9271.04
871.789	9261.78
872.109	9299.29
872.428	9161.44
872.748	9260.87
873.067	9216.13
873.386	9210.7
873.706	9205.96
874.025	9117.15
874.344	9153.98
874.663	9124.6
874.982	9097.49
875.301	9078.96
875.62	9106.07
875.939	9015.46
876.258	9030.6
876.577	8997.83
876.896	9072.18
877.214	8997.15
877.533	8978.17
877.852	8963.7
878.17	8890.26
878.489	8965.29
878.807	8959.64
879.125	8858.4
879.444	8883.26
879.762	8897.49
880.08	8775.91
880.398	8782.69
880.716	8843.03
881.034	8759.64
881.352	8751.28
881.67	8757.83
881.988	8652.75
882.306	8746.08
882.624	8686.42
882.941	8609.36
883.259	8709.47
883.577	8712.41
883.894	8644.62
884.212	8594.68
884.529	8564.17
884.846	8563.94
885.164	8532.53
885.481	8555.13
885.798	8582.47
886.115	8500.89
886.432	8476.03
886.75	8432.65
887.067	8461.12
887.383	8401.01
887.7	8432.19
888.017	8339.77
888.334	8419.99
888.651	8348.13
888.967	8297.96
889.284	8224.74
889.6	8307.68
889.917	8205.98
890.233	8226.32
890.55	8217.51
890.866	8214.57
891.182	8162.14
891.498	8177.06
891.815	8102.26
892.131	8078.3
892.447	8104.29
892.763	8086.67
893.079	7965.54
893.395	7964.64
893.71	7962.15
894.026	7923.51
894.342	7865.65
894.657	7843.06
894.973	7860.46
895.289	7795.15
895.604	7870.63
895.92	7756.96
896.235	7687.58
896.55	7699.11
896.865	7680.12
897.181	7681.93
897.496	7707.69
897.811	7642.38
898.126	7594.02
898.441	7550.86
898.756	7546.79
899.071	7476.74
899.386	7532.1
899.7	7454.14
900.015	7430.64
900.33	7350.87
900.644	7368.27
900.959	7402.84
901.273	7375.27
901.588	7304.54
901.902	7299.57
902.216	7236.07
902.531	7228.84
902.845	7194.03
903.159	7194.49
903.473	7176.18
903.787	7095.96
904.101	7102.06
904.415	7111.78
904.729	7109.74
905.042	7038.33
905.356	7052.57
905.67	6989.97
905.984	6979.58
906.297	6942.52
906.611	6848.28
906.924	6882.63
907.237	6813.93
907.551	6808.96
907.864	6797.89
908.177	6799.02
908.491	6748.4
908.804	6742.75
909.117	6733.93
909.43	6676.31
909.743	6598.57
910.056	6583.88
910.368	6605.35
910.681	6556.31
910.994	6585.01
911.307	6573.26
911.619	6466.6
911.932	6437.44
912.244	6418.01
912.557	6396.31
912.869	6350.67
913.181	6339.14
913.494	6402.42
913.806	6322.42
914.118	6303.89
914.43	6243.1
914.742	6217.56
915.054	6220.5
915.366	6174.85
915.678	6140.95
915.99	6125.14
916.302	6077.91
916.613	6081.29
916.925	6087.62
917.236	6038.36
917.548	6036.78
917.859	6057.57
918.171	5956.1
918.482	5927.4
918.794	5894.86
919.105	5958.59
919.416	5883.11
919.727	5865.26
920.038	5884.46
920.349	5814.41
920.66	5789.1
920.971	5766.73
921.282	5747.07
921.593	5695.32
921.903	5673.4
922.214	5680.4
922.525	5620.97
922.835	5589.1
923.146	5550.91
923.456	5552.04
923.767	5552.95
924.077	5516.56
924.387	5456.45
924.697	5418.94
925.008	5422.78
925.318	5445.83
925.628	5359.51
925.938	5376.91
926.248	5339.17
926.558	5362.9
926.867	5284.03
927.177	5248.32
927.487	5245.38
927.796	5170.36
928.106	5178.72
928.416	5196.57
928.725	5103.47
929.034	5136.46
929.344	5140.08
929.653	5137.36
929.962	5059.63
930.271	5041.1
930.581	5026.41
930.89	5019.63
931.199	4997.26
931.508	4974.66
931.817	4926.3
932.125	4937.6
932.434	4900.53
932.743	4877.94
933.051	4840.2
933.36	4811.05
933.669	4825.06
933.977	4821.22
934.286	4832.97
934.594	4797.49
934.902	4729.47
935.21	4708.22
935.519	4702.8
935.827	4698.96
936.135	4658.96
936.443	4613.31
936.751	4633.65
937.059	4628.23
937.367	4603.14
937.674	4595.01
937.982	4577.15
938.29	4510.04
938.597	4519.98
938.905	4501.68
939.213	4487.21
939.52	4434.33
939.827	4473.88
940.135	4454.67
940.442	4424.84
940.749	4405.41
941.056	4397.95
941.363	4339.42
941.67	4294.68
941.977	4302.36
942.284	4282.7
942.591	4289.03
942.898	4266.2
943.205	4229.14
943.511	4238.86
943.818	4235.02
944.125	4183.72
944.431	4191.4
944.738	4177.16
945.044	4134.68
945.35	4152.31
945.657	4120.67
945.963	4063.95
946.269	4086.09
946.575	4039.54
946.881	4009.48
947.187	4014
947.493	3968.58
947.799	4003.38
948.105	3953.44
948.41	3961.58
948.716	3955.48
949.022	3939.2
949.327	3866.89
949.633	3887.91
949.938	3847.91
950.244	3814.69
950.549	3850.85
950.854	3745.31
951.16	3815.14
951.465	3764.52
951.77	3745.31
952.075	3786.89
952.38	3717.06
952.685	3701.92
952.99	3673.45
953.294	3695.14
953.599	3667.57
953.904	3649.95
954.209	3620.34
954.513	3656.27
954.818	3615.37
955.122	3582.15
955.426	3577.41
955.731	3554.13
956.035	3524.3
956.339	3482.27
956.643	3530.4
956.948	3456.96
957.252	3438.2
957.556	3513.68
957.86	3452.66
958.163	3491.53
958.467	3456.73
958.771	3444.75
959.075	3431.87
959.378	3374.02
959.682	3402.95
959.985	3371.54
960.289	3341.93
960.592	3352.78
960.896	3321.37
961.199	3292.22
961.502	3292.89
961.805	3275.72
962.108	3272.56
962.411	3246.34
962.714	3217.19
963.017	3254.48
963.32	3267.13
963.623	3237.08
963.926	3166.8
964.228	3200.01
964.531	3201.6
964.833	3169.28
965.136	3099.23
965.438	3114.82
965.741	3134.48
966.043	3129.06
966.345	3075.5
966.648	3034.37
966.95	3064.88
967.252	3042.73
967.554	3020.58
967.856	3008.83
968.158	2972
968.46	3015.61
968.761	3010.87
969.063	2988.49
969.365	2987.82
969.666	2943.75
969.968	2892.23
970.269	2880.48
970.571	2878.22
970.872	2869.85
971.174	2904.66
971.475	2867.59
971.776	2826.69
972.077	2827.6
972.378	2829.85
972.679	2824.88
972.98	2811.32
973.281	2772.23
973.582	2814.04
973.883	2743.3
974.183	2746.47
974.484	2759.8
974.785	2729.29
975.085	2732.68
975.386	2718.45
975.686	2689.52
975.986	2690.42
976.287	2676.41
976.587	2628.73
976.887	2668.73
977.187	2635.96
977.487	2695.4
977.787	2621.27
978.087	2616.75
978.387	2600.03
978.687	2570.65
978.987	2576.98
979.286	2581.27
979.586	2577.21
979.885	2506.47
980.185	2541.95
980.484	2504.67
980.784	2478.68
981.083	2492.69
981.382	2477.32
981.682	2434.16
981.981	2466.7
982.28	2454.27
982.579	2449.98
982.878	2438
983.177	2398.91
983.475	2386.93
983.774	2395.29
984.073	2385.35
984.372	2368.4
984.67	2336.53
984.969	2352.58
985.267	2335.4
985.566	2303.77
985.864	2299.93
986.162	2284.11
986.461	2250.89
986.759	2297.89
987.057	2273.71
987.355	2230.32
987.653	2237.78
987.951	2271.9
988.249	2234.39
988.547	2231.68
988.844	2235.97
989.142	2212.92
989.44	2196.88
989.737	2193.71
990.035	2166.6
990.332	2200.49
990.63	2161.4
990.927	2159.14
991.224	2166.37
991.521	2126.37
991.819	2128.4
992.116	2073.49
992.413	2103.77
992.71	2078.01
993.006	2066.49
993.303	2118.24
993.6	2048.86
993.897	2045.47
994.193	2056.54
994.49	2062.87
994.787	2027.62
995.083	2022.42
995.379	2025.13
995.676	2001.63
995.972	1999.59
996.268	2002.98
996.565	1996.66
996.861	1977.45
997.157	1953.72
997.453	1954.17
997.749	1933.38
998.044	1954.17
998.34	1907.85
998.636	1907.62
998.932	1913.72
999.227	1897.68
999.523	1912.14
999.818	1881.63
1000.114	1870.56
1000.409	1882.76
1000.704	1875.98
1001	1847.73
1001.295	1832.14
1001.59	1807.28
1001.885	1806.38
1002.18	1814.51
1002.475	1827.62
1002.77	1778.13
1003.065	1773.61
1003.359	1767.74
1003.654	1745.59
1003.949	1763.22
1004.243	1753.5
1004.538	1723.44
1004.832	1718.25
1005.127	1715.31
1005.421	1681.18
1005.715	1710.11
1006.009	1685.03
1006.304	1644.8
1006.598	1663.78
1006.892	1645.71
1007.186	1659.94
1007.48	1622.88
1007.773	1649.32
1008.067	1605.48
1008.361	1596.67
1008.655	1601.41
1008.948	1590.11
1009.242	1578.59
1009.535	1581.3
1009.829	1565.03
1010.122	1568.87
1010.415	1552.6
1010.708	1537.01
1011.001	1524.13
1011.295	1540.62
1011.588	1481.87
1011.881	1531.13
1012.173	1507.4
1012.466	1499.27
1012.759	1507.18
1013.052	1468.31
1013.344	1471.7
1013.637	1463.79
1013.93	1437.58
1014.222	1442.77
1014.514	1453.39
1014.807	1418.82
1015.099	1416.11
1015.391	1442.77
1015.683	1422.43
1015.976	1400.06
1016.268	1394.19
1016.56	1367.97
1016.851	1380.18
1017.143	1356.45
1017.435	1345.6
1017.727	1348.99
1018.018	1348.31
1018.31	1347.63
1018.602	1290.69
1018.893	1328.65
1019.185	1287.3
1019.476	1304.7
1019.767	1284.58
1020.058	1304.47
1020.35	1285.49
1020.641	1272.38
1020.932	1253.85
1021.223	1237.81
1021.514	1227.19
1021.804	1212.04
1022.095	1241.2
1022.386	1226.51
1022.677	1218.82
1022.967	1149.67
1023.258	1198.71
1023.548	1206.17
1023.839	1173.18
1024.129	1194.19
1024.419	1172.5
1024.709	1151.48
1025	1177.92
1025.29	1160.07
1025.58	1143.35
1025.87	1130.46
1026.16	1121.2
1026.449	1109.22
1026.739	1114.87
1027.029	1096.57
1027.319	1106.96
1027.608	1086.85
1027.898	1086.17
1028.187	1099.05
1028.477	1071.94
1028.766	1085.49
1029.055	1084.36
1029.344	1050.24
1029.634	1037.13
1029.923	1045.04
1030.212	1027.42
1030.501	1036
1030.79	1020.86
1031.078	1023.8
1031.367	1017.02
1031.656	975.21
1031.945	981.32
1032.233	975.44
1032.522	972.28
1032.81	958.94
1033.099	997.36
1033.387	949.9
1033.675	958.27
1033.963	949.23
1034.251	940.19
1034.54	926.85
1034.828	940.19
1035.116	927.76
1035.403	926.4
1035.691	930.24
1035.979	904.93
1036.267	887.76
1036.554	911.49
1036.842	900.19
1037.129	859.96
1037.417	894.09
1037.704	878.72
1037.992	878.27
1038.279	850.25
1038.566	861.55
1038.853	861.55
1039.14	861.55
