Data from foam_black_FLMS001491_00038.txt Node
Date: Wed Feb 08 10:43:49 GMT 2017
User: dcchb
Spectrometer: FLMS00149
Trigger mode: 0
Integration Time (sec): 2.000000E-2
Scans to average: 10
Electric dark correction enabled: true
Nonlinearity correction enabled: false
Boxcar width: 0
XAxis mode: Wavelengths
Number of Pixels in Spectrum: 2048
>>>>>Begin Spectral Data<<<<<
341.393	-8.88
341.776	-8.88
342.16	-8.88
342.543	-44.82
342.927	-66.74
343.31	-72.61
343.693	-56.57
344.077	-68.32
344.46	-58.83
344.843	-40.07
345.226	-58.15
345.61	-42.56
345.993	-4.36
346.376	8.06
346.759	17.78
347.142	31.57
347.525	35.41
347.908	40.15
348.291	69.98
348.674	92.36
349.057	106.14
349.44	132.81
349.823	149.08
350.206	153.37
350.588	182.07
350.971	187.27
351.354	205.8
351.737	205.35
352.119	225.01
352.502	248.74
352.884	251
353.267	267.27
353.65	283.54
354.032	258.91
354.414	294.16
354.797	279.47
355.179	299.81
355.562	317.89
355.944	326.02
356.326	335.06
356.709	331.67
357.091	341.62
357.473	334.84
357.855	340.71
358.238	326.47
358.62	310.66
359.002	323.54
359.384	320.15
359.766	328.96
360.148	324.21
360.53	319.69
360.912	307.72
361.294	305.46
361.676	304.33
362.057	306.81
362.439	294.38
362.821	314.72
363.203	302.75
363.584	288.96
363.966	325.12
364.348	320.82
364.729	294.61
365.111	315.18
365.493	312.46
365.874	302.07
366.256	295.51
366.637	301.62
367.019	289.87
367.4	284.67
367.781	302.75
368.163	293.48
368.544	280.37
368.925	281.05
369.306	307.72
369.688	284.89
370.069	278.79
370.45	295.06
370.831	301.62
371.212	277.44
371.593	286.48
371.974	300.03
372.355	292.35
372.736	304.1
373.117	301.16
373.498	289.19
373.879	304.78
374.26	288.06
374.641	299.36
375.021	296.42
375.402	293.26
375.783	294.16
376.163	300.71
376.544	310.88
376.925	300.26
377.305	296.87
377.686	290.77
378.066	296.87
378.447	320.37
378.827	318.57
379.208	320.82
379.588	301.84
379.968	312.69
380.349	306.14
380.729	328.96
381.109	302.75
381.489	326.93
381.87	297.77
382.25	312.92
382.63	314.95
383.01	313.82
383.39	321.05
383.77	316.53
384.15	339.58
384.53	319.24
384.91	342.97
385.29	328.28
385.67	321.95
386.049	342.29
386.429	336.87
386.809	344.33
387.189	341.39
387.568	337.55
387.948	328.51
388.328	324.44
388.707	335.97
389.087	331.22
389.466	329.86
389.846	326.7
390.225	339.36
390.605	344.55
390.984	344.55
391.363	347.26
391.743	341.62
392.122	336.87
392.501	352.01
392.881	332.58
393.26	352.24
393.639	347.94
394.018	342.07
394.397	340.94
394.776	349.3
395.155	357.66
395.534	345.68
395.913	340.94
396.292	367.83
396.671	348.62
397.05	339.58
397.429	370.09
397.808	357.89
398.186	338.23
398.565	375.06
398.944	354.95
399.323	363.54
399.701	351.78
400.08	360.37
400.458	361.95
400.837	370.77
401.215	343.42
401.594	385
401.972	393.14
402.351	368.28
402.729	380.03
403.107	392.69
403.486	395.63
403.864	368.51
404.242	388.85
404.62	385.68
404.999	382.97
405.377	397.21
405.755	380.03
406.133	368.96
406.511	396.3
406.889	393.59
407.267	369.86
407.645	398.11
408.023	397.89
408.401	385
408.779	403.31
409.156	408.51
409.534	405.12
409.912	403.53
410.29	391.56
410.667	400.82
411.045	390.88
411.422	405.34
411.8	413.25
412.178	397.43
412.555	423.65
412.933	425.23
413.31	446.02
413.687	428.17
414.065	425.45
414.442	440.6
414.819	446.47
415.197	427.94
415.574	456.41
415.951	445.12
416.328	424.55
416.705	412.35
417.082	431.78
417.46	451.22
417.837	425.91
418.214	426.81
418.591	448.51
418.967	454.83
419.344	450.99
419.721	476.53
420.098	466.58
420.475	443.53
420.852	452.57
421.228	474.72
421.605	456.64
421.982	467.26
422.358	472.01
422.735	477.66
423.111	472.91
423.488	495.51
423.864	480.82
424.241	480.37
424.617	497.77
424.994	483.76
425.37	494.15
425.746	471.78
426.123	482.63
426.499	503.42
426.875	496.64
427.251	503.87
427.627	511.78
428.003	510.65
428.379	518.79
428.756	495.51
429.132	508.39
429.507	501.16
429.883	510.2
430.259	535.73
430.635	528.28
431.011	535.73
431.387	529.86
431.763	534.15
432.138	548.62
432.514	544.77
432.89	543.64
433.265	551.1
433.641	561.5
434.016	565.11
434.392	533.47
434.767	566.47
435.143	572.57
435.518	564.43
435.894	573.7
436.269	580.25
436.644	583.42
437.02	587.94
437.395	592
437.77	577.99
438.145	584.09
438.52	617.99
438.895	574.38
439.271	615.28
439.646	606.02
440.021	604.66
440.395	611.66
440.77	614.6
441.145	599.24
441.52	613.47
441.895	625
442.27	634.26
442.645	626.35
443.019	620.03
443.394	630.65
443.769	634.71
444.143	627.71
444.518	638.1
444.892	655.73
445.267	655.05
445.641	649.4
446.016	615.05
446.39	627.94
446.764	649.63
447.139	643.08
447.513	673.36
447.887	684.43
448.262	647.14
448.636	673.36
449.01	681.49
449.384	685.11
449.758	666.58
450.132	676.97
450.506	685.34
450.88	683.98
451.254	694.6
451.628	697.31
452.002	695.73
452.376	724.43
452.75	697.09
453.123	699.8
453.497	722.85
453.871	704.09
454.244	737.09
454.618	720.81
454.992	730.53
455.365	736.63
455.739	738.67
456.112	744.32
456.486	749.29
456.859	747.48
457.232	749.97
457.606	792.22
457.979	775.5
458.352	772.34
458.725	773.47
459.099	802.39
459.472	810.76
459.845	800.13
460.218	829.74
460.591	832
460.964	823.64
461.337	841.04
461.71	813.69
462.083	847.59
462.456	819.57
462.829	850.3
463.201	854.37
463.574	889.4
463.947	878.78
464.32	868.83
464.692	871.77
465.065	870.64
465.438	904.54
465.81	904.31
466.183	937.31
466.555	942.5
466.928	922.17
467.3	925.78
467.672	944.09
468.045	953.58
468.417	974.59
468.789	978.89
469.161	977.08
469.534	992.45
469.906	1006.23
470.278	1006.91
470.65	1022.5
471.022	1022.73
471.394	1032.22
471.766	1027.92
472.138	1061.14
472.51	1085.1
472.882	1084.19
473.253	1086.91
473.625	1102.73
473.997	1114.02
474.369	1126.45
474.74	1133.91
475.112	1169.84
475.484	1178.43
475.855	1186.11
476.227	1209.62
476.598	1215.26
476.97	1211.2
477.341	1233.34
477.713	1266.56
478.084	1270.18
478.455	1288.03
478.827	1314.02
479.198	1315.83
479.569	1321.48
479.94	1356.73
480.311	1381.59
480.682	1387.01
481.053	1393.11
481.424	1419.55
481.795	1449.38
482.166	1413.68
482.537	1449.61
482.908	1482.83
483.279	1517.86
483.65	1519.44
484.021	1533.22
484.391	1532.54
484.762	1567.12
485.133	1587.01
485.503	1577.97
485.874	1603.28
486.244	1659.77
486.615	1665.42
486.985	1669.04
487.356	1666.33
487.726	1713.78
488.097	1748.81
488.467	1726.21
488.837	1763.5
489.207	1803.95
489.578	1825.87
489.948	1786.55
490.318	1842.82
490.688	1844.17
491.058	1833.55
491.428	1872.65
491.798	1940.44
492.168	1928.69
492.538	1937.73
492.908	1960.33
493.278	1963.27
493.648	2009.14
494.017	2021.57
494.387	2031.51
494.757	2046.2
495.126	2038.07
495.496	2081.91
495.866	2079.87
496.235	2101.34
496.605	2149.7
496.974	2104.73
497.344	2142.7
497.713	2153.77
498.082	2154
498.452	2178.4
498.821	2180.44
499.19	2189.7
499.559	2186.09
499.928	2251.62
500.298	2238.74
500.667	2229.48
501.036	2238.06
501.405	2283.49
501.774	2281.9
502.143	2324.16
502.512	2294.56
502.88	2306.76
503.249	2347.66
503.618	2344.05
503.987	2358.96
504.356	2396.7
504.724	2361.9
505.093	2385.4
505.462	2394.67
505.83	2403.93
506.199	2413.43
506.567	2467.66
506.936	2462.24
507.304	2506.08
507.672	2491.62
508.041	2542.91
508.409	2543.82
508.777	2531.39
509.145	2535.91
509.514	2564.38
509.882	2584.27
510.25	2592.18
510.618	2624.72
510.986	2640.31
511.354	2640.76
511.722	2632.85
512.09	2671.27
512.458	2651.84
512.826	2680.76
513.193	2720.08
513.561	2709.69
513.929	2726.19
514.297	2796.24
514.664	2780.2
515.032	2779.97
515.4	2743.36
515.767	2783.13
516.135	2819.06
516.502	2812.74
516.869	2873.53
517.237	2871.04
517.604	2849.8
517.972	2934.54
518.339	2950.59
518.706	2932.06
519.073	2959.4
519.44	2985.39
519.808	3007.31
520.175	3008.89
520.542	3070.36
520.909	3094.09
521.276	3092.73
521.643	3061.54
522.009	3126.4
522.376	3172.95
522.743	3178.15
523.11	3187.64
523.477	3235.55
523.843	3227.19
524.21	3273.29
524.577	3316.23
524.943	3301.99
525.31	3339.05
525.676	3328.66
526.043	3353.97
526.409	3397.81
526.776	3425.38
527.142	3440.74
527.508	3452.04
527.874	3450.46
528.241	3447.3
528.607	3470.12
528.973	3541.08
529.339	3519.61
529.705	3567.07
530.071	3554.41
530.437	3605.03
530.803	3624.69
531.169	3633.51
531.535	3660.17
531.901	3673.28
532.267	3643
532.632	3658.82
532.998	3678.7
533.364	3703.56
533.73	3734.29
534.095	3776.55
534.461	3773.39
534.826	3826.27
535.192	3791.47
535.557	3829.89
535.923	3800.73
536.288	3858.58
536.653	3862.88
537.019	3875.76
537.384	3887.74
537.749	3928.64
538.114	3918.7
538.479	3957.79
538.845	3983.78
539.21	3952.37
539.575	3986.72
539.94	4008.19
540.305	4002.54
540.67	4045.02
541.034	4054.51
541.399	4083.44
541.764	4071.69
542.129	4061.52
542.494	4091.8
542.858	4096.77
543.223	4100.16
543.587	4128.18
543.952	4131.57
544.316	4175.41
544.681	4136.32
545.045	4173.38
545.41	4231
545.774	4235.52
546.138	4245.24
546.503	4250.67
546.867	4239.82
547.231	4313.71
547.595	4305.8
547.959	4313.49
548.324	4353.71
548.688	4344.67
549.052	4345.35
549.416	4330.21
549.779	4364.11
550.143	4334.96
550.507	4409.98
550.871	4424.9
551.235	4461.06
551.599	4439.81
551.962	4493.37
552.326	4472.81
552.689	4513.71
553.053	4506.7
553.417	4500.15
553.78	4553.26
554.143	4528.17
554.507	4593.48
554.87	4591.22
555.234	4635.51
555.597	4595.51
555.96	4652.46
556.323	4718.68
556.686	4709.86
557.05	4708.28
557.413	4706.7
557.776	4741.05
558.139	4801.61
558.502	4780.59
558.865	4758
559.228	4840.93
559.59	4916.86
559.953	4841.61
560.316	4930.42
560.679	4947.82
561.041	4959.57
561.404	4966.8
561.767	4992.57
562.129	4998.44
562.492	5090.64
562.854	5019.91
563.217	5029.18
563.579	5104.2
563.941	5108.27
564.304	5113.47
564.666	5157.76
565.028	5181.04
565.39	5193.69
565.753	5213.8
566.115	5266.46
566.477	5291.77
566.839	5299.45
567.201	5312.78
567.563	5344.2
567.925	5348.04
568.287	5394.14
568.648	5374.93
569.01	5368.38
569.372	5393.01
569.734	5410.41
570.095	5514.36
570.457	5525.66
570.819	5515.94
571.18	5538.77
571.542	5535.15
571.903	5570.63
572.265	5540.35
572.626	5604.53
572.987	5613.34
573.349	5569.73
573.71	5600.23
574.071	5648.14
574.432	5651.76
574.794	5731.98
575.155	5707.58
575.516	5682.49
575.877	5720.68
576.238	5761.13
576.599	5776.95
576.96	5720
577.32	5745.54
577.681	5842.26
578.042	5796.39
578.403	5816.5
578.763	5810.17
579.124	5853.79
579.485	5835.26
579.845	5856.05
580.206	5807.01
580.566	5854.92
580.927	5869.83
581.287	5918.42
581.648	5894.24
582.008	5887.68
582.368	5900.11
582.728	5913.22
583.089	5878.42
583.449	5964.97
583.809	5916.61
584.169	5981.92
584.529	5917.97
584.889	5935.82
585.249	5952.09
585.609	5951.19
585.969	5921.58
586.329	5905.31
586.688	5974.46
587.048	5969.49
587.408	5966.55
587.768	5956.61
588.127	5943.05
588.487	5972.88
588.846	5985.99
589.206	5952.99
589.565	5966.78
589.925	5989.6
590.284	5967
590.643	5947.34
591.003	5969.26
591.362	5973.33
591.721	5989.6
592.08	5959.09
592.44	5961.81
592.799	5968.36
593.158	5945.08
593.517	5974.24
593.876	5949.38
594.235	5897.4
594.593	5946.21
594.952	5936.95
595.311	5951.19
595.67	5949.38
596.029	5916.84
596.387	5960.45
596.746	6022.37
597.104	5951.41
597.463	6011.3
597.822	6021.92
598.18	5986.21
598.538	6025.53
598.897	6050.39
599.255	5959.09
599.613	6047.45
599.972	6046.1
600.33	6069.6
600.688	6061.69
601.046	6064.85
601.404	6085.42
601.762	6074.8
602.12	6116.15
602.478	6078.87
602.836	6126.1
603.194	6112.31
603.552	6094.68
603.91	6068.24
604.268	6101.69
604.625	6054.69
604.983	6097.17
605.341	6086.77
605.698	6069.83
606.056	6121.35
606.413	6115.25
606.771	6172.87
607.128	6103.72
607.485	5978.76
607.843	6111.63
608.2	6169.94
608.557	6222.82
608.914	6136.94
609.272	6167.45
609.629	6162.93
609.986	6176.26
610.343	6154.57
610.7	6164.51
611.057	6191.63
611.414	6173.33
611.771	6203.16
612.127	6211.52
612.484	6202.03
612.841	6267.79
613.198	6278.63
613.554	6268.92
613.911	6279.31
614.267	6276.37
614.624	6265.08
614.98	6332.42
615.337	6381.68
615.693	6352.53
616.05	6338.52
616.406	6424.17
616.762	6426.88
617.118	6428.91
617.475	6391.4
617.831	6454
618.187	6388.69
618.543	6404.05
618.899	6449.48
619.255	6412.19
619.611	6458.74
619.967	6486.09
620.323	6481.34
620.678	6402.47
621.034	6456.48
621.39	6383.04
621.746	6410.83
622.101	6446.77
622.457	6422.13
622.812	6376.48
623.168	6385.75
623.523	6369.25
623.879	6344.4
624.234	6340.55
624.589	6352.53
624.945	6335.13
625.3	6360.67
625.655	6336.03
626.01	6256.04
626.365	6321.57
626.72	6299.88
627.075	6223.49
627.43	6261.46
627.785	6287.22
628.14	6256.49
628.495	6266.66
628.85	6261.69
629.205	6237.28
629.559	6279.76
629.914	6267.11
630.269	6281.57
630.623	6220.33
630.978	6241.57
631.332	6285.87
631.687	6302.14
632.041	6253.78
632.396	6346.43
632.75	6282.02
633.104	6245.41
633.459	6250.84
633.813	6288.13
634.167	6304.17
634.521	6345.07
634.875	6304.4
635.229	6371.29
635.583	6330.16
635.937	6313.44
636.291	6357.5
636.645	6366.09
636.999	6300.55
637.352	6355.92
637.706	6307.56
638.06	6321.12
638.413	6267.56
638.767	6285.64
639.121	6318.18
639.474	6230.27
639.828	6250.61
640.181	6306.2
640.534	6301.46
640.888	6288.8
641.241	6166.32
641.594	6175.81
641.947	6299.42
642.301	6159.99
642.654	6237.05
643.007	6179.88
643.36	6123.61
643.713	6167
644.066	6192.99
644.419	6099.88
644.771	6049.71
645.124	5932.65
645.477	5921.36
645.83	5869.38
646.182	5952.99
646.535	5924.97
646.888	5953.45
647.24	5962.48
647.593	5883.84
647.945	5893.33
648.298	5934.01
648.65	5868.02
649.002	5837.29
649.355	5856.95
649.707	5858.08
650.059	5868.25
650.411	5939.89
650.763	5883.39
651.115	6047
651.467	5988.47
651.819	6004.29
652.171	6005.42
652.523	5938.53
652.875	5956.83
653.227	5919.77
653.578	6004.29
653.93	6007.46
654.282	5950.51
654.633	5919.77
654.985	5964.97
655.337	5948.7
655.688	5997.96
656.039	6044.97
656.391	5935.59
656.742	5951.86
657.094	5963.39
657.445	5998.87
657.796	5959.32
658.147	5933.56
658.498	5960
658.849	5971.98
659.2	5934.46
659.551	5895.59
659.902	5900.34
660.253	5886.1
660.604	5885.88
660.955	5850.85
661.306	5842.26
661.656	5879.55
662.007	5860.11
662.358	5853.33
662.708	5812.21
663.059	5870.51
663.409	5806.33
663.76	5828.02
664.11	5832.54
664.461	5837.97
664.811	5829.61
665.161	5743.51
665.511	5769.04
665.862	5829.83
666.212	5828.02
666.562	5814.92
666.912	5830.74
667.262	5785.77
667.612	5775.37
667.962	5818.08
668.312	5806.56
668.662	5785.31
669.011	5779.66
669.361	5804.52
669.711	5819.66
670.06	5798.42
670.41	5810.4
670.76	5776.5
671.109	5781.47
671.459	5849.27
671.808	5788.25
672.157	5860.57
672.507	5792.09
672.856	5778.31
673.205	5899.21
673.554	5845.43
673.904	5820.34
674.253	5903.28
674.602	5863.73
674.951	5791.64
675.3	5779.44
675.649	5851.53
675.998	5856.5
676.346	5891.3
676.695	5835.26
677.044	5800.68
677.393	5850.62
677.741	5845.88
678.09	5793.22
678.438	5794.81
678.787	5832.77
679.135	5853.33
679.484	5800.91
679.832	5807.23
680.181	5750.06
680.529	5781.92
680.877	5715.71
681.225	5659.44
681.573	5718.65
681.922	5668.03
682.27	5634.81
682.618	5635.26
682.966	5642.27
683.314	5631.42
683.661	5602.27
684.009	5547.58
684.357	5527.92
684.705	5536.73
685.053	5541.03
685.4	5564.3
685.748	5481.59
686.095	5452.22
686.443	5486.34
686.79	5433.01
687.138	5415.61
687.485	5455.38
687.832	5492.44
688.18	5447.47
688.527	5429.17
688.874	5402.05
689.221	5380.13
689.568	5397.08
689.915	5372.67
690.262	5341.48
690.609	5359.34
690.956	5378.09
691.303	5340.81
691.65	5287.25
691.997	5306.46
692.344	5306.46
692.69	5304.87
693.037	5293.58
693.383	5294.25
693.73	5322.05
694.077	5249.73
694.423	5263.75
694.769	5236.85
695.116	5276.85
695.462	5269.17
695.808	5248.38
696.155	5258.1
696.501	5235.5
696.847	5244.54
697.193	5233.69
697.539	5197.98
697.885	5205.44
698.231	5176.52
698.577	5188.49
698.923	5181.49
699.269	5159.79
699.614	5103.3
699.96	5155.5
700.306	5133.35
700.651	5114.6
700.997	5115.73
701.342	5104.43
701.688	5089.06
702.033	5039.12
702.379	5061.72
702.724	5029.4
703.069	5054.71
703.415	4966.35
703.76	4992.11
704.105	5004.77
704.45	4922.51
704.795	4922.29
705.14	4941.72
705.485	4917.09
705.83	4879.58
706.175	4884.77
706.52	4883.42
706.865	4860.37
707.209	4853.36
707.554	4800.48
707.899	4832.12
708.243	4793.02
708.588	4787.6
708.932	4771.78
709.277	4795.96
709.621	4732.69
709.966	4705.12
710.31	4703.08
710.654	4697.88
710.998	4711.67
711.342	4708.73
711.687	4729.52
712.031	4676.42
712.375	4609.75
712.719	4627.83
713.063	4638.9
713.407	4645.46
713.75	4652.01
714.094	4663.08
714.438	4631.45
714.782	4650.88
715.125	4614.27
715.469	4642.29
715.812	4615.18
716.156	4602.07
716.499	4607.94
716.843	4613.37
717.186	4554.61
717.53	4582.18
717.873	4622.86
718.216	4583.76
718.559	4580.83
718.902	4547.83
719.246	4574.27
719.589	4526.82
719.932	4548.06
720.275	4537.21
720.617	4546.7
720.96	4524.1
721.303	4526.14
721.646	4522.07
721.989	4481.17
722.331	4514.84
722.674	4498.34
723.016	4480.72
723.359	4462.64
723.701	4480.26
724.044	4449.98
724.386	4421.51
724.729	4395.29
725.071	4424.67
725.413	4441.85
725.755	4390.55
726.097	4414.73
726.439	4364.11
726.782	4377.22
727.124	4395.07
727.465	4391
727.807	4348.74
728.149	4351.91
728.491	4340.61
728.833	4370.21
729.175	4284.79
729.516	4323.88
729.858	4349.65
730.199	4278.46
730.541	4261.96
730.882	4314.17
731.224	4276.43
731.565	4243.43
731.906	4226.71
732.248	4284.11
732.589	4267.84
732.93	4257.44
733.271	4204.79
733.612	4255.64
733.953	4216.77
734.294	4189.88
734.635	4207.5
734.976	4243.66
735.317	4162.08
735.658	4212.47
735.999	4190.78
736.339	4207.5
736.68	4131.57
737.021	4184.23
737.361	4153.72
737.702	4224.9
738.042	4149.88
738.383	4136.09
738.723	4170.89
739.063	4132.7
739.404	4122.98
739.744	4111.91
740.084	4073.04
740.424	4085.25
740.764	4085.92
741.104	4049.09
741.444	4117.79
741.784	4140.39
742.124	4029.43
742.464	4075.53
742.804	4055.19
743.143	4069.43
743.483	4105.58
743.823	4057.45
744.162	4047.73
744.502	4057.9
744.841	4097.9
745.181	4086.83
745.52	4066.72
745.86	4064.46
746.199	4068.3
746.538	4085.7
746.877	4064
747.216	4019.03
747.556	4066.72
747.895	3995.53
748.234	4019.48
748.573	4004.34
748.911	4024.68
749.25	4008.64
749.589	4008.64
749.928	4022.2
750.267	3989.65
750.605	3983.78
750.944	3967.96
751.283	3998.92
751.621	4022.87
751.96	3944.46
752.298	3980.16
752.636	3978.81
752.975	3948.07
753.313	3874.18
753.651	3969.99
753.989	3903.1
754.327	3918.02
754.666	3887.74
755.004	3890.45
755.342	3895.19
755.679	3851.13
756.017	3861.52
756.355	3898.36
756.693	3848.87
757.031	3840.96
757.368	3815.65
757.706	3833.95
758.044	3813.61
758.381	3819.49
758.719	3790.79
759.056	3788.98
759.394	3813.16
759.731	3736.55
760.068	3750.11
760.405	3754.41
760.743	3750.11
761.08	3735.2
761.417	3715.76
761.754	3730
762.091	3712.83
762.428	3701.98
762.765	3650.68
763.102	3690.68
763.438	3672.15
763.775	3661.75
764.112	3635.09
764.449	3643.45
764.785	3609.78
765.122	3596.22
765.458	3621.3
765.795	3605.03
766.131	3561.64
766.467	3590.57
766.804	3514.87
767.14	3535.2
767.476	3521.19
767.812	3543.79
768.148	3494.53
768.485	3506.73
768.821	3436.45
769.157	3517.35
769.492	3445.94
769.828	3452.27
770.164	3406.62
770.5	3407.75
770.836	3417.69
771.171	3393.51
771.507	3382.44
771.842	3374.98
772.178	3397.81
772.513	3329.11
772.849	3339.05
773.184	3342.44
773.519	3324.81
773.855	3322.78
774.19	3293.18
774.525	3269.22
774.86	3305.38
775.195	3303.35
775.53	3256.79
775.865	3283.46
776.2	3238.94
776.535	3220.86
776.87	3243.91
777.205	3232.84
777.539	3156.46
777.874	3215.89
778.209	3195.55
778.543	3189
778.878	3165.95
779.212	3180.18
779.547	3122.79
779.881	3159.17
780.215	3153.97
780.55	3133.18
780.884	3133.63
781.218	3111.26
781.552	3123.46
781.886	3126.17
782.22	3051.37
782.554	3076.68
782.888	3081.66
783.222	3091.15
783.556	3033.3
783.889	3050.92
784.223	3038.72
784.557	3030.58
784.89	3027.87
785.224	2991.94
785.557	2986.74
785.891	2978.83
786.224	2968.66
786.558	3003.24
786.891	2970.47
787.224	2969.34
787.557	2955.78
787.891	2931.38
788.224	2916.24
788.557	2912.17
788.89	2893.64
789.223	2930.25
789.556	2915.33
789.888	2869.68
790.221	2886.86
790.554	2876.69
790.887	2867.2
791.219	2862.68
791.552	2857.71
791.884	2845.96
792.217	2850.48
792.549	2807.31
792.882	2808.44
793.214	2794.66
793.546	2806.41
793.879	2797.82
794.211	2763.92
794.543	2770.25
794.875	2787.2
795.207	2784.71
795.539	2780.2
795.871	2744.94
796.203	2701.55
796.535	2745.62
796.867	2727.54
797.198	2722.12
797.53	2708.11
797.862	2698.39
798.193	2661.33
798.525	2640.99
798.856	2690.03
799.188	2658.39
799.519	2656.13
799.85	2633.76
800.182	2626.3
800.513	2643.7
800.844	2601.44
801.175	2617.49
801.506	2616.36
801.837	2610.48
802.168	2576.36
802.499	2601.44
802.83	2533.2
803.161	2583.59
803.491	2529.58
803.822	2580.43
804.153	2551.5
804.483	2498.17
804.814	2503.37
805.145	2483.71
805.475	2523.48
805.805	2511.73
806.136	2546.08
806.466	2516.25
806.796	2492.29
807.126	2445.29
807.457	2474.44
807.787	2461.56
808.117	2423.14
808.447	2462.01
808.777	2442.58
809.107	2478.06
809.436	2450.49
809.766	2459.98
810.096	2437.38
810.426	2438.74
810.755	2453.65
811.085	2412.75
811.414	2411.17
811.744	2435.8
812.073	2465.18
812.403	2459.98
812.732	2411.62
813.061	2392.41
813.39	2383.6
813.719	2403.48
814.049	2395.8
814.378	2422.46
814.707	2380.66
815.036	2371.84
815.365	2383.6
815.693	2375.23
816.022	2342.92
816.351	2376.14
816.68	2364.39
817.008	2356.7
817.337	2318.96
817.665	2318.06
817.994	2346.08
818.322	2356.25
818.651	2314.44
818.979	2306.99
819.307	2329.36
819.636	2312.64
819.964	2293.43
820.292	2310.83
820.62	2304.05
820.948	2299.98
821.276	2299.3
821.604	2313.99
821.932	2271.73
822.259	2288.68
822.587	2276.48
822.915	2315.35
823.243	2282.36
823.57	2256.82
823.898	2295.91
824.225	2273.54
824.553	2282.13
824.88	2278.06
825.207	2293.43
825.535	2261.79
825.862	2266.99
826.189	2268.12
826.516	2278.97
826.843	2237.16
827.17	2293.65
827.497	2237.16
827.824	2244.84
828.151	2263.6
828.478	2259.08
828.805	2273.77
829.131	2237.38
829.458	2276.71
829.785	2266.99
830.111	2236.48
830.438	2258.85
830.764	2245.07
831.09	2258.4
831.417	2228.8
831.743	2241.68
832.069	2217.5
832.395	2199.19
832.722	2237.16
833.048	2179.08
833.374	2227.22
833.7	2217.72
834.026	2224.96
834.351	2197.61
834.677	2206.2
835.003	2224.05
835.329	2221.11
835.654	2225.63
835.98	2222.24
836.306	2193.77
836.631	2197.39
836.956	2212.75
837.282	2191.51
837.607	2194.9
837.932	2212.07
838.258	2171.4
838.583	2172.3
838.908	2184.96
839.233	2194
839.558	2217.05
839.883	2208.23
840.208	2190.15
840.533	2191.06
840.858	2167.1
841.182	2186.76
841.507	2183.6
841.832	2176.82
842.156	2195.58
842.481	2199.65
842.805	2169.82
843.13	2174.34
843.454	2180.89
843.778	2159.19
844.103	2189.7
844.427	2162.58
844.751	2172.3
845.075	2165.97
845.399	2133.43
845.723	2142.7
846.047	2135.47
846.371	2117.39
846.695	2177.5
847.019	2137.5
847.343	2122.13
847.666	2129.36
847.99	2117.39
848.313	2102.7
848.637	2105.41
848.96	2092.76
849.284	2118.52
849.607	2071.97
849.931	2086.43
850.254	2075.36
850.577	2063.83
850.9	2067.9
851.223	2066.32
851.546	2062.02
851.869	2046.43
852.192	2047.56
852.515	2002.36
852.838	2029.48
853.161	2025.41
853.483	1976.15
853.806	1988.13
854.129	2006.43
854.451	2003.27
854.774	1996.94
855.096	2013.21
855.419	1961.46
855.741	1975.02
856.063	1968.47
856.385	1973.66
856.708	1965.08
857.03	1945.19
857.352	1939.09
857.674	1914
857.996	1934.79
858.318	1911.74
858.64	1915.36
858.961	1896.6
859.283	1915.13
859.605	1894.12
859.926	1895.25
860.248	1898.64
860.57	1858.86
860.891	1873.55
861.212	1878.3
861.534	1878.75
861.855	1859.54
862.176	1827.68
862.498	1824.74
862.819	1836.49
863.14	1817.73
863.461	1834.01
863.782	1790.62
864.103	1835.14
864.424	1808.02
864.745	1816.83
865.065	1781.13
865.386	1785.87
865.707	1772.09
866.027	1794.01
866.348	1765.53
866.668	1785.65
866.989	1777.06
867.309	1727.12
867.63	1765.76
867.95	1753.1
868.27	1759.88
868.59	1732.31
868.91	1749.49
869.23	1762.14
869.55	1714.46
869.87	1755.36
870.19	1702.94
870.51	1747.91
870.83	1758.75
871.15	1715.82
871.469	1716.72
871.789	1734.12
872.109	1721.69
872.428	1727.34
872.748	1759.43
873.067	1749.71
873.386	1738.64
873.706	1725.53
874.025	1729.38
874.344	1707.46
874.663	1686.66
874.982	1706.1
875.301	1738.41
875.62	1722.37
875.939	1730.05
876.258	1707.46
876.577	1709.94
876.896	1730.05
877.214	1735.03
877.533	1707.91
877.852	1699.55
878.17	1699.09
878.489	1717.85
878.807	1711.75
879.125	1733.22
879.444	1723.95
879.762	1727.34
880.08	1697.96
880.398	1697.51
880.716	1707
881.034	1707.46
881.352	1725.53
881.67	1729.15
881.988	1708.13
882.306	1704.97
882.624	1687.12
882.941	1712.43
883.259	1664.29
883.577	1699.09
883.894	1730.51
884.212	1689.83
884.529	1685.08
884.846	1686.44
885.164	1678.76
885.481	1694.8
885.798	1668.13
886.115	1664.29
886.432	1693.67
886.75	1683.27
887.067	1692.99
887.383	1674.24
887.7	1659.55
888.017	1668.59
888.334	1666.33
888.651	1662.71
888.967	1663.39
889.284	1684.18
889.6	1625.2
889.917	1613.67
890.233	1634.69
890.55	1642.6
890.866	1660.9
891.182	1607.8
891.498	1609.38
891.815	1626.33
892.131	1618.19
892.447	1619.55
892.763	1582.94
893.079	1596.27
893.395	1615.03
893.71	1629.04
894.026	1605.08
894.342	1566.44
894.657	1587.91
894.973	1578.64
895.289	1574.35
895.604	1540.68
895.92	1565.31
896.235	1542.26
896.55	1533.45
896.865	1538.42
897.181	1533.22
897.496	1530.06
897.811	1530.51
898.126	1523.73
898.441	1543.17
898.756	1506.56
899.071	1476.5
899.386	1501.13
899.7	1481.47
900.015	1481.25
900.33	1433.56
900.644	1461.13
900.959	1460
901.273	1478.53
901.588	1467.91
901.902	1478.53
902.216	1443.73
902.531	1439.67
902.845	1429.27
903.159	1425.43
903.473	1396.95
903.787	1423.39
904.101	1415.94
904.415	1429.27
904.729	1396.28
905.042	1395.15
905.356	1423.17
905.67	1410.06
905.984	1409.38
906.297	1365.77
906.611	1381.81
906.924	1393.57
907.237	1384.98
907.551	1385.66
907.864	1346.33
908.177	1365.09
908.491	1363.06
908.804	1346.79
909.117	1352.21
909.43	1337.97
909.743	1343.62
910.056	1314.02
910.368	1353.79
910.681	1334.13
910.994	1328.71
911.307	1304.98
911.619	1316.05
911.932	1309.27
912.244	1306.79
912.557	1332.1
912.869	1313.57
913.181	1323.28
913.494	1303.62
913.806	1310.63
914.118	1295.04
914.43	1279.22
914.742	1291.42
915.054	1291.65
915.366	1286.68
915.678	1282.61
915.99	1264.75
916.302	1265.21
916.613	1259.56
916.925	1256.17
917.236	1260.01
917.548	1258.2
917.859	1242.16
918.171	1272.66
918.482	1240.12
918.794	1263.17
919.105	1254.59
919.416	1238.09
919.727	1227.69
920.038	1246.22
920.349	1219.78
920.66	1193.34
920.971	1174.36
921.282	1227.92
921.593	1214.13
921.903	1202.38
922.214	1177.98
922.525	1177.98
922.835	1200.58
923.146	1178.43
923.456	1182.72
923.767	1168.71
924.077	1192.44
924.387	1172.33
924.697	1186.79
925.008	1177.75
925.318	1173.23
925.628	1168.49
925.938	1168.26
926.248	1156.28
926.558	1148.15
926.867	1147.7
927.177	1150.86
927.487	1129.84
927.796	1123.06
928.106	1130.3
928.416	1143.85
928.725	1139.33
929.034	1120.58
929.344	1114.48
929.653	1090.52
929.962	1100.47
930.271	1108.37
930.581	1099.34
930.89	1098.21
931.199	1080.13
931.508	1098.66
931.817	1105.66
932.125	1088.26
932.434	1093.91
932.743	1067.47
933.051	1081.71
933.36	1081.03
933.669	1066.79
933.977	1069.28
934.286	1055.49
934.594	1037.42
934.902	1055.95
935.21	1057.98
935.519	1049.85
935.827	1044.2
936.135	1006.46
936.443	1039.9
936.751	1032.9
937.059	1002.61
937.367	1027.92
937.674	1010.07
937.982	1020.69
938.29	1028.38
938.597	993.58
938.905	973.46
939.213	999
939.52	975.95
939.827	998.55
940.135	981.82
940.442	987.7
940.749	987.7
941.056	967.36
941.363	952.22
941.67	966.91
941.977	954.25
942.284	986.8
942.591	965.33
942.898	967.14
943.205	938.21
943.511	959.9
943.818	966.46
944.125	945.22
944.431	928.49
944.738	951.32
945.044	929.17
945.35	923.52
945.657	930.3
945.963	917.87
946.269	911.09
946.575	931.66
946.881	918.32
947.187	903.41
947.493	914.71
947.799	915.61
948.105	914.48
948.41	925.55
948.716	911.54
949.022	915.39
949.327	881.04
949.633	894.6
949.938	894.6
950.244	905.67
950.549	882.84
950.854	894.6
951.16	868.38
951.465	906.8
951.77	890.53
952.075	869.51
952.38	875.16
952.685	888.49
952.99	866.12
953.294	885.78
953.599	873.13
953.904	853.69
954.209	885.56
954.513	874.48
954.818	857.08
955.122	870.41
955.426	866.8
955.731	851.88
956.035	845.78
956.339	844.88
956.643	863.64
956.948	850.75
957.252	841.49
957.556	852.79
957.86	852.56
958.163	826.57
958.467	833.81
958.771	860.7
959.075	849.62
959.378	810.08
959.682	834.48
959.985	818.21
960.289	811.66
960.592	827.25
960.896	801.49
961.199	794.48
961.502	808.27
961.805	812.79
962.108	808.04
962.411	813.69
962.714	816.86
963.017	814.15
963.32	780.02
963.623	820.25
963.926	801.49
964.228	799.46
964.531	800.36
964.833	833.35
965.136	801.72
965.438	809.85
965.741	800.36
966.043	785.22
966.345	779.12
966.648	778.89
966.95	787.03
967.252	788.16
967.554	775.95
967.856	753.81
968.158	783.19
968.46	784.54
968.761	744.77
969.063	753.81
969.365	751.1
969.666	752.23
969.968	744.09
970.269	729.18
970.571	728.95
970.872	734.83
971.174	747.93
971.475	731.89
971.776	731.66
972.077	745.22
972.378	726.24
972.679	721.94
972.98	726.69
973.281	735.5
973.582	710.87
973.883	725.79
974.183	723.3
974.484	714.26
974.785	709.97
975.085	724.43
975.386	735.28
975.686	739.34
975.986	709.06
976.287	707.03
976.587	687.14
976.887	690.76
977.187	726.46
977.487	694.83
977.787	707.48
978.087	706.13
978.387	693.7
978.687	700.48
978.987	678.56
979.286	682.17
979.586	676.52
979.885	697.99
980.185	672.23
980.484	679.69
980.784	649.4
981.083	660.03
981.382	690.53
981.682	645.11
981.981	670.42
982.28	642.62
982.579	657.09
982.878	663.19
983.177	643.75
983.475	664.09
983.774	671.55
984.073	638.56
984.372	656.64
984.67	650.31
984.969	609.4
985.267	650.99
985.566	653.02
985.864	617.09
986.162	625
986.461	654.38
986.759	664.32
987.057	625
987.355	636.07
987.653	615.05
987.951	638.1
988.249	641.04
988.547	653.92
988.844	639.01
989.142	630.65
989.44	634.94
989.737	600.37
990.035	607.15
990.332	622.06
990.63	625.22
990.927	614.83
991.224	599.24
991.521	620.7
991.819	618.44
992.116	625
992.413	631.78
992.71	583.19
993.006	597.43
993.303	602.17
993.6	612.34
993.897	598.56
994.193	610.53
994.49	588.84
994.787	587.94
995.083	616.41
995.379	601.95
995.676	618.22
995.972	572.57
996.268	558.78
996.565	568.05
996.861	585
997.157	575.28
997.453	590.65
997.749	593.59
998.044	581.61
998.34	571.21
998.636	596.52
998.932	583.19
999.227	579.35
999.523	557.2
999.818	581.83
1000.114	564.21
1000.409	574.6
1000.704	562.4
1001	580.71
1001.295	575.96
1001.59	583.87
1001.885	544.55
1002.18	556.75
1002.475	563.98
1002.77	537.09
1003.065	554.94
1003.359	552.01
1003.654	558.33
1003.949	551.78
1004.243	560.82
1004.538	559.01
1004.832	555.4
1005.127	553.36
1005.421	570.08
1005.715	541.84
1006.009	555.4
1006.304	552.23
1006.598	524.89
1006.892	534.83
1007.186	509.75
1007.48	523.53
1007.773	544.55
1008.067	532.57
1008.361	525.11
1008.655	531.21
1008.948	514.72
1009.242	513.59
1009.535	503.42
1009.829	545.68
1010.122	521.95
1010.415	516.07
1010.708	534.83
1011.001	506.36
1011.295	532.34
1011.588	528.96
1011.881	514.94
1012.173	506.58
1012.466	528.96
1012.759	511.33
1013.052	502.74
1013.344	494.61
1013.637	503.42
1013.93	509.75
1014.222	500.03
1014.514	490.54
1014.807	510.42
1015.099	516.75
1015.391	481.05
1015.683	498.67
1015.976	476.08
1016.268	505.45
1016.56	480.59
1016.851	487.15
1017.143	492.12
1017.435	480.14
1017.727	476.75
1018.018	489.41
1018.31	476.75
1018.602	507.49
1018.893	476.3
1019.185	478.56
1019.476	480.59
1019.767	484.89
1020.058	462.06
1020.35	458.9
1020.641	475.4
1020.932	471.56
1021.223	470.2
1021.514	461.39
1021.804	471.78
1022.095	463.65
1022.386	479.46
1022.677	462.29
1022.967	446.47
1023.258	467.94
1023.548	451.67
1023.839	462.29
1024.129	475.85
1024.419	460.03
1024.709	458.9
1025	453.25
1025.29	443.31
1025.58	444.66
1025.87	428.17
1026.16	445.12
1026.449	457.54
1026.739	458.67
1027.029	465
1027.319	422.97
1027.608	425.68
1027.898	455.96
1028.187	450.76
1028.477	427.26
1028.766	435.62
1029.055	420.71
1029.344	423.87
1029.634	435.4
1029.923	424.55
1030.212	460.48
1030.501	415.06
1030.79	399.69
1031.078	448.96
1031.367	427.04
1031.656	432.46
1031.945	421.39
1032.233	415.06
1032.522	425.68
1032.81	426.81
1033.099	417.32
1033.387	407.6
1033.675	418.68
1033.963	403.08
1034.251	404.89
1034.54	426.36
1034.828	412.8
1035.116	420.71
1035.403	430.88
1035.691	392.91
1035.979	415.06
1036.267	415.96
1036.554	427.04
1036.842	427.49
1037.129	415.74
1037.417	431.78
1037.704	417.77
1037.992	396.53
1038.279	398.56
1038.566	412.35
1038.853	412.35
1039.14	412.35
