Data from foam1_polythene_foam_FLMS001491_00045.txt Node
Date: Wed Feb 08 10:54:53 GMT 2017
User: dcchb
Spectrometer: FLMS00149
Trigger mode: 0
Integration Time (sec): 2.000000E-2
Scans to average: 10
Electric dark correction enabled: true
Nonlinearity correction enabled: false
Boxcar width: 0
XAxis mode: Wavelengths
Number of Pixels in Spectrum: 2048
>>>>>Begin Spectral Data<<<<<
341.393	1.24
341.776	1.24
342.16	1.24
342.543	-48.25
342.927	-69.04
343.31	-78.53
343.693	-59.32
344.077	-63.61
344.46	-67
344.843	-46.44
345.226	-22.94
345.61	-48.7
345.993	-14.35
346.376	11.19
346.759	11.86
347.142	30.39
347.525	31.98
347.908	51.86
348.291	71.98
348.674	83.5
349.057	108.13
349.44	126.44
349.823	128.7
350.206	143.61
350.588	181.13
350.971	190.62
351.354	218.64
351.737	212.54
352.119	215.47
352.502	244.17
352.884	246.21
353.267	288.69
353.65	289.37
354.032	262.93
354.414	288.92
354.797	289.14
355.179	281.24
355.562	313.33
355.944	315.58
356.326	296.38
356.709	323.27
357.091	331.4
357.473	340.22
357.855	303.16
358.238	332.31
358.62	326.21
359.002	309.71
359.384	325.53
359.766	321.46
360.148	319.88
360.53	315.13
360.912	311.29
361.294	334.79
361.676	331.4
362.057	324.17
362.439	323.27
362.821	318.97
363.203	302.7
363.584	289.6
363.966	306.55
364.348	324.4
364.729	315.36
365.111	294.34
365.493	326.88
365.874	300.22
366.256	293.21
366.637	312.42
367.019	302.48
367.4	316.71
367.781	286.66
368.163	295.92
368.544	299.09
368.925	290.73
369.306	309.03
369.688	299.31
370.069	306.55
370.45	304.96
370.831	299.09
371.212	299.54
371.593	296.38
371.974	286.43
372.355	291.86
372.736	304.29
373.117	321.46
373.498	310.16
373.879	306.77
374.26	301.35
374.641	271.07
375.021	298.41
375.402	301.12
375.783	308.81
376.163	327.79
376.544	317.62
376.925	321.91
377.305	307
377.686	309.71
378.066	305.42
378.447	294.79
378.827	336.83
379.208	323.49
379.588	343.83
379.968	336.83
380.349	313.33
380.729	322.36
381.109	320.78
381.489	301.8
381.87	311.74
382.25	350.61
382.63	320.33
383.01	324.4
383.39	326.21
383.77	327.56
384.15	335.25
384.53	322.36
384.91	348.35
385.29	314.23
385.67	351.74
386.049	339.31
386.429	344.28
386.809	363.95
387.189	335.92
387.568	348.13
387.948	341.12
388.328	365.3
388.707	366.43
389.087	347
389.466	375.02
389.846	357.39
390.225	343.38
390.605	374.34
390.984	361.69
391.363	378.41
391.743	366.66
392.122	378.86
392.501	368.46
392.881	377.28
393.26	355.81
393.639	394.45
394.018	353.55
394.397	372.08
394.776	353.32
395.155	392.42
395.534	380.89
395.913	377.28
396.292	383.15
396.671	389.71
397.05	396.71
397.429	383.38
397.808	411.63
398.186	410.95
398.565	392.42
398.944	402.14
399.323	375.47
399.701	405.75
400.08	403.72
400.458	403.72
400.837	415.02
401.215	413.89
401.594	409.59
401.972	421.12
402.351	417.5
402.729	417.28
403.107	410.95
403.486	425.86
403.864	428.35
404.242	415.92
404.62	415.24
404.999	426.99
405.377	446.2
405.755	427.45
406.133	450.04
406.511	421.12
406.889	434.9
407.267	420.89
407.645	432.87
408.023	454.11
408.401	457.28
408.779	462.25
409.156	463.15
409.534	470.38
409.912	474.68
410.29	473.55
410.667	477.39
411.045	452.53
411.422	478.07
411.8	470.84
412.178	469.03
412.555	491.85
412.933	481.23
413.31	502.25
413.687	511.29
414.065	498.18
414.442	531.17
414.819	534.11
415.197	542.7
415.574	522.81
415.951	521.68
416.328	556.71
416.705	534.56
417.082	539.31
417.46	563.26
417.837	534.34
418.214	541.79
418.591	538.4
418.967	552.64
419.344	565.52
419.721	552.41
420.098	545.41
420.475	561.68
420.852	581.57
421.228	594.9
421.605	597.84
421.982	582.24
422.358	605.07
422.735	594.9
423.111	591.06
423.488	578.4
423.864	611.85
424.241	619.98
424.617	626.09
424.994	629.25
425.37	631.06
425.746	601.91
426.123	628.57
426.499	627.67
426.875	634.22
427.251	649.81
427.627	663.37
428.003	665.41
428.379	669.47
428.756	684.61
429.132	669.25
429.507	683.71
429.883	707.89
430.259	712.18
430.635	682.35
431.011	715.35
431.387	713.99
431.763	739.98
432.138	756.93
432.514	763.48
432.89	745.63
433.265	774.56
433.641	777.27
434.016	765.97
434.392	789.02
434.767	809.81
435.143	829.7
435.518	816.81
435.894	838.96
436.269	835.35
436.644	831.96
437.02	840.32
437.395	831.05
437.77	847.32
438.145	884.84
438.52	870.15
438.895	884.16
439.271	880.32
439.646	909.47
440.021	925.51
440.395	934.33
440.77	909.24
441.145	917.38
441.52	951.5
441.895	934.55
442.27	967.77
442.645	944.72
443.019	947.88
443.394	942.46
443.769	968.9
444.143	987.88
444.518	1026.75
444.892	988.34
445.267	1018.39
445.641	1027.2
446.016	1044.61
446.39	1034.89
446.764	1060.65
447.139	1010.93
447.513	1075.34
447.887	1062.68
448.262	1081.44
448.636	1074.21
449.01	1095
449.384	1116.47
449.758	1093.42
450.132	1134.09
450.506	1151.04
450.88	1170.7
451.254	1136.58
451.628	1142.23
452.002	1181.32
452.376	1175.45
452.75	1210.25
453.123	1209.12
453.497	1239.63
453.871	1223.58
454.244	1229.23
454.618	1240.53
454.992	1251.15
455.365	1263.58
455.739	1275.33
456.112	1307.88
456.486	1295.9
456.859	1320.53
457.232	1331.38
457.606	1344.48
457.979	1350.81
458.352	1384.71
458.725	1375.67
459.099	1352.85
459.472	1378.38
459.845	1419.51
460.218	1410.02
460.591	1436.01
460.964	1426.29
461.337	1472.39
461.71	1451.83
462.083	1504.93
462.456	1463.8
462.829	1475.78
463.201	1530.02
463.574	1537.25
463.947	1539.51
464.32	1563.69
464.692	1596.23
465.065	1609.56
465.438	1600.97
465.81	1643.69
466.183	1657.02
466.555	1680.52
466.928	1697.7
467.3	1703.8
467.672	1693.18
468.045	1768.2
468.417	1757.58
468.789	1779.73
469.161	1823.79
469.534	1838.26
469.906	1858.6
470.278	1845.94
470.65	1888.88
471.022	1933.62
471.394	1936.56
471.766	1960.51
472.138	1992.83
472.51	2006.16
472.882	2029.66
473.253	2050.23
473.625	2095.65
473.997	2101.75
474.369	2121.64
474.74	2171.81
475.112	2199.6
475.484	2235.31
475.855	2274.86
476.227	2284.35
476.598	2309.66
476.97	2367.28
477.341	2409.54
477.713	2442.76
478.084	2443.66
478.455	2527.5
478.827	2546.49
479.198	2604.34
479.569	2591.91
479.94	2631.68
480.311	2661.74
480.682	2753.94
481.053	2762.98
481.424	2809.53
481.795	2859.7
482.166	2916.87
482.537	2957.78
482.908	3002.75
483.279	3031.22
483.65	3077.77
484.021	3128.17
484.391	3154.61
484.762	3207.94
485.133	3221.05
485.503	3265.56
485.874	3309.18
486.244	3346.01
486.615	3433.7
486.985	3480.47
487.356	3534.26
487.726	3596.63
488.097	3648.15
488.467	3660.13
488.837	3703.29
489.207	3771.09
489.578	3810.18
489.948	3828.26
490.318	3921.59
490.688	3941.7
491.058	3978.09
491.428	4064.19
491.798	4098.76
492.168	4169.27
492.538	4139.67
492.908	4179.89
493.278	4254.24
493.648	4265.99
494.017	4363.84
494.387	4431.41
494.757	4442.03
495.126	4480.9
495.496	4467.57
495.866	4551.63
496.235	4587.11
496.605	4616.71
496.974	4647.22
497.344	4696.03
497.713	4766.54
498.082	4802.92
498.452	4797.27
498.821	4819.42
499.19	4833.66
499.559	4894.67
499.928	4916.37
500.298	4973.54
500.667	5034.56
501.036	5029.36
501.405	5083.37
501.774	5104.84
502.143	5173.76
502.512	5218.96
502.88	5244.95
503.249	5220.77
503.618	5326.53
503.987	5387.77
504.356	5396.58
504.724	5388.9
505.093	5412.63
505.462	5467.09
505.83	5520.65
506.199	5576.69
506.567	5590.93
506.936	5662.79
507.304	5695.33
507.672	5729
508.041	5716.35
508.409	5790.02
508.777	5841.54
509.145	5888.77
509.514	5910.47
509.882	5996.11
510.25	6037.24
510.618	6004.47
510.986	6043.8
511.354	6105.26
511.722	6199.72
512.09	6215.09
512.458	6261.19
512.826	6285.6
513.193	6353.84
513.561	6359.27
513.929	6431.36
514.297	6513.84
514.664	6518.36
515.032	6587.74
515.4	6583.67
515.767	6670.45
516.135	6744.12
516.502	6755.87
516.869	6749.77
517.237	6868.41
517.604	6872.47
517.972	6896.65
518.339	7008.06
518.706	7048.97
519.073	7065.92
519.44	7102.53
519.808	7189.98
520.175	7229.3
520.542	7311.11
520.909	7318.34
521.276	7305.68
521.643	7459.35
522.009	7507.49
522.376	7593.59
522.743	7621.61
523.11	7695.73
523.477	7710.87
523.843	7815.73
524.21	7876.06
524.577	7972.78
524.943	7957.64
525.31	8030.64
525.676	8139.56
526.043	8140.46
526.409	8224.08
526.776	8311.98
527.142	8326
527.508	8399.89
527.874	8382.27
528.241	8573.22
528.607	8583.16
528.973	8652.99
529.339	8638.08
529.705	8735.25
530.071	8793.78
530.437	8751.52
530.803	8862.7
531.169	8930.73
531.535	8893.21
531.901	9031.06
532.267	9045.3
532.632	9144.96
532.998	9145.18
533.364	9197.16
533.73	9267.21
534.095	9292.75
534.461	9329.13
534.826	9408
535.192	9436.02
535.557	9504.95
535.923	9472.63
536.288	9574.1
536.653	9591.5
537.019	9632.85
537.384	9703.59
537.749	9702.23
538.114	9732.51
538.479	9737.71
538.845	9828.56
539.21	9828.1
539.575	9869.91
539.94	9853.64
540.305	9981.09
540.67	9988.55
541.034	10079.62
541.399	10053.18
541.764	10044.37
542.129	10088.21
542.494	10107.87
542.858	10202.56
543.223	10231.26
543.587	10245.27
543.952	10262.44
544.316	10265.38
544.681	10396.9
545.045	10386.51
545.41	10438.93
545.774	10499.27
546.138	10455.21
546.503	10516.22
546.867	10496.79
547.231	10580.85
547.595	10669.44
547.959	10652.71
548.324	10679.38
548.688	10750.34
549.052	10785.82
549.416	10851.58
549.779	10829.88
550.143	10890.67
550.507	10912.37
550.871	10961.63
551.235	10988.52
551.599	11090.89
551.962	11080.27
552.326	11087.96
552.689	11179.71
553.053	11206.82
553.417	11256.77
553.78	11313.49
554.143	11275.75
554.507	11414.05
554.87	11495.18
555.234	11597.55
555.597	11484.1
555.96	11479.13
556.323	11517.55
556.686	11593.48
557.05	11736.98
557.413	11729.52
557.776	11665.79
558.139	11857.43
558.502	11842.29
558.865	11923.19
559.228	12034.82
559.59	12047.71
559.953	12090.87
560.316	12284.08
560.679	12238.21
561.041	12319.34
561.404	12301.03
561.767	12415.15
562.129	12347.58
562.492	12522.72
562.854	12513.68
563.217	12569.73
563.579	12606.79
563.941	12694.24
564.304	12721.59
564.666	12801.58
565.028	12827.12
565.39	12837.74
565.753	12935.82
566.115	12989.83
566.477	13003.84
566.839	13054.91
567.201	13229.82
567.563	13253.32
567.925	13330.84
568.287	13270.95
568.648	13321.57
569.01	13462.58
569.372	13514.11
569.734	13430.95
570.095	13540.32
570.457	13587.78
570.819	13522.02
571.18	13659.19
571.542	13739.41
571.903	13709.36
572.265	13752.52
572.626	13782.35
572.987	13784.61
573.349	13897.6
573.71	13923.81
574.071	13964.04
574.432	13972.85
574.794	13974.66
575.155	14136.24
575.516	13962.23
575.877	14110.25
576.238	14185.05
576.599	14189.12
576.96	14272.05
577.32	14225.28
577.681	14265.95
578.042	14324.71
578.403	14374.88
578.763	14296.91
579.124	14369.45
579.485	14470.02
579.845	14423.91
580.206	14458.72
580.566	14416.46
580.927	14492.16
581.287	14531.26
581.648	14420.07
582.008	14521.77
582.368	14610.12
582.728	14602.44
583.089	14578.71
583.449	14607.41
583.809	14596.79
584.169	14613.06
584.529	14600.41
584.889	14730.57
585.249	14652.84
585.609	14670.91
585.969	14709.56
586.329	14623.01
586.688	14729.9
587.048	14625.27
587.408	14589.33
587.768	14651.93
588.127	14630.91
588.487	14627.75
588.846	14702.55
589.206	14685.15
589.565	14560.63
589.925	14696
590.284	14584.81
590.643	14593.4
591.003	14699.84
591.362	14675.89
591.721	14758.37
592.08	14765.83
592.44	14751.14
592.799	14764.02
593.158	14721.08
593.517	14737.35
593.876	14752.95
594.235	14786.62
594.593	14739.39
594.952	14829.78
595.311	14781.87
595.67	14790.01
596.029	14950
596.387	14887.86
596.746	14893.73
597.104	14769.44
597.463	14861.42
597.822	14799.95
598.18	14804.7
598.538	14860.06
598.897	14941.42
599.255	14742.55
599.613	15060.96
599.972	14962.88
600.33	14893.05
600.688	14907.07
601.046	14924.92
601.404	15045.82
601.762	15067.97
602.12	14968.31
602.478	14948.65
602.836	15006.27
603.194	15000.62
603.552	15092.6
603.91	14977.35
604.268	15025.48
604.625	15002.88
604.983	15019.15
605.341	14988.87
605.698	15072.49
606.056	15211.01
606.413	15163.1
606.771	15177.12
607.128	15194.97
607.485	15202.65
607.843	15216.21
608.2	15190.67
608.557	15248.75
608.914	15117.91
609.272	15389.09
609.629	15295.53
609.986	15293.72
610.343	15217.34
610.7	15420.5
611.057	15368.52
611.414	15462.53
611.771	15375.98
612.127	15421.18
612.484	15422.76
612.841	15498.24
613.198	15457.79
613.554	15474.06
613.911	15600.38
614.267	15630.66
614.624	15549.31
614.98	15484.68
615.337	15530.33
615.693	15603.54
616.05	15470.21
616.406	15585.69
616.762	15587.27
617.118	15636.31
617.475	15641.96
617.831	15620.49
618.187	15674.73
618.543	15586.82
618.899	15711.11
619.255	15746.37
619.611	15690.32
619.967	15729.64
620.323	15765.12
620.678	15694.39
621.034	15701.85
621.39	15683.09
621.746	15672.02
622.101	15917.66
622.457	15741.85
622.812	15736.65
623.168	15788.17
623.523	15662.07
623.879	15787.72
624.234	15715.63
624.589	15789.53
624.945	15781.17
625.3	15806.03
625.655	15871.11
626.01	15811.22
626.365	15742.07
626.72	15751.79
627.075	15757.21
627.43	15747.95
627.785	15714.05
628.14	15701.62
628.495	15742.07
628.85	15698.46
629.205	15693.03
629.559	15732.35
629.914	15614.84
630.269	15665.24
630.623	15605.13
630.978	15638.8
631.332	15617.56
631.687	15638.12
632.041	15622.53
632.396	15679.25
632.75	15619.36
633.104	15620.49
633.459	15576.43
633.813	15551.12
634.167	15487.84
634.521	15422.08
634.875	15400.61
635.229	15540.5
635.583	15417.79
635.937	15328.07
636.291	15441.51
636.645	15340.05
636.999	15314.96
637.352	15444.45
637.706	15229.54
638.06	15395.64
638.413	15305.25
638.767	15336.21
639.121	15243.78
639.474	15245.36
639.828	15161.75
640.181	15174.63
640.534	15286.26
640.888	15188.19
641.241	15083.78
641.594	15118.36
641.947	15170.56
642.301	15113.61
642.654	15117.91
643.007	15088.3
643.36	15015.99
643.713	15081.52
644.066	15084.46
644.419	14999.94
644.771	14965.14
645.124	14970.79
645.477	14960.85
645.83	14720.86
646.182	14623.91
646.535	14488.77
646.888	14475.21
647.24	14415.33
647.593	14490.58
647.945	14416.01
648.298	14322.67
648.65	14227.76
649.002	14254.65
649.355	14311.83
649.707	14363.58
650.059	14416.01
650.411	14550.69
650.763	14613.97
651.115	14759.95
651.467	14715.43
651.819	14625.04
652.171	14732.61
652.523	14574.42
652.875	14591.14
653.227	14562.22
653.578	14720.4
653.93	14606.06
654.282	14591.59
654.633	14454.65
654.985	14409
655.337	14515.44
655.688	14519.05
656.039	14512.73
656.391	14418.94
656.742	14472.05
657.094	14484.7
657.445	14531.03
657.796	14534.87
658.147	14427.08
658.498	14406.51
658.849	14458.94
659.2	14450.58
659.551	14352.05
659.902	14464.59
660.253	14357.25
660.604	14395.21
660.955	14308.89
661.306	14348.66
661.656	14366.29
662.007	14345.5
662.358	14288.55
662.708	14309.79
663.059	14324.03
663.409	14211.49
663.76	14289.23
664.11	14218.72
664.461	14266.86
664.811	14244.71
665.161	14313.41
665.511	14178.72
665.862	14234.09
666.212	14176.24
666.562	14278.16
666.912	14212.62
667.262	14189.8
667.612	14173.98
667.962	14263.01
668.312	14169.91
668.662	14304.6
669.011	14287.19
669.361	14222.11
669.711	14185.95
670.06	14201.32
670.41	14155.22
670.76	14122
671.109	14183.47
671.459	14154.09
671.808	14076.58
672.157	14249
672.507	14083.58
672.856	14004.49
673.205	14054.88
673.554	14051.95
673.904	14033.42
674.253	14135.79
674.602	14046.52
674.951	13879.07
675.3	13745.06
675.649	14001.78
675.998	13987.99
676.346	13987.54
676.695	14034.77
677.044	14009.01
677.393	13996.36
677.741	14041.78
678.09	14003.81
678.438	13796.59
678.787	13911.84
679.135	13986.86
679.484	13945.74
679.832	13879.52
680.181	13806.3
680.529	13855.79
680.877	13701.22
681.225	13804.95
681.573	13903.48
681.922	13735.35
682.27	13701
682.618	13683.6
682.966	13712.97
683.314	13642.24
683.661	13650.38
684.009	13588.68
684.357	13496.26
684.705	13502.36
685.053	13599.53
685.4	13559.76
685.748	13481.57
686.095	13527.44
686.443	13405.18
686.79	13443.6
687.138	13461.91
687.485	13468.46
687.832	13332.87
688.18	13363.83
688.527	13299.42
688.874	13245.87
689.221	13282.7
689.568	13204.96
689.915	13161.35
690.262	13187.79
690.609	13192.76
690.956	13141.01
691.303	13040.45
691.65	13048.36
691.997	12960.68
692.344	12881.81
692.69	12968.81
693.037	12883.16
693.383	12789.83
693.73	12878.64
694.077	12789.83
694.423	12766.78
694.769	12647.01
695.116	12630.29
695.462	12703.06
695.808	12598.2
696.155	12566.56
696.501	12615.6
696.847	12597.07
697.193	12460.8
697.539	12543.96
697.885	12476.17
698.231	12453.57
698.577	12411.54
698.923	12369.96
699.269	12264.42
699.614	12239.34
699.96	12309.39
700.306	12280.47
700.651	12194.82
700.997	12120.7
701.342	12173.13
701.688	12181.71
702.033	12079.34
702.379	12077.31
702.724	12026.92
703.069	12018.78
703.415	11943.75
703.76	11875.96
704.105	11947.6
704.45	11971.1
704.795	11840.25
705.14	11761.84
705.485	11782.18
705.83	11774.72
706.175	11722.29
706.52	11682.52
706.865	11679.13
707.209	11651.78
707.554	11621.05
707.899	11609.53
708.243	11453.15
708.588	11501.51
708.932	11433.26
709.277	11466.03
709.621	11462.18
709.966	11356.2
710.31	11351.45
710.654	11323.21
710.998	11354.62
711.342	11321.4
711.687	11319.36
712.031	11275.07
712.375	11202.98
712.719	11193.49
713.063	11115.75
713.407	11301.51
713.75	11138.58
714.094	11169.76
714.438	11098.35
714.782	11128.41
715.125	11108.97
715.469	11126.15
715.812	11003.89
716.156	10960.95
716.499	10962.08
716.843	10993.5
717.186	10959.82
717.53	11030.11
717.873	10980.84
718.216	10877.34
718.559	10873.27
718.902	10827.17
719.246	10813.16
719.589	10809.32
719.932	10708.98
720.275	10755.76
720.617	10686.61
720.96	10648.42
721.303	10664.47
721.646	10707.4
721.989	10631.47
722.331	10622.88
722.674	10645.93
723.016	10662.66
723.359	10595.31
723.701	10501.31
724.044	10519.16
724.386	10470.8
724.729	10419.95
725.071	10533.4
725.413	10481.65
725.755	10444.36
726.097	10445.49
726.439	10401.65
726.782	10401.65
727.124	10495.88
727.465	10368.88
727.807	10357.35
728.149	10392.83
728.491	10267.41
728.833	10415.66
729.175	10314.87
729.516	10272.16
729.858	10217.7
730.199	10236.68
730.541	10247.08
730.882	10180.64
731.224	10316.68
731.565	10150.13
731.906	10167.76
732.248	10145.83
732.589	10160.52
732.93	10103.8
733.271	10122.33
733.612	10075.55
733.953	10090.24
734.294	10073.75
734.635	10077.36
734.976	10043.01
735.317	9974.54
735.658	9944.71
735.999	10016.35
736.339	10004.37
736.68	10012.73
737.021	9919.63
737.361	9927.99
737.702	9920.3
738.042	9901.1
738.383	9810.48
738.723	9933.41
739.063	9875.33
739.404	9863.58
739.744	9810.02
740.084	9795.56
740.424	9770.48
740.764	9770.25
741.104	9755.79
741.444	9750.37
741.784	9742.91
742.124	9739.07
742.464	9738.84
742.804	9672.85
743.143	9708.56
743.483	9633.31
743.823	9590.82
744.162	9644.38
744.502	9615.68
744.841	9562.35
745.181	9552.18
745.52	9513.99
745.86	9546.08
746.199	9548.34
746.538	9506.76
746.877	9561.22
747.216	9540.65
747.556	9516.92
747.895	9534.33
748.234	9456.14
748.573	9422.24
748.911	9444.16
749.25	9422.46
749.589	9372.52
749.928	9440.09
750.267	9440.77
750.605	9361
750.944	9371.84
751.283	9276.03
751.621	9337.72
751.96	9259.53
752.298	9324.61
752.636	9271.73
752.975	9263.15
753.313	9206.2
753.651	9280.55
753.989	9181.34
754.327	9102.02
754.666	9140.66
755.004	9170.72
755.342	9099.76
755.679	9115.35
756.017	9065.41
756.355	9186.99
756.693	8979.09
757.031	9047.56
757.368	8983.83
757.706	8976.37
758.044	8917.62
758.381	8936.83
758.719	8899.09
759.056	8839.88
759.394	8772.54
759.731	8787
760.068	8781.35
760.405	8753.33
760.743	8659.77
761.08	8685.76
761.417	8596.95
761.754	8559.21
762.091	8680.34
762.428	8556.95
762.765	8560.79
763.102	8618.19
763.438	8535.48
763.775	8515.14
764.112	8467.01
764.449	8542.04
764.785	8480.12
765.122	8396.28
765.458	8352.66
765.795	8408.03
766.131	8407.12
766.467	8332.55
766.804	8265.88
767.14	8311.31
767.476	8262.72
767.812	8239.22
768.148	8236.96
768.485	8139.33
768.821	8117.41
769.157	8182.72
769.492	8182.95
769.828	8076.96
770.164	8091.43
770.5	8087.36
770.836	8006
771.171	8009.39
771.507	7966.68
771.842	7904.31
772.178	7920.13
772.513	7917.42
772.849	7864.31
773.184	7832.45
773.519	7805.11
773.855	7763.3
774.19	7693.7
774.525	7742.73
774.86	7685.11
775.195	7764.43
775.53	7653.92
775.865	7663.19
776.2	7595.62
776.535	7485.57
776.87	7562.63
777.205	7478.11
777.539	7452.12
777.874	7430.65
778.209	7375.29
778.543	7408.05
778.878	7198.57
779.212	7329.64
779.547	7211.9
779.881	7210.77
780.215	7178
780.55	7159.25
780.884	7159.92
781.218	7139.13
781.552	7123.99
781.886	7126.71
782.22	7068.85
782.554	7088.51
782.888	6984.11
783.222	7009.42
783.556	6994.51
783.889	6945.69
784.223	6889.65
784.557	6884
784.89	6864.57
785.224	6875.86
785.557	6806.49
785.891	6754.51
786.224	6822.76
786.558	6840.16
786.891	6755.19
787.224	6731.69
787.557	6690.33
787.891	6692.59
788.224	6641.07
788.557	6618.24
788.89	6639.94
789.223	6624.8
789.556	6584.12
789.888	6556.1
790.221	6529.88
790.554	6503.67
790.887	6493.5
791.219	6428.87
791.552	6417.57
791.884	6415.54
792.217	6448.98
792.549	6391.58
792.882	6303.45
793.214	6340.51
793.546	6350.91
793.879	6274.07
794.211	6251.02
794.543	6231.59
794.875	6235.2
795.207	6272.26
795.539	6180.06
795.871	6218.03
796.203	6130.8
796.535	6134.64
796.867	6113.17
797.198	6057.13
797.53	6088.99
797.862	6026.62
798.193	6052.61
798.525	5981.2
798.856	6050.8
799.188	5969.45
799.519	5906.17
799.85	5929.22
800.182	5886.06
800.513	5848.55
800.844	5896.46
801.175	5894.2
801.506	5877.47
801.837	5834.99
802.168	5849.9
802.499	5789.34
802.83	5775.78
803.161	5775.78
803.491	5733.75
803.822	5738.04
804.153	5697.14
804.483	5649.23
804.814	5606.75
805.145	5661.21
805.475	5609.91
805.805	5654.43
806.136	5592.06
806.466	5594.99
806.796	5605.39
807.126	5617.59
807.457	5558.16
807.787	5532.4
808.117	5527.88
808.447	5463.02
808.777	5487.88
809.107	5532.62
809.436	5482.91
809.766	5457.6
810.096	5467.09
810.426	5442.23
810.755	5367.66
811.085	5394.55
811.414	5382.12
811.744	5381.67
812.073	5376.47
812.403	5343.02
812.732	5304.83
813.061	5324.94
813.39	5281.78
813.719	5340.54
814.049	5378.73
814.378	5333.08
814.707	5318.62
815.036	5305.06
815.365	5242.69
815.693	5213.31
816.022	5223.25
816.351	5229.13
816.68	5157.49
817.008	5222.57
817.337	5153.88
817.665	5118.17
817.994	5157.04
818.322	5140.09
818.651	5117.72
818.979	5079.3
819.307	5138.06
819.636	5098.96
819.964	5077.04
820.292	5142.58
820.62	5108.91
820.948	5065.29
821.276	5091.05
821.604	5044.73
821.932	5036.59
822.259	5063.03
822.587	5042.24
822.915	5021.45
823.243	4998.4
823.57	5012.86
823.898	4999.53
824.225	4975.12
824.553	5054.22
824.88	5001.56
825.207	4993.88
825.535	5009.47
825.862	5013.31
826.189	5021
826.516	5051.96
826.843	5041.11
827.17	5056.25
827.497	5052.64
827.824	5042.69
828.151	5041.79
828.478	5002.02
828.805	5046.76
829.131	5032.52
829.458	4973.99
829.785	4991.85
830.111	4997.27
830.438	5062.58
830.764	5014.67
831.09	5001.79
831.417	4976.48
831.743	4990.49
832.069	5011.73
832.395	5026.65
832.722	5029.59
833.048	5003.37
833.374	5042.69
833.7	5011.96
834.026	5019.42
834.351	5030.94
834.677	4971.06
835.003	5028
835.329	4989.36
835.654	4979.87
835.98	4917.5
836.306	4981.9
836.631	4929.25
836.956	4972.41
837.282	4999.76
837.607	5006.99
837.932	4945.29
838.258	4916.59
838.583	4901.45
838.908	4892.87
839.233	4875.47
839.558	4884.5
839.883	4915.01
840.208	4870.72
840.533	4862.13
840.858	4851.96
841.182	4838.18
841.507	4804.51
841.832	4805.18
842.156	4832.08
842.481	4816.26
842.805	4791.17
843.13	4773.09
843.454	4774.9
843.778	4741.68
844.103	4738.29
844.427	4712.53
844.751	4713.21
845.075	4732.19
845.399	4643.61
845.723	4672.76
846.047	4647.67
846.371	4604.74
846.695	4634.79
847.019	4573.55
847.343	4678.63
847.666	4611.74
847.99	4581.01
848.313	4537.85
848.637	4509.15
848.96	4533.55
849.284	4537.17
849.607	4485.87
849.931	4452.43
850.254	4420.56
850.577	4399.32
850.9	4399.32
851.223	4376.5
851.546	4367.46
851.869	4335.37
852.192	4351.41
852.515	4283.62
852.838	4289.49
853.161	4322.71
853.483	4289.27
853.806	4242.26
854.129	4256.27
854.451	4261.92
854.774	4274.8
855.096	4227.57
855.419	4247.01
855.741	4197.06
856.063	4192.55
856.385	4167.91
856.708	4145.77
857.03	4120.91
857.352	4123.85
857.674	4150.29
857.996	4098.76
858.318	4108.71
858.64	4093.79
858.961	4061.25
859.283	4058.54
859.605	4066.22
859.926	4024.19
860.248	4043.17
860.57	4017.86
860.891	3997.97
861.212	3979.67
861.534	3997.52
861.855	3985.54
862.176	3993
862.498	4024.87
862.819	4031.65
863.14	3971.76
863.461	3982.38
863.782	3958.65
864.103	3958.2
864.424	3920.24
864.745	3985.09
865.065	3977.41
865.386	3914.81
865.707	3922.27
866.027	3882.95
866.348	3915.04
866.668	3896.06
866.989	3863.06
867.309	3850.86
867.63	3899.67
867.95	3887.92
868.27	3857.41
868.59	3847.24
868.91	3835.27
869.23	3835.27
869.55	3865.1
869.87	3868.94
870.19	3852.22
870.51	3852.22
870.83	3894.93
871.15	3852.67
871.469	3823.97
871.789	3850.18
872.109	3845.66
872.428	3783.97
872.748	3797.53
873.067	3821.48
873.386	3795.04
873.706	3748.71
874.025	3825.55
874.344	3768.15
874.663	3764.99
874.982	3746.91
875.301	3732.67
875.62	3746.91
875.939	3717.76
876.258	3702.61
876.577	3725.44
876.896	3747.59
877.214	3639.11
877.533	3703.29
877.852	3674.37
878.17	3688.15
878.489	3694.71
878.807	3700.81
879.125	3667.14
879.444	3682.5
879.762	3643.18
880.08	3690.64
880.398	3637.31
880.716	3623.07
881.034	3628.94
881.352	3608.83
881.67	3591.88
881.988	3555.27
882.306	3587.14
882.624	3594.59
882.941	3585.33
883.259	3556.86
883.577	3569.96
883.894	3529.06
884.212	3564.54
884.529	3572.9
884.846	3542.17
885.164	3543.75
885.481	3551.66
885.798	3552.34
886.115	3547.82
886.432	3532.22
886.75	3535.16
887.067	3529.06
887.383	3482.06
887.7	3550.98
888.017	3490.87
888.334	3498.78
888.651	3478.89
888.967	3508.27
889.284	3487.48
889.6	3452.68
889.917	3474.6
890.233	3430.08
890.55	3428.5
890.866	3456.97
891.182	3415.62
891.498	3414.49
891.815	3398.44
892.131	3397.09
892.447	3369.52
892.763	3353.02
893.079	3355.96
893.395	3364.09
893.71	3346.47
894.026	3362.51
894.342	3319.35
894.657	3303.08
894.973	3319.12
895.289	3298.56
895.604	3313.7
895.92	3252.23
896.235	3226.69
896.55	3231.21
896.865	3219.24
897.181	3169.3
897.496	3236.86
897.811	3172.91
898.126	3201.84
898.441	3198.67
898.756	3165.91
899.071	3183.76
899.386	3186.7
899.7	3128.39
900.015	3130.43
900.33	3167.04
900.644	3137.43
900.959	3135.17
901.273	3106.92
901.588	3049.07
901.902	3074.83
902.216	3091.56
902.531	3066.02
902.845	3071.22
903.159	3021.95
903.473	3017.21
903.787	3001.62
904.101	2997.1
904.415	2988.73
904.729	2986.48
905.042	2938.79
905.356	2964.33
905.67	2984.67
905.984	2932.47
906.297	2933.6
906.611	2960.04
906.924	2913.93
907.237	2925.91
907.551	2909.42
907.864	2911.45
908.177	2864.67
908.491	2905.57
908.804	2875.29
909.117	2869.19
909.43	2881.62
909.743	2853.37
910.056	2862.41
910.368	2844.33
910.681	2814.05
910.994	2838.91
911.307	2747.61
911.619	2769.53
911.932	2799.14
912.244	2735.41
912.557	2787.38
912.869	2745.35
913.181	2748.97
913.494	2752.81
913.806	2700.61
914.118	2698.8
914.43	2674.84
914.742	2692.7
915.054	2671.46
915.366	2662.87
915.678	2675.75
915.99	2664.9
916.302	2607.95
916.613	2624.45
916.925	2606.6
917.236	2623.55
917.548	2612.47
917.859	2577.22
918.171	2594.4
918.482	2585.58
918.794	2551.91
919.105	2559.59
919.416	2529.09
919.727	2523.44
920.038	2511.69
920.349	2459.94
920.66	2537.9
920.971	2493.15
921.282	2492.93
921.593	2459.48
921.903	2455.87
922.214	2424.68
922.525	2428.3
922.835	2436.89
923.146	2382.65
923.456	2441.4
923.767	2415.87
924.077	2384.01
924.387	2387.17
924.697	2386.04
925.008	2398.92
925.318	2391.69
925.628	2382.88
925.938	2350.33
926.248	2346.72
926.558	2328.64
926.867	2305.14
927.177	2345.81
927.487	2310.11
927.796	2288.87
928.106	2277.57
928.416	2242.99
928.725	2265.14
929.034	2242.77
929.344	2234.63
929.653	2230.56
929.962	2228.75
930.271	2215.65
930.581	2225.37
930.89	2193.95
931.199	2200.28
931.508	2184.91
931.817	2198.02
932.125	2187.63
932.434	2181.3
932.743	2142.66
933.051	2146.72
933.36	2124.8
933.669	2144.69
933.977	2104.46
934.286	2139.27
934.594	2129.77
934.902	2126.61
935.21	2141.3
935.519	2113.28
935.827	2077.35
936.135	2073.96
936.443	2074.41
936.751	2016.33
937.059	2028.99
937.367	2016.56
937.674	2050.68
937.982	1997.35
938.29	1995.77
938.597	2036.22
938.905	1975.65
939.213	1986.95
939.52	2001.64
939.827	1993.96
940.135	1997.35
940.442	1957.8
940.749	1965.94
941.056	1982.89
941.363	1949.44
941.67	1939.05
941.977	1916.22
942.284	1930.68
942.591	1908.76
942.898	1896.11
943.205	1882.55
943.511	1868.09
943.818	1878.71
944.125	1867.18
944.431	1859.95
944.738	1865.83
945.044	1874.87
945.35	1866.73
945.657	1822.44
945.963	1837.13
946.269	1837.13
946.575	1827.64
946.881	1821.99
947.187	1808.43
947.493	1803.91
947.799	1792.61
948.105	1801.42
948.41	1796
948.716	1760.74
949.022	1772.5
949.327	1756
949.633	1761.65
949.938	1761.2
950.244	1739.28
950.549	1743.57
950.854	1733.4
951.16	1746.06
951.465	1744.93
951.77	1714.42
952.075	1727.07
952.38	1668.32
952.685	1701.99
952.99	1681.2
953.294	1686.17
953.599	1691.14
953.904	1687.07
954.209	1669
954.513	1711.71
954.818	1666.28
955.122	1635.55
955.426	1663.12
955.731	1628.09
956.035	1652.27
956.339	1639.84
956.643	1617.25
956.948	1624.03
957.252	1638.49
957.556	1612.95
957.86	1636.68
958.163	1584.7
958.467	1609.11
958.771	1586.06
959.075	1604.82
959.378	1593.07
959.682	1583.57
959.985	1568.66
960.289	1555.78
960.592	1538.15
960.896	1516.91
961.199	1535.67
961.502	1524.59
961.805	1536.34
962.108	1512.62
962.411	1513.97
962.714	1535.44
963.017	1502.67
963.32	1472.16
963.623	1480.53
963.926	1464.48
964.228	1466.06
964.531	1496.12
964.833	1436.01
965.136	1471.94
965.438	1426.52
965.741	1425.84
966.043	1458.83
966.345	1431.71
966.648	1452.28
966.95	1434.43
967.252	1440.75
967.554	1403.24
967.856	1431.71
968.158	1376.35
968.46	1407.53
968.761	1388.1
969.063	1388.33
969.365	1388.55
969.666	1372.73
969.968	1380.19
970.269	1393.75
970.571	1372.05
970.872	1354.88
971.174	1337.25
971.475	1355.11
971.776	1337.03
972.077	1350.13
972.378	1318.72
972.679	1345.61
972.98	1337.25
973.281	1341.32
973.582	1357.37
973.883	1308.55
974.183	1331.38
974.484	1318.5
974.785	1306.97
975.085	1337.7
975.386	1307.42
975.686	1306.97
975.986	1307.2
976.287	1281.44
976.587	1273.75
976.887	1280.31
977.187	1267.2
977.487	1255.67
977.787	1248.89
978.087	1256.8
978.387	1265.39
978.687	1277.59
978.987	1245.96
979.286	1243.47
979.586	1204.83
979.885	1253.87
980.185	1241.66
980.484	1216.13
980.784	1204.6
981.083	1206.86
981.382	1234.2
981.682	1209.57
981.981	1196.24
982.28	1188.78
982.579	1165.05
982.878	1192.62
983.177	1189.01
983.475	1188.56
983.774	1176.35
984.073	1174.77
984.372	1202.12
984.67	1182.91
984.969	1165.05
985.267	1166.86
985.566	1138.16
985.864	1137.03
986.162	1132.74
986.461	1130.7
986.759	1143.13
987.057	1136.81
987.355	1139.97
987.653	1135
987.951	1116.02
988.249	1118.73
988.547	1085.96
988.844	1092.29
989.142	1102.23
989.44	1077.15
989.737	1045.28
990.035	1075.79
990.332	1076.24
990.63	1094.1
990.927	1088.9
991.224	1049.8
991.521	1059.29
991.819	1058.16
992.116	1062.68
992.413	1055.9
992.71	1026.75
993.006	1045.28
993.303	1028.56
993.6	1040.99
993.897	1045.28
994.193	1036.92
994.49	1025.17
994.787	1027.43
995.083	1007.32
995.379	1007.32
995.676	1030.37
995.972	1010.03
996.268	1031.05
996.565	1013.65
996.861	1003.48
997.157	982.69
997.453	962.8
997.749	1005.96
998.044	989.01
998.34	979.07
998.636	972.97
998.932	965.29
999.227	956.25
999.523	949.01
999.818	963.48
1000.114	967.09
1000.409	951.05
1000.704	987.88
1001	945.17
1001.295	925.06
1001.59	942.24
1001.885	921.9
1002.18	925.96
1002.475	944.72
1002.77	925.51
1003.065	915.34
1003.359	901.11
1003.654	934.33
1003.949	919.18
1004.243	900.2
1004.538	893.2
1004.832	897.72
1005.127	897.26
1005.421	895.68
1005.715	875.34
1006.009	898.17
1006.304	867.89
1006.598	873.31
1006.892	869.92
1007.186	886.87
1007.48	876.25
1007.773	864.5
1008.067	854.33
1008.361	867.21
1008.655	870.15
1008.948	859.98
1009.242	858.4
1009.535	848.23
1009.829	855.01
1010.122	815.23
1010.415	850.49
1010.708	815.01
1011.001	824.5
1011.295	825.63
1011.588	813.42
1011.881	803.03
1012.173	806.65
1012.466	820.88
1012.759	814.78
1013.052	797.15
1013.344	803.03
1013.637	807.78
1013.93	777.27
1014.222	769.36
1014.514	781.11
1014.807	791.96
1015.099	753.31
1015.391	752.41
1015.683	771.84
1015.976	758.74
1016.268	777.49
1016.56	785.4
1016.851	739.98
1017.143	757.83
1017.435	754.22
1017.727	716.03
1018.018	743.37
1018.31	753.77
1018.602	731.85
1018.893	736.59
1019.185	748.12
1019.476	735.01
1019.767	720.32
1020.058	709.47
1020.35	706.08
1020.641	715.35
1020.932	720.55
1021.223	713.99
1021.514	708.12
1021.804	698.17
1022.095	712.18
1022.386	681.23
1022.677	685.97
1022.967	685.74
1023.258	684.61
1023.548	664.73
1023.839	676.25
1024.129	679.42
1024.419	659.98
1024.709	660.89
1025	683.03
1025.29	664.05
1025.58	644.39
1025.87	670.38
1026.16	656.37
1026.449	648.46
1026.739	671.73
1027.029	637.38
1027.319	646.2
1027.608	653.88
1027.898	661.79
1028.187	626.31
1028.477	645.52
1028.766	666.54
1029.055	635.58
1029.344	603.71
1029.634	619.08
1029.923	634.22
1030.212	610.27
1030.501	619.08
1030.79	637.61
1031.078	620.66
1031.367	611.62
1031.656	616.14
1031.945	600.55
1032.233	611.62
1032.522	611.17
1032.81	588.12
1033.099	589.02
1033.387	587.67
1033.675	593.09
1033.963	610.94
1034.251	571.4
1034.54	567.78
1034.828	577.05
1035.116	566.65
1035.403	600.55
1035.691	579.76
1035.979	578.18
1036.267	564.62
1036.554	545.86
1036.842	578.18
1037.129	553.09
1037.417	574.56
1037.704	557.16
1037.992	577.95
1038.279	549.48
1038.566	550.16
1038.853	550.16
1039.14	550.16
