Data from foam1_polythene_foam_FLMS001491_00052.txt Node
Date: Wed Feb 08 10:55:03 GMT 2017
User: dcchb
Spectrometer: FLMS00149
Trigger mode: 0
Integration Time (sec): 2.000000E-2
Scans to average: 10
Electric dark correction enabled: true
Nonlinearity correction enabled: false
Boxcar width: 0
XAxis mode: Wavelengths
Number of Pixels in Spectrum: 2048
>>>>>Begin Spectral Data<<<<<
341.393	7.44
341.776	7.44
342.16	7.44
342.543	-59.22
342.927	-59
343.31	-60.58
343.693	-69.62
344.077	-57.64
344.46	-78.88
344.843	-42.5
345.226	-43.18
345.61	-17.64
345.993	-11.54
346.376	4.28
346.759	13.77
347.142	42.24
347.525	27.56
347.908	64.39
348.291	56.03
348.674	87.22
349.057	86.09
349.44	106.88
349.823	131.73
350.206	164.73
350.588	197.49
350.971	210.15
351.354	234.33
351.737	228.91
352.119	233.88
352.502	261.45
352.884	277.49
353.267	271.84
353.65	276.36
354.032	288.79
354.414	302.8
354.797	302.12
355.179	318.17
355.562	312.52
355.944	314.55
356.326	340.54
356.709	340.77
357.091	310.26
357.473	340.54
357.855	319.98
358.238	329.02
358.62	322.01
359.002	322.24
359.384	316.81
359.766	354.1
360.148	330.82
360.53	319.53
360.912	337.38
361.294	334.44
361.676	328.34
362.057	331.95
362.439	342.8
362.821	302.8
363.203	303.93
363.584	322.01
363.966	316.81
364.348	314.1
364.729	298.28
365.111	303.25
365.493	302.8
365.874	322.46
366.256	316.14
366.637	315.91
367.019	322.01
367.4	314.78
367.781	308
368.163	312.52
368.544	307.1
368.925	310.26
369.306	309.36
369.688	307.1
370.069	300.54
370.45	289.02
370.831	311.39
371.212	291.96
371.593	309.81
371.974	323.37
372.355	300.77
372.736	317.27
373.117	307.32
373.498	300.32
373.879	317.49
374.26	305.06
374.641	315.46
375.021	294.89
375.402	323.82
375.783	306.64
376.163	306.42
376.544	326.98
376.925	309.36
377.305	318.4
377.686	332.86
378.066	313.88
378.447	327.21
378.827	333.31
379.208	312.29
379.588	347.77
379.968	338.73
380.349	331.28
380.729	316.81
381.109	319.53
381.489	330.82
381.87	331.05
382.25	334.44
382.63	347.77
383.01	337.15
383.39	329.69
383.77	362.91
384.15	318.17
384.53	342.12
384.91	331.95
385.29	370.37
385.67	345.74
386.049	359.98
386.429	323.37
386.809	347.1
387.189	360.43
387.568	346.64
387.948	354.33
388.328	337.38
388.707	358.62
389.087	356.59
389.466	362.46
389.846	342.35
390.225	363.82
390.605	372.18
390.984	357.49
391.363	372.41
391.743	364.27
392.122	355.23
392.501	375.34
392.881	361.11
393.26	364.27
393.639	346.64
394.018	375.8
394.397	368.11
394.776	391.16
395.155	373.99
395.534	383.03
395.913	381.44
396.292	399.75
396.671	388
397.05	366.08
397.429	397.94
397.808	383.7
398.186	402.01
398.565	402.46
398.944	407.21
399.323	419.41
399.701	378.06
400.08	397.72
400.458	387.09
400.837	420.77
401.215	398.85
401.594	398.39
401.972	408.56
402.351	385.96
402.729	404.04
403.107	431.16
403.486	435
403.864	433.19
404.242	426.64
404.62	437.26
404.999	422.8
405.377	411.5
405.755	429.58
406.133	442.46
406.511	434.78
406.889	435
407.267	437.71
407.645	456.02
408.023	431.39
408.401	445.85
408.779	457.83
409.156	454.66
409.534	450.14
409.912	457.6
410.29	447.66
410.667	478.62
411.045	471.39
411.422	476.58
411.8	493.08
412.178	484.49
412.555	492.85
412.933	508.67
413.31	480.2
413.687	486.75
414.065	496.92
414.442	512.06
414.819	503.48
415.197	525.85
415.574	523.81
415.951	527.2
416.328	499.63
416.705	517.26
417.082	541.67
417.46	522.01
417.837	551.38
418.214	534.21
418.591	559.07
418.967	546.64
419.344	539.63
419.721	547.99
420.098	554.32
420.475	560.65
420.852	558.39
421.228	547.32
421.605	575.79
421.982	585.28
422.358	572.4
422.735	585.73
423.111	584.15
423.488	571.95
423.864	578.73
424.241	585.73
424.617	598.61
424.994	604.26
425.37	598.16
425.746	611.5
426.123	615.11
426.499	581.21
426.875	616.24
427.251	646.75
427.627	637.48
428.003	642.68
428.379	646.07
428.756	644.94
429.132	657.37
429.507	647.65
429.883	652.62
430.259	654.43
430.635	681.55
431.011	663.7
431.387	683.81
431.763	706.63
432.138	710.02
432.514	711.83
432.89	709.8
433.265	724.49
433.641	719.06
434.016	724.49
434.392	760.42
434.767	756.12
435.143	751.6
435.518	741.89
435.894	786.86
436.269	800.87
436.644	779.63
437.02	780.08
437.395	786.86
437.77	816.24
438.145	833.18
438.52	817.59
438.895	831.38
439.271	822.56
439.646	830.02
440.021	861.43
440.395	881.77
440.77	880.64
441.145	888.32
441.52	897.82
441.895	875.67
442.27	879.51
442.645	888.55
443.019	924.48
443.394	895.56
443.769	924.48
444.143	928.55
444.518	942.56
444.892	947.31
445.267	907.76
445.641	970.13
446.016	973.29
446.39	966.74
446.764	976.01
447.139	982.11
447.513	1006.97
447.887	1011.48
448.262	999.73
448.636	1019.85
449.01	1030.24
449.384	1011.94
449.758	1036.34
450.132	1049.68
450.506	1052.16
450.88	1066.17
451.254	1079.51
451.628	1100.52
452.002	1091.93
452.376	1086.28
452.75	1095.32
453.123	1097.81
453.497	1156.34
453.871	1112.5
454.244	1153.85
454.618	1130.8
454.992	1145.04
455.365	1147.07
455.739	1205.15
456.112	1188.2
456.486	1178.03
456.859	1222.55
457.232	1205.83
457.606	1200.63
457.979	1213.06
458.352	1264.36
458.725	1262.55
459.099	1254.42
459.472	1257.58
459.845	1300.06
460.218	1296
460.591	1319.5
460.964	1271.36
461.337	1335.32
461.71	1353.4
462.083	1371.02
462.456	1358.37
462.829	1370.35
463.201	1374.64
463.574	1379.16
463.947	1407.86
464.32	1433.62
464.692	1441.3
465.065	1454.41
465.438	1462.77
465.81	1485.37
466.183	1487.63
466.555	1545.26
466.928	1526.5
467.3	1523.56
467.672	1532.37
468.045	1549.55
468.417	1592.94
468.789	1564.46
469.161	1595.42
469.534	1644.01
469.906	1642.65
470.278	1672.26
470.65	1673.84
471.022	1698.02
471.394	1761.97
471.766	1757.45
472.138	1770.56
472.51	1801.07
472.882	1831.8
473.253	1831.12
473.625	1842.65
473.997	1894.63
474.369	1918.58
474.74	1957.9
475.112	1960.84
475.484	1975.98
475.855	2007.62
476.227	2005.13
476.598	2037.45
476.97	2120.83
477.341	2122.42
477.713	2162.87
478.084	2148.4
478.455	2243.32
478.827	2224.33
479.198	2286.93
479.569	2288.74
479.94	2328.74
480.311	2355.63
480.682	2421.62
481.053	2484.89
481.424	2497.32
481.795	2540.71
482.166	2568.73
482.537	2619.58
482.908	2650.54
483.279	2646.7
483.65	2719.69
484.021	2793.36
484.391	2781.16
484.762	2798.78
485.133	2865.45
485.503	2910.19
485.874	2934.6
486.244	2935.28
486.615	2979.79
486.985	3045.1
487.356	3113.58
487.726	3144.31
488.097	3166.68
488.467	3210.07
488.837	3249.39
489.207	3295.27
489.578	3310.18
489.948	3368.94
490.318	3417.75
490.688	3433.12
491.058	3513.34
491.428	3497.3
491.798	3550.63
492.168	3642.6
492.538	3653.22
492.908	3663.39
493.278	3744.07
493.648	3737.74
494.017	3801.47
494.387	3830.39
494.757	3892.99
495.126	3939.32
495.496	3947.9
495.866	3937.74
496.235	3951.29
496.605	4002.59
496.974	4064.96
497.344	4051.86
497.713	4089.37
498.082	4138.18
498.452	4174.11
498.821	4225.19
499.19	4250.27
499.559	4273.55
499.928	4259.08
500.298	4319.65
500.667	4365.29
501.036	4385.86
501.405	4399.87
501.774	4419.08
502.143	4483.48
502.512	4557.83
502.88	4510.15
503.249	4541.56
503.618	4592.63
503.987	4649.58
504.356	4673.31
504.724	4665.4
505.093	4721.22
505.462	4731.61
505.83	4753.08
506.199	4839.86
506.567	4851.38
506.936	4873.53
507.304	4935.22
507.672	4907.2
508.041	4988.1
508.409	5037.59
508.777	5032.85
509.145	5123.92
509.514	5129.34
509.882	5154.88
510.25	5167.08
510.618	5172.73
510.986	5232.39
511.354	5277.14
511.722	5358.26
512.09	5409.11
512.458	5437.13
512.826	5374.08
513.193	5451.14
513.561	5472.61
513.929	5522.78
514.297	5566.85
514.664	5634.87
515.032	5635.54
515.4	5700.4
515.767	5732.72
516.135	5773.39
516.502	5781.08
516.869	5824.69
517.237	5936.55
517.604	5852.71
517.972	5955.31
518.339	6045.48
518.706	6063.78
519.073	6058.13
519.44	6050
519.808	6157.56
520.175	6187.62
520.542	6225.58
520.909	6324.11
521.276	6316.43
521.643	6356.88
522.009	6405.47
522.376	6423.55
522.743	6519.81
523.11	6580.15
523.477	6663.31
523.843	6685.01
524.21	6745.35
524.577	6835.96
524.943	6854.49
525.31	6871.9
525.676	6910.99
526.043	6989.41
526.409	7008.39
526.776	7062.17
527.142	7145.11
527.508	7145.33
527.874	7240.47
528.241	7219.68
528.607	7315.95
528.973	7322.73
529.339	7427.81
529.705	7473.69
530.071	7486.12
530.437	7533.12
530.803	7559.11
531.169	7609.28
531.535	7600.69
531.901	7684.3
532.267	7702.38
532.632	7793.91
532.998	7825.99
533.364	7865.77
533.73	7872.1
534.095	8004.75
534.461	7974.69
534.826	7994.35
535.192	8078.87
535.557	8088.13
535.923	8107.8
536.288	8089.04
536.653	8222.59
537.019	8166.78
537.384	8234.35
537.749	8254.91
538.114	8325.64
538.479	8368.81
538.845	8318.64
539.21	8391.18
539.575	8417.84
539.94	8397.73
540.305	8422.59
540.67	8430.05
541.034	8488.8
541.399	8523.15
541.764	8609.7
542.129	8672.75
542.494	8622.81
542.858	8707.1
543.223	8753.88
543.587	8733.54
543.952	8758.85
544.316	8736.48
544.681	8797.49
545.045	8873.88
545.41	8947.55
545.774	8896.02
546.138	8886.08
546.503	8935.34
546.867	8916.59
547.231	9073.87
547.595	9060.09
547.959	9118.62
548.324	9084.04
548.688	9056.7
549.052	9229.57
549.416	9220.99
549.779	9217.82
550.143	9260.08
550.507	9367.88
550.871	9326.75
551.235	9380.53
551.599	9371.72
551.962	9447.42
552.326	9445.61
552.689	9528.77
553.053	9541.43
553.417	9503.69
553.78	9699.84
554.143	9670.01
554.507	9671.37
554.87	9697.36
555.234	9828.88
555.597	9796.56
555.96	9777.58
556.323	9820.74
556.686	9856.9
557.05	10026.39
557.413	10017.58
557.776	10039.04
558.139	10105.03
558.502	10140.51
558.865	10088.53
559.228	10201.75
559.59	10207.63
559.953	10237.23
560.316	10313.61
560.679	10406.04
561.041	10425.25
561.404	10482.42
561.767	10558.8
562.129	10425.47
562.492	10672.93
562.854	10683.55
563.217	10658.24
563.579	10700.04
563.941	10712.92
564.304	10766.93
564.666	10926.7
565.028	10871.11
565.39	10911.34
565.753	10988.85
566.115	10997.44
566.477	11130.77
566.839	11200.14
567.201	11203.99
567.563	11294.15
567.925	11378.44
568.287	11297.32
568.648	11337.77
569.01	11353.13
569.372	11489.85
569.734	11495.95
570.095	11479.01
570.457	11558.55
570.819	11589.51
571.18	11608.04
571.542	11691.2
571.903	11670.87
572.265	11741.6
572.626	11822.05
572.987	11698.44
573.349	11794.03
573.71	11882.16
574.071	11908.83
574.432	11903.4
574.794	12020.91
575.155	12015.26
575.516	11941.37
575.877	12079.22
576.238	12075.15
576.599	12177.29
576.96	12267.46
577.32	12147.69
577.681	12129.61
578.042	12256.84
578.403	12217.74
578.763	12224.07
579.124	12223.39
579.485	12278.53
579.845	12319.89
580.206	12325.99
580.566	12332.77
580.927	12438.3
581.287	12523.27
581.648	12380
582.008	12408.25
582.368	12324.86
582.728	12446.44
583.089	12420.45
583.449	12376.38
583.809	12414.35
584.169	12375.71
584.529	12419.32
584.889	12536.15
585.249	12487.34
585.609	12448.92
585.969	12490.5
586.329	12540.45
586.688	12530.96
587.048	12578.86
587.408	12564.63
587.768	12511.52
588.127	12436.04
588.487	12446.89
588.846	12510.62
589.206	12392.43
589.565	12510.84
589.925	12574.57
590.284	12535.93
590.643	12566.21
591.003	12645.3
591.362	12660.22
591.721	12562.59
592.08	12598.75
592.44	12641.24
592.799	12517.17
593.158	12529.15
593.517	12558.75
593.876	12558.07
594.235	12493.22
594.593	12530.73
594.952	12647.34
595.311	12531.18
595.67	12624.96
596.029	12718.52
596.387	12815.47
596.746	12758.75
597.104	12638.3
597.463	12681.23
597.822	12720.1
598.18	12638.3
598.538	12624.74
598.897	12682.59
599.255	12671.07
599.613	12715.81
599.972	12695.47
600.33	12714.91
600.688	12723.27
601.046	12722.14
601.404	12880.55
601.762	12875.13
602.12	12866.09
602.478	12892.08
602.836	12832.64
603.194	12850.95
603.552	12835.81
603.91	12767.56
604.268	12814.34
604.625	12809.37
604.983	12825.41
605.341	12756.03
605.698	12917.61
606.056	12939.08
606.413	13022.24
606.771	13011.85
607.128	13039.19
607.485	12950.15
607.843	12914
608.2	13021.34
608.557	13081.22
608.914	13019.98
609.272	13007.1
609.629	12979.31
609.986	13100.66
610.343	12961.9
610.7	13081.45
611.057	13083.94
611.414	13004.84
611.771	13273.99
612.127	13146.98
612.484	13131.39
612.841	13219.3
613.198	13137.49
613.554	13202.8
613.911	13206.42
614.267	13248.68
614.624	13266.98
614.98	13191.96
615.337	13271.95
615.693	13153.54
616.05	13274.67
616.406	13293.87
616.762	13292.29
617.118	13192.86
617.475	13370.93
617.831	13326.19
618.187	13297.04
618.543	13341.33
618.899	13429.92
619.255	13301.11
619.611	13311.95
619.967	13425.17
620.323	13386.53
620.678	13335
621.034	13410.03
621.39	13378.39
621.746	13379.97
622.101	13532.51
622.457	13346.3
622.812	13412.74
623.168	13440.08
623.523	13469.24
623.879	13495.9
624.234	13376.81
624.589	13383.81
624.945	13428.11
625.3	13426.98
625.655	13434.89
626.01	13427.43
626.365	13349.69
626.72	13390.37
627.075	13398.28
627.43	13403.25
627.785	13379.07
628.14	13406.41
628.495	13394.21
628.85	13387.66
629.205	13372.97
629.559	13367.77
629.914	13358.5
630.269	13349.01
630.623	13256.13
630.978	13291.84
631.332	13320.09
631.687	13379.3
632.041	13296.59
632.396	13279.41
632.75	13218.4
633.104	13171.84
633.459	13161
633.813	13235.8
634.167	13210.71
634.521	13200.99
634.875	13174.78
635.229	13146.31
635.583	13081.9
635.937	13200.32
636.291	13082.35
636.645	13078.29
636.999	13011.4
637.352	13041
637.706	12919.87
638.06	13090.04
638.413	12986.99
638.767	13041.45
639.121	13016.82
639.474	12920.78
639.828	12897.27
640.181	12932.3
640.534	12929.14
640.888	13001
641.241	12879.42
641.594	12873.77
641.947	12914.67
642.301	12880.1
642.654	12882.13
643.007	12871.96
643.36	12862.47
643.713	12834
644.066	12797.39
644.419	12798.07
644.771	12704.96
645.124	12535.25
645.477	12656.83
645.83	12527.79
646.182	12498.19
646.535	12419.77
646.888	12361.02
647.24	12318.76
647.593	12332.09
647.945	12326.22
648.298	12247.8
648.65	12231.98
649.002	12194.69
649.355	12217.52
649.707	12280.11
650.059	12319.21
650.411	12464.29
650.763	12421.81
651.115	12525.53
651.467	12443.5
651.819	12610.5
652.171	12485.99
652.523	12396.95
652.875	12451.86
653.227	12355.82
653.578	12476.72
653.93	12422.48
654.282	12419.09
654.633	12318.53
654.985	12420.22
655.337	12427
655.688	12255.26
656.039	12375.48
656.391	12323.73
656.742	12300.91
657.094	12340.23
657.445	12373.9
657.796	12356.27
658.147	12257.97
658.498	12217.97
658.849	12243.73
659.2	12255.26
659.551	12219.78
659.902	12335.93
660.253	12277.4
660.604	12293.22
660.955	12235.82
661.306	12338.19
661.656	12193.34
662.007	12291.87
662.358	12188.37
662.708	12228.59
663.059	12176.84
663.409	12090.29
663.76	12191.53
664.11	12185.88
664.461	12224.98
664.811	12183.39
665.161	12156.28
665.511	12098.2
665.862	12162.6
666.212	12200.57
666.562	12160.34
666.912	12111.08
667.262	12159.44
667.612	12110.18
667.962	12203.73
668.312	12145.66
668.662	12167.35
669.011	12133.9
669.361	12145.43
669.711	12044.19
670.06	12011.87
670.41	12028.37
670.76	12034.02
671.109	12138.65
671.459	12055.04
671.808	11997.18
672.157	12049.61
672.507	11945.21
672.856	11959.45
673.205	12004.64
673.554	12012.1
673.904	11961.93
674.253	12029.95
674.602	12054.58
674.951	11818.66
675.3	11797.87
675.649	11959.22
675.998	11941.82
676.346	11902.05
676.695	11993.79
677.044	11847.81
677.393	11936.85
677.741	11929.39
678.09	11842.61
678.438	11789.51
678.787	11835.15
679.135	11881.93
679.484	11721.26
679.832	11895.49
680.181	11711.99
680.529	11791.77
680.877	11808.04
681.225	11783.86
681.573	11847.81
681.922	11690.3
682.27	11720.13
682.618	11758.09
682.966	11705.44
683.314	11659.57
683.661	11631.77
684.009	11582.51
684.357	11545.9
684.705	11559.68
685.053	11519.01
685.4	11502.51
685.748	11521.94
686.095	11472.9
686.443	11427.93
686.79	11393.81
687.138	11400.14
687.485	11447.37
687.832	11424.09
688.18	11363.08
688.527	11294.15
688.874	11335.51
689.221	11360.82
689.568	11313.59
689.915	11246.02
690.262	11220.48
690.609	11182.06
690.956	11114.04
691.303	11073.59
691.65	11062.97
691.997	11063.2
692.344	10984.56
692.69	10900.04
693.037	11005.57
693.383	10928.51
693.73	10927.83
694.077	10874.5
694.423	10947.04
694.769	10856.42
695.116	10828.4
695.462	10888.51
695.808	10832.92
696.155	10793.15
696.501	10769.19
696.847	10712.25
697.193	10660.72
697.539	10629.08
697.885	10628.41
698.231	10582.98
698.577	10621.85
698.923	10534.17
699.269	10473.38
699.614	10405.59
699.96	10415.76
700.306	10414.63
700.651	10344.57
700.997	10340.73
701.342	10387.51
701.688	10382.76
702.033	10360.62
702.379	10310
702.724	10211.92
703.069	10356.32
703.415	10131.92
703.76	10229.1
704.105	10169.89
704.45	10163.56
704.795	10042.89
705.14	10088.99
705.485	10028.65
705.83	9964.24
706.175	9973.73
706.52	10008.31
706.865	9949.55
707.209	9990.23
707.554	9945.26
707.899	9966.96
708.243	9922.21
708.588	9903.23
708.932	9837.69
709.277	9837.92
709.621	9838.6
709.966	9791.37
710.31	9772.61
710.654	9761.54
710.998	9747.75
711.342	9647.87
711.687	9584.82
712.031	9576.46
712.375	9482.9
712.719	9534.42
713.063	9561.32
713.407	9541.66
713.75	9546.18
714.094	9491.04
714.438	9457.36
714.782	9523.35
715.125	9439.74
715.469	9454.65
715.812	9453.75
716.156	9394.77
716.499	9397.48
716.843	9390.02
717.186	9412.39
717.53	9449.68
717.873	9399.96
718.216	9329.46
718.559	9265.73
718.902	9172.85
719.246	9242
719.589	9202.68
719.932	9155.68
720.275	9165.39
720.617	9142.8
720.96	9200.42
721.303	9099.63
721.646	9146.86
721.989	9049.24
722.331	9122.91
722.674	9108.45
723.016	9089.24
723.359	9088.79
723.701	9132.85
724.044	9038.84
724.386	8948.68
724.729	9061.67
725.071	9000.88
725.413	9011.95
725.755	9043.36
726.097	8948.23
726.439	8947.55
726.782	8861.22
727.124	8917.27
727.465	8841.11
727.807	8853.09
728.149	8821.9
728.491	8786.87
728.833	8777.16
729.175	8785.07
729.516	8737.38
729.858	8762.69
730.199	8759.76
730.541	8761.79
730.882	8755.01
731.224	8825.74
731.565	8698.06
731.906	8738.06
732.248	8745.07
732.589	8687.89
732.93	8719.08
733.271	8728.34
733.612	8642.47
733.953	8671.4
734.294	8657.16
734.635	8621.23
734.976	8615.8
735.317	8576.71
735.658	8551.85
735.999	8568.57
736.339	8492.64
736.68	8538.07
737.021	8469.37
737.361	8413.55
737.702	8516.6
738.042	8428.46
738.383	8451.97
738.723	8500.78
739.063	8399.54
739.404	8449.48
739.744	8440.89
740.084	8449.03
740.424	8424.85
740.764	8398.18
741.104	8416.94
741.444	8345.53
741.784	8389.82
742.124	8429.37
742.464	8292.88
742.804	8338.98
743.143	8227.11
743.483	8265.08
743.823	8240
744.162	8216.72
744.502	8208.13
744.841	8178.08
745.181	8194.57
745.52	8172.43
745.86	8205.65
746.199	8183.05
746.538	8193.44
746.877	8120.9
747.216	8201.35
747.556	8190.5
747.895	8217.62
748.234	8105.54
748.573	8155.93
748.911	8073.9
749.25	8142.14
749.589	8058.53
749.928	8117.74
750.267	8084.75
750.605	8079.77
750.944	8000.68
751.283	7977.86
751.621	7960.68
751.96	7895.15
752.298	7856.73
752.636	7901.02
752.975	7910.96
753.313	7866.22
753.651	7895.82
753.989	7804.53
754.327	7829.84
754.666	7767.47
755.004	7839.78
755.342	7920.46
755.679	7833.23
756.017	7744.42
756.355	7774.47
756.693	7799.33
757.031	7773.79
757.368	7777.63
757.706	7703.51
758.044	7625.32
758.381	7718.88
758.719	7672.1
759.056	7655.83
759.394	7574.48
759.731	7583.29
760.068	7546.68
760.405	7480.24
760.743	7459
761.08	7522.05
761.417	7384.65
761.754	7488.15
762.091	7328.83
762.428	7354.59
762.765	7396.85
763.102	7389.17
763.438	7311.21
763.775	7341.49
764.112	7367.7
764.449	7367.7
764.785	7313.01
765.122	7226.69
765.458	7197.08
765.795	7228.04
766.131	7229.17
766.467	7169.51
766.804	7127.48
767.14	7130.65
767.476	7068.27
767.812	7087.71
768.148	6993.93
768.485	6951.22
768.821	7046.13
769.157	7002.74
769.492	7014.49
769.828	6905.12
770.164	6885.45
770.5	6847.72
770.836	6875.96
771.171	6811.11
771.507	6830.54
771.842	6779.24
772.178	6736.31
772.513	6709.19
772.849	6750.99
773.184	6753.03
773.519	6745.12
773.855	6666.25
774.19	6626.25
774.525	6641.39
774.86	6605.69
775.195	6657.66
775.53	6603.65
775.865	6541.96
776.2	6490.89
776.535	6484.79
776.87	6481.85
777.205	6431.23
777.539	6379.93
777.874	6428.97
778.209	6293.61
778.543	6336.09
778.878	6323.66
779.212	6302.87
779.547	6298.13
779.881	6280.05
780.215	6232.14
780.55	6236.88
780.884	6209.99
781.218	6181.97
781.552	6193.27
781.886	6129.09
782.22	6098.13
782.554	6083.89
782.888	6057.23
783.222	6007.74
783.556	6001.86
783.889	6033.5
784.223	5960.28
784.557	5965.25
784.89	5981.98
785.224	5923.22
785.557	5907.18
785.891	5926.38
786.224	5904.24
786.558	5907.63
786.891	5884.35
787.224	5856.1
787.557	5846.61
787.891	5821.75
788.224	5747.86
788.557	5721.64
788.89	5735.43
789.223	5712.6
789.556	5689.33
789.888	5643
790.221	5596.45
790.554	5616.79
790.887	5621.98
791.219	5532.95
791.552	5582.89
791.884	5558.48
792.217	5515.1
792.549	5563
792.882	5467.41
793.214	5468.09
793.546	5461.76
793.879	5399.39
794.211	5436.45
794.543	5422.22
794.875	5381.77
795.207	5398.71
795.539	5381.99
795.871	5334.08
796.203	5370.92
796.535	5348.77
796.867	5300.64
797.198	5315.55
797.53	5247.98
797.862	5273.97
798.193	5280.3
798.525	5222
798.856	5212.73
799.188	5151.04
799.519	5113.98
799.85	5091.6
800.182	5122.56
800.513	5092.51
800.844	5057.25
801.175	5049.8
801.506	5059.51
801.837	5073.3
802.168	5087.54
802.499	5037.59
802.83	5019.74
803.161	5010.48
803.491	5003.7
803.822	5024.03
804.153	4998.95
804.483	4983.36
804.814	4947.43
805.145	4939.74
805.475	4942
805.805	4954.43
806.136	4928.67
806.466	4932.06
806.796	4912.63
807.126	4874.66
807.457	4859.75
807.787	4857.71
808.117	4795.11
808.447	4790.59
808.777	4786.98
809.107	4785.4
809.436	4775.91
809.766	4745.62
810.096	4721.22
810.426	4680.99
810.755	4710.6
811.085	4702.24
811.414	4723.93
811.744	4689.35
812.073	4695
812.403	4659.98
812.732	4649.81
813.061	4635.34
813.39	4585.18
813.719	4618.4
814.049	4628.56
814.378	4625.4
814.707	4636.47
815.036	4590.6
815.365	4555.57
815.693	4539.75
816.022	4536.36
816.351	4561.67
816.68	4511.05
817.008	4503.82
817.337	4465.63
817.665	4491.39
817.994	4464.95
818.322	4458.85
818.651	4411.85
818.979	4428.12
819.307	4450.26
819.636	4369.14
819.964	4427.44
820.292	4386.54
820.62	4401.68
820.948	4405.75
821.276	4411.4
821.604	4438.97
821.932	4386.54
822.259	4402.81
822.587	4376.82
822.915	4406.42
823.243	4383.83
823.57	4376.37
823.898	4401.68
824.225	4403.71
824.553	4412.53
824.88	4394.45
825.207	4424.05
825.535	4416.82
825.862	4390.15
826.189	4385.41
826.516	4415.91
826.843	4401.68
827.17	4424.28
827.497	4395.12
827.824	4373.88
828.151	4391.06
828.478	4377.5
828.805	4376.37
829.131	4389.93
829.458	4363.94
829.785	4285.97
830.111	4382.47
830.438	4368.46
830.764	4321.91
831.09	4386.31
831.417	4349.93
831.743	4373.88
832.069	4397.38
832.395	4324.62
832.722	4380.89
833.048	4363.71
833.374	4370.04
833.7	4316.48
834.026	4354.22
834.351	4334.11
834.677	4399.19
835.003	4374.56
835.329	4355.58
835.654	4334.56
835.98	4316.26
836.306	4325.75
836.631	4303.38
836.956	4317.84
837.282	4310.38
837.607	4290.72
837.932	4267.44
838.258	4295.01
838.583	4260.89
838.908	4190.38
839.233	4213.21
839.558	4267.67
839.883	4225.86
840.208	4216.82
840.533	4193.77
840.858	4215.02
841.182	4165.98
841.507	4189.25
841.832	4199.42
842.156	4200.78
842.481	4196.03
842.805	4169.14
843.13	4173.66
843.454	4181.34
843.778	4168.69
844.103	4129.59
844.427	4131.18
844.751	4162.36
845.075	4079.43
845.399	4114.91
845.723	4119.88
846.047	4122.36
846.371	4061.12
846.695	4087.79
847.019	4059.09
847.343	4002.82
847.666	3966.44
847.99	3972.08
848.313	3961.92
848.637	3921.92
848.96	3928.02
849.284	3927.34
849.607	3875.36
849.931	3872.65
850.254	3849.6
850.577	3855.25
850.9	3811.64
851.223	3817.74
851.546	3800.34
851.869	3748.81
852.192	3778.19
852.515	3769.6
852.838	3780
853.161	3790.39
853.483	3776.84
853.806	3718.98
854.129	3753.33
854.451	3742.94
854.774	3703.39
855.096	3699.78
855.419	3711.07
855.741	3629.72
856.063	3659.55
856.385	3704.3
856.708	3641.7
857.03	3579.1
857.352	3624.07
857.674	3634.24
857.996	3579.78
858.318	3563.73
858.64	3518.09
858.961	3541.81
859.283	3497.3
859.605	3479.89
859.926	3478.09
860.248	3493.45
860.57	3481.25
860.891	3485.77
861.212	3466.79
861.534	3456.39
861.855	3502.72
862.176	3492.32
862.498	3477.41
862.819	3490.29
863.14	3467.24
863.461	3466.34
863.782	3499.55
864.103	3498.88
864.424	3481.48
864.745	3492.78
865.065	3482.38
865.386	3464.3
865.707	3447.8
866.027	3447.35
866.348	3420.69
866.668	3405.55
866.989	3449.16
867.309	3438.09
867.63	3391.31
867.95	3384.98
868.27	3416.17
868.59	3362.38
868.91	3341.37
869.23	3341.37
869.55	3336.4
869.87	3367.58
870.19	3298.88
870.51	3368.48
870.83	3306.57
871.15	3279.67
871.469	3325.1
871.789	3304.53
872.109	3304.31
872.428	3246.23
872.748	3322.38
873.067	3337.75
873.386	3327.81
873.706	3338.2
874.025	3299.56
874.344	3284.42
874.663	3336.85
874.982	3335.72
875.301	3315.15
875.62	3312.67
875.939	3310.18
876.258	3283.06
876.577	3283.06
876.896	3240.35
877.214	3300.92
877.533	3216.85
877.852	3247.58
878.17	3248.71
878.489	3215.95
878.807	3246.45
879.125	3222.05
879.444	3212.56
879.762	3189.51
880.08	3210.07
880.398	3203.97
880.716	3131.43
881.034	3195.83
881.352	3151.32
881.67	3159
881.988	3169.39
882.306	3142.73
882.624	3136.17
882.941	3166.46
883.259	3147.7
883.577	3134.82
883.894	3156.97
884.212	3160.13
884.529	3141.6
884.846	3133.24
885.164	3124.88
885.481	3061.83
885.798	3128.49
886.115	3088.04
886.432	3112.22
886.75	3088.04
887.067	3097.76
887.383	3109.28
887.7	3099.11
888.017	3087.81
888.334	3070.64
888.651	3053.24
888.967	3069.74
889.284	3083.52
889.6	3024.99
889.917	3019.12
890.233	3030.19
890.55	2997.65
890.866	3013.47
891.182	3003.75
891.498	2983.64
891.815	2985.67
892.131	2993.13
892.447	2949.96
892.763	2908.38
893.079	2912.9
893.395	2907.93
893.71	2879.91
894.026	2905.67
894.342	2896.63
894.657	2916.52
894.973	2937.08
895.289	2875.84
895.604	2852.79
895.92	2865.22
896.235	2835.17
896.55	2854.15
896.865	2831.32
897.181	2800.14
897.496	2863.64
897.811	2829.29
898.126	2793.58
898.441	2795.62
898.756	2763.76
899.071	2827.93
899.386	2770.99
899.7	2748.61
900.015	2763.3
900.33	2751.78
900.644	2786.58
900.959	2748.61
901.273	2740.48
901.588	2757.65
901.902	2685.56
902.216	2682.18
902.531	2692.12
902.845	2665.9
903.159	2678.56
903.473	2718.33
903.787	2620.26
904.101	2634.04
904.415	2639.69
904.729	2612.8
905.042	2615.51
905.356	2601.95
905.67	2585.45
905.984	2573.7
906.297	2574.83
906.611	2578
906.924	2554.27
907.237	2543.2
907.551	2555.62
907.864	2588.84
908.177	2549.3
908.491	2545.23
908.804	2544.1
909.117	2506.81
909.43	2501.39
909.743	2540.03
910.056	2486.47
910.368	2496.42
910.681	2476.98
910.994	2492.12
911.307	2483.76
911.619	2462.75
911.932	2444.89
912.244	2452.35
912.557	2444.67
912.869	2400.83
913.181	2429.07
913.494	2413.03
913.806	2376.19
914.118	2380.71
914.43	2350.66
914.742	2370.09
915.054	2342.98
915.366	2339.59
915.678	2298
915.99	2315.18
916.302	2271.34
916.613	2307.04
916.925	2302.52
917.236	2249.64
917.548	2271.11
917.859	2286.03
918.171	2271.34
918.482	2274.28
918.794	2215.97
919.105	2220.04
919.416	2209.42
919.727	2240.38
920.038	2240.83
920.349	2197.67
920.66	2202.87
920.971	2219.36
921.282	2197.22
921.593	2182.98
921.903	2132.36
922.214	2163.54
922.525	2137.33
922.835	2128.29
923.146	2116.77
923.456	2150.21
923.767	2101.85
924.077	2127.16
924.387	2136.43
924.697	2102.53
925.008	2092.81
925.318	2095.07
925.628	2040.38
925.938	2070.44
926.248	2081.29
926.558	2052.59
926.867	2051.68
927.177	2068.41
927.487	2052.59
927.796	2015.3
928.106	2041.29
928.416	2026.83
928.725	2004.45
929.034	1993.61
929.344	2003.77
929.653	2009.65
929.962	1957.45
930.271	1975.53
930.581	1951.12
930.89	1959.48
931.199	1916.32
931.508	1903.21
931.817	1917
932.125	1929.88
932.434	1907.28
932.743	1900.5
933.051	1909.09
933.36	1869.09
933.669	1868.86
933.977	1856.66
934.286	1886.72
934.594	1865.25
934.902	1828.86
935.21	1849.65
935.519	1848.75
935.827	1879.71
936.135	1839.26
936.443	1819.6
936.751	1808.98
937.059	1829.09
937.367	1812.82
937.674	1844.01
937.982	1831.12
938.29	1814.4
938.597	1829.77
938.905	1795.87
939.213	1779.6
939.52	1757.23
939.827	1781.41
940.135	1782.09
940.442	1748.87
940.749	1765.59
941.056	1746.15
941.363	1738.02
941.67	1732.82
941.977	1700.96
942.284	1669.09
942.591	1720.62
942.898	1687.4
943.205	1663.67
943.511	1666.38
943.818	1674.52
944.125	1678.36
944.431	1665.93
944.738	1668.64
945.044	1651.47
945.35	1645.14
945.657	1644.46
945.963	1613.28
946.269	1627.97
946.575	1616.44
946.881	1622.54
947.187	1607.18
947.493	1605.14
947.799	1580.51
948.105	1586.16
948.41	1584.58
948.716	1583.45
949.022	1585.93
949.327	1595.2
949.633	1555.88
949.938	1602.43
950.244	1583.9
950.549	1573.28
950.854	1545.71
951.16	1540.51
951.465	1560.85
951.77	1538.02
952.075	1525.6
952.38	1552.49
952.685	1494.64
952.99	1512.04
953.294	1500.74
953.599	1481.98
953.904	1515.2
954.209	1496.22
954.513	1451.02
954.818	1488.76
955.122	1472.94
955.426	1473.85
955.731	1462.55
956.035	1466.16
956.339	1460.96
956.643	1428.65
956.948	1455.54
957.252	1434.52
957.556	1433.62
957.86	1420.74
958.163	1415.99
958.467	1406.28
958.771	1438.37
959.075	1426.84
959.378	1396.33
959.682	1407.63
959.985	1389.78
960.289	1376.45
960.592	1392.27
960.896	1395.88
961.199	1385.71
961.502	1368.54
961.805	1345.94
962.108	1376.67
962.411	1359.27
962.714	1334.87
963.017	1359.05
963.32	1369.67
963.623	1321.08
963.926	1342.78
964.228	1356.11
964.531	1340.29
964.833	1326.28
965.136	1313.85
965.438	1343
965.741	1335.32
966.043	1321.31
966.345	1310.46
966.648	1305.94
966.95	1291.93
967.252	1287.86
967.554	1270.91
967.856	1277.24
968.158	1269.11
968.46	1266.85
968.761	1259.39
969.063	1251.93
969.365	1229.78
969.666	1251.25
969.968	1225.94
970.269	1244.7
970.571	1226.39
970.872	1210.12
971.174	1254.19
971.475	1236.56
971.776	1233.85
972.077	1189.79
972.378	1211.93
972.679	1232.95
972.98	1210.12
973.281	1204.25
973.582	1209.67
973.883	1172.16
974.183	1179.62
974.484	1197.24
974.785	1168.32
975.085	1187.98
975.386	1179.62
975.686	1150.01
975.986	1160.86
976.287	1179.39
976.587	1147.53
976.887	1136
977.187	1146.4
977.487	1177.13
977.787	1155.44
978.087	1152.05
978.387	1151.14
978.687	1139.39
978.987	1122.22
979.286	1129.22
979.586	1143.23
979.885	1091.71
980.185	1097.81
980.484	1111.6
980.784	1079.73
981.083	1098.26
981.382	1053.52
981.682	1108.21
981.981	1071.82
982.28	1054.42
982.579	1095.32
982.878	1087.41
983.177	1079.28
983.475	1064.59
983.774	1109.79
984.073	1037.25
984.372	1055.1
984.67	1049
984.969	1061.2
985.267	1036.79
985.566	1052.84
985.864	1023.69
986.162	1036.79
986.461	1019.17
986.759	1011.03
987.057	1003.12
987.355	1036.79
987.653	1005.38
987.951	1001.99
988.249	1007.64
988.547	1000.19
988.844	1020.75
989.142	998.83
989.44	997.93
989.737	990.92
990.035	995.44
990.332	976.68
990.63	950.7
990.927	978.27
991.224	970.36
991.521	987.3
991.819	956.34
992.116	978.04
992.413	952.05
992.71	959.73
993.006	948.66
993.303	967.42
993.6	938.27
993.897	966.51
994.193	963.12
994.49	918.83
994.787	936.46
995.083	926.52
995.379	937.36
995.676	944.59
995.972	911.37
996.268	918.61
996.565	912.96
996.861	910.92
997.157	907.31
997.453	902.79
997.749	896.46
998.044	889.68
998.34	902.11
998.636	877.48
998.932	891.94
999.227	878.15
999.523	883.35
999.818	890.13
1000.114	877.25
1000.409	862.79
1000.704	886.29
1001	873.41
1001.295	882.22
1001.59	872.96
1001.885	845.84
1002.18	874.31
1002.475	854.65
1002.77	833.41
1003.065	847.65
1003.359	822.79
1003.654	834.09
1003.949	851.04
1004.243	829.57
1004.538	828.21
1004.832	809.91
1005.127	824.14
1005.421	816.91
1005.715	801.55
1006.009	788.44
1006.304	802.9
1006.598	802
1006.892	803.58
1007.186	782.34
1007.48	798.16
1007.773	795.22
1008.067	794.54
1008.361	789.8
1008.655	794.99
1008.948	796.35
1009.242	759.74
1009.535	771.27
1009.829	786.41
1010.122	754.32
1010.415	788.21
1010.708	769.91
1011.001	740.08
1011.295	753.64
1011.588	747.31
1011.881	749.12
1012.173	739.85
1012.466	751.83
1012.759	756.8
1013.052	741.89
1013.344	754.32
1013.637	741.66
1013.93	732.17
1014.222	717.26
1014.514	716.58
1014.807	741.21
1015.099	724.03
1015.391	734.66
1015.683	696.92
1015.976	709.57
1016.268	702.57
1016.56	701.66
1016.851	727.2
1017.143	697.37
1017.435	699.18
1017.727	683.36
1018.018	706.18
1018.31	679.06
1018.602	682.45
1018.893	675.9
1019.185	691.27
1019.476	661.21
1019.767	698.72
1020.058	667.09
1020.35	657.6
1020.641	650.14
1020.932	642.68
1021.223	663.7
1021.514	650.14
1021.804	646.52
1022.095	654.66
1022.386	654.66
1022.677	643.81
1022.967	646.75
1023.258	646.07
1023.548	634.09
1023.839	635
1024.129	646.97
1024.419	637.26
1024.709	633.19
1025	620.31
1025.29	618.5
1025.58	629.8
1025.87	609.46
1026.16	622.34
1026.449	582.57
1026.739	606.75
1027.029	602.46
1027.319	610.37
1027.608	597.48
1027.898	611.27
1028.187	587.99
1028.477	577.82
1028.766	610.82
1029.055	586.86
1029.344	599.29
1029.634	566.98
1029.923	596.58
1030.212	595
1030.501	553.42
1030.79	599.52
1031.078	579.18
1031.367	583.7
1031.656	557.26
1031.945	553.19
1032.233	572.4
1032.522	588.9
1032.81	547.77
1033.099	551.16
1033.387	553.87
1033.675	537.82
1033.963	539.18
1034.251	546.41
1034.54	547.77
1034.828	538.73
1035.116	550.25
1035.403	554.1
1035.691	537.37
1035.979	522.68
1036.267	555
1036.554	544.15
1036.842	543.47
1037.129	555.45
1037.417	530.37
1037.704	509.58
1037.992	536.47
1038.279	541.44
1038.566	530.37
1038.853	530.37
1039.14	530.37
