Data from foam1_polythene_foam_FLMS001491_00029.txt Node
Date: Wed Feb 08 10:54:37 GMT 2017
User: dcchb
Spectrometer: FLMS00149
Trigger mode: 0
Integration Time (sec): 2.000000E-2
Scans to average: 10
Electric dark correction enabled: true
Nonlinearity correction enabled: false
Boxcar width: 0
XAxis mode: Wavelengths
Number of Pixels in Spectrum: 2048
>>>>>Begin Spectral Data<<<<<
341.393	-1.55
341.776	-1.55
342.16	-1.55
342.543	-56.47
342.927	-62.57
343.31	-76.81
343.693	-54.66
344.077	-58.73
344.46	-51.72
344.843	-58.95
345.226	-39.97
345.61	-8.79
345.993	-38.84
346.376	9.29
346.759	-4.94
347.142	40.25
347.525	33.25
347.908	66.92
348.291	70.53
348.674	69.63
349.057	103.53
349.44	127.93
349.823	119.12
350.206	141.49
350.588	191.44
350.971	207.48
351.354	223.75
351.737	239.8
352.119	234.37
352.502	230.98
352.884	253.13
353.267	288.83
353.65	267.14
354.032	294.94
354.414	268.5
354.797	305.78
355.179	275.28
355.562	309.4
355.944	294.03
356.326	285.9
356.709	299.91
357.091	318.66
357.473	307.14
357.855	306.23
358.238	315.95
358.62	305.78
359.002	316.4
359.384	318.66
359.766	340.58
360.148	291.77
360.53	319.57
360.912	318.44
361.294	298.78
361.676	309.17
362.057	300.36
362.439	293.35
362.821	309.4
363.203	315.5
363.584	310.98
363.966	323.18
364.348	303.98
364.729	309.62
365.111	304.43
365.493	289.29
365.874	306.23
366.256	286.35
366.637	295.39
367.019	292.22
367.4	292
367.781	303.52
368.163	284.99
368.544	300.59
368.925	293.58
369.306	303.52
369.688	312.34
370.069	312.56
370.45	313.47
370.831	313.92
371.212	296.52
371.593	300.59
371.974	280.47
372.355	289.29
372.736	288.38
373.117	304.88
373.498	297.87
373.879	295.61
374.26	315.95
374.641	292.68
375.021	335.39
375.402	293.13
375.783	282.96
376.163	306.23
376.544	314.82
376.925	308.95
377.305	316.63
377.686	343.75
378.066	318.44
378.447	326.12
378.827	308.49
379.208	324.54
379.588	288.38
379.968	313.69
380.349	313.01
380.729	308.49
381.109	319.34
381.489	323.86
381.87	312.56
382.25	302.62
382.63	327.25
383.01	322.73
383.39	319.79
383.77	320.02
384.15	329.06
384.53	329.51
384.91	339.23
385.29	333.13
385.67	328.38
386.049	339.23
386.429	344.2
386.809	325.22
387.189	329.29
387.568	337.19
387.948	340.36
388.328	329.96
388.707	344.43
389.087	332.67
389.466	342.62
389.846	361.83
390.225	345.56
390.605	346.46
390.984	351.66
391.363	333.58
391.743	324.31
392.122	335.61
392.501	358.66
392.881	358.44
393.26	346.23
393.639	387.59
394.018	352.11
394.397	366.8
394.776	368.38
395.155	340.58
395.534	355.95
395.913	350.75
396.292	356.63
396.671	364.31
397.05	376.29
397.429	376.29
397.808	379.91
398.186	375.16
398.565	370.64
398.944	381.49
399.323	376.52
399.701	353.01
400.08	382.17
400.458	373.35
400.837	393.24
401.215	392.33
401.594	386.46
401.972	386.68
402.351	411.99
402.729	384.65
403.107	383.75
403.486	415.84
403.864	422.39
404.242	395.72
404.62	419.9
404.999	396.4
405.377	415.84
405.755	414.93
406.133	408.15
406.511	426.23
406.889	396.4
407.267	409.51
407.645	405.67
408.023	419.68
408.401	434.37
408.779	434.14
409.156	424.65
409.534	422.62
409.912	440.47
410.29	442.5
410.667	418.55
411.045	420.13
411.422	457.42
411.8	441.6
412.178	447.93
412.555	442.95
412.933	452.67
413.31	453.8
413.687	468.72
414.065	481.6
414.442	474.37
414.819	471.65
415.197	499.68
415.574	480.24
415.951	497.19
416.328	502.61
416.705	479.34
417.082	490.18
417.46	483.86
417.837	485.67
418.214	493.8
418.591	502.61
418.967	486.12
419.344	507.36
419.721	491.54
420.098	489.28
420.475	517.98
420.852	492.44
421.228	532.44
421.605	512.78
421.982	529.51
422.358	545.32
422.735	513.01
423.111	518.43
423.488	528.6
423.864	538.09
424.241	534.25
424.617	548.26
424.994	539
425.37	573.12
425.746	566.79
426.123	586.91
426.499	563.4
426.875	562.27
427.251	575.61
427.627	555.72
428.003	562.27
428.379	570.18
428.756	586.68
429.132	572.89
429.507	604.76
429.883	595.27
430.259	601.82
430.635	598.88
431.011	631.88
431.387	625.1
431.763	645.21
432.138	648.6
432.514	668.26
432.89	659.9
433.265	647.92
433.641	660.58
434.016	650.18
434.392	667.81
434.767	674.36
435.143	681.82
435.518	694.93
435.894	677.75
436.269	700.8
436.644	707.13
437.02	719.56
437.395	729.5
437.77	750.74
438.145	742.38
438.52	724.3
438.895	756.39
439.271	736.51
439.646	760.23
440.021	789.16
440.395	784.41
440.77	757.97
441.145	774.7
441.52	792.78
441.895	802.94
442.27	819.89
442.645	794.36
443.019	825.77
443.394	824.64
443.769	830.51
444.143	813.57
444.518	844.98
444.892	844.07
445.267	841.59
445.641	871.42
446.016	841.59
446.39	889.5
446.764	882.72
447.139	884.98
447.513	876.62
447.887	898.99
448.262	887.24
448.636	907.8
449.01	884.3
449.384	940.34
449.758	949.61
450.132	936.05
450.506	928.14
450.88	934.69
451.254	922.94
451.628	949.61
452.002	958.87
452.376	967.01
452.75	982.83
453.123	980.12
453.497	980.12
453.871	1000.68
454.244	1019.66
454.618	1011.75
454.992	1037.52
455.365	1022.6
455.739	1028.25
456.112	1038.42
456.486	1062.37
456.859	1056.95
457.232	1063.05
457.606	1053.56
457.979	1089.72
458.352	1107.8
458.725	1089.94
459.099	1109.83
459.472	1122.03
459.845	1129.04
460.218	1143.95
460.591	1138.98
460.964	1139.43
461.337	1170.84
461.71	1178.53
462.083	1161.13
462.456	1204.97
462.829	1199.77
463.201	1222.59
463.574	1212.65
463.947	1202.71
464.32	1251.75
464.692	1270.73
465.065	1237.06
465.438	1268.7
465.81	1290.84
466.183	1269.6
466.555	1313.21
466.928	1335.13
467.3	1364.51
467.672	1327
468.045	1362.7
468.417	1367.68
468.789	1371.74
469.161	1389.6
469.534	1417.39
469.906	1433.66
470.278	1458.29
470.65	1453.1
471.022	1470.05
471.394	1488.12
471.766	1505.75
472.138	1511.85
472.51	1522.7
472.882	1557.5
473.253	1562.25
473.625	1607.22
473.997	1628.91
474.369	1605.64
474.74	1656.03
475.112	1640.44
475.484	1695.58
475.855	1720.21
476.227	1705.07
476.598	1762.02
476.97	1792.3
477.341	1811.51
477.713	1833.88
478.084	1831.17
478.455	1885.85
478.827	1904.84
479.198	1954.33
479.569	1970.37
479.94	1978.73
480.311	2019.41
480.682	2042.01
481.053	2068.22
481.424	2099.41
481.795	2088.33
482.166	2192.29
482.537	2158.39
482.908	2202.68
483.279	2233.64
483.65	2291.27
484.021	2326.52
484.391	2361.77
484.762	2364.94
485.133	2356.12
485.503	2411.26
485.874	2467.08
486.244	2458.04
486.615	2522
486.985	2520.87
487.356	2598.83
487.726	2573.29
488.097	2688.77
488.467	2661.43
488.837	2690.58
489.207	2746.85
489.578	2802.44
489.948	2801.31
490.318	2855.55
490.688	2818.94
491.058	2886.96
491.428	2966.28
491.798	2948.88
492.168	2994.53
492.538	3014.19
492.908	3060.96
493.278	3100.06
493.648	3081.08
494.017	3099.83
494.387	3143.9
494.757	3182.54
495.126	3227.29
495.496	3211.7
495.866	3243.33
496.235	3324.23
496.605	3337.79
496.974	3325.14
497.344	3378.47
497.713	3412.59
498.082	3391.8
498.452	3493.72
498.821	3478.35
499.19	3484.23
499.559	3521.97
499.928	3603.55
500.298	3598.35
500.667	3601.52
501.036	3606.94
501.405	3625.7
501.774	3697.78
502.143	3677.9
502.512	3709.54
502.88	3763.55
503.249	3752.47
503.618	3778.23
503.987	3825.46
504.356	3840.38
504.724	3876.31
505.093	3875.41
505.462	3884.9
505.83	3895.07
506.199	3928.06
506.567	3970.32
506.936	4046.02
507.304	4047.38
507.672	4051
508.041	4077.89
508.409	4122.86
508.777	4112.69
509.145	4192.01
509.514	4199.24
509.882	4206.7
510.25	4263.64
510.618	4257.54
510.986	4259.35
511.354	4301.61
511.722	4374.83
512.09	4393.81
512.458	4407.14
512.826	4428.16
513.193	4446.01
513.561	4510.64
513.929	4550.42
514.297	4544.09
514.664	4589.51
515.032	4638.32
515.4	4675.39
515.767	4695.05
516.135	4761.48
516.502	4720.58
516.869	4818.43
517.237	4774.59
517.604	4787.47
517.972	4925.32
518.339	4885.78
518.706	4882.84
519.073	4944.53
519.44	4917.19
519.808	5026.79
520.175	5051.65
520.542	5057.07
520.909	5132.32
521.276	5120.8
521.643	5210.96
522.009	5262.71
522.376	5285.54
522.743	5303.39
523.11	5391.07
523.477	5422.71
523.843	5427.68
524.21	5489.6
524.577	5528.24
524.943	5592.88
525.31	5534.57
525.676	5625.42
526.043	5676.26
526.409	5737.05
526.776	5721.23
527.142	5783.38
527.508	5847.56
527.874	5901.34
528.241	5888.91
528.607	5891.85
528.973	5938.4
529.339	5949.02
529.705	6020.21
530.071	6099.3
530.437	6090.72
530.803	6160.77
531.169	6158.74
531.535	6203.71
531.901	6153.31
532.267	6201.22
532.632	6268.34
532.998	6288.68
533.364	6340.2
533.73	6342.69
534.095	6392.18
534.461	6416.36
534.826	6435.34
535.192	6506.75
535.557	6524.15
535.923	6544.49
536.288	6557.14
536.653	6598.95
537.019	6610.7
537.384	6608.44
537.749	6651.83
538.114	6671.72
538.479	6634.88
538.845	6753.52
539.21	6747.42
539.575	6732.28
539.94	6806.63
540.305	6836.68
540.67	6827.65
541.034	6859.96
541.399	6934.08
541.764	6910.58
542.129	6894.54
542.494	6891.6
542.858	7019.28
543.223	7042.55
543.587	7057.02
543.952	7026.74
544.316	7112.16
544.681	7133.85
545.045	7140.18
545.41	7136.11
545.774	7221.31
546.138	7183.79
546.503	7177.24
546.867	7193.29
547.231	7270.35
547.595	7284.36
547.959	7359.38
548.324	7309.21
548.688	7299.05
549.052	7379.04
549.416	7362.09
549.779	7396.9
550.143	7419.49
550.507	7461.3
550.871	7501.3
551.235	7419.95
551.599	7598.25
551.962	7602.54
552.326	7612.71
552.689	7661.97
553.053	7638.47
553.417	7728.41
553.78	7751.24
554.143	7734.97
554.507	7722.09
554.87	7753.72
555.234	7865.13
555.597	7858.58
555.96	7905.81
556.323	7908.75
556.686	7956.43
557.05	8027.84
557.413	8073.71
557.776	8002.53
558.139	8120.49
558.502	8060.83
558.865	8089.99
559.228	8098.57
559.59	8217.89
559.953	8176.31
560.316	8230.77
560.679	8315.52
561.041	8367.72
561.404	8434.38
561.767	8440.03
562.129	8379.47
562.492	8520.26
562.854	8531.78
563.217	8472.35
563.579	8552.8
563.941	8622.17
564.304	8691.78
564.666	8684.55
565.028	8776.52
565.39	8756.63
565.753	8735.84
566.115	8848.84
566.477	8856.29
566.839	8843.19
567.201	8983.75
567.563	8985.55
567.925	9053.12
568.287	9078.66
568.648	9091.99
569.01	9151.43
569.372	9092.67
569.734	9169.05
570.095	9240.69
570.457	9206.34
570.819	9229.39
571.18	9224.64
571.542	9302.16
571.903	9341.93
572.265	9350.74
572.626	9362.95
572.987	9310.07
573.349	9476.39
573.71	9509.38
574.071	9511.42
574.432	9530.63
574.794	9621.02
575.155	9535.14
575.516	9526.33
575.877	9615.14
576.238	9608.14
576.599	9729.49
576.96	9703.28
577.32	9692.65
577.681	9708.25
578.042	9751.64
578.403	9690.17
578.763	9726.78
579.124	9745.76
579.485	9795.25
579.845	9788.02
580.206	9796.61
580.566	9804.97
580.927	9812.65
581.287	9857.17
581.648	9816.49
582.008	9870.96
582.368	9864.4
582.728	9887
583.089	9780.11
583.449	9857.85
583.809	9821.01
584.169	9865.53
584.529	9897.62
584.889	9898.75
585.249	9833.22
585.609	9830.5
585.969	9923.16
586.329	9878.64
586.688	9884.74
587.048	9931.74
587.408	9836.61
587.768	9837.06
588.127	9853.78
588.487	9880.9
588.846	9928.81
589.206	9891.07
589.565	9882.71
589.925	9915.47
590.284	9898.3
590.643	9898.3
591.003	9952.99
591.362	9921.12
591.721	9910.05
592.08	9947.11
592.44	9910.5
592.799	9945.3
593.158	9903.95
593.517	10015.58
593.876	9938.07
594.235	9936.49
594.593	9885.64
594.952	9980.56
595.311	9969.26
595.67	10011.97
596.029	9966.77
596.387	10016.26
596.746	9990.05
597.104	9978.07
597.463	9959.31
597.822	10010.16
598.18	9992.31
598.538	9980.33
598.897	10027.11
599.255	9974
599.613	10079.09
599.972	9964.29
600.33	10075.24
600.688	9967.9
601.046	10084.28
601.404	10092.42
601.762	10085.86
602.12	10089.03
602.478	10083.83
602.836	10082.7
603.194	10085.19
603.552	10061.23
603.91	9998.86
604.268	10102.59
604.625	10101.91
604.983	10099.42
605.341	10054.23
605.698	10076.6
606.056	10095.13
606.413	10082.93
606.771	10142.13
607.128	10237.05
607.485	10181.91
607.843	10108.46
608.2	10246.76
608.557	10232.3
608.914	10194.11
609.272	10212.42
609.629	10304.16
609.986	10320.66
610.343	10259.87
610.7	10315.01
611.057	10295.8
611.414	10296.93
611.771	10318.4
612.127	10357.72
612.484	10278.4
612.841	10412.86
613.198	10297.38
613.554	10394.11
613.911	10387.55
614.267	10403.37
614.624	10342.13
614.98	10331.28
615.337	10450.15
615.693	10430.94
616.05	10324.73
616.406	10400.66
616.762	10404.27
617.118	10429.36
617.475	10420.32
617.831	10483.59
618.187	10441.11
618.543	10407.66
618.899	10493.99
619.255	10520.2
619.611	10441.34
619.967	10483.14
620.323	10523.82
620.678	10506.19
621.034	10387.55
621.39	10448.34
621.746	10481.33
622.101	10525.4
622.457	10411.28
622.812	10483.37
623.168	10438.17
623.523	10515.46
623.879	10548.45
624.234	10427.78
624.589	10506.64
624.945	10473.43
625.3	10466.19
625.655	10492.41
626.01	10513.88
626.365	10475.01
626.72	10484.5
627.075	10431.62
627.43	10445.86
627.785	10436.59
628.14	10477.72
628.495	10440.43
628.85	10429.58
629.205	10393.65
629.559	10475.91
629.914	10415.8
630.269	10404.95
630.623	10395.24
630.978	10437.04
631.332	10407.89
631.687	10440.21
632.041	10339.87
632.396	10322.92
632.75	10258.06
633.104	10297.38
633.459	10221.23
633.813	10272.3
634.167	10255.13
634.521	10220.78
634.875	10256.26
635.229	10207.22
635.583	10164.96
635.937	10193.43
636.291	10168.57
636.645	10132.19
636.999	10162.25
637.352	10113.21
637.706	10132.64
638.06	10218.29
638.413	10172.42
638.767	10145.98
639.121	10161.12
639.474	9994.34
639.828	10075.02
640.181	10047
640.534	10046.09
640.888	10014.91
641.241	9978.75
641.594	10012.42
641.947	9955.02
642.301	9928.58
642.654	9977.17
643.007	10015.81
643.36	9976.26
643.713	9942.59
644.066	9964.96
644.419	9944.63
644.771	9837.74
645.124	9740.34
645.477	9722.48
645.83	9694.01
646.182	9690.39
646.535	9557.74
646.888	9607.01
647.24	9526.33
647.593	9569.72
647.945	9565.88
648.298	9440.23
648.65	9491.53
649.002	9419.67
649.355	9472.77
649.707	9518.42
650.059	9498.76
650.411	9680.9
650.763	9582.6
651.115	9782.37
651.467	9676.16
651.819	9689.27
652.171	9693.56
652.523	9590.51
652.875	9573.34
653.227	9596.16
653.578	9694.46
653.93	9651.3
654.282	9578.53
654.633	9518.42
654.985	9509.16
655.337	9640
655.688	9557.07
656.039	9601.13
656.391	9517.74
656.742	9528.82
657.094	9497.86
657.445	9499.89
657.796	9558.87
658.147	9552.32
658.498	9510.06
658.849	9503.06
659.2	9461.02
659.551	9448.59
659.902	9433
660.253	9484.07
660.604	9420.8
660.955	9375.15
661.306	9443.17
661.656	9417.18
662.007	9450.4
662.358	9418.99
662.708	9417.18
663.059	9368.14
663.409	9362.04
663.76	9347.58
664.11	9323.62
664.461	9357.07
664.811	9409.5
665.161	9368.37
665.511	9331.31
665.862	9339.44
666.212	9372.44
666.562	9351.65
666.912	9274.13
667.262	9313.91
667.612	9270.07
667.962	9360.01
668.312	9230.52
668.662	9360.46
669.011	9282.5
669.361	9259.67
669.711	9253.57
670.06	9206.11
670.41	9264.19
670.76	9229.84
671.109	9253.8
671.459	9248.37
671.808	9152.33
672.157	9249.28
672.507	9104.65
672.856	9094.7
673.205	9213.12
673.554	9186.91
673.904	9150.3
674.253	9186
674.602	9156.85
674.951	9022.16
675.3	8965.67
675.649	9091.54
675.998	9085.44
676.346	9161.6
676.695	9177.64
677.044	9084.99
677.393	9081.82
677.741	9173.35
678.09	9039.11
678.438	9066.91
678.787	9069.17
679.135	9093.35
679.484	9021.26
679.832	8996.18
680.181	9042.73
680.529	8986.01
680.877	9040.02
681.225	8966.35
681.573	8990.3
681.922	8912.11
682.27	8975.16
682.618	8943.97
682.966	8920.92
683.314	8928.16
683.661	8908.49
684.009	8895.16
684.357	8853.58
684.705	8802.73
685.053	8941.71
685.4	8855.84
685.748	8736.52
686.095	8809.97
686.443	8795.28
686.79	8744.88
687.138	8755.28
687.485	8689.97
687.832	8735.84
688.18	8734.04
688.527	8615.62
688.874	8640.48
689.221	8620.82
689.568	8597.54
689.915	8531.78
690.262	8551.22
690.609	8559.35
690.956	8491.78
691.303	8498.34
691.65	8452.46
691.997	8401.39
692.344	8382.41
692.69	8361.62
693.037	8342.18
693.383	8376.76
693.73	8341.05
694.077	8278.91
694.423	8227.16
694.769	8240.94
695.116	8212.47
695.462	8201.62
695.808	8165.46
696.155	8137.67
696.501	8149.64
696.847	8134.5
697.193	8118.91
697.539	8078.01
697.885	8040.27
698.231	8053.6
698.577	8019.7
698.923	8017.22
699.269	7955.53
699.614	7852.7
699.96	7882.76
700.306	7873.04
700.651	7911.91
700.997	7833.49
701.342	7875.53
701.688	7867.17
702.033	7765.47
702.379	7788.75
702.724	7818.35
703.069	7767.96
703.415	7691.35
703.76	7699.26
704.105	7657.45
704.45	7692.03
704.795	7647.74
705.14	7591.24
705.485	7597.57
705.83	7584.91
706.175	7583.33
706.52	7572.03
706.865	7563.45
707.209	7488.19
707.554	7491.81
707.899	7549.21
708.243	7461.3
708.588	7465.37
708.932	7381.08
709.277	7414.75
709.621	7377.91
709.966	7363.22
710.31	7391.25
710.654	7279.38
710.998	7334.98
711.342	7313.28
711.687	7297.01
712.031	7268.54
712.375	7196.9
712.719	7257.69
713.063	7287.75
713.407	7296.33
713.75	7199.39
714.094	7236.45
714.438	7203.91
714.782	7242.32
715.125	7176.34
715.469	7185.38
715.812	7139.28
716.156	7080.07
716.499	7091.59
716.843	7119.62
717.186	7081.88
717.53	7104.02
717.873	7087.98
718.216	7058.6
718.559	7034.87
718.902	6955.78
719.246	7001.2
719.589	6932.5
719.932	6948.09
720.275	7033.29
720.617	6976.12
720.96	6996.23
721.303	6952.84
721.646	6935.89
721.989	6938.15
722.331	6934.31
722.674	6866.06
723.016	6911.26
723.359	6846.63
723.701	6840.3
724.044	6853.18
724.386	6796.69
724.729	6865.61
725.071	6840.53
725.413	6788.32
725.755	6774.09
726.097	6725.95
726.439	6716.69
726.782	6730.47
727.124	6780.41
727.465	6722.79
727.807	6702.45
728.149	6679.63
728.491	6618.16
728.833	6664.94
729.175	6653.19
729.516	6655.22
729.858	6660.42
730.199	6629.91
730.541	6605.05
730.882	6625.62
731.224	6584.04
731.565	6546.75
731.906	6519.18
732.248	6542.91
732.589	6501.33
732.93	6475.79
733.271	6488.45
733.612	6507.43
733.953	6538.61
734.294	6529.57
734.635	6502.46
734.976	6502
735.317	6451.16
735.658	6466.07
735.999	6443.25
736.339	6396.47
736.68	6429.24
737.021	6343.14
737.361	6379.3
737.702	6415.23
738.042	6373.87
738.383	6441.21
738.723	6360.99
739.063	6363.48
739.404	6422.46
739.744	6350.82
740.084	6350.14
740.424	6333.2
740.764	6274.21
741.104	6337.94
741.444	6216.59
741.784	6250.49
742.124	6311.05
742.464	6250.49
742.804	6227.66
743.143	6195.57
743.483	6244.61
743.823	6203.48
744.162	6236.25
744.502	6189.7
744.841	6215.68
745.181	6211.16
745.52	6176.36
745.86	6179.53
746.199	6088.68
746.538	6129.36
746.877	6221.33
747.216	6189.24
747.556	6159.87
747.895	6183.37
748.234	6071.28
748.573	6104.05
748.911	6092.3
749.25	6066.31
749.589	6044.16
749.928	6041.68
750.267	6042.36
750.605	6071.73
750.944	6076.48
751.283	6055.01
751.621	5994.67
751.96	5979.98
752.298	5976.59
752.636	6022.02
752.975	5949.25
753.313	5949.48
753.651	5966.65
753.989	5897.95
754.327	5915.8
754.666	5878.74
755.004	5843.04
755.342	5860.89
755.679	5856.37
756.017	5858.86
756.355	5830.84
756.693	5788.58
757.031	5801.46
757.368	5755.13
757.706	5810.72
758.044	5737.5
758.381	5763.72
758.719	5734.34
759.056	5768.92
759.394	5746.77
759.731	5704.29
760.068	5682.14
760.405	5711.29
760.743	5626.77
761.08	5665.87
761.417	5582.25
761.754	5573.22
762.091	5582.25
762.428	5574.12
762.765	5537.06
763.102	5592.2
763.438	5514.69
763.775	5461.13
764.112	5470.39
764.449	5506.55
764.785	5471.97
765.122	5465.87
765.458	5443.5
765.795	5359.21
766.131	5391.75
766.467	5409.15
766.804	5351.3
767.14	5358.98
767.476	5352.88
767.812	5280.79
768.148	5255.03
768.485	5320.34
768.821	5237.86
769.157	5275.82
769.492	5267.91
769.828	5201.93
770.164	5167.58
770.5	5155.82
770.836	5174.13
771.171	5126.45
771.507	5111.76
771.842	5098.43
772.178	5104.3
772.513	5090.74
772.849	5061.59
773.184	5015.04
773.519	5036.51
773.855	5023.85
774.19	5021.82
774.525	4957.19
774.86	4955.38
775.195	5014.36
775.53	4940.24
775.865	4957.86
776.2	4937.53
776.535	4885.1
776.87	4879.67
777.205	4836.06
777.539	4816.17
777.874	4829.05
778.209	4765.1
778.543	4789.73
778.878	4766
779.212	4756.97
779.547	4693.01
779.881	4723.97
780.215	4667.93
780.55	4705.44
780.884	4707.02
781.218	4676.06
781.552	4668.61
781.886	4665.67
782.22	4554.94
782.554	4589.74
782.888	4533.24
783.222	4567.14
783.556	4532.11
783.889	4554.26
784.223	4466.13
784.557	4483.07
784.89	4531.43
785.224	4457.54
785.557	4469.29
785.891	4457.31
786.224	4467.71
786.558	4401.49
786.891	4398.33
787.224	4362.17
787.557	4414.15
787.891	4351.55
788.224	4346.58
788.557	4392
788.89	4333.02
789.223	4333.02
789.556	4295.73
789.888	4289.18
790.221	4311.55
790.554	4232.46
790.887	4222.29
791.219	4202.86
791.552	4222.74
791.884	4180.26
792.217	4198.34
792.549	4155.63
792.882	4110.65
793.214	4150.65
793.546	4142.74
793.879	4102.75
794.211	4096.19
794.543	4121.05
794.875	4050.32
795.207	4084.44
795.539	4062.29
795.871	4068.4
796.203	4057.55
796.535	4024.1
796.867	3990.21
797.198	3946.82
797.53	3967.38
797.862	3966.25
798.193	3955.4
798.525	3950.21
798.856	3988.62
799.188	3887.61
799.519	3872.69
799.85	3924.44
800.182	3874.95
800.513	3866.14
800.844	3879.7
801.175	3833.15
801.506	3815.52
801.837	3832.47
802.168	3824.33
802.499	3802.64
802.83	3776.43
803.161	3746.14
803.491	3724.68
803.822	3764.9
804.153	3712.25
804.483	3747.5
804.814	3684.9
805.145	3706.82
805.475	3695.98
805.805	3688.74
806.136	3665.47
806.466	3709.54
806.796	3698.01
807.126	3628.18
807.457	3694.62
807.787	3648.75
808.117	3620.05
808.447	3601.74
808.777	3629.54
809.107	3604
809.436	3614.4
809.766	3588.18
810.096	3521.52
810.426	3594.28
810.755	3585.92
811.085	3560.61
811.414	3542.31
811.744	3525.81
812.073	3486.26
812.403	3527.85
812.732	3500.73
813.061	3505.02
813.39	3491.01
813.719	3472.25
814.049	3495.08
814.378	3429.09
814.707	3472.71
815.036	3471.8
815.365	3453.27
815.693	3415.53
816.022	3419.15
816.351	3349.54
816.68	3402.65
817.008	3388.41
817.337	3406.49
817.665	3375.76
817.994	3387.74
818.322	3325.59
818.651	3342.99
818.979	3340.73
819.307	3374.85
819.636	3315.87
819.964	3340.51
820.292	3345.48
820.62	3338.7
820.948	3315.42
821.276	3320.84
821.604	3336.66
821.932	3319.94
822.259	3299.38
822.587	3321.07
822.915	3318.36
823.243	3345.93
823.57	3316.1
823.898	3340.51
824.225	3322.65
824.553	3295.08
824.88	3331.01
825.207	3327.85
825.535	3325.36
825.862	3308.42
826.189	3325.82
826.516	3361.52
826.843	3281.52
827.17	3305.25
827.497	3314.07
827.824	3320.62
828.151	3336.89
828.478	3333.73
828.805	3304.35
829.131	3272.94
829.458	3317.46
829.785	3301.18
830.111	3317
830.438	3322.65
830.764	3333.05
831.09	3333.5
831.417	3315.65
831.743	3337.79
832.069	3285.14
832.395	3307.06
832.722	3312.71
833.048	3308.64
833.374	3287.63
833.7	3249.89
834.026	3278.13
834.351	3263.22
834.677	3270.22
835.003	3261.86
835.329	3292.37
835.654	3263.67
835.98	3250.79
836.306	3248.76
836.631	3256.21
836.956	3280.17
837.282	3239.27
837.607	3248.3
837.932	3196.78
838.258	3235.65
838.583	3242.88
838.908	3194.52
839.233	3191.13
839.558	3211.02
839.883	3180.51
840.208	3197.91
840.533	3154.07
840.858	3158.14
841.182	3175.99
841.507	3164.46
841.832	3132.83
842.156	3125.6
842.481	3169.21
842.805	3127.18
843.13	3137.12
843.454	3110
843.778	3103.68
844.103	3114.75
844.427	3079.95
844.751	3100.51
845.075	3103.22
845.399	3089.89
845.723	3046.05
846.047	3074.07
846.371	3043.11
846.695	3028.2
847.019	3026.62
847.343	3019.84
847.666	2971.93
847.99	2956.33
848.313	2967.63
848.637	2942.1
848.96	2926.28
849.284	2920.18
849.607	2907.52
849.931	2921.53
850.254	2893.96
850.577	2889.67
850.9	2860.74
851.223	2863.68
851.546	2841.08
851.869	2846.73
852.192	2832.04
852.515	2816.45
852.838	2815.32
853.161	2777.36
853.483	2785.04
853.806	2761.99
854.129	2780.29
854.451	2761.99
854.774	2785.04
855.096	2719.5
855.419	2753.4
855.741	2727.41
856.063	2738.49
856.385	2722.44
856.708	2683.35
857.03	2713.18
857.352	2731.03
857.674	2686.96
857.996	2670.69
858.318	2667.75
858.64	2663.01
858.961	2669.56
859.283	2636.57
859.605	2621.88
859.926	2626.85
860.248	2637.92
860.57	2631.37
860.891	2618.94
861.212	2600.64
861.534	2627.08
861.855	2619.39
862.176	2590.24
862.498	2601.77
862.819	2571.71
863.14	2589.11
863.461	2567.19
863.782	2578.94
864.103	2585.5
864.424	2601.77
864.745	2589.11
865.065	2595.89
865.386	2530.81
865.707	2554.31
866.027	2606.51
866.348	2552.05
866.668	2557.48
866.989	2559.96
867.309	2509.57
867.63	2527.19
867.95	2545.5
868.27	2564.48
868.59	2522.9
868.91	2557.93
869.23	2524.48
869.55	2525.84
869.87	2553.18
870.19	2524.26
870.51	2537.81
870.83	2540.3
871.15	2505.05
871.469	2502.56
871.789	2484.48
872.109	2520.41
872.428	2504.6
872.748	2483.8
873.067	2482.22
873.386	2468.89
873.706	2507.31
874.025	2482.45
874.344	2491.04
874.663	2475.22
874.982	2462.56
875.301	2456.46
875.62	2464.14
875.939	2454.2
876.258	2456.46
876.577	2465.05
876.896	2446.52
877.214	2484.48
877.533	2441.55
877.852	2455.1
878.17	2435.22
878.489	2433.64
878.807	2440.64
879.125	2444.48
879.444	2454.65
879.762	2422.56
880.08	2435.22
880.398	2419.63
880.716	2430.92
881.034	2436.57
881.352	2397.03
881.67	2402.9
881.988	2379.85
882.306	2386.86
882.624	2381.43
882.941	2373.75
883.259	2392.51
883.577	2388.44
883.894	2381.66
884.212	2373.98
884.529	2362.23
884.846	2361.77
885.164	2360.87
885.481	2325.39
885.798	2357.25
886.115	2332.62
886.432	2315
886.75	2303.92
887.067	2313.64
887.383	2341.21
887.7	2324.94
888.017	2286.3
888.334	2293.53
888.651	2263.25
888.967	2284.71
889.284	2314.54
889.6	2240.87
889.917	2263.02
890.233	2289.69
890.55	2258.95
890.866	2259.4
891.182	2242
891.498	2241.1
891.815	2235.22
892.131	2241.55
892.447	2224.6
892.763	2229.35
893.079	2219.63
893.395	2188.67
893.71	2193.19
894.026	2231.61
894.342	2218.5
894.657	2174.43
894.973	2130.59
895.289	2198.39
895.604	2190.25
895.92	2163.14
896.235	2164.49
896.55	2148.22
896.865	2152.97
897.181	2166.52
897.496	2139.41
897.811	2121.78
898.126	2117.94
898.441	2090.82
898.756	2113.42
899.071	2084.27
899.386	2092.18
899.7	2054.89
900.015	2057.83
900.33	2055.57
900.644	2064.38
900.959	2042.91
901.273	2058.05
901.588	2060.54
901.902	2056.92
902.216	2055.12
902.531	2028.22
902.845	2041.78
903.159	2043.14
903.473	2025.96
903.787	1968.34
904.101	1979.64
904.415	2001.33
904.729	1948.68
905.042	1951.62
905.356	1960.2
905.67	1953.88
905.984	1937.15
906.297	1934.67
906.611	1903.26
906.924	1916.81
907.237	1904.38
907.551	1912.97
907.864	1904.38
908.177	1902.35
908.491	1936.7
908.804	1888.11
909.117	1886.53
909.43	1878.4
909.743	1870.26
910.056	1846.31
910.368	1860.09
910.681	1886.08
910.994	1871.17
911.307	1833.2
911.619	1842.24
911.932	1807.66
912.244	1823.48
912.557	1829.13
912.869	1805.4
913.181	1803.82
913.494	1802.69
913.806	1791.39
914.118	1810.83
914.43	1788
914.742	1763.6
915.054	1741.9
915.366	1760.89
915.678	1757.5
915.99	1743.94
916.302	1753.43
916.613	1732.86
916.925	1733.54
917.236	1718.4
917.548	1719.08
917.859	1706.88
918.171	1699.42
918.482	1697.84
918.794	1687.22
919.105	1706.2
919.416	1688.35
919.727	1675.69
920.038	1649.25
920.349	1673.2
920.66	1642.24
920.971	1651.06
921.282	1650.15
921.593	1633.43
921.903	1627.56
922.214	1660.78
922.525	1635.69
922.835	1623.94
923.146	1597.27
923.456	1607.67
923.767	1604.73
924.077	1595.47
924.387	1609.03
924.697	1594.34
925.008	1578.52
925.318	1566.77
925.628	1593.21
925.938	1575.81
926.248	1572.19
926.558	1556.15
926.867	1550.04
927.177	1525.86
927.487	1531.06
927.796	1523.83
928.106	1533.77
928.416	1526.32
928.725	1514.79
929.034	1521.8
929.344	1524.73
929.653	1504.4
929.962	1513.21
930.271	1487.67
930.581	1503.27
930.89	1496.71
931.199	1461.46
931.508	1492.19
931.817	1453.1
932.125	1460.78
932.434	1462.59
932.743	1438.86
933.051	1442.93
933.36	1448.35
933.669	1405.42
933.977	1413.32
934.286	1437.28
934.594	1428.01
934.902	1423.72
935.21	1406.09
935.519	1401.35
935.827	1430.95
936.135	1385.75
936.443	1401.8
936.751	1364.74
937.059	1385.08
937.367	1363.16
937.674	1397.51
937.982	1382.82
938.29	1367.22
938.597	1340.56
938.905	1389.82
939.213	1355.47
939.52	1336.94
939.827	1360.9
940.135	1360.9
940.442	1338.52
940.749	1327.9
941.056	1323.38
941.363	1288.81
941.67	1311.86
941.977	1302.37
942.284	1312.76
942.591	1345.3
942.898	1288.36
943.205	1302.37
943.511	1294.01
943.818	1296.72
944.125	1287.68
944.431	1265.53
944.738	1301.91
945.044	1283.84
945.35	1267.57
945.657	1274.12
945.963	1229.6
946.269	1271.18
946.575	1263.5
946.881	1232.31
947.187	1237.51
947.493	1245.42
947.799	1225.98
948.105	1224.18
948.41	1215.36
948.716	1216.72
949.022	1228.7
949.327	1224.63
949.633	1210.62
949.938	1197.51
950.244	1187.79
950.549	1170.62
950.854	1162.48
951.16	1194.35
951.465	1208.13
951.77	1191.86
952.075	1144.86
952.38	1152.99
952.685	1145.99
952.99	1141.47
953.294	1158.87
953.599	1183.05
953.904	1133.11
954.209	1122.48
954.513	1147.79
954.818	1137.63
955.122	1129.94
955.426	1152.54
955.731	1132.43
956.035	1143.05
956.339	1131.3
956.643	1126.55
956.948	1133.56
957.252	1133.11
957.556	1119.55
957.86	1088.36
958.163	1129.72
958.467	1126.1
958.771	1099.21
959.075	1109.38
959.378	1077.51
959.682	1115.48
959.985	1088.59
960.289	1104.41
960.592	1062.15
960.896	1064.41
961.199	1061.02
961.502	1074.12
961.805	1065.31
962.108	1054.46
962.411	1054.92
962.714	1054.24
963.017	1043.84
963.32	1029.83
963.623	1035.26
963.926	1038.42
964.228	1028.7
964.531	1028.93
964.833	1032.77
965.136	1026.44
965.438	996.39
965.741	1018.53
966.043	1017.4
966.345	1004.07
966.648	1006.33
966.95	1000.23
967.252	1007.69
967.554	972.21
967.856	988.7
968.158	947.35
968.46	998.19
968.761	974.01
969.063	993
969.365	974.47
969.666	988.02
969.968	974.92
970.269	963.39
970.571	960.68
970.872	957.74
971.174	948.03
971.475	968.14
971.776	939.89
972.077	945.31
972.378	952.77
972.679	947.12
972.98	957.97
973.281	926.78
973.582	924.98
973.883	948.03
974.183	929.27
974.484	950.51
974.785	932.43
975.085	913.9
975.386	925.2
975.686	912.32
975.986	880.91
976.287	911.87
976.587	896.95
976.887	922.94
977.187	893.11
977.487	915.48
977.787	895.15
978.087	904.86
978.387	895.37
978.687	895.15
978.987	875.26
979.286	880.68
979.586	853.11
979.885	850.18
980.185	841.81
980.484	876.62
980.784	857.86
981.083	878.65
981.382	871.42
981.682	848.14
981.981	849.95
982.28	857.41
982.579	820.57
982.878	865.54
983.177	826.45
983.475	850.85
983.774	822.61
984.073	833.23
984.372	850.63
984.67	807.92
984.969	807.24
985.267	830.97
985.566	820.35
985.864	823.51
986.162	806.11
986.461	817.18
986.759	814.7
987.057	806.11
987.355	802.04
987.653	833.45
987.951	832.55
988.249	822.61
988.547	800.91
988.844	797.52
989.142	788.93
989.44	763.4
989.737	801.82
990.035	788.03
990.332	778.09
990.63	784.87
990.927	782.38
991.224	751.65
991.521	768.37
991.819	782.38
992.116	755.71
992.413	758.2
992.71	776.28
993.006	755.94
993.303	748.48
993.6	734.7
993.897	770.63
994.193	734.92
994.49	753.91
994.787	738.54
995.083	732.89
995.379	720.01
995.676	748.03
995.972	742.38
996.268	725.43
996.565	728.37
996.861	719.11
997.157	706.45
997.453	710.97
997.749	696.51
998.044	718.65
998.34	712.1
998.636	735.15
998.932	701.93
999.227	721.37
999.523	698.31
999.818	704.19
1000.114	676.85
1000.409	706.9
1000.704	698.54
1001	686.56
1001.295	697.64
1001.59	706
1001.885	688.6
1002.18	688.6
1002.475	696.73
1002.77	690.86
1003.065	681.59
1003.359	672.1
1003.654	681.82
1003.949	689.73
1004.243	639.79
1004.538	660.58
1004.832	667.13
1005.127	666.68
1005.421	667.81
1005.715	658.09
1006.009	666.23
1006.304	669.62
1006.598	654.02
1006.892	660.12
1007.186	651.76
1007.48	635.04
1007.773	669.84
1008.067	657.64
1008.361	665.32
1008.655	632.1
1008.948	623.29
1009.242	626.68
1009.535	624.64
1009.829	630.07
1010.122	610.41
1010.415	623.51
1010.708	626.45
1011.001	621.25
1011.295	616.28
1011.588	624.64
1011.881	611.31
1012.173	608.6
1012.466	604.98
1012.759	594.14
1013.052	603.18
1013.344	593.91
1013.637	593.91
1013.93	626.68
1014.222	573.12
1014.514	566.57
1014.807	599.11
1015.099	593.01
1015.391	575.15
1015.683	596.17
1015.976	561.82
1016.268	571.09
1016.56	591.43
1016.851	577.19
1017.143	580.13
1017.435	579.22
1017.727	573.35
1018.018	554.36
1018.31	566.12
1018.602	566.57
1018.893	569.5
1019.185	558.88
1019.476	572.89
1019.767	588.94
1020.058	554.59
1020.35	547.58
1020.641	553.01
1020.932	555.04
1021.223	546.68
1021.514	544.87
1021.804	524.99
1022.095	552.78
1022.386	547.13
1022.677	539.45
1022.967	559.11
1023.258	534.03
1023.548	551.65
1023.839	534.93
1024.129	534.25
1024.419	536.29
1024.709	538.55
1025	540.35
1025.29	522.05
1025.58	528.15
1025.87	518.66
1026.16	523.63
1026.449	509.85
1026.739	498.77
1027.029	513.46
1027.319	527.25
1027.608	520.01
1027.898	509.62
1028.187	512.56
1028.477	493.57
1028.766	506.91
1029.055	499.22
1029.344	482.5
1029.634	484.76
1029.923	490.64
1030.212	478.21
1030.501	488.15
1030.79	501.48
1031.078	486.57
1031.367	477.76
1031.656	493.12
1031.945	481.6
1032.233	463.52
1032.522	485.44
1032.81	479.56
1033.099	507.81
1033.387	469.17
1033.675	457.87
1033.963	467.13
1034.251	477.76
1034.54	484.08
1034.828	475.95
1035.116	475.72
1035.403	464.2
1035.691	473.24
1035.979	461.26
1036.267	469.39
1036.554	463.29
1036.842	477.3
1037.129	459.9
1037.417	472.33
1037.704	444.08
1037.992	466.46
1038.279	464.42
1038.566	466.91
1038.853	466.91
1039.14	466.91
