Data from foam1_polythene_foam_FLMS001491_00090.txt Node
Date: Wed Feb 08 10:55:31 GMT 2017
User: dcchb
Spectrometer: FLMS00149
Trigger mode: 0
Integration Time (sec): 2.000000E-2
Scans to average: 10
Electric dark correction enabled: true
Nonlinearity correction enabled: false
Boxcar width: 0
XAxis mode: Wavelengths
Number of Pixels in Spectrum: 2048
>>>>>Begin Spectral Data<<<<<
341.393	-27.58
341.776	-27.58
342.16	-27.58
342.543	-51.76
342.927	-49.96
343.31	-72.55
343.693	-66
344.077	-86.34
344.46	-60.35
344.843	-55.61
345.226	-25.78
345.61	-15.38
345.993	-10.86
346.376	-30.75
346.759	2.25
347.142	31.17
347.525	61.23
347.908	45.63
348.291	81.11
348.674	103.26
349.057	98.97
349.44	135.8
349.823	149.36
350.206	147.33
350.588	181.9
350.971	185.07
351.354	221
351.737	239.3
352.119	252.41
352.502	251.05
352.884	267.55
353.267	262.13
353.65	285.18
354.032	318.85
354.414	292.41
354.797	316.81
355.179	300.09
355.562	310.49
355.944	301.67
356.326	323.14
356.709	322.92
357.091	308.68
357.473	324.95
357.855	335.8
358.238	332.63
358.62	319.98
359.002	312.29
359.384	325.4
359.766	340.32
360.148	341.67
360.53	306.42
360.912	319.3
361.294	305.29
361.676	331.05
362.057	319.75
362.439	303.48
362.821	291.05
363.203	314.55
363.584	326.53
363.966	315.01
364.348	314.33
364.729	288.79
365.111	303.93
365.493	319.3
365.874	301.9
366.256	306.64
366.637	303.25
367.019	307.77
367.4	299.64
367.781	304.61
368.163	306.42
368.544	313.65
368.925	293.31
369.306	326.53
369.688	320.2
370.069	301.67
370.45	314.55
370.831	321.79
371.212	316.59
371.593	306.64
371.974	301.9
372.355	288.34
372.736	335.12
373.117	277.27
373.498	304.38
373.879	305.97
374.26	304.16
374.641	316.81
375.021	308.9
375.402	326.3
375.783	318.4
376.163	324.95
376.544	336.7
376.925	321.79
377.305	307.77
377.686	296.25
378.066	318.4
378.447	317.94
378.827	320.2
379.208	326.98
379.588	317.27
379.968	317.94
380.349	316.81
380.729	326.08
381.109	331.28
381.489	342.35
381.87	334.21
382.25	359.07
382.63	367.66
383.01	322.92
383.39	330.6
383.77	325.4
384.15	351.39
384.53	346.87
384.91	332.63
385.29	355.46
385.67	345.74
386.049	322.46
386.429	340.54
386.809	343.25
387.189	338.96
387.568	338.06
387.948	346.87
388.328	355.23
388.707	357.72
389.087	350.49
389.466	373.54
389.846	365.85
390.225	370.15
390.605	347.77
390.984	372.41
391.363	375.12
391.743	363.82
392.122	379.86
392.501	389.58
392.881	379.64
393.26	364.72
393.639	354.78
394.018	356.81
394.397	370.82
394.776	373.76
395.155	349.13
395.534	376.7
395.913	386.19
396.292	383.7
396.671	400.43
397.05	416.02
397.429	372.86
397.808	407.43
398.186	393.2
398.565	397.94
398.944	396.81
399.323	406.08
399.701	405.4
400.08	395.23
400.458	395.23
400.837	392.29
401.215	391.84
401.594	393.87
401.972	424.38
402.351	416.92
402.729	402.01
403.107	425.29
403.486	420.77
403.864	423.03
404.242	408.79
404.62	400.2
404.999	411.95
405.377	410.37
405.755	419.86
406.133	428.68
406.511	431.84
406.889	433.19
407.267	445.4
407.645	433.65
408.023	449.01
408.401	464.38
408.779	432.97
409.156	472.29
409.534	468.45
409.912	460.09
410.29	463.7
410.667	458.5
411.045	457.83
411.422	463.7
411.8	472.97
412.178	472.97
412.555	489.24
412.933	482.46
413.31	494.66
413.687	491.5
414.065	499.18
414.442	496.24
414.819	482.01
415.197	533.08
415.574	496.24
415.951	499.86
416.328	508
416.705	509.35
417.082	501.44
417.46	524.49
417.837	512.97
418.214	527.88
418.591	530.14
418.967	520.2
419.344	538.28
419.721	532.4
420.098	535.11
420.475	524.94
420.852	543.47
421.228	560.88
421.605	579.41
421.982	568.11
422.358	544.15
422.735	567.43
423.111	579.86
423.488	561.78
423.864	572.17
424.241	576.02
424.617	576.92
424.994	598.84
425.37	600.42
425.746	583.7
426.123	586.19
426.499	587.32
426.875	601.78
427.251	603.36
427.627	609.69
428.003	619.18
428.379	619.18
428.756	621.21
429.132	626.64
429.507	623.7
429.883	646.52
430.259	633.87
430.635	646.3
431.011	668.67
431.387	671.61
431.763	667.09
432.138	663.7
432.514	675.9
432.89	687.2
433.265	691.49
433.641	688.33
434.016	721.32
434.392	713.19
434.767	729.46
435.143	706.41
435.518	736.24
435.894	743.7
436.269	737.37
436.644	751.6
437.02	769.46
437.395	773.52
437.77	754.32
438.145	754.32
438.52	794.99
438.895	794.09
439.271	775.11
439.646	816.01
440.021	832.05
440.395	835.67
440.77	813.75
441.145	832.28
441.52	834.99
441.895	811.94
442.27	868.44
442.645	828.44
443.019	851.94
443.394	873.18
443.769	879.51
444.143	848.55
444.518	883.8
444.892	897.14
445.267	906.63
445.641	907.53
446.016	881.32
446.39	929.45
446.764	933.52
447.139	922.9
447.513	926.52
447.887	947.08
448.262	946.4
448.636	951.37
449.01	970.81
449.384	958.83
449.758	982.78
450.132	983.01
450.506	985.27
450.88	980.98
451.254	994.54
451.628	1006.74
452.002	1013.29
452.376	1021.65
452.75	1038.83
453.123	1028.21
453.497	1015.78
453.871	1041.09
454.244	1077.92
454.618	1073.18
454.992	1092.16
455.365	1096.91
455.739	1102.56
456.112	1123.57
456.486	1122.22
456.859	1122.22
457.232	1119.28
457.606	1142.78
457.979	1154.08
458.352	1134.42
458.725	1154.08
459.099	1182.33
459.472	1163.57
459.845	1211.03
460.218	1208.77
460.591	1207.64
460.964	1202.21
461.337	1230.69
461.71	1239.73
462.083	1265.49
462.456	1234.3
462.829	1270.01
463.201	1273.62
463.574	1270.46
463.947	1320.18
464.32	1340.29
464.692	1335.09
465.065	1348.88
465.438	1343
465.81	1350.68
466.183	1341.19
466.555	1379.61
466.928	1401.08
467.3	1375.99
467.672	1433.39
468.045	1470.23
468.417	1481.3
468.789	1480.4
469.161	1476.78
469.534	1474.52
469.906	1510
470.278	1510.45
470.65	1510
471.022	1568.31
471.394	1593.62
471.766	1604.01
472.138	1605.82
472.51	1624.12
472.882	1674.52
473.253	1635.42
473.625	1709.32
473.997	1690.56
474.369	1701.18
474.74	1729.21
475.112	1758.81
475.484	1783.89
475.855	1831.35
476.227	1820.95
476.598	1888.3
476.97	1863.89
477.341	1935.08
477.713	1918.58
478.084	1949.99
478.455	1991.12
478.827	2016.88
479.198	2046.49
479.569	2055.53
479.94	2113.38
480.311	2116.54
480.682	2152.92
481.053	2197.89
481.424	2222.53
481.795	2255.07
482.166	2287.16
482.537	2316.08
482.908	2359.7
483.279	2385.01
483.65	2389.53
484.021	2470.88
484.391	2442.18
484.762	2511.11
485.133	2532.8
485.503	2542.07
485.874	2584.78
486.244	2608.05
486.615	2670.2
486.985	2661.38
487.356	2706.58
487.726	2722.4
488.097	2784.77
488.467	2838.78
488.837	2888.72
489.207	2912.9
489.578	2936.18
489.948	2948.16
490.318	3021.6
490.688	3003.3
491.058	3078.1
491.428	3084.42
491.798	3096.63
492.168	3127.14
492.538	3228.6
492.908	3200.35
493.278	3280.35
493.648	3237.87
494.017	3308.37
494.387	3363.29
494.757	3394.02
495.126	3428.37
495.496	3403.29
495.866	3445.54
496.235	3490.06
496.605	3516.05
496.974	3490.52
497.344	3520.12
497.713	3550.4
498.082	3573.45
498.452	3652.55
498.821	3660.23
499.19	3710.85
499.559	3730.51
499.928	3800.34
500.298	3761.47
500.667	3792.88
501.036	3786.33
501.405	3857.96
501.774	3812.54
502.143	3862.48
502.512	3854.57
502.88	3936.83
503.249	3937.28
503.618	3987.9
503.987	4007.56
504.356	4056.6
504.724	4077.39
505.093	4086.88
505.462	4076.94
505.83	4083.04
506.199	4104.06
506.567	4179.76
506.936	4177.5
507.304	4248.46
507.672	4233.32
508.041	4304.96
508.409	4359.19
508.777	4372.75
509.145	4419.3
509.514	4386.09
509.882	4451.17
510.25	4475.57
510.618	4460.66
510.986	4483.94
511.354	4512.64
511.722	4582.92
512.09	4593.54
512.458	4579.75
512.826	4672.41
513.193	4753.53
513.561	4731.16
513.929	4799.18
514.297	4843.25
514.664	4818.16
515.032	4873.53
515.4	4922.57
515.767	4877.82
516.135	4934.55
516.502	4899.74
516.869	5033.3
517.237	5039.85
517.604	5075.78
517.972	5138.61
518.339	5197.82
518.706	5203.92
519.073	5229.45
519.44	5283.91
519.808	5337.02
520.175	5308.09
520.542	5374.08
520.909	5362.56
521.276	5353.52
521.643	5475.1
522.009	5430.58
522.376	5522.33
522.743	5625.37
523.11	5630.35
523.477	5720.29
523.843	5742.21
524.21	5814.07
524.577	5857.23
524.943	5824.01
525.31	5879.61
525.676	5927.74
526.043	5957.8
526.409	5978.36
526.776	6050.67
527.142	6025.14
527.508	6141.52
527.874	6142.88
528.241	6230.33
528.607	6273.95
528.973	6408.63
529.339	6320.05
529.705	6428.52
530.071	6418.12
530.437	6416.77
530.803	6471.91
531.169	6518.68
531.535	6519.14
531.901	6563.2
532.267	6574.05
532.632	6607.72
532.998	6636.2
533.364	6746.48
533.73	6721.62
534.095	6798.9
534.461	6880.48
534.826	6902.4
535.192	6864.44
535.557	6958
535.923	6926.36
536.288	6952.12
536.653	6989.18
537.019	6922.29
537.384	7003.87
537.749	7022.63
538.114	7083.64
538.479	7082.29
538.845	7161.38
539.21	7166.13
539.575	7234.37
539.94	7244.54
540.305	7274.14
540.67	7317.31
541.034	7312.56
541.399	7364.99
541.764	7321.83
542.129	7372.9
542.494	7412.45
542.858	7424.42
543.223	7439.79
543.587	7451.32
543.952	7475.5
544.316	7518.43
544.681	7518.43
545.045	7631.42
545.41	7712.55
545.774	7695.15
546.138	7664.42
546.503	7686.34
546.867	7662.61
547.231	7769.95
547.595	7721.14
547.959	7714.59
548.324	7757.07
548.688	7783.06
549.052	7859.89
549.416	7869.16
549.779	7964.07
550.143	7975.6
550.507	8046.78
550.871	8100.11
551.235	8095.59
551.599	8114.57
551.962	8172.43
552.326	8131.75
552.689	8197.96
553.053	8128.59
553.417	8212.43
553.78	8287.68
554.143	8274.12
554.507	8311.18
554.87	8319.77
555.234	8447.9
555.597	8515.02
555.96	8482.93
556.323	8577.16
556.686	8552.08
557.05	8615.13
557.413	8656.48
557.776	8625.97
558.139	8717.5
558.502	8653.77
558.865	8701.23
559.228	8719.53
559.59	8778.96
559.953	8787.55
560.316	8891.5
560.679	8903.48
561.041	8936.7
561.404	9010.6
561.767	9119.52
562.129	9118.39
562.492	9222.57
562.854	9206.07
563.217	9163.81
563.579	9235
563.941	9263.02
564.304	9304.15
564.666	9389.57
565.028	9323.81
565.39	9413.75
565.753	9480.19
566.115	9493.75
566.477	9542.33
566.839	9539.4
567.201	9678.15
567.563	9762.89
567.925	9741.2
568.287	9783.91
568.648	9773.06
569.01	9898.03
569.372	9936.22
569.734	9869.1
570.095	9921.08
570.457	9932.83
570.819	9953.4
571.18	9918.14
571.542	10108.87
571.903	10048.08
572.265	10075.88
572.626	10108.19
572.987	10160.85
573.349	10207.4
573.71	10325.82
574.071	10271.35
574.432	10342.54
574.794	10454.4
575.155	10433.16
575.516	10315.65
575.877	10391.8
576.238	10411.92
576.599	10482.2
576.96	10439.49
577.32	10434.97
577.681	10529.2
578.042	10528.52
578.403	10524.68
578.763	10517.45
579.124	10526.49
579.485	10532.36
579.845	10640.84
580.206	10656.43
580.566	10638.58
580.927	10645.81
581.287	10754.51
581.648	10676.54
582.008	10640.84
582.368	10574.17
582.728	10704.56
583.089	10655.07
583.449	10649.88
583.809	10615.53
584.169	10624.34
584.529	10573.49
584.889	10717.67
585.249	10692.13
585.609	10668.63
585.969	10803.32
586.329	10819.81
586.688	10844.9
587.048	10802.19
587.408	10768.06
587.768	10815.52
588.127	10734.39
588.487	10649.2
588.846	10882.41
589.206	10685.35
589.565	10669.54
589.925	10721.51
590.284	10728.74
590.643	10710.21
591.003	10768.74
591.362	10812.13
591.721	10790.21
592.08	10788.85
592.44	10835.41
592.799	10810.55
593.158	10834.05
593.517	10912.47
593.876	10815.75
594.235	10865.01
594.593	10818.68
594.952	10857.33
595.311	10837.44
595.67	10806.03
596.029	10922.64
596.387	10801.06
596.746	10835.86
597.104	10787.27
597.463	10815.52
597.822	10892.81
598.18	10828.63
598.538	10866.14
598.897	10920.6
599.255	10900.72
599.613	11080.82
599.972	10971.67
600.33	10956.31
600.688	10981.39
601.046	10952.47
601.404	11018.23
601.762	10989.3
602.12	10996.53
602.478	10975.74
602.836	10887.84
603.194	10885.58
603.552	10914.95
603.91	10868.63
604.268	10931.45
604.625	10880.6
604.983	11014.61
605.341	10889.19
605.698	10978.68
606.056	11082.41
606.413	11024.78
606.771	11078.34
607.128	11147.94
607.485	11050.99
607.843	11085.34
608.2	11194.72
608.557	11236.3
608.914	11074.27
609.272	11104.78
609.629	11086.93
609.986	11199.47
610.343	11123.76
610.7	11218.9
611.057	11153.36
611.414	11227.49
611.771	11190.88
612.127	11189.97
612.484	11198.79
612.841	11303.19
613.198	11290.76
613.554	11299.58
613.911	11378.22
614.267	11368.27
614.624	11357.65
614.98	11320.82
615.337	11418.89
615.693	11377.99
616.05	11379.8
616.406	11366.47
616.762	11397.88
617.118	11276.98
617.475	11302.06
617.831	11337.54
618.187	11278.33
618.543	11324.89
618.899	11411.66
619.255	11399.69
619.611	11408.5
619.967	11454.6
620.323	11478.78
620.678	11471.1
621.034	11427.93
621.39	11451.44
621.746	11405.79
622.101	11563.3
622.457	11419.12
622.812	11466.35
623.168	11499.34
623.523	11356.07
623.879	11415.5
624.234	11333.93
624.589	11414.83
624.945	11379.35
625.3	11415.96
625.655	11353.59
626.01	11389.06
626.365	11450.31
626.72	11431.55
627.075	11455.28
627.43	11518.33
627.785	11405.34
628.14	11484.88
628.495	11516.29
628.85	11435.17
629.205	11469.29
629.559	11419.12
629.914	11417.76
630.269	11373.92
630.623	11288.28
630.978	11297.99
631.332	11382.06
631.687	11291.21
632.041	11203.76
632.396	11281.95
632.75	11175.29
633.104	11216.64
633.459	11233.36
633.813	11239.24
634.167	11225.91
634.521	11274.04
634.875	11250.54
635.229	11258.67
635.583	11241.27
635.937	11148.39
636.291	11206.24
636.645	11148.17
636.999	11117.21
637.352	11180.26
637.706	11080.6
638.06	11066.81
638.413	11023.65
638.767	11011.67
639.121	10989.53
639.474	10954.5
639.828	10974.84
640.181	10931.9
640.534	10899.81
640.888	10938.68
641.241	10817.55
641.594	10907.95
641.947	10935.52
642.301	11002.63
642.654	11012.58
643.007	10957.21
643.36	10959.47
643.713	10885.12
644.066	10944.78
644.419	10799.25
644.771	10778.01
645.124	10639.93
645.477	10624.11
645.83	10466.83
646.182	10475.42
646.535	10458.69
646.888	10411.01
647.24	10355.42
647.593	10416.66
647.945	10404.01
648.298	10369.43
648.65	10282.65
649.002	10343.22
649.355	10380.28
649.707	10359.94
650.059	10418.47
650.411	10515.19
650.763	10580.05
651.115	10678.35
651.467	10676.77
651.819	10644.45
652.171	10632.25
652.523	10521.74
652.875	10634.51
653.227	10483.1
653.578	10573.04
653.93	10539.37
654.282	10426.83
654.633	10422.99
654.985	10445.59
655.337	10386.15
655.688	10350.67
656.039	10406.94
656.391	10399.03
656.742	10404.46
657.094	10398.81
657.445	10524.45
657.796	10447.39
658.147	10330.34
658.498	10392.03
658.849	10387.06
659.2	10450.56
659.551	10451.46
659.902	10523.55
660.253	10460.28
660.604	10365.82
660.955	10361.75
661.306	10370.11
661.656	10424.8
662.007	10294.63
662.358	10333.27
662.708	10230
663.059	10297.57
663.409	10096.9
663.76	10253.5
664.11	10124.69
664.461	10222.54
664.811	10143.45
665.161	10210.56
665.511	10158.36
665.862	10201.53
666.212	10224.35
666.562	10270.68
666.912	10249.21
667.262	10233.16
667.612	10256.89
667.962	10288.3
668.312	10285.14
668.662	10280.39
669.011	10336.66
669.361	10246.72
669.711	10267.06
670.06	10184.8
670.41	10223.45
670.76	10118.36
671.109	10200.85
671.459	10213.95
671.808	10092.15
672.157	10141.64
672.507	9982.77
672.856	10038.59
673.205	9982.1
673.554	10004.92
673.904	10027.52
674.253	10089.89
674.602	10081.75
674.951	9865.26
675.3	9927.63
675.649	10030.68
675.998	10078.82
676.346	10166.05
676.695	10174.18
677.044	10015.54
677.393	10112.94
677.741	10107.74
678.09	10112.04
678.438	10048.54
678.787	9964.24
679.135	10056.22
679.484	9910.23
679.832	10004.24
680.181	9853.96
680.529	9871.14
680.877	9874.08
681.225	9761.99
681.573	9850.35
681.922	9759.5
682.27	9836.11
682.618	9739.39
682.966	9774.64
683.314	9789.11
683.661	9735.55
684.009	9689
684.357	9757.24
684.705	9760.18
685.053	9762.22
685.4	9771.03
685.748	9693.52
686.095	9713.85
686.443	9623.91
686.79	9724.7
687.138	9647.64
687.485	9711.59
687.832	9616.23
688.18	9678.6
688.527	9540.98
688.874	9558.83
689.221	9512.05
689.568	9491.49
689.915	9470.02
690.262	9375.33
690.609	9355.45
690.956	9314.54
691.303	9228.44
691.65	9251.95
691.997	9265.96
692.344	9185.06
692.69	9156.81
693.037	9182.34
693.383	9164.72
693.73	9173.53
694.077	9219.4
694.423	9178.95
694.769	9193.19
695.116	9134.66
695.462	9163.13
695.808	9123.14
696.155	9185.51
696.501	9116.58
696.847	9072.52
697.193	8964.95
697.539	8971.28
697.885	8923.82
698.231	8948.9
698.577	8832.3
698.923	8838.62
699.269	8814.22
699.614	8692.41
699.96	8680.44
700.306	8679.76
700.651	8574.68
700.997	8604.96
701.342	8569.7
701.688	8598.18
702.033	8634.56
702.379	8536.03
702.724	8583.49
703.069	8612.64
703.415	8498.75
703.76	8538.29
704.105	8600.44
704.45	8579.65
704.795	8514.56
705.14	8474.57
705.485	8496.03
705.83	8440.67
706.175	8514.34
706.52	8426.2
706.865	8403.38
707.209	8398.18
707.554	8331.52
707.899	8341.69
708.243	8246.32
708.588	8273.21
708.932	8130.17
709.277	8191.86
709.621	8157.74
709.966	8092.2
710.31	8095.37
710.654	8075.03
710.998	8078.64
711.342	7998.42
711.687	8067.12
712.031	8005.2
712.375	8000
712.719	8046.1
713.063	8069.83
713.407	8097.63
713.75	8016.05
714.094	8043.84
714.438	8009.49
714.782	7965.88
715.125	8022.15
715.469	8040.23
715.812	7918.42
716.156	7906.67
716.499	7928.36
716.843	7897.86
717.186	7852.66
717.53	7846.11
717.873	7813.79
718.216	7780.12
718.559	7762.95
718.902	7670.07
719.246	7679.11
719.589	7622.61
719.932	7591.42
720.275	7615.38
720.617	7570.41
720.96	7622.38
721.303	7565.21
721.646	7585.55
721.989	7574.93
722.331	7583.97
722.674	7545.1
723.016	7572.67
723.359	7602.05
723.701	7646.11
724.044	7559.34
724.386	7526.34
724.729	7560.24
725.071	7602.05
725.413	7591.65
725.755	7600.46
726.097	7478.21
726.439	7508.94
726.782	7487.02
727.124	7470.75
727.465	7450.19
727.807	7423.52
728.149	7414.71
728.491	7333.8
728.833	7381.03
729.175	7321.15
729.516	7284.77
729.858	7379.9
730.199	7260.59
730.541	7232.79
730.882	7188.5
731.224	7241.15
731.565	7234.37
731.906	7195.95
732.248	7216.07
732.589	7165.22
732.93	7223.52
733.271	7194.82
733.612	7160.93
733.953	7222.85
734.294	7236.86
734.635	7232.56
734.976	7194.37
735.317	7246.57
735.658	7202.06
735.999	7189.63
736.339	7133.81
736.68	7171.77
737.021	7090.65
737.361	7112.79
737.702	7118.89
738.042	7155.96
738.383	7125
738.723	7014.94
739.063	7022.4
739.404	6984.89
739.744	6936.53
740.084	6959.35
740.424	6958.45
740.764	6978.33
741.104	6999.35
741.444	6875.51
741.784	6843.65
742.124	6899.01
742.464	6872.12
742.804	6879.58
743.143	6870.99
743.483	6918.9
743.823	6896.75
744.162	6851.33
744.502	6900.14
744.841	6856.98
745.181	6904.21
745.52	6917.54
745.86	6879.8
746.199	6915.96
746.538	6927.04
746.877	6906.02
747.216	6883.65
747.556	6856.08
747.895	6852.91
748.234	6806.81
748.573	6781.5
748.911	6772.46
749.25	6732.46
749.589	6716.19
749.928	6688.4
750.267	6676.65
750.605	6620.38
750.944	6602.98
751.283	6571.11
751.621	6605.69
751.96	6580.38
752.298	6530.44
752.636	6558.01
752.975	6534.28
753.313	6474.17
753.651	6524.56
753.989	6515.97
754.327	6547.61
754.666	6515.75
755.004	6555.75
755.342	6541.96
755.679	6531.34
756.017	6507.84
756.355	6565.24
756.693	6475.97
757.031	6513.94
757.368	6489.31
757.706	6498.12
758.044	6487.95
758.381	6453.15
758.719	6397.78
759.056	6381.06
759.394	6316.2
759.731	6338.8
760.068	6265.81
760.405	6268.75
760.743	6211.57
761.08	6236.66
761.417	6206.15
761.754	6162.31
762.091	6094.51
762.428	6076.66
762.765	6092.71
763.102	6080.05
763.438	6070.33
763.775	6021.75
764.112	6044.8
764.449	6027.62
764.785	6025.14
765.122	6030.11
765.458	6004.57
765.795	5986.27
766.131	5959.6
766.467	5965.7
766.804	5994.86
767.14	5952.15
767.476	5938.36
767.812	5956.89
768.148	5912.82
768.485	5961.64
768.821	5902.43
769.157	5881.41
769.492	5821.53
769.828	5835.54
770.164	5763.45
770.5	5756.67
770.836	5784.69
771.171	5734.07
771.507	5733.17
771.842	5622.66
772.178	5595.54
772.513	5637.13
772.849	5545.6
773.184	5576.79
773.519	5520.74
773.855	5532.95
774.19	5447.98
774.525	5468.54
774.86	5487.07
775.195	5448.43
775.53	5461.99
775.865	5391.26
776.2	5392.61
776.535	5397.13
776.87	5398.71
777.205	5390.58
777.539	5395.1
777.874	5394.42
778.209	5359.17
778.543	5334.53
778.878	5298.83
779.212	5343.8
779.547	5305.84
779.881	5304.93
780.215	5262.45
780.55	5243.46
780.884	5229.9
781.218	5232.39
781.552	5174.99
781.886	5178.38
782.22	5155.33
782.554	5127.99
782.888	5090.7
783.222	5053.86
783.556	5004.37
783.889	4998.95
784.223	4928.44
784.557	4951.95
784.89	4971.38
785.224	4913.08
785.557	4890.03
785.891	4923.7
786.224	4845.73
786.558	4862.23
786.891	4797.83
787.224	4818.16
787.557	4803.48
787.891	4807.09
788.224	4826.53
788.557	4809.12
788.89	4804.61
789.223	4804.38
789.556	4752.63
789.888	4784.04
790.221	4771.84
790.554	4729.58
790.887	4696.13
791.219	4683.7
791.552	4680.77
791.884	4642.58
792.217	4610.94
792.549	4639.41
792.882	4633.08
793.214	4561
793.546	4581.11
793.879	4551.5
794.211	4531.17
794.543	4567.55
794.875	4495.69
795.207	4531.17
795.539	4475.57
795.871	4511.28
796.203	4461.11
796.535	4452.75
796.867	4402.13
797.198	4357.16
797.53	4403.03
797.862	4313.09
798.193	4373.88
798.525	4312.19
798.856	4326.65
799.188	4285.75
799.519	4290.04
799.85	4245.98
800.182	4229.93
800.513	4252.76
800.844	4253.43
801.175	4265.86
801.506	4247.11
801.837	4229.93
802.168	4247.78
802.499	4221.34
802.83	4194
803.161	4215.24
803.491	4196.03
803.822	4219.76
804.153	4197.62
804.483	4152.19
804.814	4134.57
805.145	4179.31
805.475	4135.02
805.805	4118.3
806.136	4068.58
806.466	4144.51
806.796	4102.93
807.126	4035.81
807.457	4024.06
807.787	4075.13
808.117	4011.86
808.447	3977.96
808.777	4050.27
809.107	3987.23
809.436	3989.94
809.766	3967.34
810.096	3963.95
810.426	3913.1
810.755	3917.62
811.085	3872.88
811.414	3911.75
811.744	3859.77
812.073	3883.95
812.403	3861.81
812.732	3861.58
813.061	3895.02
813.39	3862.94
813.719	3844.4
814.049	3890.51
814.378	3860
814.707	3825.2
815.036	3851.41
815.365	3796.5
815.693	3819.09
816.022	3806.44
816.351	3808.02
816.68	3818.42
817.008	3783.62
817.337	3807.57
817.665	3782.49
817.994	3796.5
818.322	3776.38
818.651	3806.44
818.979	3772.99
819.307	3755.59
819.636	3732.09
819.964	3696.16
820.292	3729.38
820.62	3663.84
820.948	3688.02
821.276	3656.39
821.604	3658.42
821.932	3705.43
822.259	3652.55
822.587	3637.63
822.915	3645.31
823.243	3647.12
823.57	3613.68
823.898	3666.56
824.225	3652.09
824.553	3624.3
824.88	3650.74
825.207	3624.52
825.535	3629.27
825.862	3681.25
826.189	3649.61
826.516	3665.88
826.843	3717.63
827.17	3699.32
827.497	3693.9
827.824	3680.79
828.151	3690.74
828.478	3638.99
828.805	3702.04
829.131	3702.26
829.458	3678.31
829.785	3689.38
830.111	3682.15
830.438	3735.93
830.764	3672.21
831.09	3696.16
831.417	3682.6
831.743	3662.94
832.069	3646.9
832.395	3647.8
832.722	3664.52
833.048	3650.74
833.374	3681.92
833.7	3652.77
834.026	3615.03
834.351	3613
834.677	3600.34
835.003	3599.21
835.329	3617.07
835.654	3581.13
835.98	3579.1
836.306	3591.53
836.631	3583.17
836.956	3573.23
837.282	3553.56
837.607	3548.59
837.932	3582.26
838.258	3532.55
838.583	3538.42
838.908	3491.65
839.233	3525.77
839.558	3509.5
839.883	3545.43
840.208	3545.88
840.533	3547.69
840.858	3560.12
841.182	3575.03
841.507	3574.36
841.832	3502.27
842.156	3502.72
842.481	3523.51
842.805	3491.19
843.13	3478.54
843.454	3484.41
843.778	3503.4
844.103	3511.76
844.427	3453
844.751	3450.52
845.075	3493.23
845.399	3388.15
845.723	3441.03
846.047	3413
846.371	3373
846.695	3393.34
847.019	3368.94
847.343	3383.63
847.666	3362.38
847.99	3310.86
848.313	3267.92
848.637	3286.68
848.96	3288.94
849.284	3222.5
849.607	3262.05
849.931	3266.11
850.254	3240.8
850.577	3239
850.9	3151.09
851.223	3154.93
851.546	3145.89
851.869	3158.32
852.192	3158.32
852.515	3140.02
852.838	3130.75
853.161	3111.09
853.483	3111.99
853.806	3167.59
854.129	3121.03
854.451	3120.58
854.774	3075.84
855.096	3113.35
855.419	3096.85
855.741	3072.67
856.063	3045.56
856.385	3112.45
856.708	3036.52
857.03	3056.4
857.352	3056.85
857.674	3098.66
857.996	3059.11
858.318	3039
858.64	3019.57
858.961	3008.72
859.283	2989.06
859.605	3001.94
859.926	3019.12
860.248	2984.99
860.57	2957.65
860.891	2954.71
861.212	2987.03
861.534	2952.68
861.855	2941.38
862.176	2893.47
862.498	2913.58
862.819	2913.81
863.14	2920.14
863.461	2865.22
863.782	2887.14
864.103	2885.33
864.424	2882.17
864.745	2857.54
865.065	2846.46
865.386	2844.43
865.707	2871.77
866.027	2816.86
866.348	2840.36
866.668	2836.07
866.989	2854.15
867.309	2811.21
867.63	2787.26
867.95	2837.65
868.27	2854.83
868.59	2827.03
868.91	2850.76
869.23	2808.5
869.55	2795.62
869.87	2826.58
870.19	2809.4
870.51	2797.2
870.83	2828.39
871.15	2834.71
871.469	2830.42
871.789	2782.51
872.109	2810.76
872.428	2793.36
872.748	2771.66
873.067	2762.17
873.386	2775.51
873.706	2785.45
874.025	2780.7
874.344	2752.23
874.663	2744.32
874.982	2723.76
875.301	2757.2
875.62	2740.7
875.939	2725.79
876.258	2717.43
876.577	2720.59
876.896	2678.11
877.214	2722.63
877.533	2719.69
877.852	2708.16
878.17	2702.29
878.489	2712
878.807	2678.56
879.125	2679.24
879.444	2701.84
879.762	2657.09
880.08	2673.59
880.398	2658.22
880.716	2681.72
881.034	2668.84
881.352	2658.67
881.67	2681.05
881.988	2623.65
882.306	2662.06
882.624	2632.23
882.941	2636.07
883.259	2614.15
883.577	2640.14
883.894	2646.47
884.212	2613.48
884.529	2664.77
884.846	2611.67
885.164	2642.18
885.481	2626.36
885.798	2664.1
886.115	2628.17
886.432	2603.53
886.75	2610.76
887.067	2585.91
887.383	2564.21
887.7	2552.01
888.017	2564.21
888.334	2579.81
888.651	2600.37
888.967	2584.78
889.284	2590.43
889.6	2539.13
889.917	2559.69
890.233	2556.75
890.55	2492.8
890.866	2536.87
891.182	2503.2
891.498	2495.51
891.815	2482.63
892.131	2498.68
892.447	2453.71
892.763	2458.68
893.079	2479.47
893.395	2458.45
893.71	2429.75
894.026	2482.86
894.342	2419.81
894.657	2430.66
894.973	2376.42
895.289	2406.02
895.604	2410.32
895.92	2390.66
896.235	2361.73
896.55	2373.48
896.865	2345.91
897.181	2371.67
897.496	2378
897.811	2359.92
898.126	2333.71
898.441	2350.21
898.756	2334.84
899.071	2355.63
899.386	2325.57
899.7	2346.59
900.015	2325.12
900.33	2326.03
900.644	2321.28
900.959	2347.72
901.273	2341.85
901.588	2272.92
901.902	2295.74
902.216	2283.99
902.531	2306.82
902.845	2292.13
903.159	2279.25
903.473	2257.78
903.787	2271.56
904.101	2242.64
904.415	2234.05
904.729	2248.06
905.042	2183.43
905.356	2206.71
905.67	2226.14
905.984	2189.98
906.297	2194.96
906.611	2168.97
906.924	2148.86
907.237	2162.19
907.551	2160.83
907.864	2143.66
908.177	2121.96
908.491	2144.56
908.804	2115.18
909.117	2094.39
909.43	2066.82
909.743	2089.87
910.056	2099.59
910.368	2079.71
910.681	2073.38
910.994	2054.17
911.307	2061.63
911.619	2037.9
911.932	2058.24
912.244	2035.41
912.557	2016.88
912.869	2021.85
913.181	1989.54
913.494	2009.2
913.806	1988.63
914.118	2006.94
914.43	1971.91
914.742	1961.29
915.054	1992.25
915.366	1942.08
915.678	1979.59
915.99	1982.31
916.302	1970.56
916.613	1952.48
916.925	1946.83
917.236	1949.54
917.548	1941.4
917.859	1940.95
918.171	1886.49
918.482	1915.64
918.794	1881.07
919.105	1887.85
919.416	1911.12
919.727	1901.18
920.038	1886.26
920.349	1858.02
920.66	1901.63
920.971	1857.34
921.282	1818.92
921.593	1845.59
921.903	1843.78
922.214	1804.68
922.525	1808.98
922.835	1805.14
923.146	1807.4
923.456	1801.97
923.767	1800.39
924.077	1784.12
924.387	1760.62
924.697	1796.1
925.008	1800.39
925.318	1764.91
925.628	1736.66
925.938	1766.72
926.248	1712.48
926.558	1715.42
926.867	1691.92
927.177	1714.07
927.487	1731.92
927.796	1704.8
928.106	1713.16
928.416	1692.6
928.725	1695.76
929.034	1689.66
929.344	1672.26
929.653	1674.29
929.962	1660.06
930.271	1678.36
930.581	1629.55
930.89	1677
931.199	1652.15
931.508	1647.17
931.817	1640.62
932.125	1631.81
932.434	1631.36
932.743	1632.26
933.051	1616.67
933.36	1631.13
933.669	1617.8
933.977	1619.15
934.286	1603.79
934.594	1564.92
934.902	1607.63
935.21	1565.14
935.519	1582.32
935.827	1558.36
936.135	1590
936.443	1564.01
936.751	1566.72
937.059	1547.74
937.367	1536.67
937.674	1555.43
937.982	1530.79
938.29	1501.42
938.597	1526.95
938.905	1500.06
939.213	1507.74
939.52	1485.82
939.827	1450.57
940.135	1498.03
940.442	1479.27
940.749	1450.57
941.056	1467.29
941.363	1466.61
941.67	1459.16
941.977	1457.8
942.284	1464.58
942.591	1441.3
942.898	1447.18
943.205	1415.77
943.511	1412.6
943.818	1414.41
944.125	1419.84
944.431	1400.18
944.738	1423
945.044	1405.6
945.35	1385.71
945.657	1429.1
945.963	1397.46
946.269	1405.15
946.575	1413.96
946.881	1394.53
947.187	1399.95
947.493	1379.38
947.799	1358.59
948.105	1384.81
948.41	1371.25
948.716	1382.1
949.022	1361.53
949.327	1347.52
949.633	1366.96
949.938	1339.61
950.244	1362.44
950.549	1357.46
950.854	1323.79
951.16	1330.8
951.465	1350.46
951.77	1323.57
952.075	1315.66
952.38	1310.46
952.685	1285.38
952.99	1303.91
953.294	1289.22
953.599	1279.73
953.904	1310.91
954.209	1286.51
954.513	1260.74
954.818	1266.62
955.122	1253.74
955.426	1236.11
955.731	1264.36
956.035	1245.83
956.339	1273.4
956.643	1257.13
956.948	1210.8
957.252	1228.43
957.556	1248.31
957.86	1221.2
958.163	1219.61
958.467	1226.85
958.771	1209.67
959.075	1201.54
959.378	1203.8
959.682	1196.79
959.985	1194.98
960.289	1163.57
960.592	1171.71
960.896	1190.46
961.199	1177.81
961.502	1189.11
961.805	1192.95
962.108	1170.35
962.411	1145.72
962.714	1163.57
963.017	1125.15
963.32	1133.97
963.623	1152.72
963.926	1131.93
964.228	1157.7
964.531	1147.07
964.833	1134.19
965.136	1122.44
965.438	1127.41
965.741	1106.85
966.043	1122.22
966.345	1122.89
966.648	1110.24
966.95	1109.56
967.252	1092.61
967.554	1106.85
967.856	1109.34
968.158	1101.65
968.46	1105.72
968.761	1063.69
969.063	1065.27
969.365	1096.91
969.666	1079.28
969.968	1089.67
970.269	1055.78
970.571	1062.56
970.872	1072.27
971.174	1074.99
971.475	1033.18
971.776	1055.33
972.077	1037.02
972.378	1042.44
972.679	1032.5
972.98	1043.57
973.281	1026.63
973.582	1023.24
973.883	1035.89
974.183	1022.11
974.484	1028.43
974.785	987.98
975.085	1015.78
975.386	1025.5
975.686	998.15
975.986	1014.87
976.287	990.92
976.587	989.34
976.887	1006.97
977.187	997.02
977.487	985.04
977.787	983.24
978.087	988.43
978.387	989.56
978.687	956.8
978.987	947.08
979.286	954.31
979.586	972.39
979.885	954.09
980.185	948.89
980.484	948.21
980.784	985.72
981.083	958.38
981.382	962.22
981.682	946.85
981.981	956.12
982.28	942.56
982.579	913.86
982.878	944.37
983.177	925.39
983.475	906.4
983.774	926.74
984.073	933.52
984.372	923.58
984.67	903.92
984.969	913.86
985.267	929.45
985.566	908.21
985.864	911.6
986.162	897.36
986.461	889.68
986.759	892.17
987.057	908.21
987.355	881.77
987.653	891.26
987.951	876.35
988.249	885.84
988.547	900.3
988.844	886.06
989.142	880.41
989.44	876.35
989.737	846.97
990.035	875.22
990.332	900.3
990.63	858.27
990.927	850.58
991.224	842.68
991.521	840.87
991.819	831.6
992.116	838.16
992.413	837.48
992.71	827.08
993.006	838.83
993.303	829.79
993.6	826.63
993.897	819.63
994.193	818.5
994.49	815.11
994.787	816.24
995.083	797.71
995.379	816.46
995.676	794.99
995.972	806.74
996.268	801.55
996.565	792.51
996.861	799.96
997.157	800.87
997.453	785.28
997.749	793.86
998.044	761.32
998.34	796.8
998.636	775.56
998.932	787.54
999.227	774.2
999.523	768.1
999.818	790.93
1000.114	764.71
1000.409	736.46
1000.704	753.41
1001	797.48
1001.295	764.49
1001.59	759.74
1001.885	780.53
1002.18	762.9
1002.475	736.69
1002.77	739.4
1003.065	740.53
1003.359	740.31
1003.654	735.11
1003.949	732.62
1004.243	742.34
1004.538	731.94
1004.832	708.89
1005.127	718.84
1005.421	729.46
1005.715	729.01
1006.009	732.4
1006.304	712.06
1006.598	694.2
1006.892	718.16
1007.186	705.05
1007.48	696.24
1007.773	732.62
1008.067	693.75
1008.361	689.46
1008.655	683.13
1008.948	682.91
1009.242	695.11
1009.535	677.26
1009.829	695.56
1010.122	679.52
1010.415	675.45
1010.708	654.21
1011.001	674.32
1011.295	654.66
1011.588	658.95
1011.881	671.83
1012.173	662.79
1012.466	656.24
1012.759	648.78
1013.052	633.19
1013.344	669.57
1013.637	668.22
1013.93	660.08
1014.222	647.2
1014.514	626.41
1014.807	617.37
1015.099	665.96
1015.391	650.36
1015.683	639.74
1015.976	625.96
1016.268	647.65
1016.56	618.5
1016.851	612.4
1017.143	637.03
1017.435	631.61
1017.727	634.09
1018.018	617.14
1018.31	596.81
1018.602	616.01
1018.893	610.59
1019.185	610.14
1019.476	624.38
1019.767	611.27
1020.058	615.56
1020.35	624.38
1020.641	607.65
1020.932	569.69
1021.223	576.47
1021.514	587.32
1021.804	582.57
1022.095	595
1022.386	571.5
1022.677	586.19
1022.967	574.89
1023.258	578.5
1023.548	581.44
1023.839	559.97
1024.129	587.09
1024.419	569.91
1024.709	564.94
1025	579.41
1025.29	563.81
1025.58	562.46
1025.87	577.37
1026.16	550.25
1026.449	573.53
1026.739	556.36
1027.029	551.38
1027.319	545.73
1027.608	544.15
1027.898	543.7
1028.187	546.19
1028.477	536.92
1028.766	539.63
1029.055	545.51
1029.344	533.98
1029.634	546.19
1029.923	511.38
1030.212	535.11
1030.501	534.21
1030.79	524.49
1031.078	520.2
1031.367	523.36
1031.656	501.44
1031.945	519.07
1032.233	527.66
1032.522	508.9
1032.81	496.92
1033.099	527.2
1033.387	512.29
1033.675	488.33
1033.963	504.38
1034.251	517.49
1034.54	508
1034.828	515.68
1035.116	510.71
1035.403	484.27
1035.691	496.47
1035.979	491.95
1036.267	488.79
1036.554	495.57
1036.842	493.31
1037.129	469.58
1037.417	472.29
1037.704	482.69
1037.992	493.08
1038.279	496.47
1038.566	484.72
1038.853	484.72
1039.14	484.72
