Data from foam2_polystyrene_foam_FLMS001491_00097.txt Node
Date: Wed Feb 08 10:58:47 GMT 2017
User: dcchb
Spectrometer: FLMS00149
Trigger mode: 0
Integration Time (sec): 2.000000E-2
Scans to average: 10
Electric dark correction enabled: true
Nonlinearity correction enabled: false
Boxcar width: 0
XAxis mode: Wavelengths
Number of Pixels in Spectrum: 2048
>>>>>Begin Spectral Data<<<<<
341.393	-4.66
341.776	-4.66
342.16	-4.66
342.543	-53.93
342.927	-53.93
343.31	-71.33
343.693	-60.48
344.077	-56.86
344.46	-41.95
344.843	-57.31
345.226	-36.07
345.61	-40.82
345.993	-13.7
346.376	-17.32
346.759	24.04
347.142	14.55
347.525	33.3
347.908	44.38
348.291	70.59
348.674	100.65
349.057	108.33
349.44	126.18
349.823	139.52
350.206	177.71
350.588	193.3
350.971	211.6
351.354	226.75
351.737	235.78
352.119	275.11
352.502	267.87
352.884	296.57
353.267	297.48
353.65	307.87
354.032	302.68
354.414	314.88
354.797	323.01
355.179	334.31
355.562	320.3
355.944	340.41
356.326	341.77
356.709	345.39
357.091	346.29
357.473	358.72
357.855	339.06
358.238	345.84
358.62	341.09
359.002	343.8
359.384	343.35
359.766	341.09
360.148	345.39
360.53	341.09
360.912	335.44
361.294	341.54
361.676	367.76
362.057	330.7
362.439	356.91
362.821	336.12
363.203	345.61
363.584	325.05
363.966	330.92
364.348	377.25
364.729	347.42
365.111	337.03
365.493	348.55
365.874	351.04
366.256	316.46
366.637	320.53
367.019	332.28
367.4	343.8
367.781	325.27
368.163	339.06
368.544	327.08
368.925	333.64
369.306	326.63
369.688	329.79
370.069	315.56
370.45	348.32
370.831	343.13
371.212	339.96
371.593	331.38
371.974	344.71
372.355	351.94
372.736	334.54
373.117	342
373.498	338.83
373.879	342.45
374.26	337.25
374.641	321.21
375.021	340.87
375.402	349.23
375.783	356.01
376.163	361.43
376.544	372.05
376.925	368.44
377.305	371.83
377.686	367.76
378.066	369.79
378.447	380.64
378.827	372.96
379.208	372.73
379.588	384.26
379.968	373.18
380.349	355.56
380.729	388.1
381.109	374.76
381.489	382
381.87	379.74
382.25	379.06
382.63	396.68
383.01	394.65
383.39	392.16
383.77	379.96
384.15	412.73
384.53	406.18
384.91	409.79
385.29	424.25
385.67	422.67
386.049	419.73
386.429	410.02
386.809	421.99
387.189	424.25
387.568	434.2
387.948	438.94
388.328	432.84
388.707	419.96
389.087	430.58
389.466	449.11
389.846	423.8
390.225	445.95
390.605	444.14
390.984	459.06
391.363	456.57
391.743	469.22
392.122	477.36
392.501	473.29
392.881	448.43
393.26	459.28
393.639	478.49
394.018	466.29
394.397	478.26
394.776	460.86
395.155	489.34
395.534	491.82
395.913	499.28
396.292	497.92
396.671	516.68
397.05	506.06
397.429	519.17
397.808	511.26
398.186	520.07
398.565	520.75
398.944	503.12
399.323	540.18
399.701	541.77
400.08	543.57
400.458	529.11
400.837	559.17
401.215	565.49
401.594	532.5
401.972	548.54
402.351	554.87
402.729	577.7
403.107	593.52
403.486	573.63
403.864	563.23
404.242	566.85
404.62	589
404.999	577.7
405.377	588.54
405.755	613.85
406.133	612.05
406.511	607.07
406.889	625.83
407.267	608.88
407.645	621.76
408.023	636.23
408.401	636.68
408.779	639.39
409.156	630.8
409.534	660.18
409.912	653.85
410.29	652.05
410.667	679.16
411.045	649.11
411.422	692.72
411.8	687.3
412.178	693.85
412.555	717.35
412.933	716.45
413.31	731.82
413.687	727.3
414.065	736.79
414.442	749.9
414.819	737.24
415.197	769.1
415.574	795.09
415.951	784.47
416.328	793.28
416.705	791.25
417.082	778.37
417.46	790.12
417.837	809.1
418.214	791.48
418.591	788.76
418.967	807.75
419.344	821.08
419.721	840.74
420.098	848.42
420.475	866.95
420.852	860.85
421.228	886.62
421.605	878.71
421.982	885.03
422.358	866.5
422.735	912.15
423.111	903.11
423.488	917.8
423.864	942.88
424.241	925.48
424.617	952.6
424.994	900.17
425.37	956.22
425.746	961.42
426.123	956.22
426.499	976.78
426.875	973.62
427.251	1002.54
427.627	1005.03
428.003	1029.66
428.379	1041.41
428.756	1030.79
429.132	1058.81
429.507	1072.82
429.883	1083.45
430.259	1109.43
430.635	1121.64
431.011	1123.67
431.387	1125.93
431.763	1164.12
432.138	1154.86
432.514	1205.7
432.89	1172.48
433.265	1217
433.641	1240.28
434.016	1210.67
434.392	1243.89
434.767	1264.46
435.143	1264.68
435.518	1286.6
435.894	1317.79
436.269	1301.29
436.644	1338.35
437.02	1346.49
437.395	1348.52
437.77	1386.04
438.145	1389.2
438.52	1376.32
438.895	1422.42
439.271	1417
439.646	1442.53
440.021	1454.96
440.395	1475.75
440.77	1447.96
441.145	1475.07
441.52	1523.43
441.895	1521.17
442.27	1527.95
442.645	1545.58
443.019	1542.42
443.394	1541.06
443.769	1563.66
444.143	1553.94
444.518	1586.48
444.892	1602.08
445.267	1591.23
445.641	1634.17
446.016	1654.96
446.39	1634.62
446.764	1642.3
447.139	1647.27
447.513	1688.4
447.887	1702.41
448.262	1698.57
448.636	1725.69
449.01	1727.95
449.384	1744.45
449.758	1752.13
450.132	1773.6
450.506	1817.89
450.88	1812.92
451.254	1786.7
451.628	1830.09
452.002	1848.17
452.376	1887.27
452.75	1892.24
453.123	1915.97
453.497	1945.57
453.871	1900.37
454.244	1965.23
454.618	2004.55
454.992	2022.18
455.365	1986.47
455.739	2078.22
456.112	2057.88
456.486	2079.8
456.859	2109.18
457.232	2155.28
457.606	2136.75
457.979	2163.87
458.352	2207.03
458.725	2242.51
459.099	2257.43
459.472	2264.88
459.845	2301.49
460.218	2321.83
460.591	2322.06
460.964	2318.89
461.337	2364.77
461.71	2405.9
462.083	2443.86
462.456	2417.65
462.829	2448.61
463.201	2495.16
463.574	2483.64
463.947	2539.68
464.32	2611.09
464.692	2613.12
465.065	2560.24
465.438	2628.49
465.81	2645.89
466.183	2728.15
466.555	2774.48
466.928	2776.06
467.3	2773.8
467.672	2830.74
468.045	2895.6
468.417	2912.32
468.789	2946.67
469.161	2933.57
469.534	3007.92
469.906	3065.99
470.278	3092.66
470.65	3091.53
471.022	3130.62
471.394	3204.29
471.766	3224.41
472.138	3276.61
472.51	3324.52
472.882	3396.38
473.253	3436.15
473.625	3449.71
473.997	3543.27
474.369	3555.47
474.74	3587.34
475.112	3693.55
475.484	3686.32
475.855	3768.8
476.227	3808.57
476.598	3929.25
476.97	3892.19
477.341	3997.72
477.713	4046.76
478.084	4112.52
478.455	4234.1
478.827	4233.65
479.198	4317.26
479.569	4359.74
479.94	4489.91
480.311	4541.89
480.682	4574.88
481.053	4720.19
481.424	4776
481.795	4768.77
482.166	4854.19
482.537	4939.16
482.908	5069.56
483.279	5068.65
483.65	5171.7
484.021	5262.09
484.391	5305.03
484.762	5368.31
485.133	5428.19
485.503	5491.69
485.874	5635.19
486.244	5727.17
486.615	5774.85
486.985	5870.44
487.356	5895.07
487.726	5950.21
488.097	6120.6
488.467	6147.27
488.837	6256.19
489.207	6319.24
489.578	6450.99
489.948	6537.31
490.318	6572.34
490.688	6654.83
491.058	6741.83
491.428	6828.61
491.798	6909.51
492.168	7062.05
492.538	7063.4
492.908	7122.16
493.278	7163.06
493.648	7241.93
494.017	7288.71
494.387	7383.62
494.757	7525.54
495.126	7535.93
495.496	7540.9
495.866	7634.69
496.235	7767.34
496.605	7768.92
496.974	7876.94
497.344	7916.94
497.713	7994.9
498.082	8007.11
498.452	8088.91
498.821	8148.57
499.19	8193.54
499.559	8298.62
499.928	8338.62
500.298	8380.2
500.667	8505.4
501.036	8454.78
501.405	8528
501.774	8570.71
502.143	8689.35
502.512	8771.38
502.88	8781.55
503.249	8847.76
503.618	8918.27
503.987	8953.75
504.356	8957.14
504.724	9082.11
505.093	9201.65
505.462	9169.56
505.83	9223.8
506.199	9278.03
506.567	9453.17
506.936	9427.18
507.304	9553.05
507.672	9550.12
508.041	9598.25
508.409	9734.97
508.777	9772.26
509.145	9835.76
509.514	9931.58
509.882	10013.61
510.25	10004.34
510.618	10088.18
510.986	10127.95
511.354	10194.84
511.722	10330.21
512.09	10418.34
512.458	10391.22
512.826	10536.98
513.193	10508.51
513.561	10607.72
513.929	10729.97
514.297	10811.55
514.664	10905.79
515.032	10997.76
515.4	10979.01
515.767	11083.86
516.135	11142.16
516.502	11030.08
516.869	11341.48
517.237	11407.47
517.604	11374.25
517.972	11483.62
518.339	11653.56
518.706	11694.92
519.073	11724.52
519.44	11825.99
519.808	11950.28
520.175	12033.89
520.542	12131.07
520.909	12215.58
521.276	12139.2
521.643	12358.18
522.009	12366.31
522.376	12457.38
522.743	12642.24
523.11	12715
523.477	12813.99
523.843	12874.77
524.21	12998.39
524.577	13111.6
524.943	13131.49
525.31	13218.27
525.676	13336.01
526.043	13418.26
526.409	13532.16
526.776	13680.85
527.142	13710.46
527.508	13755.88
527.874	13934.63
528.241	13951.13
528.607	14002.43
528.973	14218.92
529.339	14162.42
529.705	14371.01
530.071	14439.25
530.437	14568.29
530.803	14585.69
531.169	14599.25
531.535	14632.02
531.901	14783.2
532.267	14861.61
532.632	14887.6
532.998	14902.29
533.364	15144.32
533.73	15105
534.095	15153.81
534.461	15269.51
534.826	15349.74
535.192	15389.28
535.557	15486.23
535.923	15454.82
536.288	15551.54
536.653	15721.03
537.019	15656.17
537.384	15771.2
537.749	15871.53
538.114	15830.4
538.479	15917.86
538.845	16011.87
539.21	15991.53
539.575	16058.87
539.94	16152.43
540.305	16193.33
540.67	16136.84
541.034	16189.26
541.399	16360.11
541.764	16422.7
542.129	16459.99
542.494	16586.32
542.858	16643.04
543.223	16675.35
543.587	16734.33
543.952	16749.25
544.316	16799.64
544.681	16806.2
545.045	16977.04
545.41	17045.06
545.774	17077.15
546.138	17019.98
546.503	17120.76
546.867	17223.36
547.231	17349.46
547.595	17311.72
547.959	17456.35
548.324	17374.32
548.688	17431.72
549.052	17583.58
549.416	17593.29
549.779	17590.36
550.143	17694.53
550.507	17729.11
550.871	17847.07
551.235	17951.03
551.599	18006.16
551.962	18107.63
552.326	18129.78
552.689	18148.31
553.053	18174.07
553.417	18293.39
553.78	18514.63
554.143	18464.23
554.507	18666.49
554.87	18654.28
555.234	18806.82
555.597	18772.7
555.96	18865.35
556.323	18907.61
556.686	18990.09
557.05	19112.58
557.413	19162.29
557.776	19274.15
558.139	19384.21
558.502	19413.13
558.865	19431.44
559.228	19537.88
559.59	19729.28
559.953	19673.92
560.316	19859.22
560.679	19965.44
561.041	20034.36
561.404	20169.5
561.767	20355.03
562.129	20253.11
562.492	20424.63
562.854	20529.26
563.217	20418.53
563.579	20638.19
563.941	20729.03
564.304	20774.68
564.666	21016.03
565.028	21049.02
565.39	21114.78
565.753	21344.38
566.115	21392.97
566.477	21400.2
566.839	21504.6
567.201	21689.01
567.563	21702.34
567.925	21876.8
568.287	21869.34
568.648	21805.39
569.01	21965.38
569.372	22089.67
569.734	22183.91
570.095	22215.55
570.457	22365.82
570.819	22432.26
571.18	22379.61
571.542	22476.1
571.903	22570.79
572.265	22723.1
572.626	22795.87
572.987	22902.99
573.349	22850.78
573.71	23057.78
574.071	23089.65
574.432	23108.86
574.794	23268.85
575.155	23259.13
575.516	23186.14
575.877	23329.41
576.238	23420.49
576.599	23536.64
576.96	23522.63
577.32	23530.54
577.681	23568.96
578.042	23578.45
578.403	23604.89
578.763	23773.7
579.124	23684.89
579.485	23965.1
579.845	23869.06
580.206	23864.77
580.566	23994.71
580.927	23956.07
581.287	23985.67
581.648	23797.2
582.008	23962.84
582.368	23919.46
582.728	23919
583.089	24053.24
583.449	24152.22
583.809	23994.93
584.169	24092.56
584.529	24111.32
584.889	24376.62
585.249	24253.68
585.609	24122.16
585.969	24381.59
586.329	24237.41
586.688	24335.26
587.048	24231.99
587.408	24218.66
587.768	24203.74
588.127	24155.83
588.487	24255.94
588.846	24377.97
589.206	24166.45
589.565	24215.04
589.925	24300.46
590.284	24292.1
590.643	24401.03
591.003	24385.43
591.362	24537.29
591.721	24352.89
592.08	24367.35
592.44	24487.8
592.799	24436.28
593.158	24355.38
593.517	24277.86
593.876	24406.22
594.235	24427.47
594.593	24529.84
594.952	24621.36
595.311	24398.31
595.67	24438.76
596.029	24573.22
596.387	24560.57
596.746	24672.66
597.104	24533.9
597.463	24511.3
597.822	24642.37
598.18	24573.9
598.538	24504.98
598.897	24888.92
599.255	24455.71
599.613	24888.7
599.972	24822.93
600.33	24773.9
600.688	24633.79
601.046	24848.02
601.404	24833.1
601.762	24831.3
602.12	24911.75
602.478	24924.4
602.836	24999.2
603.194	24871.07
603.552	24913.1
603.91	24875.59
604.268	25010.05
604.625	24962.37
604.983	24949.94
605.341	24864.52
605.698	24945.87
606.056	25123.72
606.413	24991.07
606.771	25021.57
607.128	25124.17
607.485	24872.2
607.843	24985.64
608.2	25166.43
608.557	25163.26
608.914	25191.51
609.272	25171.4
609.629	25281.68
609.986	25381.11
610.343	25246.88
610.7	25454.56
611.057	25415.01
611.414	25368.01
611.771	25322.58
612.127	25445.52
612.484	25544.27
612.841	25506.08
613.198	25418.63
613.554	25479.41
613.911	25636.25
614.267	25515.8
614.624	25462.69
614.98	25593.99
615.337	25740.88
615.693	25639.41
616.05	25604.61
616.406	25700.2
616.762	25630.37
617.118	25715.57
617.475	25717.83
617.831	25661.1
618.187	25717.83
618.543	25699.97
618.899	25856.58
619.255	25807.77
619.611	25784.27
619.967	25846.86
620.323	25960.08
620.678	25758.05
621.034	25755.11
621.39	25638.05
621.746	25690.71
622.101	26050.47
622.457	25792.4
622.812	25874.88
623.168	25822.68
623.523	25877.37
623.879	25973.41
624.234	25665.85
624.589	25929.8
624.945	25805.28
625.3	25909.01
625.655	25800.99
626.01	25913.53
626.365	25769.12
626.72	25800.31
627.075	25807.32
627.43	25652.52
627.785	25700.88
628.14	25761.67
628.495	25788.79
628.85	25663.59
629.205	25597.83
629.559	25661.78
629.914	25582.46
630.269	25646.19
630.623	25414.33
630.978	25549.24
631.332	25538.85
631.687	25642.8
632.041	25441.68
632.396	25523.93
632.75	25400.09
633.104	25491.84
633.459	25364.84
633.813	25262.47
634.167	25256.6
634.521	25350.6
634.875	25218.4
635.229	25197.61
635.583	25179.99
635.937	25174.56
636.291	25058.63
636.645	25071.74
636.999	24966.89
637.352	25011.4
637.706	24992.2
638.06	24941.35
638.413	24862.48
638.767	24888.7
639.121	24860.22
639.474	24741.36
639.828	24721.24
640.181	24679.21
640.534	24828.81
640.888	24658.42
641.241	24558.08
641.594	24653.22
641.947	24487.8
642.301	24551.08
642.654	24553.79
643.007	24520.8
643.36	24438.54
643.713	24412.55
644.066	24520.34
644.419	24193.57
644.771	24124.87
645.124	23888.95
645.477	23961.94
645.83	23654.83
646.182	23665.68
646.535	23551.1
646.888	23534.61
647.24	23555.17
647.593	23608.28
647.945	23531.9
648.298	23336.19
648.65	23373.48
649.002	23408.28
649.355	23346.59
649.707	23284.22
650.059	23355.63
650.411	23725.11
650.763	23700.7
651.115	23861.6
651.467	23799.01
651.819	23858.44
652.171	23847.59
652.523	23724.43
652.875	23711.1
653.227	23565.34
653.578	23869.29
653.93	23595.4
654.282	23536.19
654.633	23529.86
654.985	23440.6
655.337	23526.47
655.688	23568.28
656.039	23583.87
656.391	23391.33
656.742	23430.2
657.094	23542.52
657.445	23540.03
657.796	23539.13
658.147	23420.71
658.498	23425.23
658.849	23376.87
659.2	23361.5
659.551	23274.95
659.902	23256.87
660.253	23380.26
660.604	23385.23
660.955	23196.99
661.306	23365.57
661.656	23233.37
662.007	23263.88
662.358	23284.44
662.708	23214.16
663.059	23286.03
663.409	23059.82
663.76	23190.89
664.11	23263.2
664.461	23232.24
664.811	23129.65
665.161	23183.66
665.511	23174.16
665.862	23109.76
666.212	23073.38
666.562	23189.53
666.912	23035.86
667.262	23125.13
667.612	23041.96
667.962	23096.2
668.312	23096.43
668.662	23165.35
669.011	23092.58
669.361	23029.99
669.711	23053.04
670.06	23032.02
670.41	23004
670.76	22954.51
671.109	22972.59
671.459	22836.77
671.808	22928.97
672.157	23039.7
672.507	22858.01
672.856	22864.57
673.205	22872.03
673.554	22983.44
673.904	22853.72
674.253	22984.79
674.602	22808.75
674.951	22566.95
675.3	22348.2
675.649	22768.07
675.998	22757.68
676.346	22747.51
676.695	22862.31
677.044	22611.92
677.393	22767.17
677.741	22790.9
678.09	22721.97
678.438	22651.69
678.787	22673.16
679.135	22707.74
679.484	22446.27
679.832	22679.49
680.181	22570.34
680.529	22625.7
680.877	22501.64
681.225	22492.37
681.573	22524.24
681.922	22407.86
682.27	22299.84
682.618	22359.04
682.966	22157.02
683.314	22245.83
683.661	22221.87
684.009	22089.67
684.357	22148.43
684.705	22020.97
685.053	21973.97
685.4	22060.97
685.748	21953.63
686.095	21987.98
686.443	21775.11
686.79	21846.52
687.138	21909.79
687.485	21831.83
687.832	21737.37
688.18	21813.3
688.527	21677.48
688.874	21621.44
689.221	21600.19
689.568	21557.71
689.915	21402.91
690.262	21472.74
690.609	21425.06
690.956	21265.29
691.303	21270.71
691.65	21164.27
691.997	21266.64
692.344	21076.37
692.69	20988.01
693.037	21010.38
693.383	20898.07
693.73	20992.08
694.077	20846.77
694.423	20794.57
694.769	20759.76
695.116	20793.44
695.462	20676.83
695.808	20632.99
696.155	20706.21
696.501	20544.4
696.847	20537.62
697.193	20324.97
697.539	20526.32
697.885	20310.96
698.231	20192.77
698.577	20135.37
698.923	20191.19
699.269	20115.26
699.614	20022.61
699.96	19896.06
700.306	20018.09
700.651	20002.27
700.997	19841.6
701.342	19946.23
701.688	19854.03
702.033	19796.17
702.379	19753.24
702.724	19714.82
703.069	19741.26
703.415	19475.96
703.76	19493.81
704.105	19447.71
704.45	19388.95
704.795	19267.15
705.14	19159.35
705.485	19192.12
705.83	19093.14
706.175	19132.69
706.52	19016.08
706.865	18999.59
707.209	18907.84
707.554	18930.66
707.899	19010.21
708.243	18885.01
708.588	18858.12
708.932	18727.73
709.277	18739.03
709.621	18770.44
709.966	18560.5
710.31	18657.67
710.654	18510.11
710.998	18483.89
711.342	18546.94
711.687	18354.18
712.031	18389.43
712.375	18253.39
712.719	18361.64
713.063	18264.69
713.407	18256.33
713.75	18122.09
714.094	18140.4
714.438	18155.99
714.782	18205.93
715.125	18180.4
715.469	18154.41
715.812	17996.22
716.156	17882.33
716.499	17938.14
716.843	17975.66
717.186	17780.41
717.53	17863.12
717.873	17810.69
718.216	17766.85
718.559	17712.84
718.902	17459.96
719.246	17665.16
719.589	17534.54
719.932	17505.39
720.275	17496.35
720.617	17556.23
720.96	17510.36
721.303	17461.77
721.646	17424.71
721.989	17376.8
722.331	17435.33
722.674	17286.64
723.016	17286.64
723.359	17259.74
723.701	17260.42
724.044	17125.74
724.386	16982.46
724.729	17110.37
725.071	17068.56
725.413	17100.65
725.755	17049.58
726.097	16922.35
726.439	16929.36
726.782	16961.45
727.124	16980.66
727.465	16812.98
727.807	16891.62
728.149	16873.31
728.491	16780.66
728.833	16813.88
729.175	16805.07
729.516	16714.9
729.858	16766.88
730.199	16624.05
730.541	16699.08
730.882	16523.72
731.224	16636.94
731.565	16551.97
731.906	16546.77
732.248	16608.46
732.589	16382.25
732.93	16317.17
733.271	16399.43
733.612	16360.56
733.953	16397.39
734.294	16330.95
734.635	16366.66
734.976	16294.12
735.317	16144.97
735.658	16259.77
735.999	16176.61
736.339	16168.25
736.68	16210.28
737.021	16122.37
737.361	16133.9
737.702	16099.77
738.042	16040.79
738.383	16032.66
738.723	16058.19
739.063	15896.39
739.404	15873.11
739.744	15966.22
740.084	15756.28
740.424	15769.61
740.764	15724.19
741.104	15877.63
741.444	15759.44
741.784	15638.32
742.124	15714.7
742.464	15760.8
742.804	15646
743.143	15494.14
743.483	15584.76
743.823	15435.84
744.162	15497.3
744.502	15525.55
744.841	15497.53
745.181	15552.44
745.52	15414.59
745.86	15406.69
746.199	15504.31
746.538	15408.27
746.877	15410.3
747.216	15344.54
747.556	15250.76
747.895	15323.07
748.234	15124.88
748.573	15169.18
748.911	15106.81
749.25	15066.81
749.589	15031.33
749.928	15055.96
750.267	15058.22
750.605	15008.96
750.944	15099.12
751.283	14865.23
751.621	14961.95
751.96	14858.45
752.298	14753.37
752.636	14874.27
752.975	14746.14
753.313	14833.14
753.651	14799.02
753.989	14660.04
754.327	14674.95
754.666	14583.43
755.004	14680.6
755.342	14696.2
755.679	14556.54
756.017	14525.13
756.355	14455.98
756.693	14342.08
757.031	14333.27
757.368	14307.28
757.706	14327.39
758.044	14222.76
758.381	14190.67
758.719	14231.12
759.056	14251.46
759.394	14088.98
759.731	14065.48
760.068	14011.02
760.405	13921.3
760.743	14009.43
761.08	13965.14
761.417	13853.05
761.754	13858.7
762.091	13806.28
762.428	13738.71
762.765	13669.33
763.102	13717.92
763.438	13594.76
763.775	13508.2
764.112	13487.87
764.449	13601.31
764.785	13407.19
765.122	13330.13
765.458	13308.89
765.795	13331.26
766.131	13198.83
766.467	13186.4
766.804	13087.65
767.14	13084.71
767.476	13171.26
767.812	12984.15
768.148	13102.11
768.485	12930.14
768.821	12921.33
769.157	12930.14
769.492	12836.58
769.828	12878.84
770.164	12778.51
770.5	12705.06
770.836	12673.88
771.171	12549.13
771.507	12571.96
771.842	12407.22
772.178	12505.74
772.513	12369.93
772.849	12370.83
773.184	12346.88
773.519	12231.85
773.855	12254.68
774.19	12132.2
774.525	12079.09
774.86	12121.57
775.195	12107.79
775.53	12037.96
775.865	11952.99
776.2	11786.89
776.535	11783.96
776.87	11838.87
777.205	11806.78
777.539	11728.36
777.874	11732.66
778.209	11658.31
778.543	11519.1
778.878	11539.89
779.212	11462.83
779.547	11423.97
779.881	11461.93
780.215	11420.58
780.55	11402.5
780.884	11294.48
781.218	11246.34
781.552	11321.37
781.886	11204.76
782.22	11195.04
782.554	11187.59
782.888	11009.51
783.222	10978.33
783.556	10922.28
783.889	10860.82
784.223	10925.22
784.557	10758.22
784.89	10849.07
785.224	10732.46
785.557	10717.77
785.891	10722.97
786.224	10616.08
786.558	10636.42
786.891	10546.93
787.224	10510.77
787.557	10413.6
787.891	10502.63
788.224	10466.93
788.557	10408.17
788.89	10352.58
789.223	10323.66
789.556	10287.95
789.888	10252.47
790.221	10209.99
790.554	10123.43
790.887	10144
791.219	10122.76
791.552	10064.23
791.884	9985.36
792.217	10017.45
792.549	9950.78
792.882	9944
793.214	9871.01
793.546	9869.88
793.879	9863.78
794.211	9740.17
794.543	9750.34
794.875	9720.06
795.207	9731.81
795.539	9705.14
795.871	9677.57
796.203	9661.3
796.535	9561.42
796.867	9475.54
797.198	9470.8
797.53	9489.78
797.862	9461.53
798.193	9438.93
798.525	9391.93
798.856	9355.32
799.188	9276.68
799.519	9226.96
799.85	9230.12
800.182	9283.23
800.513	9227.41
800.844	9176.79
801.175	9171.6
801.506	9160.3
801.837	9106.96
802.168	9093.18
802.499	9014.31
802.83	9046.17
803.161	8958.49
803.491	8968.44
803.822	8987.87
804.153	8896.57
804.483	8837.59
804.814	8753.53
805.145	8818.38
805.475	8844.82
805.805	8719.18
806.136	8748.33
806.466	8812.96
806.796	8798.5
807.126	8687.77
807.457	8649.12
807.787	8655.22
808.117	8640.76
808.447	8629.46
808.777	8569.58
809.107	8537.94
809.436	8532.97
809.766	8446.87
810.096	8471.5
810.426	8441.9
810.755	8396.47
811.085	8395.8
811.414	8388.56
811.744	8316.02
812.073	8326.42
812.403	8369.13
812.732	8238.96
813.061	8248
813.39	8139.98
813.719	8156.93
814.049	8263.14
814.378	8216.37
814.707	8213.88
815.036	8162.13
815.365	8129.59
815.693	8052.53
816.022	8079.65
816.351	8085.07
816.68	8017.73
817.008	8037.16
817.337	7985.86
817.665	8007.33
817.994	7936.83
818.322	7998.74
818.651	7959.65
818.979	7838.52
819.307	7883.95
819.636	7912.65
819.964	7734.8
820.292	7872.19
820.62	7818.64
820.948	7808.92
821.276	7794.91
821.604	7815.92
821.932	7835.36
822.259	7802.14
822.587	7789.26
822.915	7794.68
823.243	7830.16
823.57	7775.93
823.898	7768.92
824.225	7772.99
824.553	7747
824.88	7791.52
825.207	7814.57
825.535	7779.99
825.862	7791.29
826.189	7728.92
826.516	7768.02
826.843	7809.14
827.17	7782.25
827.497	7822.25
827.824	7707
828.151	7715.59
828.478	7764.85
828.805	7814.12
829.131	7808.47
829.458	7799.2
829.785	7746.32
830.111	7714.23
830.438	7829.03
830.764	7743.84
831.09	7774.34
831.417	7726.66
831.743	7774.34
832.069	7773.89
832.395	7750.39
832.722	7698.87
833.048	7682.82
833.374	7739.77
833.7	7699.09
834.026	7680.11
834.351	7725.08
834.677	7625.19
835.003	7707.9
835.329	7640.79
835.654	7660
835.98	7636.04
836.306	7658.87
836.631	7627.45
836.956	7641.92
837.282	7619.55
837.607	7609.38
837.932	7523.73
838.258	7635.59
838.583	7567.57
838.908	7510.17
839.233	7574.57
839.558	7442.37
839.883	7455.71
840.208	7502.49
840.533	7465.88
840.858	7465.43
841.182	7469.72
841.507	7464.97
841.832	7411.19
842.156	7337.07
842.481	7380.91
842.805	7368.03
843.13	7348.59
843.454	7326.45
843.778	7280.8
844.103	7332.32
844.427	7313.79
844.751	7288.03
845.075	7233.11
845.399	7255.26
845.723	7236.73
846.047	7186.34
846.371	7157.86
846.695	7164.19
847.019	7123.29
847.343	7045.55
847.666	7001.48
847.99	7013.01
848.313	7056.4
848.637	7009.17
848.96	6966.68
849.284	7000.8
849.607	6897.08
849.931	6928.49
850.254	6806.01
850.577	6838.55
850.9	6750.19
851.223	6794.93
851.546	6734.82
851.869	6702.73
852.192	6677.65
852.515	6632
852.838	6599.91
853.161	6604.88
853.483	6581.38
853.806	6524.43
854.129	6543.42
854.451	6567.37
854.774	6470.88
855.096	6523.76
855.419	6441.05
855.741	6440.14
856.063	6420.48
856.385	6389.07
856.708	6377.77
857.03	6386.13
857.352	6380.48
857.674	6373.48
857.996	6302.07
858.318	6266.81
858.64	6288.96
858.961	6288.28
859.283	6279.02
859.605	6209.86
859.926	6222.07
860.248	6217.32
860.57	6175.29
860.891	6177.55
861.212	6173.03
861.534	6148.62
861.855	6120.83
862.176	6100.49
862.498	6130.77
862.819	6124.67
863.14	6111.34
863.461	6119.7
863.782	6057.78
864.103	6105.69
864.424	6084.44
864.745	6030.89
865.065	6042.86
865.386	5988.4
865.707	6092.58
866.027	5982.98
866.348	5960.61
866.668	6015.75
866.989	5983.43
867.309	5932.36
867.63	5929.65
867.95	6026.37
868.27	5942.53
868.59	5942.08
868.91	5936.88
869.23	5903.88
869.55	5880.83
869.87	5889.42
870.19	5841.29
870.51	5872.7
870.83	5858.46
871.15	5793.15
871.469	5861.17
871.789	5799.48
872.109	5844.45
872.428	5815.3
872.748	5821.17
873.067	5804
873.386	5824.79
873.706	5856.2
874.025	5789.31
874.344	5801.74
874.663	5800.84
874.982	5770.33
875.301	5757.9
875.62	5758.35
875.939	5695.3
876.258	5738.01
876.577	5751.57
876.896	5732.36
877.214	5699.6
877.533	5676.77
877.852	5677.45
878.17	5658.02
878.489	5693.72
878.807	5621.86
879.125	5602.42
879.444	5620.95
879.762	5604.46
880.08	5648.52
880.398	5541.63
880.716	5586.15
881.034	5601.52
881.352	5535.76
881.67	5546.38
881.988	5568.3
882.306	5559.71
882.624	5532.14
882.941	5485.14
883.259	5474.74
883.577	5513.61
883.894	5476.1
884.212	5429.55
884.529	5435.2
884.846	5420.28
885.164	5457.12
885.481	5406.72
885.798	5462.99
886.115	5367.63
886.432	5456.66
886.75	5393.62
887.067	5344.58
887.383	5334.41
887.7	5374.63
888.017	5352.26
888.334	5331.47
888.651	5317.46
888.967	5269.32
889.284	5265.03
889.6	5270.68
889.917	5260.06
890.233	5246.5
890.55	5206.28
890.866	5242.88
891.182	5140.74
891.498	5161.3
891.815	5119.27
892.131	5130.35
892.447	5125.37
892.763	5112.04
893.079	5105.49
893.395	5101.19
893.71	5069.56
894.026	5052.61
894.342	5060.06
894.657	5028.2
894.973	4998.82
895.289	5014.87
895.604	4991.37
895.92	4974.64
896.235	4944.14
896.55	4997.24
896.865	4911.82
897.181	4898.04
897.496	4852.16
897.811	4827.98
898.126	4836.57
898.441	4831.37
898.756	4839.05
899.071	4852.39
899.386	4814.2
899.7	4762.45
900.015	4772.84
900.33	4735.55
900.644	4778.72
900.959	4752.95
901.273	4707.76
901.588	4658.72
901.902	4638.15
902.216	4670.24
902.531	4642.9
902.845	4618.49
903.159	4571.94
903.473	4583.47
903.787	4565.39
904.101	4544.15
904.415	4529.68
904.729	4547.54
905.042	4474.54
905.356	4499.85
905.67	4482.9
905.984	4490.81
906.297	4483.58
906.611	4429.12
906.924	4433.87
907.237	4378.27
907.551	4424.83
907.864	4363.36
908.177	4369.01
908.491	4349.57
908.804	4317.71
909.117	4346.19
909.43	4257.6
909.743	4327.88
910.056	4260.09
910.368	4232.97
910.681	4220.76
910.994	4213.53
911.307	4145.06
911.619	4158.39
911.932	4183.03
912.244	4094.89
912.557	4123.37
912.869	4111.62
913.181	4119.75
913.494	4081.79
913.806	4045.63
914.118	4078.17
914.43	4011.5
914.742	4012.18
915.054	3965.86
915.366	4017.38
915.678	3987.78
915.99	3970.83
916.302	3914.78
916.613	3924.28
916.925	3936.93
917.236	3924.73
917.548	3889.7
917.859	3923.15
918.171	3853.32
918.482	3832.3
918.794	3833.88
919.105	3803.37
919.416	3801.79
919.727	3785.75
920.038	3789.82
920.349	3761.79
920.66	3760.89
920.971	3718.86
921.282	3707.33
921.593	3689.93
921.903	3668.01
922.214	3678.63
922.525	3621.68
922.835	3613.55
923.146	3595.47
923.456	3614.23
923.767	3544.85
924.077	3625.3
924.387	3545.98
924.697	3540.1
925.008	3532.65
925.318	3510.05
925.628	3492.65
925.938	3494.91
926.248	3419.43
926.558	3437.96
926.867	3437.28
927.177	3428.47
927.487	3383.95
927.796	3352.76
928.106	3387.34
928.416	3369.04
928.725	3351.18
929.034	3300.11
929.344	3353.67
929.653	3342.6
929.962	3289.04
930.271	3270.73
930.581	3279.09
930.89	3266.89
931.199	3272.32
931.508	3262.15
931.817	3231.64
932.125	3244.07
932.434	3200.45
932.743	3169.94
933.051	3144.63
933.36	3140.34
933.669	3136.5
933.977	3132.66
934.286	3121.13
934.594	3111.42
934.902	3075.71
935.21	3064.86
935.519	3068.25
935.827	3067.57
936.135	3049.04
936.443	3006.56
936.751	3041.13
937.059	3002.72
937.367	3020.8
937.674	2999.78
937.982	2981.48
938.29	2949.39
938.597	2963.17
938.905	2908.26
939.213	2927.69
939.52	2905.55
939.827	2893.57
940.135	2891.31
940.442	2860.12
940.749	2837.75
941.056	2858.99
941.363	2818.32
941.67	2836.17
941.977	2819.22
942.284	2805.21
942.591	2807.24
942.898	2781.93
943.205	2778.99
943.511	2751.88
943.818	2737.87
944.125	2724.31
944.431	2732.89
944.738	2726.79
945.044	2709.17
945.35	2701.48
945.657	2677.98
945.963	2668.04
946.269	2675.04
946.575	2623.07
946.881	2642.05
947.187	2634.37
947.493	2600.92
947.799	2598.66
948.105	2573.35
948.41	2560.24
948.716	2573.12
949.022	2546.46
949.327	2558.66
949.633	2510.98
949.938	2518.44
950.244	2528.61
950.549	2503.75
950.854	2463.75
951.16	2482.73
951.465	2478.89
951.77	2463.97
952.075	2430.98
952.38	2418.1
952.685	2463.3
952.99	2426.46
953.294	2436.86
953.599	2432.79
953.904	2388.27
954.209	2362.96
954.513	2374.71
954.818	2349.85
955.122	2342.62
955.426	2376.75
955.731	2340.59
956.035	2316.63
956.339	2324.77
956.643	2330.87
956.948	2294.49
957.252	2301.49
957.556	2306.46
957.86	2264.66
958.163	2240.93
958.467	2288.16
958.771	2253.81
959.075	2260.14
959.378	2249.29
959.682	2200.7
959.985	2204.55
960.289	2206.81
960.592	2197.77
960.896	2180.14
961.199	2193.7
961.502	2165
961.805	2103.53
962.108	2107.83
962.411	2130.88
962.714	2100.14
963.017	2142.85
963.32	2106.92
963.623	2117.09
963.926	2110.09
964.228	2103.98
964.531	2059.24
964.833	2054.27
965.136	2049.97
965.438	2032.12
965.741	2063.99
966.043	2042.06
966.345	2021.05
966.648	2023.53
966.95	2001.84
967.252	2010.2
967.554	1990.09
967.856	1983.76
968.158	1981.28
968.46	1968.17
968.761	1950.32
969.063	1963.65
969.365	1950.99
969.666	1951.9
969.968	1938.56
970.269	1941.5
970.571	1903.54
970.872	1912.12
971.174	1909.19
971.475	1908.51
971.776	1903.54
972.077	1886.59
972.378	1873.71
972.679	1882.3
972.98	1867.83
973.281	1868.74
973.582	1870.77
973.883	1845.46
974.183	1808.85
974.484	1835.97
974.785	1800.26
975.085	1826.7
975.386	1796.2
975.686	1804.33
975.986	1771.79
976.287	1763.43
976.587	1770.21
976.887	1783.09
977.187	1744.67
977.487	1758.46
977.787	1766.59
978.087	1719.81
978.387	1724.33
978.687	1724.33
978.987	1685.92
979.286	1686.37
979.586	1715.52
979.885	1714.39
980.185	1684.33
980.484	1682.98
980.784	1676.65
981.083	1688.63
981.382	1666.03
981.682	1647.73
981.981	1620.38
982.28	1637.56
982.579	1655.41
982.878	1636.43
983.177	1627.39
983.475	1621.74
983.774	1603.88
984.073	1581.06
984.372	1601.62
984.67	1617.22
984.969	1566.82
985.267	1565.47
985.566	1569.31
985.864	1579.25
986.162	1556.43
986.461	1554.85
986.759	1543.32
987.057	1526.37
987.355	1525.69
987.653	1516.2
987.951	1490.89
988.249	1511.01
988.547	1508.29
988.844	1479.82
989.142	1493.83
989.44	1466.49
989.737	1461.06
990.035	1474.62
990.332	1451.8
990.63	1467.84
990.927	1451.12
991.224	1449.76
991.521	1443.89
991.819	1447.73
992.116	1429.2
992.413	1404.57
992.71	1419.71
993.006	1391.69
993.303	1391.01
993.6	1388.3
993.897	1377.9
994.193	1391.23
994.49	1392.82
994.787	1386.94
995.083	1385.59
995.379	1366.6
995.676	1339.71
995.972	1354.85
996.268	1322.76
996.565	1341.74
996.861	1339.03
997.157	1319.37
997.453	1318.92
997.749	1308.75
998.044	1305.81
998.34	1316.43
998.636	1283.44
998.932	1273.27
999.227	1267.85
999.523	1296.77
999.818	1289.54
1000.114	1271.69
1000.409	1287.06
1000.704	1265.81
1001	1261.07
1001.295	1254.29
1001.59	1235.08
1001.885	1252.48
1002.18	1223.78
1002.475	1216.32
1002.77	1239.83
1003.065	1220.17
1003.359	1210
1003.654	1202.99
1003.949	1199.83
1004.243	1245.25
1004.538	1208.19
1004.832	1182.65
1005.127	1197.79
1005.421	1164.35
1005.715	1170.9
1006.009	1170
1006.304	1183.78
1006.598	1152.82
1006.892	1152.82
1007.186	1158.7
1007.48	1148.3
1007.773	1111.69
1008.067	1120.06
1008.361	1108.3
1008.655	1126.16
1008.948	1102.65
1009.242	1083.9
1009.535	1070.34
1009.829	1081.19
1010.122	1079.6
1010.415	1083.45
1010.708	1078.47
1011.001	1071.92
1011.295	1053.16
1011.588	1039.61
1011.881	1028.76
1012.173	1051.36
1012.466	1022.66
1012.759	1030.11
1013.052	1055.42
1013.344	1025.59
1013.637	1047.97
1013.93	1012.04
1014.222	984.01
1014.514	1001.41
1014.807	987.4
1015.099	984.01
1015.391	965.71
1015.683	970.91
1015.976	977.91
1016.268	957.57
1016.56	986.05
1016.851	973.17
1017.143	959.61
1017.435	969.55
1017.727	940.62
1018.018	918.48
1018.31	943.11
1018.602	923
1018.893	912.83
1019.185	942.88
1019.476	912.15
1019.767	925.03
1020.058	910.12
1020.35	876.9
1020.641	892.72
1020.932	886.39
1021.223	888.87
1021.514	880.06
1021.804	871.02
1022.095	874.86
1022.386	859.05
1022.677	850.23
1022.967	852.72
1023.258	851.81
1023.548	855.88
1023.839	842.77
1024.129	856.56
1024.419	821.31
1024.709	825.6
1025	821.76
1025.29	829.67
1025.58	826.5
1025.87	820.4
1026.16	820.4
1026.449	796.22
1026.739	808.65
1027.029	793.51
1027.319	790.35
1027.608	790.8
1027.898	774.75
1028.187	804.13
1028.477	767.52
1028.766	773.17
1029.055	776.11
1029.344	781.99
1029.634	763
1029.923	767.3
1030.212	756.22
1030.501	771.36
1030.79	741.08
1031.078	745.38
1031.367	747.18
1031.656	728.43
1031.945	715.55
1032.233	737.69
1032.522	730.69
1032.81	716.45
1033.099	703.34
1033.387	678.71
1033.675	694.3
1033.963	691.37
1034.251	723.46
1034.54	679.16
1034.828	708.99
1035.116	684.13
1035.403	684.36
1035.691	673.06
1035.979	698.6
1036.267	684.59
1036.554	678.94
1036.842	671.03
1037.129	667.19
1037.417	666.73
1037.704	669.67
1037.992	680.29
1038.279	650.01
1038.566	650.92
1038.853	650.92
1039.14	650.92
