Data from foam1_polythene_foam_FLMS001491_00092.txt Node
Date: Wed Feb 08 10:55:39 GMT 2017
User: dcchb
Spectrometer: FLMS00149
Trigger mode: 0
Integration Time (sec): 2.000000E-2
Scans to average: 10
Electric dark correction enabled: true
Nonlinearity correction enabled: false
Boxcar width: 0
XAxis mode: Wavelengths
Number of Pixels in Spectrum: 2048
>>>>>Begin Spectral Data<<<<<
341.393	-16.07
341.776	-16.07
342.16	-16.07
342.543	-54.26
342.927	-68.95
343.31	-69.18
343.693	-73.25
344.077	-49.29
344.46	-70.31
344.843	-41.16
345.226	-31.89
345.61	-32.34
345.993	-31.89
346.376	-11.1
346.759	18.28
347.142	22.57
347.525	26.41
347.908	56.92
348.291	89.46
348.674	94.66
349.057	102.12
349.44	128.33
349.823	131.49
350.206	183.24
350.588	177.59
350.971	195.67
351.354	176.69
351.737	207.42
352.119	219.85
352.502	245.39
352.884	242.68
353.267	268.21
353.65	282.45
354.032	276.35
354.414	284.26
354.797	309.79
355.179	293.07
355.562	313.18
355.944	322.45
356.326	309.57
356.709	332.39
357.091	293.98
357.473	326.97
357.855	339.17
358.238	326.29
358.62	311.38
359.002	330.13
359.384	309.79
359.766	343.47
360.148	324.26
360.53	318.16
360.912	327.42
361.294	326.97
361.676	300.75
362.057	322.9
362.439	319.51
362.821	304.14
363.203	321.77
363.584	315.67
363.966	306.18
364.348	301.66
364.729	308.21
365.111	300.53
365.493	302.11
365.874	316.8
366.256	325.61
366.637	294.2
367.019	303.24
367.4	308.89
367.781	300.53
368.163	305.73
368.544	294.88
368.925	291.04
369.306	305.5
369.688	305.27
370.069	289.68
370.45	295.33
370.831	286.97
371.212	296.01
371.593	297.37
371.974	298.72
372.355	289.68
372.736	306.86
373.117	281.55
373.498	309.57
373.879	286.74
374.26	288.55
374.641	324.03
375.021	315.44
375.402	310.7
375.783	317.48
376.163	302.56
376.544	317.25
376.925	310.7
377.305	301.21
377.686	297.82
378.066	302.56
378.447	336.01
378.827	333.07
379.208	314.99
379.588	314.77
379.968	321.77
380.349	316.12
380.729	338.72
381.109	318.38
381.489	304.37
381.87	315.22
382.25	330.81
382.63	343.92
383.01	336.46
383.39	312.28
383.77	312.05
384.15	334.88
384.53	325.39
384.91	338.04
385.29	326.52
385.67	293.98
386.049	339.17
386.429	323.35
386.809	348.21
387.189	330.58
387.568	346.63
387.948	331.94
388.328	325.16
388.707	342.11
389.087	354.99
389.466	369.68
389.846	358.15
390.225	344.14
390.605	362.9
390.984	361.09
391.363	335.56
391.743	358.15
392.122	376.46
392.501	347.99
392.881	349.57
393.26	367.42
393.639	367.42
394.018	370.58
394.397	361.54
394.776	365.39
395.155	356.35
395.534	360.87
395.913	353.86
396.292	378.49
396.671	383.46
397.05	378.49
397.429	376.69
397.808	376.46
398.186	384.14
398.565	366.29
398.944	389.79
399.323	403.12
399.701	398.83
400.08	386.85
400.458	379.4
400.837	391.83
401.215	399.28
401.594	400.64
401.972	402
402.351	398.61
402.729	408.77
403.107	397.7
403.486	404.48
403.864	408.1
404.242	392.73
404.62	418.72
404.999	408.77
405.377	425.72
405.755	423.24
406.133	426.63
406.511	425.27
406.889	405.61
407.267	417.14
407.645	423.24
408.023	428.21
408.401	430.24
408.779	431.6
409.156	441.99
409.534	433.41
409.912	432.73
410.29	428.44
410.667	462.33
411.045	448.55
411.422	447.87
411.8	437.25
412.178	461.88
412.555	465.27
412.933	475.44
413.31	450.58
413.687	490.58
414.065	483.35
414.442	484.93
414.819	490.13
415.197	499.62
415.574	474.76
415.951	483.12
416.328	507.76
416.705	495.55
417.082	521.09
417.46	491.26
417.837	514.99
418.214	489
418.591	514.99
418.967	530.81
419.344	516.79
419.721	518.15
420.098	521.09
420.475	530.58
420.852	524.7
421.228	528.77
421.605	529.9
421.982	538.04
422.358	538.71
422.735	526.29
423.111	561.09
423.488	543.46
423.864	545.95
424.241	535.55
424.617	541.2
424.994	569.67
425.37	576.45
425.746	570.8
426.123	572.39
426.499	584.59
426.875	587.98
427.251	593.63
427.627	590.24
428.003	594.08
428.379	593.4
428.756	608.77
429.132	604.7
429.507	616.23
429.883	644.02
430.259	632.27
430.635	623.91
431.011	616.68
431.387	633.85
431.763	653.51
432.138	682.44
432.514	665.72
432.89	653.74
433.265	690.12
433.641	678.82
434.016	693.29
434.392	711.59
434.767	692.61
435.143	729.22
435.518	721.53
435.894	713.17
436.269	727.64
436.644	717.69
437.02	740.07
437.395	737.13
437.77	756.11
438.145	776.22
438.52	765.38
438.895	766.28
439.271	769.67
439.646	773.74
440.021	789.1
440.395	787.75
440.77	776.45
441.145	798.59
441.52	831.36
441.895	827.75
442.27	819.39
442.645	826.62
443.019	862.77
443.394	850.57
443.769	851.7
444.143	850.57
444.518	857.8
444.892	870.01
445.267	869.1
445.641	886.95
446.016	912.72
446.39	913.62
446.764	917.91
447.139	903.9
447.513	920.63
447.887	905.71
448.262	928.76
448.636	928.99
449.01	934.86
449.384	964.69
449.758	960.4
450.132	1002.88
450.506	974.64
450.88	998.36
451.254	988.42
451.628	983.22
452.002	1002.88
452.376	1005.82
452.75	997.69
453.123	1023.67
453.497	1047.4
453.871	1029.1
454.244	1072.94
454.618	1066.16
454.992	1059.83
455.365	1076.55
455.739	1091.47
456.112	1088.08
456.486	1097.57
456.859	1094.18
457.232	1126.27
457.606	1119.04
457.979	1119.94
458.352	1135.76
458.725	1155.42
459.099	1149.09
459.472	1154.52
459.845	1174.86
460.218	1210.11
460.591	1169.21
460.964	1188.87
461.337	1214.63
461.71	1214.18
462.083	1238.36
462.456	1232.71
462.829	1244.68
463.201	1254.4
463.574	1257.57
463.947	1300.05
464.32	1286.72
464.692	1290.33
465.065	1298.69
465.438	1318.36
465.81	1297.11
466.183	1343.44
466.555	1365.59
466.928	1373.49
467.3	1374.85
467.672	1386.15
468.045	1414.4
468.417	1431.57
468.789	1434.96
469.161	1437
469.534	1430.22
469.906	1471.12
470.278	1500.95
470.65	1496.66
471.022	1536.2
471.394	1542.53
471.766	1559.48
472.138	1596.77
472.51	1604.9
472.882	1625.24
473.253	1638.57
473.625	1676.99
473.997	1679.7
474.369	1667.05
474.74	1727.38
475.112	1710.44
475.484	1745.91
475.855	1787.04
476.227	1789.76
476.598	1816.87
476.97	1832.92
477.341	1905.68
477.713	1894.84
478.084	1898.45
478.455	1953.37
478.827	1979.81
479.198	2039.01
479.569	2013.25
479.94	2041.73
480.311	2067.49
480.682	2133.02
481.053	2164.43
481.424	2201.04
481.795	2239.01
482.166	2252.57
482.537	2304.77
482.908	2323.98
483.279	2342.74
483.65	2391.77
484.021	2404.65
484.391	2464.99
484.762	2465.67
485.133	2457.31
485.503	2529.17
485.874	2539.57
486.244	2602.16
486.615	2624.08
486.985	2651.88
487.356	2695.72
487.726	2719.9
488.097	2775.27
488.467	2790.18
488.837	2831.76
489.207	2883.06
489.578	2901.59
489.948	2920.57
490.318	2948.82
490.688	3029.95
491.058	3027.91
491.428	3097.29
491.798	3090.06
492.168	3156.05
492.538	3163.73
492.908	3220.23
493.278	3256.84
493.648	3240.79
494.017	3282.6
494.387	3330.05
494.757	3373.22
495.126	3408.7
495.496	3386.32
495.866	3420.22
496.235	3456.38
496.605	3471.29
496.974	3512.2
497.344	3555.13
497.713	3599.43
498.082	3605.75
498.452	3648.69
498.821	3681.91
499.19	3596.26
499.559	3733.21
499.928	3706.31
500.298	3741.34
500.667	3805.3
501.036	3760.55
501.405	3842.81
501.774	3829.93
502.143	3830.61
502.512	3876.71
502.88	3924.61
503.249	3924.61
503.618	3970.94
503.987	4010.94
504.356	4003.03
504.724	4020.43
505.093	4070.83
505.462	4074.89
505.83	4116.93
506.199	4164.61
506.567	4214.78
506.936	4210.48
507.304	4248.22
507.672	4227.43
508.041	4279.41
508.409	4353.08
508.777	4369.57
509.145	4417.71
509.514	4425.62
509.882	4452.28
510.25	4447.99
510.618	4450.7
510.986	4539.51
511.354	4578.16
511.722	4596.91
512.09	4634.65
512.458	4605.5
512.826	4659.28
513.193	4703.58
513.561	4737.25
513.929	4814.31
514.297	4846.4
514.664	4850.92
515.032	4874.65
515.4	4910.8
515.767	4956.9
516.135	4978.37
516.502	4968.65
516.869	5077.35
517.237	5045.94
517.604	5058.37
517.972	5114.19
518.339	5151.7
518.706	5183.11
519.073	5200.06
519.44	5239.83
519.808	5265.37
520.175	5309.21
520.542	5377.46
520.909	5402.54
521.276	5434.41
521.643	5446.16
522.009	5507.85
522.376	5573.38
522.743	5593.5
523.11	5621.52
523.477	5714.17
523.843	5738.13
524.21	5803.21
524.577	5838.69
524.943	5862.87
525.31	5900.83
525.676	5895.86
526.043	5974.05
526.409	6028.97
526.776	6058.34
527.142	6079.59
527.508	6163.2
527.874	6198.45
528.241	6270.09
528.607	6280.03
528.973	6273.25
529.339	6306.92
529.705	6392.35
530.071	6428.96
530.437	6428.28
530.803	6512.57
531.169	6545.34
531.535	6510.54
531.901	6544.66
532.267	6596.18
532.632	6637.54
532.998	6704.65
533.364	6769.29
533.73	6782.62
534.095	6818.55
534.461	6782.17
534.826	6807.93
535.192	6825.55
535.557	6881.82
535.923	6931.99
536.288	6930.41
536.653	7051.54
537.019	6995.49
537.384	7026.68
537.749	7093.57
538.114	7058.77
538.479	7040.69
538.845	7172.89
539.21	7149.16
539.575	7213.57
539.94	7200.91
540.305	7234.13
540.67	7223.96
541.034	7323.85
541.399	7320.23
541.764	7312.55
542.129	7393
542.494	7414.01
542.858	7370.85
543.223	7470.51
543.587	7459.66
543.952	7438.87
544.316	7492.88
544.681	7508.93
545.045	7614.23
545.41	7597.29
545.774	7629.83
546.138	7695.81
546.503	7686.78
546.867	7661.69
547.231	7717.06
547.595	7771.07
547.959	7881.12
548.324	7858.52
548.688	7818.75
549.052	7875.24
549.416	7931.97
549.779	7919.54
550.143	7916.83
550.507	7992.08
550.871	8026.65
551.235	8093.77
551.599	8137.38
551.962	8071.62
552.326	8118.63
552.689	8150.04
553.053	8128.8
553.417	8211.51
553.78	8277.27
554.143	8275.01
554.507	8362.92
554.87	8314.78
555.234	8441.11
555.597	8354.55
555.96	8404.72
556.323	8506.64
556.686	8516.36
557.05	8581.22
557.413	8527.66
557.776	8655.79
558.139	8714.54
558.502	8636.81
558.865	8659.41
559.228	8791.15
559.59	8807.88
559.953	8735.56
560.316	8916.12
560.679	8924.71
561.041	8980.98
561.404	8936.69
561.767	8994.54
562.129	8928.1
562.492	9133.06
562.854	9157.47
563.217	9201.54
563.579	9208.77
563.941	9298.94
564.304	9310.69
564.666	9399.72
565.028	9312.27
565.39	9365.15
565.753	9437.46
566.115	9461.19
566.477	9514.75
566.839	9618.93
567.201	9654.86
567.563	9660.28
567.925	9743.44
568.287	9653.05
568.648	9731.24
569.01	9699.38
569.372	9800.39
569.734	9819.83
570.095	9900.5
570.457	9944.12
570.819	9917.45
571.18	9935.76
571.542	9989.31
571.903	10010.78
572.265	10083.77
572.626	10062.53
572.987	10114.96
573.349	10157.44
573.71	10188.18
574.071	10244.67
574.432	10284.22
574.794	10298.46
575.155	10326.48
575.516	10286.48
575.877	10302.07
576.238	10350.21
576.599	10391.34
576.96	10453.03
577.32	10394.95
577.681	10463.2
578.042	10413.03
578.403	10488.06
578.763	10481.28
579.124	10462.75
579.485	10533.71
579.845	10584.1
580.206	10508.17
580.566	10566.7
580.927	10633.82
581.287	10653.93
581.648	10559.02
582.008	10663.42
582.368	10581.84
582.728	10716.75
583.089	10655.28
583.449	10648.05
583.809	10640.82
584.169	10664.1
584.529	10591.11
584.889	10699.13
585.249	10638.56
585.609	10561.73
585.969	10671.78
586.329	10723.53
586.688	10750.2
587.048	10709.97
587.408	10705.45
587.768	10715.62
588.127	10635.17
588.487	10646.25
588.846	10692.8
589.206	10621.16
589.565	10655.74
589.925	10627.94
590.284	10659.13
590.643	10725.34
591.003	10844.21
591.362	10757.2
591.721	10739.35
592.08	10669.97
592.44	10706.81
592.799	10760.59
593.158	10702.06
593.517	10729.86
593.876	10713.81
594.235	10719.01
594.593	10783.64
594.952	10780.25
595.311	10725.79
595.67	10772.57
596.029	10759.91
596.387	10798.56
596.746	10839.46
597.104	10738.9
597.463	10786.35
597.822	10834.04
598.18	10833.36
598.538	10840.59
598.897	10852.12
599.255	10822.51
599.613	10974.82
599.972	10872.91
600.33	10908.16
600.688	10779.12
601.046	10909.74
601.404	10930.08
601.762	10912.68
602.12	10957.88
602.478	10941.38
602.836	10954.03
603.194	10842.4
603.552	10819.12
603.91	10831.55
604.268	10916.07
604.625	10866.35
604.983	10967.82
605.341	10924.2
605.698	10964.88
606.056	10993.36
606.413	10988.84
606.771	11050.75
607.128	10956.29
607.485	10895.73
607.843	10996.07
608.2	11013.47
608.557	11052.11
608.914	11048.27
609.272	11107.48
609.629	11168.49
609.986	11198.77
610.343	11101.37
610.7	11171.2
611.057	11124.65
611.414	11104.31
611.771	11129.4
612.127	11184.99
612.484	11178.89
612.841	11147.7
613.198	11183.18
613.554	11208.49
613.911	11271.99
614.267	11298.88
614.624	11300.69
614.98	11318.77
615.337	11243.74
615.693	11230.64
616.05	11219.11
616.406	11222.5
616.762	11295.49
617.118	11265.44
617.475	11297.3
617.831	11295.72
618.187	11304.08
618.543	11295.72
618.899	11343.63
619.255	11328.04
619.611	11388.6
619.967	11338.43
620.323	11453.91
620.678	11295.95
621.034	11357.64
621.39	11366.45
621.746	11431.31
622.101	11435.38
622.457	11302.5
622.812	11363.74
623.168	11341.82
623.523	11368.03
623.879	11406.23
624.234	11406.45
624.589	11349.28
624.945	11403.97
625.3	11398.54
625.655	11421.59
626.01	11378.2
626.365	11381.37
626.72	11337.3
627.075	11293.91
627.43	11361.03
627.785	11326.68
628.14	11340.69
628.495	11450.74
628.85	11356.51
629.205	11305.44
629.559	11403.06
629.914	11303.4
630.269	11343.4
630.623	11212.78
630.978	11212.56
631.332	11254.14
631.687	11223.41
632.041	11261.82
632.396	11176.63
632.75	11230.18
633.104	11201.49
633.459	11189.96
633.813	11161.94
634.167	11095.95
634.521	11182.05
634.875	11150.86
635.229	11087.82
635.583	10997.65
635.937	11126.01
636.291	11076.29
636.645	11073.35
636.999	11078.78
637.352	11124.2
637.706	11012.56
638.06	11086.46
638.413	10959.01
638.767	10896.18
639.121	11044.65
639.474	10911.78
639.828	10895.28
640.181	10922.17
640.534	10965.79
640.888	10877.88
641.241	10869.29
641.594	10931.44
641.947	10952.9
642.301	10816.41
642.654	10811.44
643.007	10813.92
643.36	10795.85
643.713	10743.87
644.066	10805.56
644.419	10788.84
644.771	10701.61
645.124	10676.53
645.477	10681.27
645.83	10489.41
646.182	10537.1
646.535	10383.43
646.888	10405.12
647.24	10393.37
647.593	10390.43
647.945	10328.06
648.298	10410.09
648.65	10282.19
649.002	10227.73
649.355	10336.2
649.707	10309.98
650.059	10328.06
650.411	10480.15
650.763	10449.87
651.115	10567.83
651.467	10547.49
651.819	10464.33
652.171	10513.59
652.523	10435.4
652.875	10440.83
653.227	10432.92
653.578	10509.53
653.93	10430.43
654.282	10422.52
654.633	10398.34
654.985	10370.55
655.337	10377.1
655.688	10354.95
656.039	10357.89
656.391	10292.13
656.742	10279.25
657.094	10370.77
657.445	10365.8
657.796	10348.85
658.147	10348.63
658.498	10293.94
658.849	10357.21
659.2	10337.55
659.551	10262.98
659.902	10278.8
660.253	10328.97
660.604	10306.37
660.955	10218.01
661.306	10232.7
661.656	10196.99
662.007	10310.89
662.358	10295.52
662.708	10291.68
663.059	10257.78
663.409	10127.84
663.76	10200.16
664.11	10227.73
664.461	10238.8
664.811	10202.19
665.161	10161.29
665.511	10131
665.862	10276.09
666.212	10160.38
666.562	10150.21
666.912	10195.86
667.262	10168.74
667.612	10148.86
667.962	10173.94
668.312	10133.72
668.662	10158.8
669.011	10171.68
669.361	10146.37
669.711	10117.67
670.06	10114.28
670.41	10060.72
670.76	10013.27
671.109	10074.06
671.459	10066.15
671.808	10151.12
672.157	10082.87
672.507	10007.39
672.856	10078.58
673.205	10063.44
673.554	10081.97
673.904	10035.64
674.253	10067.96
674.602	9976.66
674.951	9842.42
675.3	9826.83
675.649	9958.13
675.998	9957.68
676.346	9999.93
676.695	9991.8
677.044	10005.81
677.393	9930.78
677.741	9950.67
678.09	9967.17
678.438	9899.15
678.787	9899.6
679.135	9814.18
679.484	9846.72
679.832	9845.59
680.181	9798.36
680.529	9877.23
680.877	9807.85
681.225	9781.64
681.573	9892.37
681.922	9767.17
682.27	9760.85
682.618	9792.26
682.966	9760.62
683.314	9787.96
683.661	9683.11
684.009	9723.78
684.357	9636.78
684.705	9689.21
685.053	9697.12
685.4	9629.78
685.748	9616.44
686.095	9558.82
686.443	9560.62
686.79	9539.16
687.138	9630.68
687.485	9641.75
687.832	9562.88
688.18	9479.04
688.527	9479.5
688.874	9413.28
689.221	9378.26
689.568	9348.65
689.915	9370.8
690.262	9453.73
690.609	9286.96
690.956	9273.63
691.303	9321.76
691.65	9306.85
691.997	9354.3
692.344	9264.81
692.69	9157.92
693.037	9181.65
693.383	9131.71
693.73	9149.79
694.077	9061.2
694.423	9077.47
694.769	9036.34
695.116	9012.16
695.462	9007.19
695.808	9005.84
696.155	9055.33
696.501	8991.15
696.847	8940.98
697.193	8966.97
697.539	8926.06
697.885	8884.48
698.231	8786.18
698.577	8766.52
698.923	8753.87
699.269	8731.27
699.614	8656.92
699.96	8743.02
700.306	8667.31
700.651	8670.7
700.997	8620.31
701.342	8630.93
701.688	8654.66
702.033	8607.43
702.379	8590.71
702.724	8557.94
703.069	8515.45
703.415	8484.72
703.76	8449.47
704.105	8442.24
704.45	8455.79
704.795	8380.77
705.14	8362.46
705.485	8343.93
705.83	8336.25
706.175	8370.6
706.52	8369.7
706.865	8365.85
707.209	8322.92
707.554	8284.27
707.899	8219.87
708.243	8223.48
708.588	8236.14
708.932	8067.1
709.277	8115.01
709.621	8101
709.966	8075.47
710.31	8045.18
710.654	8035.92
710.998	7983.04
711.342	8083.6
711.687	8072.3
712.031	7972.42
712.375	7962.47
712.719	7999.76
713.063	7944.17
713.407	7952.31
713.75	7916.83
714.094	7866.21
714.438	7861.91
714.782	7841.12
715.125	7797.51
715.469	7875.24
715.812	7815.13
716.156	7812.65
716.499	7825.53
716.843	7843.61
717.186	7808.35
717.53	7814.46
717.873	7785.08
718.216	7821.01
718.559	7748.47
718.902	7689.94
719.246	7672.09
719.589	7612.88
719.932	7637.96
720.275	7633.67
720.617	7610.17
720.96	7628.7
721.303	7581.69
721.646	7685.65
721.989	7541.24
722.331	7580.34
722.674	7513.67
723.016	7574.91
723.359	7546.44
723.701	7575.37
724.044	7547.57
724.386	7435.03
724.729	7480.45
725.071	7452.88
725.413	7429.38
725.755	7445.88
726.097	7394.35
726.439	7334.92
726.782	7388.25
727.124	7405.65
727.465	7369.04
727.807	7377.18
728.149	7351.42
728.491	7309.16
728.833	7336.95
729.175	7296.73
729.516	7308.71
729.858	7196.84
730.199	7224.19
730.541	7270.29
730.882	7254.24
731.224	7208.82
731.565	7174.02
731.906	7254.47
732.248	7233.45
732.589	7192.55
732.93	7160.01
733.271	7258.54
733.612	7191.2
733.953	7179.22
734.294	7173.12
734.635	7138.09
734.976	7119.33
735.317	7042.95
735.658	7092.89
735.999	7081.82
736.339	7079.33
736.68	7114.59
737.021	6997.53
737.361	7097.41
737.702	6998.66
738.042	7026
738.383	6968.6
738.723	6956.4
739.063	6960.01
739.404	7030.3
739.744	6977.42
740.084	6932.44
740.424	6971.31
740.764	6904.65
741.104	6923.41
741.444	6932.22
741.784	6921.15
742.124	6888.38
742.464	6902.39
742.804	6908.94
743.143	6848.83
743.483	6846.57
743.823	6825.1
744.162	6804.99
744.502	6802.5
744.841	6837.98
745.181	6855.84
745.52	6757.08
745.86	6752.56
746.199	6728.38
746.538	6748.04
746.877	6821.04
747.216	6780.36
747.556	6739.46
747.895	6689.97
748.234	6720.02
748.573	6632.79
748.911	6612.68
749.25	6648.38
749.589	6645.22
749.928	6648.16
750.267	6674.82
750.605	6565.22
750.944	6567.93
751.283	6609.52
751.621	6653.13
751.96	6609.52
752.298	6568.39
752.636	6567.93
752.975	6509.18
753.313	6506.24
753.651	6536.07
753.989	6475.06
754.327	6447.71
754.666	6459.69
755.004	6494.49
755.342	6361.61
755.679	6450.88
756.017	6349.86
756.355	6379.24
756.693	6407.49
757.031	6396.64
757.368	6308.96
757.706	6366.36
758.044	6287.49
758.381	6352.8
758.719	6299.92
759.056	6347.38
759.394	6320.48
759.731	6230.54
760.068	6246.59
760.405	6100.38
760.743	6152.58
761.08	6142.18
761.417	6164.33
761.754	6138.12
762.091	6131.11
762.428	6028.06
762.765	6032.81
763.102	6087.95
763.438	6057.44
763.775	6090.43
764.112	6082.3
764.449	6035.52
764.785	6071.22
765.122	5969.76
765.458	6037.78
765.795	5906.03
766.131	5910.55
766.467	5906.71
766.804	5896.31
767.14	5855.19
767.476	5865.81
767.812	5817.9
768.148	5756.66
768.485	5828.75
768.821	5793.27
769.157	5772.7
769.492	5732.7
769.828	5762.08
770.164	5707.62
770.5	5710.1
770.836	5794.4
771.171	5692.93
771.507	5636.43
771.842	5628.75
772.178	5608.86
772.513	5577.45
772.849	5582.88
773.184	5541.52
773.519	5497
773.855	5456.78
774.19	5523.89
774.525	5393.73
774.86	5386.04
775.195	5448.42
775.53	5416.1
775.865	5369.55
776.2	5395.08
776.535	5412.71
776.87	5386.5
777.205	5315.76
777.539	5331.58
777.874	5306.27
778.209	5251.36
778.543	5240.51
778.878	5242.09
779.212	5207.52
779.547	5151.25
779.881	5171.81
780.215	5141.53
780.55	5168.88
780.884	5132.72
781.218	5104.7
781.552	5073.96
781.886	5120.29
782.22	5077.35
782.554	5075.32
782.888	5053.85
783.222	5062.89
783.556	5043.23
783.889	4979.73
784.223	4920.52
784.557	4937.24
784.89	4958.94
785.224	4892.5
785.557	4877.13
785.891	4850.01
786.224	4804.59
786.558	4820.86
786.891	4762.33
787.224	4812.05
787.557	4744.93
787.891	4776.57
788.224	4764.14
788.557	4781.77
788.89	4788.77
789.223	4764.59
789.556	4717.14
789.888	4739.06
790.221	4730.47
790.554	4661.77
790.887	4682.56
791.219	4637.36
791.552	4596.24
791.884	4586.07
792.217	4620.64
792.549	4601.66
792.882	4451.15
793.214	4480.08
793.546	4470.81
793.879	4450.93
794.211	4473.3
794.543	4514.2
794.875	4487.76
795.207	4536.35
795.539	4454.32
795.871	4441.89
796.203	4450.25
796.535	4403.7
796.867	4353.98
797.198	4350.82
797.53	4405.28
797.862	4353.76
798.193	4352.17
798.525	4326.41
798.856	4299.75
799.188	4318.95
799.519	4241.89
799.85	4232.85
800.182	4252.97
800.513	4287.09
800.844	4202.35
801.175	4217.26
801.506	4286.64
801.837	4224.27
802.168	4200.54
802.499	4169.35
802.83	4178.84
803.161	4196.47
803.491	4161.22
803.822	4195.34
804.153	4139.52
804.483	4139.75
804.814	4056.36
805.145	4125.51
805.475	4077.38
805.805	4054.55
806.136	4054.1
806.466	4026.98
806.796	3992.41
807.126	3996.93
807.457	3982.47
807.787	3995.12
808.117	3991.28
808.447	4011.84
808.777	3985.63
809.107	3986.76
809.436	3902.47
809.766	3922.13
810.096	3962.35
810.426	3935.91
810.755	3961.22
811.085	3874.22
811.414	3902.02
811.744	3839.42
812.073	3839.42
812.403	3855.01
812.732	3819.31
813.061	3801.68
813.39	3793.54
813.719	3791.96
814.049	3810.49
814.378	3816.37
814.707	3781.57
815.036	3833.32
815.365	3793.32
815.693	3734.34
816.022	3776.82
816.351	3749.25
816.68	3765.52
817.008	3773.88
817.337	3741.12
817.665	3718.07
817.994	3721
818.322	3683.26
818.651	3680.55
818.979	3651.4
819.307	3658.41
819.636	3643.04
819.964	3653.21
820.292	3636.03
820.62	3652.98
820.948	3629.71
821.276	3638.75
821.604	3638.29
821.932	3640.33
822.259	3664.06
822.587	3683.72
822.915	3638.29
823.243	3698.18
823.57	3665.86
823.898	3671.51
824.225	3650.95
824.553	3650.72
824.88	3651.18
825.207	3699.54
825.535	3613.66
825.862	3613.21
826.189	3601.01
826.516	3608.24
826.843	3592.87
827.17	3602.81
827.497	3627
827.824	3598.3
828.151	3650.72
828.478	3610.95
828.805	3636.49
829.131	3612.98
829.458	3626.77
829.785	3616.6
830.111	3671.29
830.438	3647.33
830.764	3645.53
831.09	3638.75
831.417	3592.19
831.743	3656.82
832.069	3643.94
832.395	3572.31
832.722	3587
833.048	3584.74
833.374	3622.7
833.7	3570.27
834.026	3518.3
834.351	3550.84
834.677	3563.72
835.003	3568.92
835.329	3554.91
835.654	3537.51
835.98	3537.51
836.306	3551.97
836.631	3577.96
836.956	3591.52
837.282	3590.61
837.607	3565.98
837.932	3577.5
838.258	3530.5
838.583	3558.52
838.908	3553.55
839.233	3561.01
839.558	3532.31
839.883	3503.16
840.208	3494.8
840.533	3450.28
840.858	3433.78
841.182	3435.14
841.507	3456.38
841.832	3423.61
842.156	3422.03
842.481	3422.93
842.805	3404.85
843.13	3420.45
843.454	3409.6
843.778	3418.19
844.103	3416.38
844.427	3421.8
844.751	3436.27
845.075	3435.14
845.399	3420.22
845.723	3415.93
846.047	3419.77
846.371	3383.84
846.695	3348.81
847.019	3346.78
847.343	3307.46
847.666	3320.56
847.99	3276.27
848.313	3303.16
848.637	3262.26
848.96	3258.64
849.284	3232.2
849.607	3204.63
849.931	3213.45
850.254	3217.06
850.577	3185.88
850.9	3134.8
851.223	3195.59
851.546	3210.51
851.869	3174.8
852.192	3178.19
852.515	3179.55
852.838	3109.72
853.161	3146.33
853.483	3116.73
853.806	3129.38
854.129	3122.15
854.451	3086.22
854.774	3079.66
855.096	3075.82
855.419	3010.06
855.741	3039.21
856.063	2973.68
856.385	3022.94
856.708	2992.89
857.03	2996.73
857.352	3007.35
857.674	2981.59
857.996	2951.08
858.318	2946.79
858.64	2971.65
858.961	2934.13
859.283	2994.24
859.605	2949.05
859.926	2943.85
860.248	2947.69
860.57	2946.56
860.891	2972.1
861.212	2938.65
861.534	2895.71
861.855	2903.17
862.176	2923.28
862.498	2895.26
862.819	2887.58
863.14	2854.81
863.461	2861.37
863.782	2840.12
864.103	2868.82
864.424	2814.36
864.745	2796.51
865.065	2823.17
865.386	2806.9
865.707	2818.65
866.027	2831.54
866.348	2838.54
866.668	2821.82
866.989	2834.7
867.309	2782.95
867.63	2806.68
867.95	2825.21
868.27	2834.93
868.59	2775.94
868.91	2798.54
869.23	2805.55
869.55	2783.85
869.87	2781.37
870.19	2764.19
870.51	2765.32
870.83	2733.69
871.15	2741.82
871.469	2768.94
871.789	2731.2
872.109	2760.35
872.428	2690.07
872.748	2722.84
873.067	2742.95
873.386	2716.51
873.706	2721.93
874.025	2688.94
874.344	2759.45
874.663	2748.83
874.982	2745.44
875.301	2715.61
875.62	2727.36
875.939	2697.98
876.258	2710.63
876.577	2719.45
876.896	2732.78
877.214	2672.44
877.533	2686.23
877.852	2676.06
878.17	2700.92
878.489	2669.96
878.807	2675.61
879.125	2656.85
879.444	2645.33
879.762	2636.74
880.08	2608.26
880.398	2637.19
880.716	2635.61
881.034	2613.69
881.352	2653.24
881.67	2624.08
881.988	2623.86
882.306	2648.72
882.624	2592.9
882.941	2614.37
883.259	2605.33
883.577	2615.5
883.894	2620.24
884.212	2623.18
884.529	2604.2
884.846	2590.64
885.164	2611.65
885.481	2557.87
885.798	2619.79
886.115	2559
886.432	2559.9
886.75	2559.68
887.067	2549.06
887.383	2565.55
887.7	2520.13
888.017	2502.28
888.334	2507.93
888.651	2506.57
888.967	2519.23
889.284	2485.1
889.6	2512.22
889.917	2470.19
890.233	2506.35
890.55	2462.05
890.866	2513.13
891.182	2447.37
891.498	2453.47
891.815	2455.05
892.131	2470.42
892.447	2428.38
892.763	2464.54
893.079	2454.6
893.395	2441.49
893.71	2448.49
894.026	2415.95
894.342	2411.66
894.657	2418.44
894.973	2394.94
895.289	2389.06
895.604	2383.86
895.92	2355.16
896.235	2334.83
896.55	2358.33
896.865	2349.74
897.181	2331.89
897.496	2340.93
897.811	2321.49
898.126	2322.17
898.441	2287.14
898.756	2319.91
899.071	2285.34
899.386	2290.08
899.7	2289.4
900.015	2303.41
900.33	2282.62
900.644	2259.35
900.959	2285.56
901.273	2277.2
901.588	2276.52
901.902	2247.6
902.216	2266.8
902.531	2294.6
902.845	2261.38
903.159	2222.06
903.473	2192.46
903.787	2201.72
904.101	2194.26
904.415	2157.2
904.729	2172.57
905.042	2177.54
905.356	2147.03
905.67	2162.17
905.984	2155.4
906.297	2137.32
906.611	2145.9
906.924	2135.28
907.237	2108.84
907.551	2126.92
907.864	2104.78
908.177	2059.35
908.491	2132.12
908.804	2095.51
909.117	2071.56
909.43	2077.43
909.743	2092.12
910.056	2074.72
910.368	2082.85
910.681	2074.72
910.994	2044.66
911.307	2055.28
911.619	2060.93
911.932	2034.95
912.244	2030.2
912.557	2006.92
912.869	1999.69
913.181	1988.17
913.494	1961.28
913.806	1942.97
914.118	1983.87
914.43	1971.22
914.742	1961.05
915.054	1930.77
915.366	1896.87
915.678	1927.6
915.99	1947.72
916.302	1913.82
916.613	1917.21
916.925	1923.31
917.236	1921.5
917.548	1897.77
917.859	1880.15
918.171	1871.79
918.482	1905.91
918.794	1868.85
919.105	1892.35
919.416	1878.79
919.727	1863.2
920.038	1899.36
920.349	1860.49
920.66	1874.27
920.971	1831.34
921.282	1836.99
921.593	1773.26
921.903	1803.31
922.214	1793.37
922.525	1813.03
922.835	1760.83
923.146	1765.8
923.456	1764.67
923.767	1775.52
924.077	1761.51
924.387	1735.29
924.697	1747.27
925.008	1725.8
925.318	1748.4
925.628	1752.92
925.938	1709.31
926.248	1715.86
926.558	1727.84
926.867	1729.19
927.177	1726.93
927.487	1706.59
927.796	1698.01
928.106	1700.94
928.416	1711.57
928.725	1695.97
929.034	1667.72
929.344	1635.41
929.653	1656.65
929.962	1643.09
930.271	1607.39
930.581	1632.47
930.89	1637.44
931.199	1630.89
931.508	1617.56
931.817	1620.49
932.125	1618.69
932.434	1605.81
932.743	1606.71
933.051	1582.08
933.36	1580.04
933.669	1545.02
933.977	1578.24
934.286	1556.77
934.594	1568.97
934.902	1529.42
935.21	1568.97
935.519	1575.52
935.827	1585.47
936.135	1532.59
936.443	1548.63
936.751	1551.57
937.059	1553.15
937.367	1555.64
937.674	1546.6
937.982	1525.13
938.29	1497.11
938.597	1520.84
938.905	1504.79
939.213	1470.44
939.52	1471.57
939.827	1466.37
940.135	1479.03
940.442	1486.03
940.749	1472.02
941.056	1449.88
941.363	1446.04
941.67	1456.88
941.977	1422.99
942.284	1424.12
942.591	1412.14
942.898	1405.58
943.205	1428.18
943.511	1408.97
943.818	1414.62
944.125	1395.19
944.431	1407.17
944.738	1406.26
945.044	1411.01
945.35	1389.09
945.657	1373.27
945.963	1381.4
946.269	1397.68
946.575	1381.86
946.881	1347.51
947.187	1376.88
947.493	1358.58
947.799	1351.8
948.105	1343.21
948.41	1326.94
948.716	1344.12
949.022	1328.3
949.327	1323.1
949.633	1317.45
949.938	1331.69
950.244	1351.57
950.549	1299.6
950.854	1314.51
951.16	1294.63
951.465	1312.48
951.77	1274.29
952.075	1282.42
952.38	1285.59
952.685	1276.32
952.99	1275.64
953.294	1259.37
953.599	1275.19
953.904	1254.85
954.209	1244.68
954.513	1288.98
954.818	1249.66
955.122	1242.65
955.426	1254.4
955.731	1230.45
956.035	1237.91
956.339	1225.48
956.643	1227.51
956.948	1223.22
957.252	1231.58
957.556	1216.89
957.86	1219.15
958.163	1227.96
958.467	1189.77
958.771	1228.19
959.075	1194.06
959.378	1199.94
959.682	1168.53
959.985	1190.22
960.289	1166.49
960.592	1188.87
960.896	1154.29
961.199	1156.1
961.502	1138.47
961.805	1152.03
962.108	1142.54
962.411	1142.54
962.714	1132.15
963.017	1150.9
963.32	1166.49
963.623	1146.61
963.926	1123.56
964.228	1173.27
964.531	1138.25
964.833	1138.25
965.136	1114.74
965.438	1149.09
965.741	1127.85
966.043	1094.63
966.345	1086.27
966.648	1085.59
966.95	1101.19
967.252	1093.95
967.554	1098.7
967.856	1089.89
968.158	1062.54
968.46	1074.07
968.761	1068.19
969.063	1083.56
969.365	1071.81
969.666	1081.07
969.968	1050.11
970.269	1051.92
970.571	1043.11
970.872	1028.42
971.174	1061.64
971.475	1039.94
971.776	1052.15
972.077	1027.06
972.378	1025.26
972.679	1036.78
972.98	1046.95
973.281	1020.96
973.582	1014.18
973.883	1024.35
974.183	1026.16
974.484	1029.78
974.785	1034.07
975.085	1013.73
975.386	1005.82
975.686	997.01
975.986	980.96
976.287	1004.24
976.587	1004.01
976.887	985.48
977.187	967.4
977.487	974.18
977.787	956.33
978.087	967.4
978.387	962.66
978.687	945.48
978.987	940.96
979.286	952.94
979.586	934.41
979.885	938.25
980.185	948.87
980.484	929.44
980.784	912.04
981.083	932.83
981.382	941.42
981.682	947.29
981.981	943
982.28	934.41
982.579	940.06
982.878	922.89
983.177	898.93
983.475	891.02
983.774	911.59
984.073	881.08
984.372	901.19
984.67	894.64
984.969	895.77
985.267	913.62
985.566	903.9
985.864	902.55
986.162	872.27
986.461	889.21
986.759	887.41
987.057	855.32
987.355	891.47
987.653	870.91
987.951	862.77
988.249	853.06
988.547	875.43
988.844	842.89
989.142	864.81
989.44	860.06
989.737	854.19
990.035	860.06
990.332	858.48
990.63	839.27
990.927	837.92
991.224	861.42
991.521	825.71
991.819	847.86
992.116	834.3
992.413	843.57
992.71	835.2
993.006	829.78
993.303	792.72
993.6	826.16
993.897	828.65
994.193	813.06
994.49	827.07
994.787	807.41
995.083	798.82
995.379	818.26
995.676	812.38
995.972	789.78
996.268	778.48
996.565	794.08
996.861	785.49
997.157	770.35
997.453	807.41
997.749	774.64
998.044	758.6
998.34	783.91
998.636	756.79
998.932	780.97
999.227	751.82
999.523	764.47
999.818	749.33
1000.114	783.45
1000.409	763.34
1000.704	764.47
1001	747.3
1001.295	723.79
1001.59	736.68
1001.885	735.32
1002.18	749.56
1002.475	738.71
1002.77	716.56
1003.065	725.38
1003.359	734.42
1003.654	731.48
1003.949	717.24
1004.243	731.48
1004.538	720.63
1004.832	718.82
1005.127	719.05
1005.421	702.33
1005.715	707.07
1006.009	701.65
1006.304	710.24
1006.598	709.78
1006.892	692.83
1007.186	675.21
1007.48	698.03
1007.773	686.96
1008.067	665.26
1008.361	692.83
1008.655	670.01
1008.948	695.09
1009.242	664.81
1009.535	679.73
1009.829	688.77
1010.122	681.31
1010.415	644.7
1010.708	660.29
1011.001	664.14
1011.295	654.42
1011.588	637.7
1011.881	649.45
1012.173	641.54
1012.466	638.6
1012.759	632.72
1013.052	644.7
1013.344	653.06
1013.637	654.42
1013.93	658.71
1014.222	632.05
1014.514	615.77
1014.807	657.58
1015.099	637.24
1015.391	648.32
1015.683	638.37
1015.976	632.72
1016.268	627.07
1016.56	620.52
1016.851	611.93
1017.143	615.77
1017.435	603.57
1017.727	603.8
1018.018	612.16
1018.31	588.88
1018.602	614.64
1018.893	586.85
1019.185	611.71
1019.476	603.57
1019.767	613.51
1020.058	584.59
1020.35	592.27
1020.641	573.06
1020.932	597.02
1021.223	581.65
1021.514	586.62
1021.804	567.41
1022.095	562.67
1022.386	577.36
1022.677	570.58
1022.967	587.98
1023.258	578.71
1023.548	577.81
1023.839	577.58
1024.129	576.45
1024.419	576.45
1024.709	571.26
1025	564.25
1025.29	550.24
1025.58	554.53
1025.87	553.63
1026.16	534.87
1026.449	538.94
1026.739	536.68
1027.029	548.66
1027.319	554.08
1027.608	539.62
1027.898	534.87
1028.187	521.09
1028.477	539.39
1028.766	545.49
1029.055	510.01
1029.344	529.45
1029.634	525.38
1029.923	517.7
1030.212	524.93
1030.501	503.69
1030.79	529.9
1031.078	522.22
1031.367	527.64
1031.656	515.89
1031.945	516.79
1032.233	507.98
1032.522	506.85
1032.81	497.59
1033.099	529.68
1033.387	507.08
1033.675	497.59
1033.963	507.08
1034.251	511.6
1034.54	520.41
1034.828	506.63
1035.116	481.32
1035.403	481.32
1035.691	519.51
1035.979	490.35
1036.267	489.22
1036.554	477.02
1036.842	492.39
1037.129	479.73
1037.417	477.02
1037.704	476.12
1037.992	473.41
1038.279	487.42
1038.566	461.43
1038.853	461.43
1039.14	461.43
