Data from foam_black_FLMS001491_00092.txt Node
Date: Wed Feb 08 10:45:04 GMT 2017
User: dcchb
Spectrometer: FLMS00149
Trigger mode: 0
Integration Time (sec): 2.000000E-2
Scans to average: 10
Electric dark correction enabled: true
Nonlinearity correction enabled: false
Boxcar width: 0
XAxis mode: Wavelengths
Number of Pixels in Spectrum: 2048
>>>>>Begin Spectral Data<<<<<
341.393	-14.96
341.776	-14.96
342.16	-14.96
342.543	-71.9
342.927	-64
343.31	-70.1
343.693	-76.42
344.077	-68.97
344.46	-70.32
344.843	-41.17
345.226	-44.56
345.61	-41.17
345.993	-12.25
346.376	-7.5
346.759	6.96
347.142	11.26
347.525	41.31
347.908	63.68
348.291	79.73
348.674	106.17
349.057	123.34
349.44	152.95
349.823	129.9
350.206	166.05
350.588	148.65
350.971	176.9
351.354	182.55
351.737	220.52
352.119	218.93
352.502	223.45
352.884	244.02
353.267	256.45
353.65	266.39
354.032	271.14
354.414	276.79
354.797	274.98
355.179	265.71
355.562	287.63
355.944	295.77
356.326	296.45
356.709	293.74
357.091	300.97
357.473	290.35
357.855	312.04
358.238	316.33
358.62	303.68
359.002	327.63
359.384	300.74
359.766	298.25
360.148	294.41
360.53	294.41
360.912	323.11
361.294	326.05
361.676	307.97
362.057	310.23
362.439	288.99
362.821	298.48
363.203	292.15
363.584	303.45
363.966	274.98
364.348	270.46
364.729	293.96
365.111	279.72
365.493	284.7
365.874	298.71
366.256	293.28
366.637	288.99
367.019	289.22
367.4	273.4
367.781	284.24
368.163	285.37
368.544	288.31
368.925	262.32
369.306	278.59
369.688	279.95
370.069	282.21
370.45	270.23
370.831	274.07
371.212	262.32
371.593	274.53
371.974	288.54
372.355	280.4
372.736	275.43
373.117	285.83
373.498	263.91
373.879	259.39
374.26	276.56
374.641	267.3
375.021	287.41
375.402	272.72
375.783	278.14
376.163	300.06
376.544	294.19
376.925	292.61
377.305	251.7
377.686	291.7
378.066	300.51
378.447	302.55
378.827	276.11
379.208	296.22
379.588	270.46
379.968	288.31
380.349	288.54
380.729	297.12
381.109	290.35
381.489	301.64
381.87	293.74
382.25	303.23
382.63	319.95
383.01	292.83
383.39	296.67
383.77	276.11
384.15	301.64
384.53	298.48
384.91	300.51
385.29	294.87
385.67	307.97
386.049	296.9
386.429	310.91
386.809	285.15
387.189	294.64
387.568	318.14
387.948	332.83
388.328	317.01
388.707	307.52
389.087	291.7
389.466	297.35
389.846	300.74
390.225	309.55
390.605	314.98
390.984	300.06
391.363	295.32
391.743	314.53
392.122	319.72
392.501	317.24
392.881	310.23
393.26	306.62
393.639	328.76
394.018	294.41
394.397	326.05
394.776	306.84
395.155	311.36
395.534	311.14
395.913	298.03
396.292	302.32
396.671	315.88
397.05	322.21
397.429	316.11
397.808	318.59
398.186	331.47
398.565	293.74
398.944	319.27
399.323	321.31
399.701	316.79
400.08	323.34
400.458	314.07
400.837	313.62
401.215	296
401.594	325.6
401.972	318.59
402.351	304.81
402.729	324.69
403.107	333.51
403.486	350.23
403.864	319.72
404.242	321.31
404.62	321.98
404.999	330.8
405.377	326.73
405.755	313.17
406.133	327.86
406.511	347.52
406.889	329.89
407.267	315.43
407.645	324.47
408.023	357.69
408.401	332.38
408.779	340.97
409.156	335.09
409.534	330.34
409.912	324.02
410.29	348.2
410.667	349.33
411.045	350
411.422	350.46
411.8	349.33
412.178	356.78
412.555	346.39
412.933	339.38
413.31	334.86
413.687	340.51
414.065	348.42
414.442	349.33
414.819	360.4
415.197	376.22
415.574	348.88
415.951	361.76
416.328	345.26
416.705	352.49
417.082	345.71
417.46	359.5
417.837	361.08
418.214	347.52
418.591	358.59
418.967	363.11
419.344	366.05
419.721	361.3
420.098	376.67
420.475	369.44
420.852	349.1
421.228	357.24
421.605	382.32
421.982	362.21
422.358	365.82
422.735	367.63
423.111	382.09
423.488	393.17
423.864	376.22
424.241	386.16
424.617	380.06
424.994	389.33
425.37	376.44
425.746	380.51
426.123	387.97
426.499	392.49
426.875	382.09
427.251	405.82
427.627	382.55
428.003	399.72
428.379	388.87
428.756	400.4
429.132	410.57
429.507	389.33
429.883	369.67
430.259	413.73
430.635	373.51
431.011	401.3
431.387	384.81
431.763	390.46
432.138	409.21
432.514	397.91
432.89	411.02
433.265	420.06
433.641	408.53
434.016	412.38
434.392	425.03
434.767	404.47
435.143	415.77
435.518	418.93
435.894	418.25
436.269	435.88
436.644	427.97
437.02	432.49
437.395	418.7
437.77	423.22
438.145	424.13
438.52	442.66
438.895	448.08
439.271	426.84
439.646	445.37
440.021	448.31
440.395	463.22
440.77	453.96
441.145	441.08
441.52	444.47
441.895	446.95
442.27	443.11
442.645	444.92
443.019	444.01
443.394	474.07
443.769	449.66
444.143	457.35
444.518	453.28
444.892	438.59
445.267	453.73
445.641	473.39
446.016	439.27
446.39	440.17
446.764	477.46
447.139	463.9
447.513	471.58
447.887	474.75
448.262	485.37
448.636	465.03
449.01	486.5
449.384	474.75
449.758	471.81
450.132	481.75
450.506	468.65
450.88	472.04
451.254	470
451.628	502.09
452.002	475.88
452.376	482.2
452.75	495.54
453.123	469.55
453.497	484.24
453.871	488.98
454.244	484.46
454.618	508.64
454.992	494.18
455.365	490.34
455.739	493.05
456.112	477.01
456.486	514.75
456.859	495.31
457.232	530.34
457.606	518.36
457.979	522.66
458.352	513.39
458.725	535.08
459.099	535.54
459.472	532.15
459.845	545.71
460.218	545.93
460.591	537.57
460.964	537.8
461.337	548.42
461.71	528.76
462.083	549.55
462.456	553.84
462.829	539.83
463.201	564.91
463.574	561.07
463.947	556.33
464.32	548.42
464.692	570.56
465.065	584.58
465.438	586.83
465.81	591.35
466.183	587.96
466.555	586.16
466.928	601.3
467.3	599.72
467.672	611.02
468.045	606.95
468.417	623.9
468.789	599.94
469.161	616.89
469.534	639.94
469.906	629.09
470.278	647.85
470.65	657.34
471.022	626.38
471.394	658.7
471.766	649.21
472.138	653.05
472.51	640.84
472.882	662.31
473.253	647.62
473.625	688.53
473.997	689.43
474.369	673.39
474.74	698.7
475.112	660.96
475.484	684.46
475.855	699.37
476.227	683.78
476.598	714.52
476.97	716.32
477.341	718.36
477.713	722.2
478.084	718.13
478.455	762.42
478.827	753.38
479.198	759.94
479.569	782.08
479.94	778.02
480.311	799.71
480.682	789.99
481.053	798.35
481.424	833.16
481.795	822.99
482.166	794.74
482.537	838.13
482.908	839.71
483.279	864.79
483.65	854.62
484.021	871.8
484.391	862.31
484.762	903.89
485.133	880.84
485.503	885.36
485.874	912.7
486.244	899.14
486.615	932.81
486.985	952.93
487.356	926.49
487.726	945.92
488.097	962.19
488.467	936.66
488.837	977.11
489.207	990.89
489.578	983.21
489.948	1000.38
490.318	1055.52
490.688	1053.26
491.058	1019.82
491.428	1051.91
491.798	1063.43
492.168	1066.37
492.538	1089.65
492.908	1094.39
493.278	1101.17
493.648	1077.22
494.017	1095.07
494.387	1104.11
494.757	1120.61
495.126	1117.44
495.496	1131.68
495.866	1150.44
496.235	1117.22
496.605	1142.07
496.974	1143.66
497.344	1155.18
497.713	1157.67
498.082	1180.94
498.452	1181.17
498.821	1174.84
499.19	1162.64
499.559	1201.06
499.928	1197.67
500.298	1197.44
500.667	1213.03
501.036	1206.25
501.405	1200.6
501.774	1209.42
502.143	1211.68
502.512	1231.11
502.88	1212.36
503.249	1196.31
503.618	1248.06
503.987	1243.54
504.356	1242.86
504.724	1270.66
505.093	1250.77
505.462	1258
505.83	1257.78
506.199	1279.02
506.567	1302.97
506.936	1265.69
507.304	1298
507.672	1278.34
508.041	1299.36
508.409	1304.1
508.777	1279.02
509.145	1298.68
509.514	1342.52
509.882	1315.4
510.25	1379.13
510.618	1336.87
510.986	1360.37
511.354	1367.38
511.722	1393.82
512.09	1364.22
512.458	1418.45
512.826	1426.59
513.193	1419.81
513.561	1428.17
513.929	1464.33
514.297	1468.85
514.664	1458
515.032	1487.83
515.4	1501.61
515.767	1488.73
516.135	1485.12
516.502	1469.75
516.869	1541.61
517.237	1541.61
517.604	1538.67
517.972	1551.56
518.339	1572.57
518.706	1564.21
519.073	1556.53
519.44	1582.97
519.808	1612.8
520.175	1600.37
520.542	1641.72
520.909	1582.74
521.276	1608.28
521.643	1608.05
522.009	1663.64
522.376	1628.84
522.743	1649.41
523.11	1670.2
523.477	1704.77
523.843	1688.73
524.21	1669.74
524.577	1702.96
524.943	1717.65
525.31	1723.53
525.676	1723.75
526.043	1744.32
526.409	1721.95
526.776	1711.55
527.142	1761.49
527.508	1772.79
527.874	1744.54
528.241	1772.34
528.607	1732.57
528.973	1738.67
529.339	1765.79
529.705	1808.27
530.071	1789.97
530.437	1812.34
530.803	1805.11
531.169	1805.56
531.535	1833.81
531.901	1813.92
532.267	1821.15
532.632	1842.85
532.998	1844.65
533.364	1850.53
533.73	1851.43
534.095	1878.1
534.461	1895.95
534.826	1900.25
535.192	1889.85
535.557	1908.16
535.923	1930.98
536.288	1936.86
536.653	1933.69
537.019	1942.73
537.384	1969.62
537.749	1999.91
538.114	1964.2
538.479	1990.64
538.845	1998.78
539.21	1952
539.575	2041.49
539.94	2010.75
540.305	2040.13
540.67	2048.49
541.034	2039.9
541.399	2056.17
541.764	2043.07
542.129	2064.76
542.494	2081.71
542.858	2096.85
543.223	2100.92
543.587	2090.98
543.952	2125.78
544.316	2105.44
544.681	2107.92
545.045	2165.1
545.41	2153.57
545.774	2172.1
546.138	2155.38
546.503	2157.64
546.867	2112.9
547.231	2198.54
547.595	2196.96
547.959	2214.14
548.324	2203.52
548.688	2238.99
549.052	2224.53
549.416	2196.06
549.779	2226.57
550.143	2242.38
550.507	2252.1
550.871	2252.33
551.235	2258.2
551.599	2246.23
551.962	2242.84
552.326	2270.86
552.689	2299.11
553.053	2248.26
553.417	2283.74
553.78	2291.65
554.143	2286.9
554.507	2317.86
554.87	2272.67
555.234	2338.43
555.597	2297.52
555.96	2311.08
556.323	2299.78
556.686	2293.46
557.05	2320.57
557.413	2344.75
557.776	2354.7
558.139	2366.45
558.502	2334.13
558.865	2364.87
559.228	2375.71
559.59	2380.23
559.953	2374.81
560.316	2412.32
560.679	2406.45
561.041	2444.41
561.404	2401.25
561.767	2442.83
562.129	2420.23
562.492	2457.75
562.854	2440.8
563.217	2466.11
563.579	2522.15
563.941	2471.53
564.304	2499.78
564.666	2516.28
565.028	2528.48
565.39	2516.95
565.753	2547.24
566.115	2570.29
566.477	2548.59
566.839	2569.38
567.201	2610.96
567.563	2617.97
567.925	2617.06
568.287	2646.44
568.648	2642.37
569.01	2659.1
569.372	2685.99
569.734	2690.51
570.095	2690.96
570.457	2706.55
570.819	2706.33
571.18	2775.48
571.542	2728.02
571.903	2735.03
572.265	2714.91
572.626	2755.37
572.987	2796.95
573.349	2768.47
573.71	2794.46
574.071	2850.05
574.432	2808.25
574.794	2869.71
575.155	2858.41
575.516	2864.97
575.877	2844.63
576.238	2892.54
576.599	2862.03
576.96	2917.17
577.32	2906.1
577.681	2932.31
578.042	2925.98
578.403	2874.01
578.763	2869.26
579.124	2951.07
579.485	2957.62
579.845	2946.77
580.206	2930.28
580.566	2938.19
580.927	2932.99
581.287	2940.45
581.648	2939.09
582.008	2896.6
582.368	2916.27
582.728	2898.86
583.089	2929.6
583.449	2941.8
583.809	2921.91
584.169	2949.94
584.529	2933.67
584.889	2921.46
585.249	2897.28
585.609	2896.6
585.969	2919.65
586.329	2894.57
586.688	2898.86
587.048	2909.71
587.408	2947.9
587.768	2901.12
588.127	2909.03
588.487	2906.77
588.846	2906.1
589.206	2889.37
589.565	2910.84
589.925	2925.53
590.284	2858.19
590.643	2869.26
591.003	2934.8
591.362	2851.41
591.721	2903.16
592.08	2887.79
592.44	2906.32
592.799	2886.89
593.158	2903.38
593.517	2873.33
593.876	2855.25
594.235	2885.08
594.593	2882.82
594.952	2903.16
595.311	2881.01
595.67	2897.73
596.029	2873.55
596.387	2905.87
596.746	2921.24
597.104	2903.84
597.463	2906.32
597.822	2900.45
598.18	2916.72
598.538	2939.32
598.897	2917.85
599.255	2922.59
599.613	2927.56
599.972	2881.46
600.33	2946.77
600.688	2942.03
601.046	2957.62
601.404	2950.16
601.762	2951.52
602.12	2946.77
602.478	2959.65
602.836	2983.61
603.194	2953.78
603.552	2967.79
603.91	2963.5
604.268	2956.94
604.625	3013.89
604.983	2959.2
605.341	2975.92
605.698	2988.13
606.056	3026.32
606.413	3007.56
606.771	3025.41
607.128	3070.84
607.485	3003.04
607.843	3020.44
608.2	3048.92
608.557	3039.2
608.914	3058.41
609.272	3078.29
609.629	3048.69
609.986	3109.71
610.343	3086.2
610.7	3052.76
611.057	3073.32
611.414	3092.98
611.771	3083.72
612.127	3108.8
612.484	3126.88
612.841	3107.22
613.198	3076.71
613.554	3166.2
613.911	3131.17
614.267	3097.05
614.624	3157.84
614.98	3123.04
615.337	3121.01
615.693	3134.56
616.05	3130.27
616.406	3118.29
616.762	3135.02
617.118	3114.23
617.475	3127.33
617.831	3120.33
618.187	3123.04
618.543	3136.37
618.899	3134.79
619.255	3166.65
619.611	3139.76
619.967	3163.26
620.323	3165.3
620.678	3158.97
621.034	3157.16
621.39	3109.71
621.746	3092.98
622.101	3166.2
622.457	3129.82
622.812	3133.66
623.168	3135.47
623.523	3132.08
623.879	3141.34
624.234	3069.93
624.589	3109.71
624.945	3142.93
625.3	3111.51
625.655	3135.24
626.01	3126.2
626.365	3102.93
626.72	3051.85
627.075	3085.98
627.43	3099.54
627.785	3063.15
628.14	3085.75
628.495	3149.71
628.85	3098.18
629.205	3104.28
629.559	3067.67
629.914	3088.01
630.269	3062.48
630.623	3086.2
630.978	3077.16
631.332	3073.55
631.687	3071.74
632.041	3028.35
632.396	3071.06
632.75	3063.38
633.104	3076.71
633.459	3007.79
633.813	3017.05
634.167	3017.05
634.521	3030.39
634.875	3128.24
635.229	3012.31
635.583	3047.34
635.937	3043.49
636.291	3044.17
636.645	3031.74
636.999	3025.64
637.352	3052.08
637.706	3017.73
638.06	2967.11
638.413	2996.26
638.767	3020.67
639.121	3034.45
639.474	3019.77
639.828	3005.3
640.181	3036.71
640.534	3007.79
640.888	2982.7
641.241	2979.54
641.594	2995.13
641.947	2951.07
642.301	2958.3
642.654	2998.97
643.007	2994.23
643.36	3004.62
643.713	2993.33
644.066	2977.05
644.419	2981.12
644.771	2988.81
645.124	2955.81
645.477	2947.45
645.83	2935.93
646.182	2942.25
646.535	2904.29
646.888	2936.15
647.24	2939.32
647.593	2941.12
647.945	2934.34
648.298	2908.36
648.65	2919.43
649.002	2897.96
649.355	2914.91
649.707	2908.58
650.059	2900.9
650.411	2955.36
650.763	2943.16
651.115	2990.16
651.467	2958.52
651.819	2952.42
652.171	2971.86
652.523	2979.09
652.875	2928.02
653.227	2980.22
653.578	2978.64
653.93	2963.27
654.282	2921.46
654.633	2946.77
654.985	3021.35
655.337	2956.26
655.688	2941.58
656.039	2969.37
656.391	2935.25
656.742	2923.72
657.094	2950.39
657.445	2945.19
657.796	2919.65
658.147	2929.15
658.498	2933.21
658.849	2921.91
659.2	2930.28
659.551	2932.76
659.902	2930.05
660.253	2921.46
660.604	2920.78
660.955	2934.57
661.306	2952.42
661.656	2917.17
662.007	2926.66
662.358	2921.46
662.708	2900.22
663.059	2914.01
663.409	2856.83
663.76	2892.76
664.11	2938.64
664.461	2915.59
664.811	2882.37
665.161	2851.63
665.511	2872.42
665.862	2868.81
666.212	2894.34
666.562	2904.51
666.912	2906.1
667.262	2880.56
667.612	2875.14
667.962	2883.95
668.312	2853.67
668.662	2860.22
669.011	2857.74
669.361	2861.13
669.711	2851.41
670.06	2831.07
670.41	2835.59
670.76	2844.85
671.109	2838.08
671.459	2879.88
671.808	2834.23
672.157	2845.31
672.507	2811.86
672.856	2827
673.205	2831.52
673.554	2801.47
673.904	2821.13
674.253	2868.36
674.602	2802.14
674.951	2805.76
675.3	2821.35
675.649	2791.07
675.998	2833.78
676.346	2832.65
676.695	2824.52
677.044	2826.1
677.393	2845.53
677.741	2770.73
678.09	2813.89
678.438	2782.26
678.787	2814.35
679.135	2789.71
679.484	2800.79
679.832	2804.18
680.181	2789.49
680.529	2776.61
680.877	2811.64
681.225	2782.94
681.573	2772.99
681.922	2765.99
682.27	2796.72
682.618	2776.16
682.966	2817.28
683.314	2763.27
683.661	2802.37
684.009	2745.87
684.357	2744.52
684.705	2707.01
685.053	2748.36
685.4	2748.13
685.748	2759.89
686.095	2731.41
686.443	2713.11
686.79	2718.98
687.138	2742.26
687.485	2742.48
687.832	2733.9
688.18	2676.5
688.527	2719.43
688.874	2696.84
689.221	2711.52
689.568	2707.46
689.915	2668.36
690.262	2697.51
690.609	2654.8
690.956	2628.82
691.303	2655.93
691.65	2659.55
691.997	2665.2
692.344	2670.4
692.69	2685.99
693.037	2620.23
693.383	2601.7
693.73	2657.06
694.077	2629.49
694.423	2570.29
694.769	2597.63
695.116	2613.9
695.462	2617.97
695.808	2603.28
696.155	2590.4
696.501	2579.1
696.847	2634.46
697.193	2581.13
697.539	2597.18
697.885	2550.63
698.231	2573
698.577	2530.96
698.923	2538.87
699.269	2554.92
699.614	2563.51
699.96	2526.67
700.306	2516.05
700.651	2514.24
700.997	2526.67
701.342	2514.92
701.688	2515.6
702.033	2515.15
702.379	2513.79
702.724	2487.12
703.069	2500.23
703.415	2492.1
703.76	2462.04
704.105	2462.49
704.45	2453.45
704.795	2460.01
705.14	2437.18
705.485	2436.05
705.83	2446.22
706.175	2426.56
706.52	2461.14
706.865	2437.18
707.209	2431.76
707.554	2449.84
707.899	2425.43
708.243	2422.27
708.588	2405.54
708.932	2416.17
709.277	2409.16
709.621	2382.27
709.966	2366.9
710.31	2386.11
710.654	2358.99
710.998	2398.76
711.342	2383.17
711.687	2367.8
712.031	2357.86
712.375	2335.26
712.719	2322.38
713.063	2341.59
713.407	2371.87
713.75	2318.99
714.094	2338.43
714.438	2286.68
714.782	2366
715.125	2334.59
715.469	2343.62
715.812	2285.77
716.156	2311.54
716.499	2279.67
716.843	2320.57
717.186	2302.72
717.53	2253.23
717.873	2286.68
718.216	2304.08
718.559	2257.07
718.902	2279.22
719.246	2255.72
719.589	2244.42
719.932	2252.33
720.275	2258.43
720.617	2232.89
720.96	2235.61
721.303	2241.71
721.646	2222.95
721.989	2231.76
722.331	2239.22
722.674	2239.45
723.016	2252.78
723.359	2226.34
723.701	2234.25
724.044	2202.39
724.386	2192.67
724.729	2228.15
725.071	2226.34
725.413	2217.98
725.755	2213.91
726.097	2197.87
726.439	2187.02
726.782	2174.14
727.124	2201.71
727.465	2217.75
727.807	2211.65
728.149	2203.29
728.491	2175.04
728.833	2202.61
729.175	2164.19
729.516	2154.48
729.858	2151.31
730.199	2169.39
730.541	2188.83
730.882	2147.25
731.224	2177.08
731.565	2154.03
731.906	2155.83
732.248	2157.64
732.589	2138.88
732.93	2151.54
733.271	2129.62
733.612	2146.12
733.953	2142.27
734.294	2131.2
734.635	2147.25
734.976	2127.13
735.317	2117.19
735.658	2075.84
735.999	2122.39
736.339	2127.59
736.68	2098.43
737.021	2101.15
737.361	2114.7
737.702	2132.33
738.042	2110.86
738.383	2119.45
738.723	2084.65
739.063	2118.09
739.404	2087.36
739.744	2097.3
740.084	2092.56
740.424	2107.92
740.764	2081.94
741.104	2080.13
741.444	2102.05
741.784	2085.33
742.124	2107.47
742.464	2088.04
742.804	2088.26
743.143	2048.04
743.483	2079.9
743.823	2055.27
744.162	2048.94
744.502	2060.24
744.841	2121.48
745.181	2057.53
745.52	2030.64
745.86	2038.32
746.199	2045.1
746.538	2059.79
746.877	2050.3
747.216	2048.49
747.556	2035.16
747.895	2028.38
748.234	2043.52
748.573	2022.5
748.911	2048.04
749.25	2042.39
749.589	2009.4
749.928	2027.7
750.267	2007.14
750.605	2026.12
750.944	2026.35
751.283	2004.65
751.621	2016.4
751.96	2016.18
752.298	1987.25
752.636	2006.91
752.975	1996.74
753.313	1991.54
753.651	2005.78
753.989	1960.13
754.327	2004.88
754.666	1958.32
755.004	1970.08
755.342	1984.09
755.679	1961.26
756.017	1940.02
756.355	1984.09
756.693	1956.06
757.031	1923.3
757.368	1936.4
757.706	1939.12
758.044	1924.2
758.381	1952.67
758.719	1952.9
759.056	1935.73
759.394	1921.72
759.731	1897.76
760.068	1954.03
760.405	1922.84
760.743	1886.46
761.08	1876.52
761.417	1898.89
761.754	1876.07
762.091	1901.6
762.428	1879.46
762.765	1892.56
763.102	1896.86
763.438	1840.81
763.775	1857.76
764.112	1860.25
764.449	1855.95
764.785	1839.91
765.122	1835.84
765.458	1808.5
765.795	1794.49
766.131	1815.5
766.467	1827.25
766.804	1818.67
767.14	1800.81
767.476	1832.68
767.812	1817.31
768.148	1809.4
768.485	1797.88
768.821	1782.74
769.157	1778.22
769.492	1787.03
769.828	1774.6
770.164	1751.78
770.5	1768.5
770.836	1740.48
771.171	1739.35
771.507	1756.07
771.842	1747.26
772.178	1727.37
772.513	1728.5
772.849	1737.54
773.184	1702.06
773.519	1731.21
773.855	1713.36
774.19	1706.13
774.525	1701.16
774.86	1683.76
775.195	1696.41
775.53	1662.06
775.865	1681.04
776.2	1667.26
776.535	1653.47
776.87	1672.46
777.205	1651.67
777.539	1677.2
777.874	1657.54
778.209	1649.18
778.543	1641.95
778.878	1647.82
779.212	1629.52
779.547	1636.98
779.881	1610.99
780.215	1593.59
780.55	1628.62
780.884	1587.94
781.218	1600.82
781.552	1583.87
781.886	1575.06
782.22	1582.74
782.554	1594.04
782.888	1556.53
783.222	1576.19
783.556	1583.64
783.889	1584.32
784.223	1557.2
784.557	1556.98
784.89	1548.39
785.224	1575.74
785.557	1519.92
785.891	1585.68
786.224	1514.04
786.558	1510.88
786.891	1516.53
787.224	1518.11
787.557	1516.3
787.891	1499.58
788.224	1530.99
788.557	1523.76
788.89	1512.01
789.223	1512.69
789.556	1487.15
789.888	1468.85
790.221	1483.99
790.554	1487.83
790.887	1505.68
791.219	1503.65
791.552	1496.19
791.884	1475.4
792.217	1459.81
792.549	1461.39
792.882	1444.67
793.214	1420.03
793.546	1474.72
793.879	1470.88
794.211	1422.97
794.543	1429.75
794.875	1439.24
795.207	1406.02
795.539	1438.56
795.871	1426.36
796.203	1419.58
796.535	1416.42
796.867	1443.76
797.198	1432.69
797.53	1437.21
797.862	1375.74
798.193	1396.08
798.525	1411.9
798.856	1434.04
799.188	1399.47
799.519	1391.79
799.85	1403.08
800.182	1387.72
800.513	1385.91
800.844	1387.04
801.175	1396.76
801.506	1389.3
801.837	1384.33
802.168	1354.72
802.499	1359.02
802.83	1377.55
803.161	1375.74
803.491	1348.4
803.822	1354.27
804.153	1362.18
804.483	1367.83
804.814	1354.27
805.145	1337.78
805.475	1379.13
805.805	1356.98
806.136	1356.53
806.466	1336.42
806.796	1350.43
807.126	1326.02
807.457	1342.97
807.787	1346.59
808.117	1341.39
808.447	1321.73
808.777	1321.5
809.107	1298.68
809.436	1320.37
809.766	1299.13
810.096	1317.66
810.426	1327.38
810.755	1320.6
811.085	1314.73
811.414	1301.84
811.744	1312.69
812.073	1305.91
812.403	1307.72
812.732	1313.14
813.061	1320.83
813.39	1336.87
813.719	1278.12
814.049	1296.19
814.378	1290.77
814.707	1312.47
815.036	1276.76
815.365	1291
815.693	1262.52
816.022	1265.91
816.351	1279.92
816.68	1261.62
817.008	1260.49
817.337	1237.21
817.665	1258.68
817.994	1256.87
818.322	1260.49
818.651	1283.09
818.979	1260.04
819.307	1253.71
819.636	1243.99
819.964	1231.34
820.292	1226.82
820.62	1236.99
820.948	1230.21
821.276	1237.44
821.604	1210.1
821.932	1231.34
822.259	1237.67
822.587	1253.71
822.915	1233.37
823.243	1214.61
823.57	1222.52
823.898	1223.2
824.225	1220.94
824.553	1211.23
824.88	1222.52
825.207	1237.67
825.535	1243.77
825.862	1221.85
826.189	1236.76
826.516	1229.53
826.843	1228.4
827.17	1224.78
827.497	1234.28
827.824	1234.28
828.151	1199.47
828.478	1230.21
828.805	1203.54
829.131	1204.45
829.458	1228.4
829.785	1223.43
830.111	1214.39
830.438	1226.37
830.764	1202.41
831.09	1225.69
831.417	1213.71
831.743	1203.77
832.069	1214.39
832.395	1198.8
832.722	1219.13
833.048	1213.03
833.374	1189.76
833.7	1198.12
834.026	1200.38
834.351	1202.64
834.677	1200.38
835.003	1182.07
835.329	1190.66
835.654	1189.76
835.98	1225.46
836.306	1179.36
836.631	1159.93
836.956	1203.77
837.282	1182.98
837.607	1182.3
837.932	1207.61
838.258	1157.22
838.583	1164.45
838.908	1149.08
839.233	1164.45
839.558	1181.17
839.883	1146.82
840.208	1162.19
840.533	1147.27
840.858	1198.12
841.182	1156.31
841.507	1145.69
841.832	1149.98
842.156	1177.78
842.481	1175.07
842.805	1139.36
843.13	1172.58
843.454	1161.73
843.778	1147.27
844.103	1141.85
844.427	1145.92
844.751	1138.91
845.075	1143.88
845.399	1128.74
845.723	1129.42
846.047	1136.65
846.371	1131.45
846.695	1127.84
847.019	1142.75
847.343	1113.37
847.666	1106.14
847.99	1124
848.313	1118.8
848.637	1128.52
848.96	1109.98
849.284	1088.29
849.607	1097.56
849.931	1075.64
850.254	1107.27
850.577	1081.06
850.9	1078.8
851.223	1085.8
851.546	1107.95
851.869	1100.04
852.192	1090.1
852.515	1071.79
852.838	1071.79
853.161	1064.11
853.483	1065.47
853.806	1073.38
854.129	1067.5
854.451	1047.39
854.774	1060.04
855.096	1034.05
855.419	1051.91
855.741	1066.14
856.063	1040.16
856.385	1069.76
856.708	1066.6
857.03	1054.17
857.352	1070.44
857.674	1056.65
857.996	1008.97
858.318	1050.78
858.64	1057.1
858.961	1029.31
859.283	1033.15
859.605	1032.02
859.926	1055.3
860.248	1055.3
860.57	1039.7
860.891	1047.61
861.212	1015.52
861.534	1037.44
861.855	1032.25
862.176	1043.77
862.498	1024.34
862.819	1051.68
863.14	1003.32
863.461	1033.6
863.782	1024.79
864.103	1027.5
864.424	1036.77
864.745	998.12
865.065	1000.38
865.386	1020.5
865.707	1028.86
866.027	1033.38
866.348	1000.84
866.668	1027.73
866.989	1017.78
867.309	1028.41
867.63	1028.86
867.95	1008.52
868.27	1022.98
868.59	1018.91
868.91	1010.78
869.23	1020.04
869.55	1008.97
869.87	1005.35
870.19	1029.54
870.51	1011
870.83	1029.08
871.15	1024.56
871.469	1009.87
871.789	1014.85
872.109	1005.35
872.428	1001.29
872.748	1023.43
873.067	1014.85
873.386	996.54
873.706	1000.16
874.025	1010.55
874.344	1004.45
874.663	1004.68
874.982	1004.68
875.301	1008.07
875.62	999.93
875.939	991.34
876.258	1011.46
876.577	1001.29
876.896	990.89
877.214	1024.34
877.533	987.05
877.852	986.6
878.17	1001.29
878.489	1008.29
878.807	1005.13
879.125	1003.77
879.444	968.75
879.762	1002.64
880.08	1002.19
880.398	1007.84
880.716	996.09
881.034	974.85
881.352	990.67
881.67	1000.38
881.988	992.7
882.306	970.55
882.624	968.52
882.941	993.38
883.259	1020.5
883.577	966.03
883.894	967.84
884.212	957.67
884.529	975.75
884.846	970.78
885.164	962.87
885.481	961.51
885.798	968.29
886.115	977.11
886.432	970.78
886.75	961.29
887.067	959.03
887.383	922.42
887.7	954.96
888.017	967.16
888.334	957.45
888.651	967.62
888.967	938.24
889.284	964
889.6	925.13
889.917	926.03
890.233	952.25
890.55	940.5
890.866	940.5
891.182	936.2
891.498	920.61
891.815	922.42
892.131	937.79
892.447	938.69
892.763	915.19
893.079	922.87
893.395	921.06
893.71	908.86
894.026	909.54
894.342	891.46
894.657	898.69
894.973	894.62
895.289	903.89
895.604	878.8
895.92	909.09
896.235	888.07
896.55	905.47
896.865	889.65
897.181	889.65
897.496	876.09
897.811	860.73
898.126	886.26
898.441	896.88
898.756	882.42
899.071	866.38
899.386	869.31
899.7	880.61
900.015	848.52
900.33	864.34
900.644	857.11
900.959	869.54
901.273	864.12
901.588	851.91
901.902	846.26
902.216	839.71
902.531	813.27
902.845	812.37
903.159	830.9
903.473	851.69
903.787	820.05
904.101	832.93
904.415	805.59
904.729	821.86
905.042	810.33
905.356	793.84
905.67	825.02
905.984	829.99
906.297	822.76
906.611	829.09
906.924	807.62
907.237	793.84
907.551	796.55
907.864	807.62
908.177	802.2
908.491	815.3
908.804	805.36
909.117	784.8
909.43	817.11
909.743	781.18
910.056	811.24
910.368	785.25
910.681	782.54
910.994	774.63
911.307	791.12
911.619	803.78
911.932	783.89
912.244	781.18
912.557	771.24
912.869	773.27
913.181	763.55
913.494	752.71
913.806	743.44
914.118	762.65
914.43	726.04
914.742	739.6
915.054	759.26
915.366	743.89
915.678	755.42
915.99	744.8
916.302	718.81
916.613	727.17
916.925	720.84
917.236	743.44
917.548	727.4
917.859	702.99
918.171	745.02
918.482	728.3
918.794	708.64
919.105	735.08
919.416	693.05
919.727	707.74
920.038	718.36
920.349	707.51
920.66	734.63
920.971	734.63
921.282	711.58
921.593	714.06
921.903	707.74
922.214	707.28
922.525	703.89
922.835	694.4
923.146	717.23
923.456	716.77
923.767	692.14
924.077	695.98
924.387	689.21
924.697	711.8
925.008	689.66
925.318	696.66
925.628	681.07
925.938	687.17
926.248	704.8
926.558	683.56
926.867	671.35
927.177	700.73
927.487	666.15
927.796	676.78
928.106	693.5
928.416	668.87
928.725	678.81
929.034	658.47
929.344	663.89
929.653	662.54
929.962	666.38
930.271	667.96
930.581	696.21
930.89	649.21
931.199	654.18
931.508	680.17
931.817	660.96
932.125	642.65
932.434	657.79
932.743	661.18
933.051	670.9
933.36	653.5
933.669	653.27
933.977	662.77
934.286	660.28
934.594	631.13
934.902	639.71
935.21	635.65
935.519	645.36
935.827	649.88
936.135	641.52
936.443	654.63
936.751	666.15
937.059	646.95
937.367	622.77
937.674	632.94
937.982	660.28
938.29	659.38
938.597	631.58
938.905	631.81
939.213	635.87
939.52	618.7
939.827	638.58
940.135	617.34
940.442	639.04
940.749	625.7
941.056	639.26
941.363	607.63
941.67	637.91
941.977	613.27
942.284	625.93
942.591	623.67
942.898	618.92
943.205	636.78
943.511	622.99
943.818	619.38
944.125	611.02
944.431	610.11
944.738	625.03
945.044	597.68
945.35	610.79
945.657	614.4
945.963	608.98
946.269	607.85
946.575	616.66
946.881	601.75
947.187	566.04
947.493	580.28
947.799	598.36
948.105	597
948.41	586.83
948.716	599.72
949.022	599.72
949.327	608.3
949.633	614.63
949.938	585.03
950.244	594.29
950.549	566.04
950.854	581.41
951.16	586.16
951.465	582.99
951.77	585.7
952.075	564.01
952.38	593.84
952.685	594.52
952.99	545.48
953.294	578.25
953.599	598.59
953.904	588.42
954.209	581.19
954.513	603.78
954.818	575.31
955.122	558.59
955.426	566.04
955.731	578.7
956.035	572.6
956.339	557.01
956.643	571.24
956.948	559.72
957.252	571.24
957.556	560.17
957.86	587.74
958.163	563.56
958.467	565.37
958.771	566.04
959.075	566.5
959.378	573.5
959.682	568.3
959.985	557.68
960.289	575.54
960.592	569.21
960.896	556.78
961.199	556.78
961.502	563.78
961.805	540.28
962.108	558.59
962.411	554.52
962.714	553.39
963.017	553.39
963.32	566.72
963.623	552.71
963.926	555.42
964.228	554.52
964.531	537.57
964.833	555.2
965.136	542.77
965.438	524.46
965.741	550.45
966.043	528.08
966.345	538.02
966.648	553.62
966.95	548.64
967.252	522.66
967.554	534.86
967.856	528.76
968.158	541.19
968.46	512.03
968.761	538.47
969.063	525.14
969.365	542.09
969.666	515.2
969.968	527.63
970.269	528.76
970.571	506.16
970.872	514.97
971.174	506.16
971.475	507.06
971.776	523.11
972.077	531.24
972.378	539.15
972.679	527.4
972.98	512.71
973.281	503.67
973.582	515.65
973.883	527.63
974.183	534.18
974.484	498.25
974.785	503.67
975.085	502.54
975.386	512.94
975.686	491.24
975.986	526.05
976.287	500.28
976.587	503.45
976.887	495.31
977.187	494.18
977.487	490.57
977.787	494.63
978.087	493.28
978.387	473.39
978.687	488.98
978.987	481.53
979.286	488.08
979.586	504.58
979.885	498.02
980.185	480.17
980.484	483.33
980.784	488.08
981.083	498.93
981.382	490.57
981.682	468.87
981.981	499.83
982.28	473.62
982.579	487.4
982.878	491.47
983.177	489.21
983.475	478.36
983.774	471.81
984.073	471.81
984.372	484.01
984.67	484.69
984.969	474.75
985.267	453.28
985.566	491.02
985.864	474.97
986.162	474.52
986.461	463.67
986.759	454.18
987.057	467.52
987.355	448.08
987.653	465.93
987.951	456.67
988.249	440.62
988.547	458.02
988.844	450.12
989.142	461.64
989.44	456.89
989.737	459.15
990.035	440.85
990.332	461.41
990.63	461.41
990.927	468.19
991.224	444.24
991.521	432.04
991.819	460.28
992.116	449.89
992.413	454.18
992.71	455.76
993.006	471.36
993.303	451.7
993.6	450.57
993.897	437.01
994.193	447.18
994.49	427.29
994.787	439.72
995.083	437.46
995.379	453.28
995.676	449.66
995.972	447.4
996.268	453.96
996.565	439.49
996.861	439.04
997.157	440.85
997.453	434.3
997.749	408.31
998.044	421.42
998.34	423.9
998.636	440.62
998.932	431.36
999.227	437.23
999.523	442.88
999.818	424.81
1000.114	427.52
1000.409	419.61
1000.704	420.96
1001	421.19
1001.295	413.73
1001.59	407.18
1001.885	424.81
1002.18	417.8
1002.475	406.05
1002.77	429.32
1003.065	418.03
1003.359	428.87
1003.654	405.6
1003.949	404.92
1004.243	411.47
1004.538	426.39
1004.832	431.36
1005.127	422.09
1005.421	419.61
1005.715	415.77
1006.009	434.97
1006.304	416.67
1006.598	421.64
1006.892	408.99
1007.186	409.44
1007.48	394.75
1007.773	415.99
1008.067	405.37
1008.361	398.37
1008.655	383.45
1008.948	395.43
1009.242	419.16
1009.535	399.04
1009.829	403.11
1010.122	387.29
1010.415	392.49
1010.708	391.81
1011.001	394.3
1011.295	414.41
1011.588	381.42
1011.881	412.83
1012.173	392.72
1012.466	411.25
1012.759	399.04
1013.052	408.76
1013.344	371.02
1013.637	411.02
1013.93	413.51
1014.222	386.39
1014.514	388.87
1014.807	369.89
1015.099	389.78
1015.391	394.3
1015.683	381.19
1015.976	389.1
1016.268	402.88
1016.56	408.53
1016.851	405.82
1017.143	408.31
1017.435	380.96
1017.727	386.84
1018.018	383.9
1018.31	373.51
1018.602	377.12
1018.893	418.7
1019.185	403.56
1019.476	378.7
1019.767	393.39
1020.058	380.51
1020.35	397.24
1020.641	363.11
1020.932	383.9
1021.223	363.79
1021.514	364.69
1021.804	361.76
1022.095	383
1022.386	386.39
1022.677	366.28
1022.967	344.81
1023.258	363.11
1023.548	392.04
1023.839	378.93
1024.129	373.96
1024.419	373.96
1024.709	359.27
1025	379.61
1025.29	361.3
1025.58	367.86
1025.87	373.73
1026.16	356.33
1026.449	383
1026.739	359.5
1027.029	368.54
1027.319	375.99
1027.608	350.46
1027.898	368.31
1028.187	364.92
1028.477	379.16
1028.766	377.12
1029.055	368.54
1029.344	358.82
1029.634	372.38
1029.923	366.73
1030.212	361.53
1030.501	341.87
1030.79	370.8
1031.078	371.47
1031.367	352.94
1031.656	373.06
1031.945	373.51
1032.233	353.17
1032.522	359.5
1032.81	372.83
1033.099	375.09
1033.387	349.1
1033.675	333.96
1033.963	362.66
1034.251	357.01
1034.54	358.82
1034.828	347.97
1035.116	337.12
1035.403	365.37
1035.691	373.06
1035.979	348.42
1036.267	349.1
1036.554	354.52
1036.842	351.59
1037.129	364.02
1037.417	343.23
1037.704	346.16
1037.992	342.32
1038.279	361.08
1038.566	362.89
1038.853	362.89
1039.14	362.89
