Data from foam2_polystyrene_foam_FLMS001491_00007.txt Node
Date: Wed Feb 08 10:57:26 GMT 2017
User: dcchb
Spectrometer: FLMS00149
Trigger mode: 0
Integration Time (sec): 2.000000E-2
Scans to average: 10
Electric dark correction enabled: true
Nonlinearity correction enabled: false
Boxcar width: 0
XAxis mode: Wavelengths
Number of Pixels in Spectrum: 2048
>>>>>Begin Spectral Data<<<<<
341.393	-11.55
341.776	-11.55
342.16	-11.55
342.543	-52.46
342.927	-60.37
343.31	-59.91
343.693	-74.15
344.077	-67.37
344.46	-72.12
344.843	-39.35
345.226	-30.08
345.61	-34.83
345.993	-5.68
346.376	-6.58
346.759	-5
347.142	36.81
347.525	27.09
347.908	59.86
348.291	67.77
348.674	93.53
349.057	110.03
349.44	121.55
349.823	152.28
350.206	171.94
350.588	187.54
350.971	225.28
351.354	224.82
351.737	228.21
352.119	260.3
352.502	267.31
352.884	268.44
353.267	318.16
353.65	294.43
354.032	302.11
354.414	325.16
354.797	305.5
355.179	328.55
355.562	334.43
355.944	325.61
356.326	333.3
356.709	329.68
357.091	327.65
357.473	364.26
357.855	373.3
358.238	348.89
358.62	331.26
359.002	360.64
359.384	325.61
359.766	342.56
360.148	336.23
360.53	376.23
360.912	357.93
361.294	366.52
361.676	348.44
362.057	345.27
362.439	343.69
362.821	349.12
363.203	364.48
363.584	355.44
363.966	338.27
364.348	338.27
364.729	358.15
365.111	335.56
365.493	359.51
365.874	334.2
366.256	335.1
366.637	333.07
367.019	350.25
367.4	351.6
367.781	355.44
368.163	340.3
368.544	339.4
368.925	338.49
369.306	358.38
369.688	349.34
370.069	338.72
370.45	326.74
370.831	324.71
371.212	348.21
371.593	349.12
371.974	351.15
372.355	352.05
372.736	356.12
373.117	355.67
373.498	350.7
373.879	364.26
374.26	358.83
374.641	352.05
375.021	339.17
375.402	387.98
375.783	378.04
376.163	384.37
376.544	389.57
376.925	371.04
377.305	361.32
377.686	371.04
378.066	366.97
378.447	354.54
378.827	383.24
379.208	376.69
379.588	374.2
379.968	374.43
380.349	401.09
380.729	389.34
381.109	403.35
381.489	402.22
381.87	404.03
382.25	412.62
382.63	409.9
383.01	403.12
383.39	408.32
383.77	430.92
384.15	424.59
384.53	422.11
384.91	420.98
385.29	428.21
385.67	425.27
386.049	426.18
386.429	445.16
386.809	432.05
387.189	451.94
387.568	440.41
387.948	440.86
388.328	469.34
388.707	471.37
389.087	446.29
389.466	481.77
389.846	482.9
390.225	466.63
390.605	459.85
390.984	466.85
391.363	480.41
391.743	484.25
392.122	481.09
392.501	485.61
392.881	494.65
393.26	498.94
393.639	507.53
394.018	498.94
394.397	511.82
394.776	502.33
395.155	524.25
395.534	510.24
395.913	547.53
396.292	520.86
396.671	545.27
397.05	539.39
397.429	535.55
397.808	555.66
398.186	542.56
398.565	559.05
398.944	528.55
399.323	562.89
399.701	567.87
400.08	549.11
400.458	578.26
400.837	594.98
401.215	571.71
401.594	592.27
401.972	565.15
402.351	611.71
402.729	604.02
403.107	615.77
403.486	598.83
403.864	619.39
404.242	614.19
404.62	614.87
404.999	625.27
405.377	629.56
405.755	635.21
406.133	658.49
406.511	642.21
406.889	664.81
407.267	686.06
407.645	673.85
408.023	712.5
408.401	726.05
408.779	681.99
409.156	710.01
409.534	727.64
409.912	728.99
410.29	730.8
410.667	747.3
411.045	749.78
411.422	747.07
411.8	775.77
412.178	756.56
412.555	803.79
412.933	803.34
413.31	812.61
413.687	818.93
414.065	826.16
414.442	823.68
414.819	866.84
415.197	858.48
415.574	857.8
415.951	856.45
416.328	852.6
416.705	859.38
417.082	873.17
417.46	903.68
417.837	902.77
418.214	906.61
418.591	926.5
418.967	906.84
419.344	935.54
419.721	953.17
420.098	939.61
420.475	958.14
420.852	971.92
421.228	964.01
421.605	992.49
421.982	987.29
422.358	1024.35
422.735	1027.52
423.111	995.65
423.488	1021.19
423.864	1031.13
424.241	1044.92
424.617	1062.54
424.994	1039.72
425.37	1063.9
425.746	1085.14
426.123	1087.85
426.499	1104.58
426.875	1145.93
427.251	1123.11
427.627	1181.41
428.003	1184.12
428.379	1205.59
428.756	1208.08
429.132	1211.47
429.507	1229.77
429.883	1240.62
430.259	1240.17
430.635	1262.99
431.011	1263.89
431.387	1291.92
431.763	1317.9
432.138	1340.5
432.514	1361.74
432.89	1361.52
433.265	1386.6
433.641	1398.81
434.016	1411.01
434.392	1424.34
434.767	1449.88
435.143	1458.69
435.518	1462.98
435.894	1449.43
436.269	1516.54
436.644	1521.97
437.02	1545.69
437.395	1539.14
437.77	1558.12
438.145	1606.71
438.52	1617.78
438.895	1620.04
439.271	1627.27
439.646	1667.95
440.021	1684.67
440.395	1667.5
440.77	1681.06
441.145	1712.24
441.52	1699.81
441.895	1725.58
442.27	1740.26
442.645	1772.81
443.019	1802.86
443.394	1818.91
443.769	1811.22
444.143	1806.03
444.518	1829.08
444.892	1813.03
445.267	1868.4
445.641	1873.82
446.016	1843.99
446.39	1903.65
446.764	1917.21
447.139	1928.51
447.513	1932.35
447.887	1937.55
448.262	1979.58
448.636	1989.52
449.01	2022.07
449.384	2035.62
449.758	2047.15
450.132	2075.17
450.506	2105.68
450.88	2067.94
451.254	2101.16
451.628	2109.75
452.002	2130.54
452.376	2191.55
452.75	2206.24
453.123	2237.2
453.497	2244.88
453.871	2247.14
454.244	2314.71
454.618	2320.36
454.992	2381.83
455.365	2339.35
455.739	2405.56
456.112	2432
456.486	2410.76
456.859	2488.72
457.232	2511.54
457.606	2506.57
457.979	2558.32
458.352	2570.07
458.725	2596.97
459.099	2613.69
459.472	2664.99
459.845	2703.63
460.218	2695.72
460.591	2748.83
460.964	2774.81
461.337	2843.29
461.71	2862.27
462.083	2907.69
462.456	2928.48
462.829	2885.77
463.201	2996.05
463.574	2975.94
463.947	3005.77
464.32	3088.7
464.692	3131.64
465.065	3120.34
465.438	3169.61
465.81	3209.38
466.183	3251.41
466.555	3300.45
466.928	3307
467.3	3346.1
467.672	3395.59
468.045	3483.27
468.417	3496.6
468.789	3540.9
469.161	3569.37
469.534	3583.83
469.906	3687.56
470.278	3715.13
470.65	3750.16
471.022	3811.85
471.394	3867.21
471.766	3908.12
472.138	3965.29
472.51	3997.15
472.882	4163.7
473.253	4114.89
473.625	4200.09
473.997	4288.22
474.369	4271.05
474.74	4339.97
475.112	4465.39
475.484	4531.6
475.855	4581.77
476.227	4647.53
476.598	4746.51
476.97	4786.51
477.341	4905.83
477.713	4988.32
478.084	4973.17
478.455	5144.47
478.827	5145.15
479.198	5383.33
479.569	5347.85
479.94	5453.16
480.311	5523.67
480.682	5641.18
481.053	5743.32
481.424	5868.29
481.795	5897.67
482.166	5982.87
482.537	6104.9
482.908	6223.31
483.279	6264.67
483.65	6372.01
484.021	6500.59
484.391	6619.91
484.762	6564.09
485.133	6658.78
485.503	6810.87
485.874	6912.78
486.244	6961.14
486.615	7158.2
486.985	7230.97
487.356	7414.24
487.726	7477.74
488.097	7591.41
488.467	7673.22
488.837	7781.91
489.207	7884.51
489.578	7999.08
489.948	8063.26
490.318	8146.2
490.688	8241.34
491.058	8332.18
491.428	8454.21
491.798	8538.5
492.168	8711.38
492.538	8746.86
492.908	8810.59
493.278	8985.05
493.648	8993.86
494.017	9163.8
494.387	9150.01
494.757	9231.14
495.126	9378.71
495.496	9419.61
495.866	9473.62
496.235	9596.78
496.605	9645.82
496.974	9733.05
497.344	9811.01
497.713	9890.79
498.082	9952.93
498.452	10083.32
498.821	10091.91
499.19	10180.5
499.559	10194.73
499.928	10344.78
500.298	10387.5
500.667	10564.89
501.036	10472.01
501.405	10586.13
501.774	10741.61
502.143	10747.49
502.512	10782.51
502.88	10951.1
503.249	10916.97
503.618	11081.04
503.987	10985.67
504.356	11136.18
504.724	11193.12
505.093	11358.77
505.462	11380.92
505.83	11450.52
506.199	11529.39
506.567	11699.78
506.936	11644.86
507.304	11871.52
507.672	11838.98
508.041	11975.93
508.409	11954.46
508.777	12084.63
509.145	12313.55
509.514	12308.12
509.882	12403.26
510.25	12368.23
510.618	12553.09
510.986	12549.92
511.354	12668.57
511.722	12826.53
512.09	12958.05
512.458	12916.24
512.826	13035.56
513.193	13133.41
513.561	13161.43
513.929	13334.08
514.297	13414.99
514.664	13532.95
515.032	13610.01
515.4	13735.2
515.767	13742.44
516.135	13812.26
516.502	13854.3
516.869	14084.8
517.237	14173.16
517.604	14063.1
517.972	14263.55
518.339	14390.55
518.706	14441.17
519.073	14586.03
519.44	14691.79
519.808	14760.71
520.175	14920.26
520.542	15077.09
520.909	15104.43
521.276	15117.31
521.643	15415.84
522.009	15451.09
522.376	15567.92
522.743	15698.09
523.11	15850.18
523.477	15986.22
523.843	16082.49
524.21	16188.25
524.577	16387.11
524.943	16487.9
525.31	16589.59
525.676	16792.75
526.043	16903.26
526.409	16907.1
526.776	17189.8
527.142	17186.64
527.508	17305.05
527.874	17505.05
528.241	17507.99
528.607	17663.91
528.973	17823.91
529.339	17829.11
529.705	18052.6
530.071	18153.17
530.437	18145.03
530.803	18435.87
531.169	18482.65
531.535	18461.63
531.901	18504.12
532.267	18622.31
532.632	18798.12
532.998	18887.61
533.364	18868.18
533.73	19028.85
534.095	19176.42
534.461	19275.62
534.826	19215.06
535.192	19529.85
535.557	19498.89
535.923	19516.97
536.288	19666.35
536.653	19787.93
537.019	19693.69
537.384	19947.24
537.749	19885.55
538.114	19989.28
538.479	20059.56
538.845	20200.57
539.21	20120.57
539.575	20281.25
539.94	20390.4
540.305	20526.89
540.67	20463.39
541.034	20452.54
541.399	20683.72
541.764	20787
542.129	20810.27
542.494	20870.16
542.858	20954.45
543.223	20986.99
543.587	21159.64
543.952	21059.76
544.316	21250.03
544.681	21211.39
545.045	21328.68
545.41	21461.33
545.774	21494.1
546.138	21543.81
546.503	21627.65
546.867	21692.96
547.231	21824.26
547.595	21898.83
547.959	21968.66
548.324	21981.31
548.688	22032.84
549.052	22174.53
549.416	22130.46
549.779	22294.98
550.143	22456.1
550.507	22594.86
550.871	22610.68
551.235	22680.96
551.599	22880.05
551.962	22841.86
552.326	22953.94
552.689	23148.06
553.053	23013.6
553.417	23195.52
553.78	23445.46
554.143	23381.96
554.507	23485.91
554.87	23529.3
555.234	23863.98
555.597	23673.93
555.96	23760.25
556.323	23789.85
556.686	23945.78
557.05	24123.41
557.413	24213.12
557.776	24383.06
558.139	24428.71
558.502	24491.31
558.865	24615.14
559.228	24750.28
559.59	24863.05
559.953	24949.6
560.316	25284.73
560.679	25241.79
561.041	25362.92
561.404	25382.13
561.767	25630.94
562.129	25565.85
562.492	25820.54
562.854	25832.74
563.217	25965.16
563.579	26049
563.941	26209.9
564.304	26369.9
564.666	26470.91
565.028	26589.78
565.39	26698.7
565.753	26771.02
566.115	26830.68
566.477	27043.55
566.839	27164.68
567.201	27299.37
567.563	27346.82
567.925	27540.49
568.287	27514.5
568.648	27615.52
569.01	27726.47
569.372	28050.08
569.734	27875.85
570.095	28039.91
570.457	28143.41
570.819	28168.5
571.18	28307.7
571.542	28406.68
571.903	28409.39
572.265	28637.64
572.626	28688.26
572.987	28783.62
573.349	28854.58
573.71	28975.93
574.071	28975.48
574.432	29060.45
574.794	29180.22
575.155	29264.74
575.516	29258.86
575.877	29344.96
576.238	29470.38
576.599	29581.79
576.96	29492.76
577.32	29653.43
577.681	29764.61
578.042	29806.87
578.403	29859.3
578.763	29922.57
579.124	29861.11
579.485	30078.05
579.845	30137.94
580.206	30024.49
580.566	30027.2
580.927	29973.87
581.287	30213.87
581.648	30019.3
582.008	30205.96
582.368	30210.02
582.728	30320.98
583.089	30219.74
583.449	30319.63
583.809	30317.59
584.169	30376.12
584.529	30429.23
584.889	30652.73
585.249	30406.86
585.609	30347.87
585.969	30574.54
586.329	30482.11
586.688	30515.1
587.048	30400.53
587.408	30357.14
587.768	30231.72
588.127	30306.29
588.487	30271.04
588.846	30565.04
589.206	30371.15
589.565	30335.22
589.925	30448.21
590.284	30404.37
590.643	30405.73
591.003	30571.15
591.362	30566.63
591.721	30530.47
592.08	30431.71
592.44	30619.51
592.799	30621.77
593.158	30617.92
593.517	30592.61
593.876	30654.98
594.235	30624.93
594.593	30613.86
594.952	30859.73
595.311	30711.71
595.67	30718.71
596.029	30919.61
596.387	30845.04
596.746	30956.67
597.104	30725.72
597.463	30793.29
597.822	30969.33
598.18	30870.8
598.538	30844.36
598.897	30961.42
599.255	30748.54
599.613	31165.25
599.972	30944.92
600.33	30959.61
600.688	30786.05
601.046	30885.04
601.404	31175.42
601.762	31032.6
602.12	31216.55
602.478	31143.11
602.836	31289.54
603.194	30992.15
603.552	31065.37
603.91	31077.35
604.268	31263.78
604.625	31161.86
604.983	31308.53
605.341	31118.02
605.698	31417.45
606.056	31222.65
606.413	31210.9
606.771	31323.67
607.128	31408.64
607.485	31237.12
607.843	31217.46
608.2	31440.95
608.557	31655.18
608.914	31385.59
609.272	31678.91
609.629	31713.26
609.986	31767.5
610.343	31666.26
610.7	31843.88
611.057	31877.33
611.414	31805.69
611.771	31816.31
612.127	32002.75
612.484	32062.63
612.841	32033.71
613.198	31912.13
613.554	31974.95
613.911	32094.04
614.267	32172.01
614.624	31981.28
614.98	32173.36
615.337	32139.24
615.693	32257.65
616.05	32213.14
616.406	32403.64
616.762	32297.43
617.118	32266.92
617.475	32428.72
617.831	32451.1
618.187	32494.03
618.543	32465.11
618.899	32601.15
619.255	32553.01
619.611	32467.37
619.967	32677.3
620.323	32618.1
620.678	32494.94
621.034	32497.87
621.39	32456.07
621.746	32504.65
622.101	32753.46
622.457	32532
622.812	32631.2
623.168	32697.19
623.523	32650.64
623.879	32724.99
624.234	32571.32
624.589	32758.43
624.945	32662.62
625.3	32774.93
625.655	32739.45
626.01	32793.01
626.365	32737.87
626.72	32612.45
627.075	32699.9
627.43	32609.74
627.785	32510.08
628.14	32652.22
628.495	32708.26
628.85	32484.09
629.205	32469.4
629.559	32638.44
629.914	32387.59
630.269	32554.6
630.623	32357.99
630.978	32310.76
631.332	32399.8
631.687	32524.09
632.041	32256.07
632.396	32363.19
632.75	32115.29
633.104	32092.91
633.459	32015.4
633.813	31989.87
634.167	31944.89
634.521	32081.39
634.875	32000.94
635.229	31964.56
635.583	31991.22
635.937	31949.64
636.291	31796.65
636.645	32045.91
636.999	31886.36
637.352	31793.26
637.706	31773.83
638.06	31789.19
638.413	31739.02
638.767	31557.11
639.121	31703.32
639.474	31583.1
639.828	31419.71
640.181	31536.32
640.534	31341.29
640.888	31409.77
641.241	31390.11
641.594	31306.04
641.947	31344.01
642.301	31360.5
642.654	31372.48
643.007	31271.24
643.36	31169.1
643.713	31151.02
644.066	31303.33
644.419	31114.63
644.771	30894.07
645.124	30620.86
645.477	30565.95
645.83	30465.61
646.182	30226.07
646.535	30182.91
646.888	30228.33
647.24	29958.96
647.593	30153.3
647.945	30105.17
648.298	29972.52
648.65	29735.24
649.002	29847.1
649.355	29943.59
649.707	29910.37
650.059	30168.44
650.411	30512.62
650.763	30376.12
651.115	30636.68
651.467	30640.07
651.819	30524.82
652.171	30500.64
652.523	30473.52
652.875	30437.59
653.227	30347.2
653.578	30593.97
653.93	30379.96
654.282	30153.08
654.633	30166.86
654.985	30215.22
655.337	30194.66
655.688	30234.43
656.039	30410.02
656.391	29991.5
656.742	30273.98
657.094	30142.91
657.445	30200.08
657.796	30089.12
658.147	30076.47
658.498	30035.57
658.849	30146.07
659.2	30142
659.551	29871.28
659.902	30132.96
660.253	30152.63
660.604	29986.53
660.955	29958.73
661.306	29938.39
661.656	29843.48
662.007	30008.45
662.358	29920.99
662.708	29970.48
663.059	29927.77
663.409	29639.64
663.76	29959.41
664.11	29810.04
664.461	29918.51
664.811	29876.25
665.161	29783.37
665.511	29844.61
665.862	29817.04
666.212	29909.24
666.562	29726.65
666.912	29722.13
667.262	29628.8
667.612	29694.11
667.962	29761.68
668.312	29687.78
668.662	29912.63
669.011	29685.52
669.361	29708.8
669.711	29691.85
670.06	29649.59
670.41	29595.58
670.76	29618.85
671.109	29716.93
671.459	29446.66
671.808	29367.56
672.157	29521.91
672.507	29394.45
672.856	29439.65
673.205	29401.01
673.554	29502.92
673.904	29293.89
674.253	29544.05
674.602	29364.17
674.951	29011.86
675.3	28835.82
675.649	29270.84
675.998	29184.52
676.346	29307.45
676.695	29358.52
677.044	29134.35
677.393	29121.69
677.741	29202.14
678.09	29189.94
678.438	28998.76
678.787	29126.44
679.135	29128.02
679.484	28788.37
679.832	29038.08
680.181	28923.28
680.529	28912.88
680.877	28824.75
681.225	28779.33
681.573	28983.84
681.922	28776.39
682.27	28660.46
682.618	28583.17
682.966	28527.58
683.314	28546.34
683.661	28371.2
684.009	28252.11
684.357	28149.74
684.705	28227.93
685.053	28260.92
685.4	28137.09
685.748	27977.09
686.095	28025
686.443	27774.38
686.79	27785
687.138	27834.95
687.485	27794.72
687.832	27763.76
688.18	27681.28
688.527	27545.91
688.874	27514.05
689.221	27540.49
689.568	27302.76
689.915	27343.43
690.262	27346.82
690.609	27186.38
690.956	27124
691.303	27122.87
691.65	26993.84
691.997	27001.97
692.344	26781.64
692.69	26832.49
693.037	26839.49
693.383	26560.18
693.73	26703.45
694.077	26636.33
694.423	26536.68
694.769	26560.4
695.116	26352.73
695.462	26385.27
695.808	26188.66
696.155	26291.94
696.501	26084.94
696.847	26150.02
697.193	25923.81
697.539	25941.21
697.885	25816.47
698.231	25680.88
698.577	25692.63
698.923	25639.3
699.269	25550.49
699.614	25364.28
699.96	25323.6
700.306	25343.94
700.651	25189.59
700.997	25022.59
701.342	25119.09
701.688	25026.88
702.033	24973.33
702.379	24895.36
702.724	24779.66
703.069	24808.81
703.415	24562.72
703.76	24503.51
704.105	24656.72
704.45	24591.64
704.795	24317.75
705.14	24319.33
705.485	24172.44
705.83	24048.83
706.175	24154.82
706.52	24021.04
706.865	24019.91
707.209	24161.37
707.554	23942.62
707.899	24063.97
708.243	23913.24
708.588	23757.99
708.932	23645.68
709.277	23686.58
709.621	23635.51
709.966	23575.85
710.31	23592.12
710.654	23415.4
710.998	23423.99
711.342	23382.41
711.687	23327.49
712.031	23246.82
712.375	23091.79
712.719	23201.4
713.063	23078.91
713.407	23186.71
713.75	22980.16
714.094	23037.56
714.438	22976.54
714.782	22895.87
715.125	22861.07
715.469	22795.53
715.812	22646.16
716.156	22621.52
716.499	22626.04
716.843	22570
717.186	22534.52
717.53	22573.16
717.873	22602.32
718.216	22493.84
718.559	22333.85
718.902	22234.42
719.246	22211.59
719.589	22262.44
719.932	21943.35
720.275	22106.06
720.617	22077.81
720.96	22110.58
721.303	21958.49
721.646	22022.67
721.989	21772.51
722.331	21869
722.674	21833.3
723.016	21897.48
723.359	21821.54
723.701	21820.41
724.044	21672.62
724.386	21589.69
724.729	21594.21
725.071	21525.28
725.413	21471.72
725.755	21462.91
726.097	21454.1
726.439	21303.37
726.782	21291.39
727.124	21383.82
727.465	21190.38
727.807	21158.06
728.149	21184.73
728.491	21031.74
728.833	21164.84
729.175	21063.37
729.516	20950.38
729.858	21015.46
730.199	20956.26
730.541	20914.45
730.882	20814.79
731.224	20898.18
731.565	20776.15
731.906	20770.05
732.248	20668.58
732.589	20709.48
732.93	20582.03
733.271	20451.64
733.612	20569.6
733.953	20604.85
734.294	20544.74
734.635	20484.63
734.976	20551.3
735.317	20386.78
735.658	20402.83
735.999	20436.5
736.339	20326.67
736.68	20431.3
737.021	20254.35
737.361	20278.99
737.702	20339.32
738.042	20151.53
738.383	20144.07
738.723	20191.31
739.063	20069.05
739.404	20167.13
739.744	20140.01
740.084	20029.5
740.424	20042.38
740.764	19958.32
741.104	19905.66
741.444	19814.82
741.784	19748.15
742.124	19754.48
742.464	19787.7
742.804	19648.04
743.143	19678.1
743.483	19712.9
743.823	19516.29
744.162	19549.29
744.502	19550.64
744.841	19404.43
745.181	19492.57
745.52	19479.01
745.86	19482.62
746.199	19385.9
746.538	19407.15
746.877	19449.4
747.216	19425.68
747.556	19322.63
747.895	19330.08
748.234	19209.41
748.573	19134.84
748.911	19163.54
749.25	19163.76
749.589	19007.16
749.928	19097.32
750.267	19019.81
750.605	18950.43
750.944	18928.51
751.283	18991.79
751.621	18956.31
751.96	18912.02
752.298	18834.05
752.636	18845.35
752.975	18673.15
753.313	18699.14
753.651	18756.99
753.989	18589.31
754.327	18575.98
754.666	18429.32
755.004	18503.89
755.342	18567.17
755.679	18421.86
756.017	18341.41
756.355	18377.57
756.693	18269.77
757.031	18346.38
757.368	18095.99
757.706	18165.14
758.044	18121.76
758.381	18164.24
758.719	18068.65
759.056	18077.24
759.394	17972.61
759.731	17793.4
760.068	17786.4
760.405	17761.09
760.743	17633.18
761.08	17712.73
761.417	17544.6
761.754	17465.05
762.091	17533.52
762.428	17370.36
762.765	17270.7
763.102	17341.66
763.438	17250.82
763.775	17172.63
764.112	17216.92
764.449	17182.8
764.785	17079.75
765.122	16906.87
765.458	16842.01
765.795	16865.52
766.131	16871.62
766.467	16728.8
766.804	16720.89
767.14	16613.32
767.476	16634.79
767.812	16501.68
768.148	16552.08
768.485	16451.06
768.821	16315.02
769.157	16278.41
769.492	16305.31
769.828	16237.06
770.164	16081.81
770.5	16101.47
770.836	16015.6
771.171	15972.89
771.507	15995.94
771.842	15881.81
772.178	15836.62
772.513	15790.29
772.849	15834.58
773.184	15647.47
773.519	15628.49
773.855	15560.92
774.19	15508.26
774.525	15480.02
774.86	15523.18
775.195	15457.64
775.53	15357.99
775.865	15321.83
776.2	15186.47
776.535	15071.89
776.87	15129.29
777.205	15047.03
777.539	14955.51
777.874	14982.18
778.209	14842.97
778.543	14783.31
778.878	14783.09
779.212	14770.66
779.547	14594.16
779.881	14726.36
780.215	14507.39
780.55	14624.9
780.884	14466.03
781.218	14524.11
781.552	14411.8
781.886	14388.97
782.22	14254.74
782.554	14217.9
782.888	14134.74
783.222	14086.16
783.556	14034.4
783.889	14026.27
784.223	13894.75
784.557	13930.23
784.89	14015.65
785.224	13814.52
785.557	13814.98
785.891	13721.19
786.224	13759.38
786.558	13759.61
786.891	13595.32
787.224	13545.6
787.557	13444.36
787.891	13470.8
788.224	13498.37
788.557	13451.37
788.89	13392.39
789.223	13295.67
789.556	13253.41
789.888	13208.21
790.221	13216.12
790.554	13075.79
790.887	13145.39
791.219	12998.95
791.552	12970.25
791.884	12937.26
792.217	12874.89
792.549	12794.44
792.882	12751.27
793.214	12755.12
793.546	12728.68
793.879	12610.04
794.211	12573.43
794.543	12604.84
794.875	12547.21
795.207	12515.57
795.539	12471.73
795.871	12441.45
796.203	12394.9
796.535	12337.95
796.867	12270.84
797.198	12272.87
797.53	12218.86
797.862	12135.25
798.193	12172.31
798.525	11991.29
798.856	12130.5
799.188	11957.4
799.519	11956.49
799.85	11829.72
800.182	11892.77
800.513	11846.44
800.844	11861.13
801.175	11807.8
801.506	11859.09
801.837	11708.59
802.168	11732.09
802.499	11718.53
802.83	11567.8
803.161	11635.82
803.491	11628.14
803.822	11512.44
804.153	11436.28
804.483	11469.95
804.814	11323.74
805.145	11360.58
805.475	11350.41
805.805	11236.96
806.136	11249.62
806.466	11246
806.796	11216.85
807.126	11140.24
807.457	11188.38
807.787	11161.94
808.117	11125.78
808.447	11003.07
808.777	11008.5
809.107	10974.37
809.436	10951.32
809.766	11053.69
810.096	10910.19
810.426	10914.49
810.755	10900.02
811.085	10851.89
811.414	10773.25
811.744	10745
812.073	10743.42
812.403	10685.11
812.732	10709.07
813.061	10632.01
813.39	10597.89
813.719	10607.6
814.049	10637.21
814.378	10563.76
814.707	10527.38
815.036	10488.51
815.365	10403.77
815.693	10382.52
816.022	10418
816.351	10355.41
816.68	10316.76
817.008	10331.9
817.337	10252.81
817.665	10263.43
817.994	10270.44
818.322	10216.65
818.651	10158.12
818.979	10133.94
819.307	10198.57
819.636	10124.9
819.964	10096.66
820.292	10103.43
820.62	10120.84
820.948	10095.3
821.276	10108.86
821.604	10069.09
821.932	10087.62
822.259	10155.18
822.587	10053.04
822.915	10039.26
823.243	10042.19
823.57	10066.6
823.898	10015.3
824.225	9992.7
824.553	10068.86
824.88	10037.67
825.207	10105.92
825.535	10018.24
825.862	10103.66
826.189	10000.16
826.516	10068.86
826.843	10110.67
827.17	10052.36
827.497	10099.37
827.824	10038.58
828.151	10005.58
828.478	10031.35
828.805	9992.25
829.131	10014.17
829.458	10054.17
829.785	10011.23
830.111	10010.56
830.438	10015.98
830.764	10016.88
831.09	9971.69
831.417	9938.92
831.743	9945.47
832.069	9977.34
832.395	9882.42
832.722	9947.73
833.048	9974.4
833.374	9871.35
833.7	9872.71
834.026	9926.26
834.351	9933.95
834.677	9908.64
835.003	9900.95
835.329	9870.22
835.654	9863.44
835.98	9871.58
836.306	9829.77
836.631	9827.74
836.956	9835.19
837.282	9889.88
837.607	9774.86
837.932	9800.17
838.258	9750.68
838.583	9729.21
838.908	9758.81
839.233	9697.12
839.558	9665.25
839.883	9674.75
840.208	9603.56
840.533	9629.78
840.858	9694.18
841.182	9655.99
841.507	9698.93
841.832	9613.5
842.156	9500.74
842.481	9600.17
842.805	9547.29
843.13	9447.41
843.454	9465.71
843.778	9490.8
844.103	9421.87
844.427	9387.3
844.751	9420.29
845.075	9343.23
845.399	9393.17
845.723	9302.78
846.047	9284.93
846.371	9177.36
846.695	9220.75
847.019	9157.25
847.343	9083.12
847.666	9052.16
847.99	9056.46
848.313	9030.24
848.637	8971.94
848.96	8977.59
849.284	8948.21
849.607	8882.68
849.931	8882.68
850.254	8792.51
850.577	8768.78
850.9	8668.67
851.223	8687.43
851.546	8658.95
851.869	8586.41
852.192	8606.75
852.515	8531.72
852.838	8575.57
853.161	8483.82
853.483	8517.04
853.806	8467.32
854.129	8441.11
854.451	8353.42
854.774	8307.1
855.096	8343.71
855.419	8312.97
855.741	8242.24
856.063	8184.84
856.385	8191.62
856.708	8214.22
857.03	8223.48
857.352	8205.63
857.674	8156.59
857.996	8162.24
858.318	8095.35
858.64	8114.11
858.961	8125.41
859.283	8083.6
859.605	7995.92
859.926	8027.78
860.248	7989.82
860.57	8000.89
860.891	7971.97
861.212	7922.25
861.534	7965.86
861.855	7906.43
862.176	7880.22
862.498	7906.88
862.819	7879.31
863.14	7834.57
863.461	7816.49
863.782	7806.32
864.103	7797.51
864.424	7786.43
864.745	7794.8
865.065	7774.46
865.386	7737.62
865.707	7661.69
866.027	7712.09
866.348	7623.73
866.668	7704.85
866.989	7641.35
867.309	7613.56
867.63	7608.36
867.95	7556.61
868.27	7594.12
868.59	7526.78
868.91	7512.99
869.23	7585.31
869.55	7497.85
869.87	7563.61
870.19	7502.6
870.51	7481.36
870.83	7503.28
871.15	7453.34
871.469	7440.91
871.789	7472.54
872.109	7452.43
872.428	7320.01
872.748	7363.17
873.067	7397.29
873.386	7340.34
873.706	7408.82
874.025	7333.79
874.344	7349.61
874.663	7320.23
874.982	7285.88
875.301	7348.03
875.62	7318.42
875.939	7326.56
876.258	7237.07
876.577	7263.96
876.896	7229.16
877.214	7202.04
877.533	7260.57
877.852	7245.2
878.17	7244.08
878.489	7261.48
878.807	7220.57
879.125	7218.31
879.444	7234.81
879.762	7141.48
880.08	7199.33
880.398	7148.71
880.716	7199.78
881.034	7140.8
881.352	7117.75
881.67	7103.06
881.988	7117.98
882.306	7101.48
882.624	7052.89
882.941	7043.4
883.259	7037.75
883.577	6969.96
883.894	6909.85
884.212	6934.25
884.529	6911.2
884.846	6988.49
885.164	6939
885.481	6868.94
885.798	6916.63
886.115	6811.09
886.432	6869.85
886.75	6819.23
887.067	6845.44
887.383	6811.77
887.7	6823.3
888.017	6777.42
888.334	6819.91
888.651	6743.75
888.967	6741.26
889.284	6742.85
889.6	6689.06
889.917	6653.81
890.233	6642.06
890.55	6649.97
890.866	6605.22
891.182	6600.02
891.498	6562.51
891.815	6538.56
892.131	6537.43
892.447	6538.33
892.763	6538.1
893.079	6485.22
893.395	6422.85
893.71	6425.79
894.026	6447.26
894.342	6385.11
894.657	6450.42
894.973	6385.11
895.289	6368.62
895.604	6364.1
895.92	6290.88
896.235	6231.9
896.55	6283.65
896.865	6285.68
897.181	6254.27
897.496	6268.96
897.811	6211.56
898.126	6179.7
898.441	6148.74
898.756	6177.66
899.071	6155.97
899.386	6138.34
899.7	6064.45
900.015	6049.3
900.33	5970.21
900.644	6004.56
900.959	6006.14
901.273	6039.36
901.588	5981.96
901.902	5956.2
902.216	5901.96
902.531	5906.71
902.845	5938.12
903.159	5816.09
903.473	5894.96
903.787	5833.72
904.101	5810.67
904.415	5804.34
904.729	5752.14
905.042	5725.02
905.356	5747.62
905.67	5696.55
905.984	5686.83
906.297	5658.58
906.611	5668.3
906.924	5664
907.237	5592.59
907.551	5575.19
907.864	5522.31
908.177	5491.35
908.491	5502.2
908.804	5485.25
909.117	5454.29
909.43	5427.4
909.743	5419.49
910.056	5412.71
910.368	5369.32
910.681	5341.3
910.994	5366.61
911.307	5294.07
911.619	5273.28
911.932	5254.75
912.244	5229.44
912.557	5195.77
912.869	5174.75
913.181	5181.76
913.494	5158.93
913.806	5086.62
914.118	5177.69
914.43	5134.3
914.742	5080.29
915.054	5085.04
915.366	5007.98
915.678	5050.23
915.99	5003.23
916.302	4996.68
916.613	4965.49
916.925	4977.02
917.236	4939.28
917.548	4934.53
917.859	4895.66
918.171	4884.14
918.482	4854.76
918.794	4834.42
919.105	4789.9
919.416	4763.91
919.727	4733.86
920.038	4727.31
920.349	4733.18
920.66	4702.22
920.971	4726.63
921.282	4652.73
921.593	4650.7
921.903	4641.21
922.214	4626.52
922.525	4641.43
922.835	4596.91
923.146	4554.43
923.456	4517.59
923.767	4473.07
924.077	4505.16
924.387	4477.82
924.697	4464.04
925.008	4469.91
925.318	4438.95
925.628	4436.69
925.938	4382.46
926.248	4324.83
926.558	4367.54
926.867	4334.55
927.177	4309.01
927.487	4324.38
927.796	4334.55
928.106	4273.76
928.416	4252.52
928.725	4255.68
929.034	4191.95
929.344	4179.97
929.653	4170.26
929.962	4152.86
930.271	4122.8
930.581	4142.24
930.89	4126.87
931.199	4045.52
931.508	4060.43
931.817	4100.2
932.125	4054.1
932.434	4040.32
932.743	3963.03
933.051	3996.02
933.36	3981.79
933.669	3918.06
933.977	3949.7
934.286	3912.41
934.594	3902.24
934.902	3881
935.21	3866.08
935.519	3871.28
935.827	3812.3
936.135	3831.51
936.443	3795.13
936.751	3802.13
937.059	3805.75
937.367	3763.94
937.674	3754.22
937.982	3769.36
938.29	3779.76
938.597	3709.25
938.905	3672.64
939.213	3654.79
939.52	3620.89
939.827	3647.11
940.135	3645.3
940.442	3647.11
940.749	3602.81
941.056	3593.78
941.363	3553.78
941.67	3516.72
941.977	3522.37
942.284	3513.78
942.591	3486.43
942.898	3493.89
943.205	3483.5
943.511	3459.99
943.818	3482.82
944.125	3467.9
944.431	3405.08
944.738	3444.17
945.044	3449.82
945.35	3377.74
945.657	3377.51
945.963	3320.79
946.269	3356.49
946.575	3338.87
946.881	3304.74
947.187	3282.15
947.493	3274.91
947.799	3253.22
948.105	3269.72
948.41	3257.06
948.716	3227.91
949.022	3203.73
949.327	3203.96
949.633	3196.72
949.938	3178.19
950.244	3186.1
950.549	3134.13
950.854	3161.7
951.16	3140.91
951.465	3087.12
951.77	3100
952.075	3070.4
952.38	3069.5
952.685	3059.55
952.99	3045.32
953.294	3019.78
953.599	2980.01
953.904	3007.12
954.209	2961.93
954.513	2996.5
954.818	2947.46
955.122	2942.95
955.426	2929.16
955.731	2941.36
956.035	2894.13
956.339	2866.79
956.643	2862.5
956.948	2865.66
957.252	2856.62
957.556	2842.16
957.86	2806.68
958.163	2837.86
958.467	2788.37
958.771	2799.9
959.075	2742.5
959.378	2792.44
959.682	2817.3
959.985	2773.23
960.289	2718.54
960.592	2717.87
960.896	2733.01
961.199	2733.69
961.502	2723.52
961.805	2701.82
962.108	2667.92
962.411	2659.11
962.714	2673.8
963.017	2647.13
963.32	2628.83
963.623	2615.5
963.926	2638.77
964.228	2614.14
964.531	2597.19
964.833	2641.48
965.136	2577.08
965.438	2603.75
965.741	2584.31
966.043	2528.72
966.345	2591.32
966.648	2525.56
966.95	2472
967.252	2495.27
967.554	2485.78
967.856	2488.27
968.158	2449.85
968.46	2492.56
968.761	2475.61
969.063	2437.2
969.365	2428.38
969.666	2415.73
969.968	2421.6
970.269	2417.54
970.571	2365.33
970.872	2388.38
971.174	2397.87
971.475	2352.45
971.776	2351.55
972.077	2335.05
972.378	2361.27
972.679	2347.48
972.98	2305.67
973.281	2323.07
973.582	2284.88
973.883	2306.58
974.183	2262.51
974.484	2278.33
974.785	2287.14
975.085	2255.28
975.386	2262.06
975.686	2231.78
975.986	2225.45
976.287	2234.72
976.587	2157.43
976.887	2208.73
977.187	2195.39
977.487	2173.7
977.787	2160.14
978.087	2134.38
978.387	2125.79
978.687	2142.74
978.987	2176.86
979.286	2130.99
979.586	2121.5
979.885	2100.48
980.185	2103.19
980.484	2073.14
980.784	2108.39
981.083	2048.05
981.382	2075.85
981.682	2056.87
981.981	2072.69
982.28	2054.38
982.579	2013.03
982.878	2007.38
983.177	2018.22
983.475	2032.91
983.774	1994.5
984.073	1991.33
984.372	1996.08
984.67	1954.72
984.969	1970.54
985.267	1951.78
985.566	1934.38
985.864	1945.46
986.162	1958.34
986.461	1938
986.759	1918.34
987.057	1867.04
987.355	1898.45
987.653	1906.81
987.951	1872.46
988.249	1865.69
988.547	1866.36
988.844	1876.31
989.142	1849.87
989.44	1839.7
989.737	1823.65
990.035	1797.89
990.332	1804.9
990.63	1782.3
990.927	1797.21
991.224	1788.85
991.521	1781.62
991.819	1787.5
992.116	1782.98
992.413	1751.11
992.71	1742.98
993.006	1735.97
993.303	1726.48
993.6	1737.33
993.897	1741.17
994.193	1705.92
994.49	1728.74
994.787	1695.52
995.083	1700.04
995.379	1668.4
995.676	1672.7
995.972	1664.56
996.268	1676.99
996.565	1661.85
996.861	1646.48
997.157	1641.74
997.453	1653.49
997.749	1609.65
998.044	1644
998.34	1620.04
998.636	1614.39
998.932	1568.97
999.227	1609.19
999.523	1571
999.818	1565.35
1000.114	1567.16
1000.409	1555.41
1000.704	1544.11
1001	1517.67
1001.295	1539.37
1001.59	1531.68
1001.885	1478.58
1002.18	1515.64
1002.475	1502.08
1002.77	1489.65
1003.065	1476.54
1003.359	1486.49
1003.654	1488.75
1003.949	1493.04
1004.243	1467.73
1004.538	1445.81
1004.832	1439.93
1005.127	1439.71
1005.421	1413.27
1005.715	1402.42
1006.009	1401.52
1006.304	1401.97
1006.598	1406.04
1006.892	1371.46
1007.186	1369.88
1007.48	1369.65
1007.773	1372.37
1008.067	1357.9
1008.361	1361.97
1008.655	1353.83
1008.948	1313.16
1009.242	1320.39
1009.535	1336.66
1009.829	1295.08
1010.122	1291.24
1010.415	1280.16
1010.708	1306.38
1011.001	1312.03
1011.295	1286.94
1011.588	1268.19
1011.881	1267.28
1012.173	1289.88
1012.466	1251.24
1012.759	1238.81
1013.052	1232.03
1013.344	1256.21
1013.637	1254.63
1013.93	1200.17
1014.222	1227.06
1014.514	1250.33
1014.807	1233.39
1015.099	1204.91
1015.391	1194.06
1015.683	1176.44
1015.976	1170.11
1016.268	1197.68
1016.56	1157.68
1016.851	1170.56
1017.143	1153.84
1017.435	1163.33
1017.727	1157.91
1018.018	1131.47
1018.31	1110.9
1018.602	1122.43
1018.893	1103.45
1019.185	1114.52
1019.476	1099.6
1019.767	1088.76
1020.058	1097.34
1020.35	1088.53
1020.641	1102.54
1020.932	1063.22
1021.223	1061.86
1021.514	1052.15
1021.804	1044.69
1022.095	1045.82
1022.386	1038.59
1022.677	1048.98
1022.967	1056.44
1023.258	1027.74
1023.548	1021.87
1023.839	1024.8
1024.129	1001.98
1024.419	996.78
1024.709	1002.43
1025	966.95
1025.29	977.57
1025.58	958.59
1025.87	959.27
1026.16	970.12
1026.449	944.13
1026.739	952.94
1027.029	962.88
1027.319	929.44
1027.608	915.2
1027.898	925.82
1028.187	932.83
1028.477	927.63
1028.766	919.72
1029.055	930.34
1029.344	880.63
1029.634	897.12
1029.923	900.74
1030.212	887.63
1030.501	874.53
1030.79	876.11
1031.078	892.38
1031.367	858.93
1031.656	884.69
1031.945	874.98
1032.233	847.86
1032.522	858.48
1032.81	858.71
1033.099	846.96
1033.387	834.75
1033.675	858.93
1033.963	825.49
1034.251	813.06
1034.54	816
1034.828	811.93
1035.116	823.68
1035.403	815.54
1035.691	815.32
1035.979	798.59
1036.267	780.29
1036.554	782.1
1036.842	790.46
1037.129	778.93
1037.417	794.3
1037.704	760.86
1037.992	779.61
1038.279	798.82
1038.566	737.81
1038.853	737.81
1039.14	737.81
