Data from foam2_polystyrene_foam_FLMS001491_00009.txt Node
Date: Wed Feb 08 10:57:27 GMT 2017
User: dcchb
Spectrometer: FLMS00149
Trigger mode: 0
Integration Time (sec): 2.000000E-2
Scans to average: 10
Electric dark correction enabled: true
Nonlinearity correction enabled: false
Boxcar width: 0
XAxis mode: Wavelengths
Number of Pixels in Spectrum: 2048
>>>>>Begin Spectral Data<<<<<
341.393	-26.07
341.776	-26.07
342.16	-26.07
342.543	-61.1
342.927	-75.56
343.31	-85.51
343.693	-70.37
344.077	-53.64
344.46	-51.38
344.843	-46.64
345.226	-25.17
345.61	-24.26
345.993	-16.13
346.376	-5.06
346.759	-14.32
347.142	27.26
347.525	42.17
347.908	62.51
348.291	79.91
348.674	95.96
349.057	84.66
349.44	129.86
349.823	138.67
350.206	171.44
350.588	204.43
350.971	236.07
351.354	236.52
351.737	248.72
352.119	250.08
352.502	274.48
352.884	285.78
353.267	290.3
353.65	309.96
354.032	309.51
354.414	314.71
354.797	332.79
355.179	303.64
355.562	324.43
355.944	305.22
356.326	346.57
356.709	359.45
357.091	335.27
357.473	347.02
357.855	353.58
358.238	365.78
358.62	349.28
359.002	352
359.384	347.25
359.766	361.49
360.148	348.83
360.53	351.54
360.912	333.92
361.294	346.57
361.676	353.8
362.057	352.67
362.439	354.93
362.821	335.27
363.203	363.97
363.584	356.52
363.966	336.4
364.348	341.6
364.729	334.37
365.111	337.31
365.493	350.41
365.874	340.7
366.256	358.32
366.637	337.31
367.019	340.7
367.4	340.92
367.781	335.73
368.163	351.54
368.544	333.47
368.925	344.99
369.306	356.06
369.688	336.63
370.069	352
370.45	354.48
370.831	348.15
371.212	343.86
371.593	344.31
371.974	340.47
372.355	345.89
372.736	360.81
373.117	343.86
373.498	356.97
373.879	354.93
374.26	367.36
374.641	340.92
375.021	351.54
375.402	361.04
375.783	374.82
376.163	385.67
376.544	388.15
376.925	393.8
377.305	395.16
377.686	382.73
378.066	389.96
378.447	391.54
378.827	396.06
379.208	384.31
379.588	400.81
379.968	396.51
380.349	396.74
380.729	408.72
381.109	399.23
381.489	389.28
381.87	406.01
382.25	417.08
382.63	386.35
383.01	424.99
383.39	428.15
383.77	419.34
384.15	407.59
384.53	411.43
384.91	418.44
385.29	408.04
385.67	447.81
386.049	424.31
386.429	434.93
386.809	417.08
387.189	437.64
387.568	431.77
387.948	439.45
388.328	467.7
388.707	430.86
389.087	444.42
389.466	480.35
389.846	466.12
390.225	468.15
390.605	477.87
390.984	471.54
391.363	484.87
391.743	492.33
392.122	466.34
392.501	483.74
392.881	485.78
393.26	497.53
393.639	507.02
394.018	521.26
394.397	530.52
394.776	516.74
395.155	501.15
395.534	503.63
395.913	537.3
396.292	515.38
396.671	529.84
397.05	520.13
397.429	547.7
397.808	542.27
398.186	562.61
398.565	555.15
398.944	551.99
399.323	568.94
399.701	560.35
400.08	571.2
400.458	594.93
400.837	547.02
401.215	589.96
401.594	577.08
401.972	574.59
402.351	592.67
402.729	627.7
403.107	617.53
403.486	618.43
403.864	613.91
404.242	612.1
404.62	656.85
404.999	655.27
405.377	657.53
405.755	630.63
406.133	660.01
406.511	649.84
406.889	685.77
407.267	689.84
407.645	672.89
408.023	686.22
408.401	702.5
408.779	711.53
409.156	718.77
409.534	717.41
409.912	751.76
410.29	740.69
410.667	763.74
411.045	770.06
411.422	782.27
411.8	763.74
412.178	785.21
412.555	775.94
412.933	805.77
413.31	799.22
413.687	810.52
414.065	813.91
414.442	825.88
414.819	838.76
415.197	860.91
415.574	855.03
415.951	865.43
416.328	862.72
416.705	880.8
417.082	872.89
417.46	898.87
417.837	904.75
418.214	914.69
418.591	929.83
418.967	918.08
419.344	914.02
419.721	964.41
420.098	932.77
420.475	952.88
420.852	976.61
421.228	1008.25
421.605	983.84
421.982	975.93
422.358	993.79
422.735	1008.25
423.111	1029.72
423.488	1020
423.864	1001.24
424.241	1054.8
424.617	1059.32
424.994	1090.96
425.37	1079.89
425.746	1080.11
426.123	1103.16
426.499	1120.11
426.875	1114.69
427.251	1157.17
427.627	1162.6
428.003	1158.08
428.379	1177.51
428.756	1187.23
429.132	1228.36
429.507	1224.29
429.883	1246.66
430.259	1267.9
430.635	1266.77
431.011	1259.09
431.387	1278.07
431.763	1324.63
432.138	1340.22
432.514	1330.73
432.89	1343.16
433.265	1375.47
433.641	1389.94
434.016	1408.24
434.392	1424.96
434.767	1434
435.143	1463.61
435.518	1492.98
435.894	1509.03
436.269	1451.63
436.644	1544.28
437.02	1535.47
437.395	1540.44
437.77	1572.08
438.145	1567.56
438.52	1593.77
438.895	1618.86
439.271	1619.53
439.646	1680.1
440.021	1677.61
440.395	1664.73
440.77	1680.1
441.145	1708.8
441.52	1756.71
441.895	1758.51
442.27	1767.55
442.645	1739.76
443.019	1773.65
443.394	1805.74
443.769	1795.8
444.143	1813.2
444.518	1819.3
444.892	1810.72
445.267	1868.57
445.641	1896.59
446.016	1887.1
446.39	1905.4
446.764	1911.28
447.139	1909.7
447.513	1929.81
447.887	1966.42
448.262	1971.84
448.636	1976.36
449.01	2032.4
449.384	2046.87
449.758	2009.58
450.132	2064.72
450.506	2104.72
450.88	2100.42
451.254	2102.68
451.628	2146.98
452.002	2177.94
452.376	2167.32
452.75	2196.47
453.123	2183.36
453.497	2257.71
453.871	2251.61
454.244	2310.36
454.618	2288.89
454.992	2365.28
455.365	2383.58
455.739	2427.42
456.112	2402.11
456.486	2439.85
456.859	2474.88
457.232	2510.58
457.606	2536.8
457.979	2534.31
458.352	2581.77
458.725	2612.73
459.099	2622.22
459.472	2678.26
459.845	2708.32
460.218	2706.51
460.591	2775.89
460.964	2753.52
461.337	2844.59
461.71	2841.42
462.083	2881.65
462.456	2875.77
462.829	2932.72
463.201	2956.45
463.574	3005.94
463.947	3021.08
464.32	3063.56
464.692	3121.87
465.065	3139.27
465.438	3183.11
465.81	3214.52
466.183	3258.81
466.555	3341.07
466.928	3335.87
467.3	3360.96
467.672	3396.66
468.045	3465.36
468.417	3443.67
468.789	3501.74
469.161	3596.2
469.534	3613.15
469.906	3691.57
470.278	3709.87
470.65	3727.27
471.022	3833.03
471.394	3888.85
471.766	3890.89
472.138	3994.16
472.51	4029.19
472.882	4122.97
473.253	4129.75
473.625	4207.04
473.997	4264.66
474.369	4306.47
474.74	4361.61
475.112	4479.57
475.484	4541.72
475.855	4602.73
476.227	4613.81
476.598	4779.9
476.97	4870.07
477.341	4906.23
477.713	4974.25
478.084	4974.25
478.455	5117.75
478.827	5232.09
479.198	5410.85
479.569	5322.71
479.94	5454.69
480.311	5503.73
480.682	5627.56
481.053	5776.71
481.424	5851.51
481.795	5927.22
482.166	5995.92
482.537	6071.17
482.908	6183.71
483.279	6288.34
483.65	6342.12
484.021	6515.68
484.391	6593.64
484.762	6670.93
485.133	6713.19
485.503	6783.01
485.874	6952.5
486.244	7008.32
486.615	7201.99
486.985	7252.38
487.356	7341.64
487.726	7395.2
488.097	7611.24
488.467	7620.28
488.837	7804.23
489.207	7879.26
489.578	8001.74
489.948	8053.04
490.318	8085.13
490.688	8215.74
491.058	8308.62
491.428	8402.41
491.798	8606.92
492.168	8713.13
492.538	8700.48
492.908	8813.02
493.278	8915.84
493.648	8984.09
494.017	9065.44
494.387	9114.25
494.757	9223.63
495.126	9344.98
495.496	9405.09
495.866	9543.39
496.235	9586.1
496.605	9679.89
496.974	9755.59
497.344	9829.26
497.713	9865.87
498.082	9909.94
498.452	10077.62
498.821	10093.44
499.19	10139.99
499.559	10289.81
499.928	10339.3
500.298	10357.61
500.667	10504.72
501.036	10498.62
501.405	10582.91
501.774	10659.75
502.143	10744.27
502.512	10817.26
502.88	10918.05
503.249	10963.92
503.618	11062
503.987	11087.31
504.356	11197.13
504.724	11231.71
505.093	11291.14
505.462	11283.23
505.83	11427.19
506.199	11574.53
506.567	11683.45
506.936	11603.9
507.304	11785.37
507.672	11845.25
508.041	11955.31
508.409	12014.29
508.777	12061.29
509.145	12266.49
509.514	12283.66
509.882	12286.15
510.25	12399.82
510.618	12565.23
510.986	12597.32
511.354	12773.82
511.722	12774.04
512.09	12946.24
512.458	12949.63
512.826	13074.6
513.193	13150.3
513.561	13176.74
513.929	13286.57
514.297	13424.2
514.664	13576.28
515.032	13585.09
515.4	13724.98
515.767	13772.66
516.135	13902.15
516.502	13911.64
516.869	14115.25
517.237	14120
517.604	14169.94
517.972	14327.45
518.339	14449.7
518.706	14421.23
519.073	14505.97
519.44	14729.7
519.808	14882.69
520.175	14840.65
520.542	15062.57
520.909	15122.68
521.276	15195.67
521.643	15395.44
522.009	15455.78
522.376	15555.21
522.743	15672.72
523.11	15931.93
523.477	15998.36
523.843	16095.54
524.21	16268.64
524.577	16382.76
524.943	16429.77
525.31	16545.02
525.676	16708.4
526.043	16773.03
526.409	16952.46
526.776	17143.42
527.142	17179.12
527.508	17263.87
527.874	17494.6
528.241	17600.13
528.607	17625.89
528.973	17804.19
529.339	17867.24
529.705	17934.13
530.071	18180.23
530.437	18218.42
530.803	18434.01
531.169	18406.89
531.535	18532.08
531.901	18511.29
532.267	18730.72
532.632	18774.34
532.998	18768.01
533.364	18973.2
533.73	19107.44
534.095	19214.1
534.461	19260.2
534.826	19277.37
535.192	19435.56
535.557	19551.04
535.923	19514.88
536.288	19620.42
536.653	19815.89
537.019	19710.13
537.384	19950.13
537.749	19960.97
538.114	19962.33
538.479	20028.32
538.845	20211.81
539.21	20200.29
539.575	20238.93
539.94	20400.73
540.305	20564.12
540.67	20647.06
541.034	20614.97
541.399	20755.3
541.764	20816.09
542.129	20766.83
542.494	20800.72
542.858	20932.25
543.223	21081.39
543.587	21197.32
543.952	21108.29
544.316	21287.49
544.681	21250.43
545.045	21360.26
545.41	21534.04
545.774	21519.8
546.138	21598.9
546.503	21612
546.867	21654.49
547.231	21906.91
547.595	21964.08
547.959	21965.89
548.324	22023.74
548.688	22048.15
549.052	22190.97
549.416	22217.64
549.779	22281.82
550.143	22350.97
550.507	22501.7
550.871	22601.81
551.235	22684.52
551.599	22996.6
551.962	22917.5
552.326	22860.33
552.689	23002.47
553.053	23088.8
553.417	23200.89
553.78	23369.24
554.143	23371.5
554.507	23475.68
554.87	23656.24
555.234	23766.3
555.597	23717.26
555.96	23743.92
556.323	23907.31
556.686	24081.54
557.05	24126.29
557.413	24204.02
557.776	24329.67
558.139	24404.7
558.502	24503
558.865	24658.25
559.228	24809.66
559.59	24881.52
559.953	24966.26
560.316	25187.95
560.679	25210.1
561.041	25307.72
561.404	25563.31
561.767	25576.87
562.129	25570.09
562.492	25876.3
562.854	25931.89
563.217	25834.49
563.579	26032.9
563.941	26283.07
564.304	26352.22
564.666	26367.13
565.028	26559.67
565.39	26701.36
565.753	26930.28
566.115	26901.35
566.477	27069.26
566.839	27099.32
567.201	27290.95
567.563	27404.62
567.925	27533.88
568.287	27547.67
568.648	27606.87
569.01	27888.67
569.372	27963.25
569.734	27857.49
570.095	28123.7
570.457	28212.73
570.819	28204.6
571.18	28271.26
571.542	28414.31
571.903	28464.7
572.265	28597.36
572.626	28631.25
572.987	28758.93
573.349	28968.87
573.71	29025.59
574.071	29039.6
574.432	29141.3
574.794	29248.41
575.155	29395.75
575.516	29309.43
575.877	29362.98
576.238	29537.22
576.599	29488.18
576.96	29576.09
577.32	29606.14
577.681	29694.28
578.042	29779.47
578.403	29727.5
578.763	29879.81
579.124	29972.23
579.485	30097.2
579.845	30208.16
580.206	30101.04
580.566	30117.09
580.927	30150.99
581.287	30107.6
581.648	30108.73
582.008	30239.57
582.368	30169.74
582.728	30268.95
583.089	30246.8
583.449	30169.52
583.809	30326.12
584.169	30344.43
584.529	30326.12
584.889	30482.05
585.249	30373.58
585.609	30310.98
585.969	30447.93
586.329	30279.12
586.688	30561.6
587.048	30374.94
587.408	30345.33
587.768	30452.67
588.127	30310.98
588.487	30377.87
588.846	30657.87
589.206	30339.23
589.565	30258.33
589.925	30479.11
590.284	30381.26
590.643	30433.69
591.003	30475.95
591.362	30481.6
591.721	30487.48
592.08	30450.19
592.44	30651.54
592.799	30579.9
593.158	30548.94
593.517	30541.71
593.876	30691.31
594.235	30560.47
594.593	30668.26
594.952	30742.84
595.311	30738.32
595.67	30682.5
596.029	30908.71
596.387	30687.47
596.746	30891.31
597.104	30725.21
597.463	30716.62
597.822	30852.66
598.18	30758.43
598.538	30730.86
598.897	30966.78
599.255	30734.93
599.613	31142.15
599.972	30945.54
600.33	30935.15
600.688	30836.84
601.046	30942.15
601.404	31059.89
601.762	30998.2
602.12	31266.66
602.478	31203.16
602.836	31231.64
603.194	31080.91
603.552	31101.7
603.91	31087.46
604.268	31298.3
604.625	31071.64
604.983	31285.42
605.341	31213.33
605.698	31324.06
606.056	31407.68
606.413	31324.52
606.771	31402.25
607.128	31499.2
607.485	31210.39
607.843	31307.11
608.2	31486.54
608.557	31513.44
608.914	31498.07
609.272	31692.64
609.629	31751.4
609.986	31857.61
610.343	31670.95
610.7	32007.44
611.057	31922.69
611.414	31736.71
611.771	31878.4
612.127	31983.26
612.484	31970.83
612.841	32005.4
613.198	31853.99
613.554	31924.73
613.911	32047.21
614.267	32101.22
614.624	32028.45
614.98	32092.4
615.337	32278.16
615.693	32191.39
616.05	32385.05
616.406	32482
616.762	32304.38
617.118	32263.47
617.475	32341.44
617.831	32418.27
618.187	32371.95
618.543	32467.99
618.899	32695.1
619.255	32546.18
619.611	32464.37
619.967	32535.1
620.323	32744.37
620.678	32564.03
621.034	32530.59
621.39	32504.37
621.746	32481.55
622.101	32829.33
622.457	32533.98
622.812	32569.45
623.168	32652.84
623.523	32597.25
623.879	32840.41
624.234	32662.56
624.589	32604.26
624.945	32728.09
625.3	32806.74
625.655	32640.86
626.01	32665.27
626.365	32705.5
626.72	32651.49
627.075	32656.46
627.43	32629.11
627.785	32402.23
628.14	32656.91
628.495	32636.57
628.85	32649
629.205	32418.95
629.559	32618.94
629.914	32397.71
630.269	32580.98
630.623	32435.45
630.978	32378.05
631.332	32418.5
631.687	32397.93
632.041	32300.76
632.396	32331.49
632.75	32244.72
633.104	32327.2
633.459	32144.61
633.813	32028
634.167	32081.33
634.521	32166.98
634.875	31941.45
635.229	31996.36
635.583	31775.12
635.937	31871.17
636.291	31745.75
636.645	31967.89
636.999	31737.61
637.352	32029.36
637.706	31831.39
638.06	31848.34
638.413	31817.84
638.767	31650.83
639.121	31821.23
639.474	31437.73
639.828	31527.22
640.181	31502.59
640.534	31509.6
640.888	31346.21
641.241	31345.31
641.594	31361.58
641.947	31394.8
642.301	31318.64
642.654	31341.69
643.007	31326.1
643.36	31167.01
643.713	31166.33
644.066	31308.7
644.419	30957.97
644.771	30846.34
645.124	30633.01
645.477	30577.64
645.83	30408.16
646.182	30167.26
646.535	30087.94
646.888	30198.9
647.24	29954.83
647.593	30168.39
647.945	30122.97
648.298	29954.83
648.65	29919.81
649.002	29897.43
649.355	29923.42
649.707	29799.58
650.059	30022.63
650.411	30323.64
650.763	30435.73
651.115	30669.62
651.467	30621.03
651.819	30509.17
652.171	30557.98
652.523	30388.72
652.875	30478.66
653.227	30214.94
653.578	30487.02
653.93	30338.78
654.282	30204.09
654.633	30086.81
654.985	30341.72
655.337	30210.65
655.688	30217.88
656.039	30408.61
656.391	30110.31
656.742	30192.57
657.094	30139.46
657.445	30212.91
657.796	30032.57
658.147	30100.59
658.498	30049.07
658.849	30131.78
659.2	30062.4
659.551	29990.77
659.902	30039.8
660.253	30025.34
660.604	30001.16
660.955	29753.26
661.306	29985.79
661.656	29988.51
662.007	29903.76
662.358	29925.23
662.708	29900.82
663.059	29852.92
663.409	29803.88
663.76	29911.9
664.11	29878.9
664.461	29864.89
664.811	29870.09
665.161	29840.49
665.511	29807.49
665.862	29698.57
666.212	29637.33
666.562	29723.2
666.912	29721.85
667.262	29715.74
667.612	29668.51
667.962	29755.07
668.312	29599.59
668.662	29790.77
669.011	29672.13
669.361	29617.67
669.711	29739.25
670.06	29620.83
670.41	29633.03
670.76	29498.12
671.109	29671.68
671.459	29536.09
671.808	29514.85
672.157	29607.72
672.507	29330.44
672.856	29424.68
673.205	29382.19
673.554	29443.43
673.904	29361.63
674.253	29525.69
674.602	29405.47
674.951	29014.52
675.3	28803.23
675.649	29250.9
675.998	29220.84
676.346	29239.6
676.695	29317.34
677.044	29100.62
677.393	29142.2
677.741	29226.49
678.09	29067.17
678.438	28978.36
678.787	29062.43
679.135	29108.08
679.484	28886.39
679.832	29117.12
680.181	28864.69
680.529	28870.79
680.877	28771.59
681.225	28634.64
681.573	28984.69
681.922	28666.51
682.27	28488.21
682.618	28699.27
682.966	28454.53
683.314	28680.74
683.661	28438.72
684.009	28319.85
684.357	28273.07
684.705	28229.68
685.053	28149.91
685.4	28141.55
685.748	27873.08
686.095	28040.08
686.443	27858.62
686.79	27848.45
687.138	27772.97
687.485	27718.51
687.832	27635.57
688.18	27655.01
688.527	27499.08
688.874	27540.89
689.221	27408.91
689.568	27325.52
689.915	27306.32
690.262	27232.42
690.609	27250.72
690.956	27156.26
691.303	27097.28
691.65	26951.07
691.997	27059.54
692.344	26836.05
692.69	26894.58
693.037	26915.82
693.383	26576.84
693.73	26753.11
694.077	26510.86
694.423	26645.32
694.769	26323.74
695.116	26400.58
695.462	26349.96
695.808	26269.06
696.155	26215.95
696.501	26061.38
696.847	26116.06
697.193	25869.97
697.539	25996.97
697.885	25807.37
698.231	25773.02
698.577	25721.72
698.923	25678.79
699.269	25573.03
699.614	25395.86
699.96	25292.81
700.306	25347.95
700.651	25102.98
700.997	25104.11
701.342	25051.46
701.688	24980.95
702.033	24882.2
702.379	24878.36
702.724	24862.99
703.069	24959.48
703.415	24486.05
703.76	24581.19
704.105	24619.61
704.45	24474.98
704.795	24395.88
705.14	24276.11
705.485	24300.29
705.83	24314.53
706.175	24178.26
706.52	24046.06
706.865	24100.75
707.209	24065.27
707.554	23965.39
707.899	23994.76
708.243	23827.09
708.588	23823.7
708.932	23752.51
709.277	23700.08
709.621	23737.14
709.966	23498.51
710.31	23608.79
710.654	23415.34
710.998	23458.28
711.342	23393.42
711.687	23268
712.031	23263.26
712.375	23151.4
712.719	23121.12
713.063	23124.5
713.407	23167.22
713.75	22992.08
714.094	22891.74
714.438	22806.55
714.782	22939.43
715.125	22863.27
715.469	22860.56
715.812	22679.09
716.156	22654.01
716.499	22546.22
716.843	22694.91
717.186	22517.52
717.53	22579.66
717.873	22553.9
718.216	22472.09
718.559	22353.23
718.902	22227.35
719.246	22264.19
719.589	22222.38
719.932	21960.69
720.275	22091.99
720.617	22096.51
720.96	22022.84
721.303	22064.19
721.646	22023.29
721.989	21886.35
722.331	21923.18
722.674	21811.32
723.016	21845.89
723.359	21690.64
723.701	21817.19
724.044	21655.17
724.386	21507.15
724.729	21608.39
725.071	21427.15
725.413	21422.63
725.755	21455.85
726.097	21337.66
726.439	21304.89
726.782	21279.81
727.124	21381.73
727.465	21334.04
727.807	21224.67
728.149	21171.56
728.491	21119.59
728.833	21100.15
729.175	21053.82
729.516	20981.96
729.858	20977.44
730.199	21071.9
730.541	20842.98
730.882	20798.69
731.224	20850.44
731.565	20761.86
731.906	20785.81
732.248	20712.59
732.589	20673.5
732.93	20619.94
733.271	20588.53
733.612	20647.96
733.953	20597.11
734.294	20505.36
734.635	20357.57
734.976	20458.36
735.317	20427.4
735.658	20308.99
735.999	20399.6
736.339	20363.45
736.68	20422.2
737.021	20325.03
737.361	20247.74
737.702	20329.32
738.042	20279.83
738.383	20186.28
738.723	20353.28
739.063	20174.07
739.404	20199.38
739.744	20073.96
740.084	20013.63
740.424	20035.09
740.764	19919.17
741.104	19927.75
741.444	19881.65
741.784	19765.27
742.124	19803.91
742.464	19828.55
742.804	19718.04
743.143	19706.29
743.483	19657.25
743.823	19679.17
744.162	19511.49
744.502	19463.81
744.841	19419.52
745.181	19462.68
745.52	19450.25
745.86	19491.83
746.199	19396.02
746.538	19355.79
746.877	19382
747.216	19347.66
747.556	19289.8
747.895	19328.45
748.234	19254.32
748.573	19262.69
748.911	19171.61
749.25	19211.84
749.589	19098.17
749.928	19112.86
750.267	19108.79
750.605	18996.03
750.944	18969.36
751.283	18828.35
751.621	18924.62
751.96	18820.21
752.298	18828.57
752.636	18794
752.975	18696.37
753.313	18626.77
753.651	18734.11
753.989	18604.62
754.327	18518.75
754.666	18521.91
755.004	18533.67
755.342	18509.94
755.679	18375.7
756.017	18313.11
756.355	18458.19
756.693	18294.58
757.031	18295.93
757.368	18134.58
757.706	18173.45
758.044	18056.84
758.381	18146.56
758.719	18064.75
759.056	17920.8
759.394	17928.94
759.731	17919.67
760.068	17906.34
760.405	17677.19
760.743	17663.41
761.08	17766.45
761.417	17523.52
761.754	17500.47
762.091	17432.9
762.428	17357.2
762.765	17382.28
763.102	17430.64
763.438	17353.13
763.775	17154.94
764.112	17214.15
764.449	17253.25
764.785	17027.72
765.122	16966.25
765.458	16868.17
765.795	16849.87
766.131	16916.76
766.467	16780.94
766.804	16673.6
767.14	16612.36
767.476	16698.23
767.812	16515.19
768.148	16476.77
768.485	16432.25
768.821	16291.92
769.157	16251.47
769.492	16273.39
769.828	16246.72
770.164	16180.96
770.5	16009.89
770.836	16079.49
771.171	16043.34
771.507	15939.38
771.842	15770.35
772.178	15897.12
772.513	15748.43
772.849	15814.19
773.184	15675.21
773.519	15694.19
773.855	15642.44
774.19	15618.04
774.525	15545.95
774.86	15480.19
775.195	15410.36
775.53	15372.62
775.865	15338.95
776.2	15196.8
776.535	15157.26
776.87	15073.64
777.205	15081.55
777.539	14917.94
777.874	14923.36
778.209	14869.13
778.543	14843.59
778.878	14810.83
779.212	14731.73
779.547	14610.83
779.881	14690.83
780.215	14536.03
780.55	14579.87
780.884	14548.23
781.218	14395.47
781.552	14477.95
781.886	14368.35
782.22	14305.53
782.554	14224.85
782.888	14174.23
783.222	14098.75
783.556	13997.06
783.889	13953.67
784.223	13952.99
784.557	13891.08
784.89	13963.16
785.224	13786.9
785.557	13754.13
785.891	13805.43
786.224	13671.42
786.558	13692.66
786.891	13515.49
787.224	13513.46
787.557	13466.23
787.891	13456.06
788.224	13423.07
788.557	13465.78
788.89	13354.82
789.223	13293.58
789.556	13202.73
789.888	13257.42
790.221	13248.61
790.554	13059.68
790.887	13035.96
791.219	13079.8
791.552	13054.26
791.884	12963.42
792.217	12899.92
792.549	12781.73
792.882	12736.3
793.214	12680.26
793.546	12722.52
793.879	12625.57
794.211	12534.05
794.543	12569.3
794.875	12532.92
795.207	12607.72
795.539	12386.93
795.871	12480.04
796.203	12351.68
796.535	12325.24
796.867	12285.24
797.198	12193.27
797.53	12240.27
797.862	12200.95
798.193	12098.13
798.525	12101.52
798.856	12105.36
799.188	12009.32
799.519	11934.52
799.85	11892.03
800.182	11908.98
800.513	11861.75
800.844	11795.31
801.175	11753.28
801.506	11783.79
801.837	11829.21
802.168	11697.69
802.499	11683.22
802.83	11554.64
803.161	11493.85
803.491	11591.25
803.822	11526.62
804.153	11452.27
804.483	11382.44
804.814	11398.94
805.145	11414.53
805.475	11421.31
805.805	11271.48
806.136	11254.99
806.466	11266.74
806.796	11225.16
807.126	11171.6
807.457	11164.82
807.787	11207.3
808.117	11058.16
808.447	11040.75
808.777	11010.02
809.107	10977.71
809.436	10937.03
809.766	11017.25
810.096	10937.71
810.426	10901.78
810.755	10921.89
811.085	10887.31
811.414	10866.07
811.744	10697.04
812.073	10723.48
812.403	10697.26
812.732	10726.86
813.061	10701.1
813.39	10571.39
813.719	10590.82
814.049	10655.23
814.378	10589.24
814.707	10483.03
815.036	10499.75
815.365	10435.35
815.693	10349.7
816.022	10399.42
816.351	10353.99
816.68	10283.26
817.008	10330.49
817.337	10261.11
817.665	10265.86
817.994	10297.5
818.322	10275.58
818.651	10187.22
818.979	10140.89
819.307	10147.67
819.636	10190.16
819.964	10139.76
820.292	10125.52
820.62	10129.14
820.948	10078.75
821.276	10200.1
821.604	10066.77
821.932	10158.97
822.259	10129.82
822.587	10114.68
822.915	10081.91
823.243	10113.1
823.57	10043.94
823.898	10079.65
824.225	10048.24
824.553	10007.56
824.88	10064.51
825.207	10074.23
825.535	10086.43
825.862	10063.83
826.189	9997.17
826.516	10120.33
826.843	10079.88
827.17	10135.02
827.497	10056.15
827.824	10043.49
828.151	10094.57
828.478	10050.27
828.805	10138.41
829.131	10034.68
829.458	10024.74
829.785	9949.94
830.111	9995.81
830.438	10010.5
830.764	10002.14
831.09	10033.1
831.417	9991.29
831.743	10069.03
832.069	9963.27
832.395	9960.56
832.722	9990.39
833.048	9918.52
833.374	9892.76
833.7	9885.76
834.026	9900.9
834.351	9914.23
834.677	9911.97
835.003	9838.98
835.329	9873.78
835.654	9820.22
835.98	9818.87
836.306	9802.37
836.631	9824.52
836.956	9814.35
837.282	9850.5
837.607	9810.5
837.932	9754.46
838.258	9752.65
838.583	9749.04
838.908	9723.05
839.233	9703.39
839.558	9717.63
839.883	9655.71
840.208	9678.76
840.533	9649.38
840.858	9660
841.182	9665.2
841.507	9690.28
841.832	9557.18
842.156	9566.22
842.481	9538.42
842.805	9552.21
843.13	9447.12
843.454	9455.94
843.778	9434.47
844.103	9405.77
844.427	9415.03
844.751	9481.7
845.075	9359.44
845.399	9326.45
845.723	9353.34
846.047	9326
846.371	9290.97
846.695	9213.46
847.019	9137.75
847.343	9151.99
847.666	9116.96
847.99	9031.32
848.313	9020.24
848.637	8923.3
848.96	8990.64
849.284	8937.53
849.607	8889.17
849.931	8832.68
850.254	8822.06
850.577	8802.17
850.9	8643.98
851.223	8658.9
851.546	8668.84
851.869	8584.32
852.192	8613.7
852.515	8472.46
852.838	8456.64
853.161	8452.12
853.483	8446.47
853.806	8429.75
854.129	8446.02
854.451	8426.13
854.774	8332.13
855.096	8304.1
855.419	8328.06
855.741	8287.38
856.063	8278.12
856.385	8234.28
856.708	8243.09
857.03	8179.81
857.352	8239.92
857.674	8098.01
857.996	8133.71
858.318	8099.14
858.64	8104.56
858.961	8116.31
859.283	8072.47
859.605	7987.73
859.926	7961.97
860.248	8048.74
860.57	7911.8
860.891	8036.09
861.212	7933.04
861.534	7915.19
861.855	7912.02
862.176	7893.94
862.498	7951.34
862.819	7918.8
863.14	7862.99
863.461	7797.45
863.782	7821.63
864.103	7842.65
864.424	7768.98
864.745	7750.67
865.065	7726.72
865.386	7727.4
865.707	7715.19
866.027	7649.21
866.348	7671.13
866.668	7683.56
866.989	7649.66
867.309	7569.66
867.63	7595.2
867.95	7632.71
868.27	7554.97
868.59	7508.64
868.91	7555.65
869.23	7523.56
869.55	7491.24
869.87	7530.56
870.19	7528.08
870.51	7480.62
870.83	7557.23
871.15	7376.44
871.469	7428.87
871.789	7493.5
872.109	7471.58
872.428	7373.73
872.748	7441.3
873.067	7413.28
873.386	7332.38
873.706	7446.05
874.025	7350.23
874.344	7279.95
874.663	7385.26
874.982	7359.5
875.301	7303.45
875.62	7341.87
875.939	7295.77
876.258	7294.41
876.577	7219.39
876.896	7234.3
877.214	7209.67
877.533	7240.18
877.852	7204.7
878.17	7271.36
878.489	7254.64
878.807	7263
879.125	7199.95
879.444	7197.01
879.762	7177.35
880.08	7142.78
880.398	7105.49
880.716	7141.65
881.034	7113.17
881.352	7091.71
881.67	7130.8
881.988	7108.65
882.306	7166.28
882.624	7032.5
882.941	7017.58
883.259	7036.57
883.577	6936.23
883.894	6985.95
884.212	6998.38
884.529	6968.32
884.846	7006.96
885.164	7001.99
885.481	6894.2
885.798	6849
886.115	6851.26
886.432	6881.77
886.75	6809.45
887.067	6836.12
887.383	6784.6
887.7	6786.63
888.017	6763.81
888.334	6780.98
888.651	6786.63
888.967	6728.78
889.284	6705.28
889.6	6702.79
889.917	6626.41
890.233	6654.2
890.55	6597.26
890.866	6643.81
891.182	6589.8
891.498	6558.39
891.815	6522.91
892.131	6507.77
892.447	6501.44
892.763	6529.24
893.079	6530.14
893.395	6491.27
893.71	6509.8
894.026	6456.92
894.342	6476.13
894.657	6426.64
894.973	6348.22
895.289	6396.13
895.604	6378.5
895.92	6326.3
896.235	6291.95
896.55	6288.79
896.865	6315.91
897.181	6284.5
897.496	6220.54
897.811	6277.04
898.126	6200.66
898.441	6181.45
898.756	6172.63
899.071	6081.79
899.386	6159.3
899.7	6103.71
900.015	6090.83
900.33	6013.54
900.644	6036.37
900.959	6015.12
901.273	6000.89
901.588	5961.79
901.902	5931.74
902.216	5950.04
902.531	5934.9
902.845	5879.31
903.159	5852.19
903.473	5845.41
903.787	5799.08
904.101	5799.76
904.415	5824.39
904.729	5773.32
905.042	5770.38
905.356	5717.51
905.67	5743.04
905.984	5653.55
906.297	5651.74
906.611	5612.2
906.924	5594.8
907.237	5574.68
907.551	5596.6
907.864	5566.1
908.177	5535.14
908.491	5529.71
908.804	5509.15
909.117	5470.28
909.43	5434.12
909.743	5444.74
910.056	5416.95
910.368	5372.43
910.681	5344.63
910.994	5301.47
911.307	5298.98
911.619	5254.01
911.932	5302.37
912.244	5226.67
912.557	5244.98
912.869	5238.87
913.181	5197.74
913.494	5193.68
913.806	5117.97
914.118	5112.78
914.43	5125.88
914.742	5091.98
915.054	5065.77
915.366	5047.47
915.678	5001.37
915.99	5002.95
916.302	4941.03
916.613	4948.71
916.925	4960.69
917.236	4912.55
917.548	4875.95
917.859	4876.85
918.171	4860.58
918.482	4811.77
918.794	4825.55
919.105	4834.59
919.416	4788.94
919.727	4763.86
920.038	4808.83
920.349	4722.28
920.66	4725.89
920.971	4712.11
921.282	4690.87
921.593	4671.2
921.903	4607.25
922.214	4611.55
922.525	4588.5
922.835	4594.6
923.146	4578.1
923.456	4498.55
923.767	4503.98
924.077	4489.74
924.387	4479.8
924.697	4433.47
925.008	4419.69
925.318	4440.48
925.628	4416.3
925.938	4400.03
926.248	4360.25
926.558	4310.99
926.867	4335.17
927.177	4345.79
927.487	4294.04
927.796	4314.38
928.106	4245.91
928.416	4225.79
928.725	4249.75
929.034	4226.02
929.344	4192.8
929.653	4213.14
929.962	4192.8
930.271	4161.61
930.581	4110.77
930.89	4136.08
931.199	4111.22
931.508	4087.49
931.817	4066.25
932.125	4011.56
932.434	4035.97
932.743	3975.63
933.051	4003.2
933.36	3960.94
933.669	3901.96
933.977	3916.65
934.286	3946.7
934.594	3913.48
934.902	3894.5
935.21	3875.52
935.519	3857.89
935.827	3775.18
936.135	3819.93
936.443	3793.26
936.751	3765.47
937.059	3810.89
937.367	3758.69
937.674	3762.75
937.982	3713.04
938.29	3758.23
938.597	3722.98
938.905	3639.37
939.213	3678.91
939.52	3635.3
939.827	3699.48
940.135	3645.02
940.442	3585.81
940.749	3589.2
941.056	3583.32
941.363	3543.1
941.67	3555.98
941.977	3551.69
942.284	3513.5
942.591	3532.03
942.898	3447.51
943.205	3495.42
943.511	3462.2
943.818	3470.56
944.125	3421.97
944.431	3435.76
944.738	3418.36
945.044	3428.07
945.35	3380.17
945.657	3393.27
945.963	3369.09
946.269	3315.53
946.575	3312.37
946.881	3323.67
947.187	3316.21
947.493	3253.16
947.799	3289.55
948.105	3275.54
948.41	3235.31
948.716	3268.53
949.022	3209.55
949.327	3235.08
949.633	3188.76
949.938	3159.15
950.244	3171.13
950.549	3159.15
950.854	3093.39
951.16	3108.31
951.465	3120.06
951.77	3100.62
952.075	3058.82
952.38	3049.55
952.685	3070.79
952.99	3033.06
953.294	2988.31
953.599	2989.44
953.904	3006.16
954.209	2971.59
954.513	2979.95
954.818	2940.4
955.122	2887.75
955.426	2937.47
955.731	2881.65
956.035	2886.84
956.339	2884.13
956.643	2860.63
956.948	2857.92
957.252	2844.81
957.556	2866.05
957.86	2834.64
958.163	2836.68
958.467	2832.38
958.771	2797.36
959.075	2809.33
959.378	2781.31
959.682	2760.97
959.985	2749.45
960.289	2770.01
960.592	2738.6
960.896	2730.24
961.199	2746.51
961.502	2659.05
961.805	2718.71
962.108	2680.52
962.411	2703.12
962.714	2660.18
963.017	2680.52
963.32	2665.83
963.623	2635.78
963.926	2645.72
964.228	2596.01
964.531	2616.12
964.833	2593.29
965.136	2587.64
965.438	2562.79
965.741	2566.4
966.043	2554.42
966.345	2528.44
966.648	2532.96
966.95	2534.54
967.252	2481.43
967.554	2501.32
967.856	2469.91
968.158	2500.19
968.46	2456.57
968.761	2472.62
969.063	2433.52
969.365	2443.01
969.666	2417.93
969.968	2410.02
970.269	2400.3
970.571	2400.76
970.872	2414.54
971.174	2367.08
971.475	2378.61
971.776	2383.36
972.077	2343.81
972.378	2353.07
972.679	2319.63
972.98	2309.01
973.281	2298.16
973.582	2304.04
973.883	2332.51
974.183	2239.4
974.484	2280.53
974.785	2256.35
975.085	2274.66
975.386	2249.35
975.686	2231.49
975.986	2216.35
976.287	2221.33
976.587	2175.23
976.887	2207.09
977.187	2187.43
977.487	2180.2
977.787	2162.34
978.087	2159.86
978.387	2163.02
978.687	2157.82
978.987	2113.53
979.286	2116.02
979.586	2096.13
979.885	2100.42
980.185	2075.57
980.484	2113.76
980.784	2059.97
981.083	2038.28
981.382	2092.29
981.682	2052.29
981.981	2051.39
982.28	2052.74
982.579	2056.81
982.878	2035.12
983.177	2003.25
983.475	2005.51
983.774	1959.64
984.073	1975.46
984.372	1960.54
984.67	1988.11
984.969	2008
985.267	1936.59
985.566	1965.74
985.864	1968.23
986.162	1942.69
986.461	1907.21
986.759	1910.15
987.057	1866.98
987.355	1854.56
987.653	1874.89
987.951	1888.45
988.249	1886.42
988.547	1852.07
988.844	1866.76
989.142	1854.33
989.44	1827.21
989.737	1860.88
990.035	1851.84
990.332	1816.36
990.63	1794.44
990.927	1809.36
991.224	1794.67
991.521	1784.28
991.819	1783.37
992.116	1779.08
992.413	1770.26
992.71	1753.32
993.006	1747.89
993.303	1753.32
993.6	1725.29
993.897	1725.75
994.193	1704.73
994.49	1704.05
994.787	1688.23
995.083	1680.55
995.379	1698.85
995.676	1682.58
995.972	1680.78
996.268	1642.81
996.565	1651.62
996.861	1671.74
997.157	1652.3
997.453	1627.44
997.749	1632.41
998.044	1620.89
998.34	1606.88
998.636	1595.58
998.932	1592.64
999.227	1601.91
999.523	1586.31
999.818	1574.79
1000.114	1575.47
1000.409	1551.51
1000.704	1573.89
1001	1546.09
1001.295	1514.45
1001.59	1504.73
1001.885	1531.85
1002.18	1515.13
1002.475	1498.41
1002.77	1480.55
1003.065	1498.86
1003.359	1474.68
1003.654	1480.55
1003.949	1463.15
1004.243	1456.15
1004.538	1457.73
1004.832	1449.14
1005.127	1408.47
1005.421	1432.42
1005.715	1409.6
1006.009	1409.82
1006.304	1406.66
1006.598	1394.91
1006.892	1374.34
1007.186	1389.26
1007.48	1371.18
1007.773	1358.52
1008.067	1355.81
1008.361	1347.9
1008.655	1350.16
1008.948	1359.43
1009.242	1337.51
1009.535	1330.95
1009.829	1310.39
1010.122	1302.48
1010.415	1314.68
1010.708	1305.19
1011.001	1310.84
1011.295	1269.49
1011.588	1285.53
1011.881	1284.85
1012.173	1265.64
1012.466	1264.51
1012.759	1241.46
1013.052	1246.21
1013.344	1236.27
1013.637	1230.84
1013.93	1224.52
1014.222	1217.51
1014.514	1231.97
1014.807	1207.34
1015.099	1189.71
1015.391	1186.78
1015.683	1184.97
1015.976	1159.43
1016.268	1184.74
1016.56	1186.55
1016.851	1185.87
1017.143	1148.59
1017.435	1153.11
1017.727	1164.63
1018.018	1130.51
1018.31	1121.92
1018.602	1137.74
1018.893	1116.5
1019.185	1090.96
1019.476	1105.42
1019.767	1121.47
1020.058	1085.31
1020.35	1108.59
1020.641	1077.63
1020.932	1064.97
1021.223	1048.93
1021.514	1043.28
1021.804	1059.77
1022.095	1032.43
1022.386	1050.74
1022.677	1058.19
1022.967	1036.5
1023.258	1052.32
1023.548	1040.34
1023.839	1000.11
1024.129	1001.92
1024.419	995.6
1024.709	1004.18
1025	990.85
1025.29	998.31
1025.58	980.91
1025.87	983.62
1026.16	953.56
1026.449	964.18
1026.739	940.91
1027.029	953.11
1027.319	925.09
1027.608	928.7
1027.898	933.22
1028.187	920.79
1028.477	907.69
1028.766	934.81
1029.055	909.5
1029.344	924.64
1029.634	900.46
1029.923	904.98
1030.212	907.24
1030.501	872.89
1030.79	873.56
1031.078	864.98
1031.367	875.15
1031.656	857.75
1031.945	873.79
1032.233	841.02
1032.522	864.98
1032.81	841.02
1033.099	839.44
1033.387	838.31
1033.675	843.06
1033.963	830.63
1034.251	828.82
1034.54	815.49
1034.828	812.78
1035.116	791.53
1035.403	808.93
1035.691	804.19
1035.979	812.55
1036.267	774.13
1036.554	790.18
1036.842	772.32
1037.129	795.6
1037.417	750.86
1037.704	784.08
1037.992	749.73
1038.279	791.53
1038.566	743.17
1038.853	743.17
1039.14	743.17
