Data from foam1_polythene_foam_FLMS001491_00097.txt Node
Date: Wed Feb 08 10:55:40 GMT 2017
User: dcchb
Spectrometer: FLMS00149
Trigger mode: 0
Integration Time (sec): 2.000000E-2
Scans to average: 10
Electric dark correction enabled: true
Nonlinearity correction enabled: false
Boxcar width: 0
XAxis mode: Wavelengths
Number of Pixels in Spectrum: 2048
>>>>>Begin Spectral Data<<<<<
341.393	-7.56
341.776	-7.56
342.16	-7.56
342.543	-66.54
342.927	-65.63
343.31	-60.66
343.693	-88.46
344.077	-66.76
344.46	-39.42
344.843	-55.24
345.226	-40.1
345.61	-32.64
345.993	-18.63
346.376	-17.27
346.759	1.48
347.142	41.26
347.525	36.28
347.908	62.05
348.291	63.85
348.674	106.34
349.057	107.92
349.44	137.75
349.823	115.15
350.206	149.73
350.588	172.55
350.971	169.16
351.354	218.88
351.737	217.97
352.119	240.57
352.502	256.84
352.884	269.72
353.267	271.31
353.65	265.2
354.032	285.54
354.414	278.76
354.797	308.82
355.179	306.56
355.562	291.64
355.944	310.63
356.326	312.21
356.709	314.47
357.091	323.96
357.473	321.93
357.855	325.54
358.238	323.73
358.62	332.77
359.002	333
359.384	318.31
359.766	336.16
360.148	333.23
360.53	320.8
360.912	326.22
361.294	316.95
361.676	294.13
362.057	311.53
362.439	313.11
362.821	334.13
363.203	304.3
363.584	300.23
363.966	294.36
364.348	315.37
364.729	309.72
365.111	315.15
365.493	301.59
365.874	289.39
366.256	304.3
366.637	275.37
367.019	318.08
367.4	311.98
367.781	310.85
368.163	274.92
368.544	315.15
368.925	283.96
369.306	308.14
369.688	300.46
370.069	296.84
370.45	304.3
370.831	303.85
371.212	321.47
371.593	309.5
371.974	308.82
372.355	305.43
372.736	312.89
373.117	305.88
373.498	332.1
373.879	307.92
374.26	302.72
374.641	326.67
375.021	293.68
375.402	324.19
375.783	300.01
376.163	321.47
376.544	322.38
376.925	323.51
377.305	316.05
377.686	280.8
378.066	312.44
378.447	311.98
378.827	316.05
379.208	344.07
379.588	319.21
379.968	335.94
380.349	314.47
380.729	307.92
381.109	334.58
381.489	330.06
381.87	324.86
382.25	345.65
382.63	313.11
383.01	321.7
383.39	319.67
383.77	343.17
384.15	320.34
384.53	329.61
384.91	348.82
385.29	340.68
385.67	339.78
386.049	348.37
386.429	337.75
386.809	334.36
387.189	367.35
387.568	351.98
387.948	347.91
388.328	344.75
388.707	353.56
389.087	340.68
389.466	368.25
389.846	346.78
390.225	370.74
390.605	366.67
390.984	369.83
391.363	358.31
391.743	359.44
392.122	357.63
392.501	353.34
392.881	354.24
393.26	352.66
393.639	351.08
394.018	381.59
394.397	375.03
394.776	383.39
395.155	378.2
395.534	352.43
395.913	366.22
396.292	383.17
396.671	392.66
397.05	386.11
397.429	400.79
397.808	390.4
398.186	367.35
398.565	365.32
398.944	372.55
399.323	403.51
399.701	393.79
400.08	384.98
400.458	402.15
400.837	389.95
401.215	403.73
401.594	392.66
401.972	409.83
402.351	375.26
402.729	396.05
403.107	368.93
403.486	392.43
403.864	394.47
404.242	399.44
404.62	433.34
404.999	415.71
405.377	409.38
405.755	410.74
406.133	403.96
406.511	408.7
406.889	444.41
407.267	412.32
407.645	437.4
408.023	449.15
408.401	439.89
408.779	435.6
409.156	427.69
409.534	448.02
409.912	445.54
410.29	449.15
410.667	435.14
411.045	477.4
411.422	443.05
411.8	467.69
412.178	480.11
412.555	483.28
412.933	469.27
413.31	477.63
413.687	475.82
414.065	474.01
414.442	470.85
414.819	509.49
415.197	491.41
415.574	493.67
415.951	477.85
416.328	469.72
416.705	494.8
417.082	499.77
417.46	496.39
417.837	505.2
418.214	525.09
418.591	498.65
418.967	516.72
419.344	523.05
419.721	521.7
420.098	518.76
420.475	530.51
420.852	540
421.228	555.14
421.605	549.72
421.982	536.16
422.358	563.28
422.735	547.23
423.111	550.62
423.488	556.95
423.864	569.15
424.241	550.85
424.617	567.57
424.994	573.67
425.37	565.54
425.746	574.35
426.123	593.78
426.499	568.93
426.875	591.07
427.251	589.94
427.627	607.57
428.003	611.86
428.379	595.37
428.756	613.9
429.132	625.2
429.507	616.61
429.883	653.22
430.259	626.55
430.635	630.84
431.011	630.62
431.387	651.64
431.763	652.54
432.138	634.69
432.514	689.83
432.89	649.6
433.265	683.27
433.641	684.85
434.016	678.75
434.392	686.66
434.767	713.78
435.143	715.36
435.518	716.94
435.894	733.22
436.269	744.74
436.644	748.36
437.02	744.74
437.395	742.25
437.77	766.89
438.145	765.98
438.52	794.46
438.895	757.17
439.271	771.86
439.646	793.78
440.021	797.17
440.395	798.52
440.77	811.86
441.145	805.08
441.52	821.8
441.895	827.45
442.27	827.22
442.645	805.98
443.019	848.24
443.394	849.6
443.769	876.71
444.143	852.31
444.518	873.1
444.892	872.42
445.267	897.28
445.641	905.87
446.016	897.5
446.39	875.81
446.764	909.03
447.139	911.29
447.513	921.91
447.887	927.56
448.262	923.94
448.636	937.28
449.01	932.76
449.384	942.93
449.758	969.14
450.132	989.03
450.506	969.37
450.88	997.39
451.254	1007.33
451.628	1021.12
452.002	1004.85
452.376	1014.11
452.75	1024.96
453.123	1031.06
453.497	1060.44
453.871	1057.73
454.244	1060.44
454.618	1064.96
454.992	1066.54
455.365	1078.06
455.739	1084.62
456.112	1117.61
456.486	1090.95
456.859	1108.12
457.232	1114.67
457.606	1096.37
457.979	1158.06
458.352	1146.31
458.725	1127.78
459.099	1163.03
459.472	1177.5
459.845	1167.55
460.218	1171.62
460.591	1193.99
460.964	1211.85
461.337	1208.91
461.71	1224.05
462.083	1236.7
462.456	1262.69
462.829	1240.09
463.201	1279.19
463.574	1251.85
463.947	1262.92
464.32	1302.47
464.692	1315.35
465.065	1314.22
465.438	1300.88
465.81	1334.56
466.183	1369.58
466.555	1372.07
466.928	1399.86
467.3	1370.26
467.672	1404.16
468.045	1443.93
468.417	1431.73
468.789	1454.55
469.161	1439.86
469.534	1473.99
469.906	1500.65
470.278	1504.04
470.65	1498.17
471.022	1547.66
471.394	1575.9
471.766	1568.22
472.138	1576.13
472.51	1620.42
472.882	1618.16
473.253	1649.35
473.625	1670.14
473.997	1689.57
474.369	1693.64
474.74	1704.49
475.112	1738.39
475.484	1783.58
475.855	1789.23
476.227	1818.38
476.598	1843.47
476.97	1845.95
477.341	1887.76
477.713	1922.34
478.084	1933.41
478.455	1985.84
478.827	1984.26
479.198	2081.2
479.569	2035.55
479.94	2077.59
480.311	2077.13
480.682	2149.68
481.053	2197.58
481.424	2210.46
481.795	2222.22
482.166	2220.41
482.537	2287.3
482.908	2348.31
483.279	2355.55
483.65	2388.99
484.021	2424.02
484.391	2453.17
484.762	2473.73
485.133	2455.2
485.503	2500.85
485.874	2567.29
486.244	2601.64
486.615	2631.24
486.985	2690.45
487.356	2709.43
487.726	2699.94
488.097	2783.78
488.467	2751.92
488.837	2852.93
489.207	2904.01
489.578	2891.58
489.948	2934.74
490.318	2956.43
490.688	2987.85
491.058	2991.91
491.428	3075.98
491.798	3075.53
492.168	3166.6
492.538	3133.83
492.908	3221.74
493.278	3251.34
493.648	3230.32
494.017	3326.82
494.387	3343.09
494.757	3316.2
495.126	3385.8
495.496	3409.75
495.866	3395.07
496.235	3442.3
496.605	3501.73
496.974	3501.96
497.344	3563.65
497.713	3565.46
498.082	3582.18
498.452	3632.35
498.821	3640.03
499.19	3658.34
499.559	3710.76
499.928	3692.01
500.298	3774.04
500.667	3784.21
501.036	3811.1
501.405	3854.49
501.774	3828.28
502.143	3878.44
502.512	3930.19
502.88	3927.48
503.249	3978.78
503.618	3979.23
503.987	4001.38
504.356	4008.84
504.724	4043.86
505.093	4043.41
505.462	4098.1
505.83	4136.74
506.199	4130.64
506.567	4177.87
506.936	4215.84
507.304	4264.87
507.672	4268.49
508.041	4317.98
508.409	4355.04
508.777	4386
509.145	4409.05
509.514	4407.47
509.882	4420.8
510.25	4452.21
510.618	4509.84
510.986	4549.16
511.354	4557.52
511.722	4580.8
512.09	4615.6
512.458	4630.06
512.826	4732.88
513.193	4741.47
513.561	4723.62
513.929	4751.64
514.297	4858.53
514.664	4854.69
515.032	4891.52
515.4	4906.44
515.767	4981.24
516.135	4982.37
516.502	5026.89
516.869	5085.87
517.237	5051.75
517.604	5068.24
517.972	5100.78
518.339	5155.25
518.706	5152.08
519.073	5232.31
519.44	5232.76
519.808	5251.29
520.175	5285.19
520.542	5390.27
520.909	5463.49
521.276	5402.92
521.643	5499.42
522.009	5496.93
522.376	5519.76
522.743	5651.73
523.11	5618.96
523.477	5681.11
523.843	5688.34
524.21	5810.82
524.577	5818.73
524.943	5873.87
525.31	5944.38
525.676	5941.21
526.043	6033.19
526.409	6006.97
526.776	6045.17
527.142	6077.48
527.508	6160.87
527.874	6211.94
528.241	6228.44
528.607	6268.44
528.973	6258.49
529.339	6267.08
529.705	6367.87
530.071	6445.83
530.437	6391.37
530.803	6498.71
531.169	6521.31
531.535	6513.63
531.901	6546.17
532.267	6599.28
532.632	6664.81
532.998	6654.42
533.364	6725.37
533.73	6762.21
534.095	6778.25
534.461	6813.51
534.826	6836.33
535.192	6916.33
535.557	6885.37
535.923	6900.06
536.288	6907.29
536.653	7048.3
537.019	7000.4
537.384	7052.15
537.749	7051.02
538.114	7044.01
538.479	7148.64
538.845	7157.45
539.21	7182.09
539.575	7239.71
539.94	7210.11
540.305	7264.12
540.67	7254.17
541.034	7260.05
541.399	7284.68
541.764	7369.88
542.129	7355.64
542.494	7412.14
542.858	7399.03
543.223	7419.14
543.587	7485.81
543.952	7475.41
544.316	7498.01
544.681	7575.52
545.045	7578.01
545.41	7646.93
545.774	7644.45
546.138	7715.18
546.503	7639.25
546.867	7661.39
547.231	7747.27
547.595	7792.01
547.959	7829.98
548.324	7853.48
548.688	7857.32
549.052	7896.87
549.416	7895.06
549.779	7902.97
550.143	7910.88
550.507	7947.26
550.871	8014.38
551.235	8085.79
551.599	8032.23
551.962	8153.36
552.326	8093.93
552.689	8111.1
553.053	8102.29
553.417	8169.86
553.78	8233.13
554.143	8281.94
554.507	8355.39
554.87	8362.85
555.234	8450.75
555.597	8390.19
555.96	8396.52
556.323	8434.03
556.686	8460.92
557.05	8562.84
557.413	8615.27
557.776	8631.99
558.139	8657.75
558.502	8692.78
558.865	8650.3
559.228	8721.93
559.59	8764.87
559.953	8838.76
560.316	8945.2
560.679	8926.45
561.041	9009.38
561.404	9054.13
561.767	9082.6
562.129	9005.99
562.492	9090.06
562.854	9130.96
563.217	9170.06
563.579	9244.4
563.941	9292.54
564.304	9303.16
564.666	9325.53
565.028	9376.83
565.39	9355.14
565.753	9360.78
566.115	9467.22
566.477	9510.39
566.839	9517.17
567.201	9679.65
567.563	9706.54
567.925	9646.2
568.287	9642.13
568.648	9695.69
569.01	9727.33
569.372	9795.8
569.734	9866.99
570.095	9983.59
570.457	9987.21
570.819	9947.21
571.18	9939.53
571.542	10060.88
571.903	10002.12
572.265	10042.8
572.626	10068.11
572.987	10119.18
573.349	10153.76
573.71	10234.66
574.071	10240.99
574.432	10209.12
574.794	10253.64
575.155	10309.69
575.516	10290.25
575.877	10308.56
576.238	10400.98
576.599	10443.92
576.96	10454.99
577.32	10417.71
577.681	10437.59
578.042	10476.46
578.403	10429.68
578.763	10431.49
579.124	10469
579.485	10447.08
579.845	10502
580.206	10568.44
580.566	10573.18
580.927	10582.22
581.287	10656.12
581.648	10559.85
582.008	10647.53
582.368	10559.85
582.728	10616.57
583.089	10547.87
583.449	10585.61
583.809	10718.94
584.169	10750.35
584.529	10672.61
584.889	10749.9
585.249	10650.47
585.609	10569.57
585.969	10663.8
586.329	10688.21
586.688	10679.17
587.048	10651.6
587.408	10697.25
587.768	10707.87
588.127	10733.63
588.487	10625.61
588.846	10697.25
589.206	10570.47
589.565	10621.32
589.925	10721.65
590.284	10705.16
590.643	10766.85
591.003	10775.89
591.362	10766.62
591.721	10708.09
592.08	10704.7
592.44	10778.15
592.799	10774.99
593.158	10723.23
593.517	10748.55
593.876	10761.43
594.235	10750.58
594.593	10815.66
594.952	10756.23
595.311	10741.31
595.67	10733.86
596.029	10867.19
596.387	10802.55
596.746	10800.75
597.104	10795.55
597.463	10812.95
597.822	10875.1
598.18	10817.24
598.538	10869.22
598.897	10908.09
599.255	10722.78
599.613	10858.82
599.972	10834.19
600.33	10854.53
600.688	10800.97
601.046	10873.74
601.404	10858.15
601.762	10897.69
602.12	10970.23
602.478	10906.06
602.836	10954.87
603.194	10898.37
603.552	10877.36
603.91	10877.58
604.268	10896.11
604.625	10906.73
604.983	10928.65
605.341	10969.56
605.698	11003.68
606.056	11003
606.413	11014.07
606.771	10962.32
607.128	11001.65
607.485	10925.26
607.843	10929.56
608.2	10968.88
608.557	11086.62
608.914	11106.73
609.272	11074.86
609.629	11158.93
609.986	11147.86
610.343	11075.77
610.7	11154.64
611.057	11102.89
611.414	11115.32
611.771	11105.6
612.127	11163
612.484	11142.21
612.841	11216.78
613.198	11203
613.554	11196.67
613.911	11289.32
614.267	11263.56
614.624	11218.36
614.98	11248.42
615.337	11296.1
615.693	11299.27
616.05	11267.63
616.406	11319.38
616.762	11299.49
617.118	11221.98
617.475	11300.39
617.831	11293.62
618.187	11258.81
618.543	11262.2
618.899	11311.92
619.255	11349.43
619.611	11348.53
619.967	11365.48
620.323	11364.8
620.678	11310.79
621.034	11337.68
621.39	11329.09
621.746	11365.7
622.101	11439.6
622.457	11344.69
622.812	11326.38
623.168	11446.83
623.523	11373.16
623.879	11373.84
624.234	11333.61
624.589	11344.46
624.945	11369.09
625.3	11393.05
625.655	11320.28
626.01	11403.22
626.365	11355.31
626.72	11377.91
627.075	11394.63
627.43	11348.3
627.785	11270.34
628.14	11369.55
628.495	11347.17
628.85	11358.02
629.205	11324.35
629.559	11423.1
629.914	11318.7
630.269	11260.85
630.623	11230.79
630.978	11178.36
631.332	11299.49
631.687	11242.09
632.041	11244.58
632.396	11172.26
632.75	11169.1
633.104	11206.61
633.459	11109.44
633.813	11140.63
634.167	11045.26
634.521	11107.63
634.875	11092.49
635.229	11127.07
635.583	11100.63
635.937	11091.81
636.291	11040.29
636.645	11064.47
636.999	11102.43
637.352	11123.68
637.706	10970.01
638.06	11073.73
638.413	11002.78
638.767	10991.48
639.121	10971.14
639.474	10908.54
639.828	10934.08
640.181	10918.26
640.534	10940.86
640.888	10893.63
641.241	10779.73
641.594	10895.43
641.947	10911.7
642.301	10785.15
642.654	10820.63
643.007	10886.39
643.36	10835.55
643.713	10763.69
644.066	10778.83
644.419	10809.56
644.771	10761.88
645.124	10656.57
645.477	10559.17
645.83	10530.92
646.182	10521.88
646.535	10406.63
646.888	10348.56
647.24	10436.46
647.593	10380.19
647.945	10358.5
648.298	10350.59
648.65	10340.19
649.002	10325.28
649.355	10311.72
649.707	10317.82
650.059	10335.45
650.411	10439.63
650.763	10477.82
651.115	10629.9
651.467	10525.27
651.819	10488.21
652.171	10475.78
652.523	10395.56
652.875	10415.67
653.227	10391.04
653.578	10462
653.93	10414.99
654.282	10360.08
654.633	10385.84
654.985	10383.36
655.337	10384.49
655.688	10376.13
656.039	10403.24
656.391	10323.47
656.742	10313.53
657.094	10348.1
657.445	10384.03
657.796	10349.23
658.147	10314.21
658.498	10330.48
658.849	10343.36
659.2	10309.46
659.551	10306.97
659.902	10311.49
660.253	10314.66
660.604	10245.28
660.955	10255.68
661.306	10237.37
661.656	10193.31
662.007	10272.85
662.358	10257.48
662.708	10305.62
663.059	10219.29
663.409	10161.22
663.76	10270.37
664.11	10236.02
664.461	10256.58
664.811	10181.33
665.161	10202.57
665.511	10199.86
665.862	10120.31
666.212	10210.93
666.562	10233.76
666.912	10209.12
667.262	10176.36
667.612	10141.78
667.962	10215.45
668.312	10103.82
668.662	10177.94
669.011	10122.12
669.361	10085.96
669.711	10116.25
670.06	10054.55
670.41	10029.69
670.76	9999.41
671.109	10133.42
671.459	10024.95
671.808	10102.23
672.157	10122.57
672.507	10069.69
672.856	10020.88
673.205	10022.91
673.554	10071.95
673.904	10029.24
674.253	10057.04
674.602	9955.12
674.951	9868.34
675.3	9805.97
675.649	9963.48
675.998	9948.34
676.346	9984.72
676.695	9981.33
677.044	9963.25
677.393	9954.22
677.741	9917.61
678.09	9946.53
678.438	9946.08
678.787	9936.59
679.135	9885.06
679.484	9789.7
679.832	9928.23
680.181	9764.62
680.529	9787.21
680.877	9847.1
681.225	9842.81
681.573	9837.61
681.922	9786.99
682.27	9808.68
682.618	9773.2
682.966	9727.78
683.314	9742.7
683.661	9709.93
684.009	9607.56
684.357	9626.09
684.705	9621.34
685.053	9699.76
685.4	9621.8
685.748	9577.5
686.095	9648.01
686.443	9577.05
686.79	9597.84
687.138	9541.35
687.485	9554.23
687.832	9501.35
688.18	9483.72
688.527	9427.68
688.874	9389.48
689.221	9401.46
689.568	9440.56
689.915	9384.29
690.262	9349.49
690.609	9348.36
690.956	9355.59
691.303	9271.97
691.65	9238.98
691.997	9280.56
692.344	9244.86
692.69	9203.73
693.037	9197.63
693.383	9096.61
693.73	9159.21
694.077	9116.95
694.423	9056.39
694.769	9035.14
695.116	9011.42
695.462	9039.89
695.808	9052.09
696.155	9035.6
696.501	8973.45
696.847	8995.82
697.193	8923.28
697.539	8930.06
697.885	8874.7
698.231	8837.18
698.577	8747.02
698.923	8740.69
699.269	8732.33
699.614	8698.88
699.96	8701.14
700.306	8657.3
700.651	8690.07
700.997	8607.13
701.342	8662.95
701.688	8702.72
702.033	8560.13
702.379	8643.52
702.724	8568.94
703.069	8584.76
703.415	8413.92
703.76	8394.93
704.105	8534.37
704.45	8423.86
704.795	8403.52
705.14	8335.95
705.485	8347.7
705.83	8356.52
706.175	8320.59
706.52	8343.41
706.865	8276.75
707.209	8314.94
707.554	8272
707.899	8302.06
708.243	8181.61
708.588	8216.18
708.932	8129.18
709.277	8180.03
709.621	8168.73
709.966	8062.97
710.31	8090.99
710.654	8087.15
710.998	8023.64
711.342	8041.27
711.687	8064.55
712.031	7975.74
712.375	7992.46
712.719	8028.62
713.063	7984.55
713.407	7974.83
713.75	7940.48
714.094	7858.45
714.438	7866.59
714.782	7815.97
715.125	7829.3
715.469	7848.73
715.812	7843.31
716.156	7876.53
716.499	7813.26
716.843	7851.67
717.186	7768.74
717.53	7825.91
717.873	7821.16
718.216	7839.92
718.559	7714.5
718.902	7681.96
719.246	7611.45
719.589	7666.59
719.932	7577.55
720.275	7635.18
720.617	7586.82
720.96	7615.97
721.303	7632.69
721.646	7663.43
721.989	7528.97
722.331	7519.48
722.674	7599.02
723.016	7595.41
723.359	7476.09
723.701	7530.78
724.044	7582.3
724.386	7458.91
724.729	7473.38
725.071	7452.81
725.413	7447.16
725.755	7442.64
726.097	7451.68
726.439	7331.23
726.782	7353.61
727.124	7375.98
727.465	7394.51
727.807	7321.97
728.149	7326.49
728.491	7286.04
728.833	7269.54
729.175	7357.22
729.516	7268.64
729.858	7307.05
730.199	7275.42
730.541	7234.97
730.882	7268.41
731.224	7271.57
731.565	7224.57
731.906	7198.81
732.248	7194.74
732.589	7165.59
732.93	7125.14
733.271	7142.31
733.612	7204.46
733.953	7203.55
734.294	7135.08
734.635	7103.22
734.976	7107.51
735.317	7156.78
735.658	7113.16
735.999	7095.76
736.339	7108.87
736.68	7129.66
737.021	7072.94
737.361	7033.84
737.702	7027.06
738.042	7057.12
738.383	6992.49
738.723	6994.29
739.063	6983.67
739.404	7024.35
739.744	7014.41
740.084	6921.98
740.424	6948.42
740.764	6944.35
741.104	6952.94
741.444	6953.16
741.784	6919.95
742.124	6890.57
742.464	6868.2
742.804	6877.01
743.143	6818.7
743.483	6888.31
743.823	6795.2
744.162	6825.71
744.502	6830.23
744.841	6790.23
745.181	6798.82
745.52	6762.66
745.86	6756.11
746.199	6780.06
746.538	6827.07
746.877	6765.15
747.216	6828.42
747.556	6734.41
747.895	6711.59
748.234	6689.89
748.573	6720.85
748.911	6697.8
749.25	6647.41
749.589	6620.29
749.928	6569.67
750.267	6649.22
750.605	6590.46
750.944	6640.4
751.283	6561.99
751.621	6555.89
751.96	6562.67
752.298	6615.32
752.636	6633.17
752.975	6545.94
753.313	6539.16
753.651	6517.92
753.989	6508.88
754.327	6442.22
754.666	6436.79
755.004	6487.87
755.342	6415.33
755.679	6439.28
756.017	6395.67
756.355	6394.08
756.693	6395.21
757.031	6405.38
757.368	6329
757.706	6377.59
758.044	6307.98
758.381	6343.01
758.719	6299.4
759.056	6321.77
759.394	6251.04
759.731	6174.65
760.068	6225.73
760.405	6185.95
760.743	6208.33
761.08	6222.11
761.417	6183.24
761.754	6103.47
762.091	6138.72
762.428	6060.98
762.765	6016.69
763.102	6058.27
763.438	6035.45
763.775	6051.27
764.112	6059.18
764.449	6085.39
764.785	6025.96
765.122	5982.57
765.458	6003.13
765.795	5911.16
766.131	5974.89
766.467	5868.9
766.804	5883.81
767.14	5838.39
767.476	5869.8
767.812	5773.31
768.148	5788.9
768.485	5790.94
768.821	5767.89
769.157	5777.38
769.492	5727.89
769.828	5743.25
770.164	5686.08
770.5	5746.19
770.836	5717.94
771.171	5643.82
771.507	5697.38
771.842	5602.24
772.178	5593.88
772.513	5583.71
772.849	5529.7
773.184	5478.63
773.519	5514.33
773.855	5530.15
774.19	5499.64
774.525	5482.69
774.86	5457.84
775.195	5429.59
775.53	5420.55
775.865	5423.26
776.2	5347.11
776.535	5359.53
776.87	5336.03
777.205	5361.79
777.539	5340.78
777.874	5282.7
778.209	5259.42
778.543	5218.52
778.878	5230.05
779.212	5178.52
779.547	5167.9
779.881	5132.65
780.215	5188.24
780.55	5102.14
780.884	5099.2
781.218	5127.45
781.552	5102.82
781.886	5071.41
782.22	5095.36
782.554	5111.18
782.888	5026.89
783.222	4999.32
783.556	5007.91
783.889	4994.57
784.223	4932.2
784.557	4887.68
784.89	4928.81
785.224	4948.02
785.557	4912.09
785.891	4875.93
786.224	4794.58
786.558	4800.23
786.891	4792.54
787.224	4783.73
787.557	4749.38
787.891	4788.25
788.224	4795.71
788.557	4753
788.89	4786.89
789.223	4734.92
789.556	4746.89
789.888	4730.4
790.221	4691.08
790.554	4657.18
790.887	4701.92
791.219	4635.94
791.552	4610.18
791.884	4608.59
792.217	4600.68
792.549	4564.75
792.882	4495.15
793.214	4465.77
793.546	4506.68
793.879	4475.04
794.211	4441.14
794.543	4487.01
794.875	4482.72
795.207	4491.31
795.539	4479.56
795.871	4470.29
796.203	4436.39
796.535	4395.49
796.867	4406.34
797.198	4408.82
797.53	4350.07
797.862	4392.33
798.193	4392.1
798.525	4298.55
798.856	4289.51
799.188	4280.24
799.519	4294.48
799.85	4216.06
800.182	4247.93
800.513	4238.21
800.844	4191.2
801.175	4193.46
801.506	4186.68
801.837	4196.17
802.168	4201.82
802.499	4186.91
802.83	4182.62
803.161	4172.67
803.491	4165.44
803.822	4162.5
804.153	4144.2
804.483	4114.14
804.814	4121.6
805.145	4100.13
805.475	4081.15
805.805	4031.43
806.136	4033.47
806.466	4023.98
806.796	4008.84
807.126	4009.06
807.457	3981.94
807.787	4008.16
808.117	3993.92
808.447	3948.5
808.777	3978.1
809.107	4017.42
809.436	3975.16
809.766	3957.54
810.096	3956.86
810.426	3918.22
810.755	3923.64
811.085	3925
811.414	3927.03
811.744	3874.83
812.073	3883.41
812.403	3863.08
812.732	3844.77
813.061	3863.08
813.39	3760.93
813.719	3778.56
814.049	3796.86
814.378	3834.83
814.707	3802.29
815.036	3803.87
815.365	3785.34
815.693	3757.09
816.022	3762.74
816.351	3754.38
816.68	3751.21
817.008	3788.5
817.337	3750.76
817.665	3743.08
817.994	3767.03
818.322	3710.31
818.651	3680.93
818.979	3673.02
819.307	3694.27
819.636	3652.01
819.964	3666.02
820.292	3630.99
820.62	3627.83
820.948	3595.06
821.276	3668.28
821.604	3651.56
821.932	3623.99
822.259	3680.48
822.587	3626.25
822.915	3676.19
823.243	3659.92
823.57	3671.44
823.898	3673.93
824.225	3646.81
824.553	3628.73
824.88	3684.32
825.207	3646.58
825.535	3637.09
825.862	3632.12
826.189	3626.47
826.516	3602.29
826.843	3606.59
827.17	3638.45
827.497	3626.47
827.824	3625.79
828.151	3611.11
828.478	3655.17
828.805	3666.92
829.131	3606.13
829.458	3679.8
829.785	3621.05
830.111	3650.65
830.438	3668.28
830.764	3618.34
831.09	3633.25
831.417	3616.53
831.743	3658.34
832.069	3621.5
832.395	3584.67
832.722	3591.9
833.048	3552.12
833.374	3614.95
833.7	3537.89
834.026	3598.22
834.351	3543.99
834.677	3559.81
835.003	3573.37
835.329	3550.77
835.654	3570.65
835.98	3590.77
836.306	3539.24
836.631	3541.73
836.956	3577.89
837.282	3600.94
837.607	3542.63
837.932	3565.91
838.258	3548.06
838.583	3568.39
838.908	3533.14
839.233	3505.8
839.558	3500.6
839.883	3535.63
840.208	3479.36
840.533	3472.8
840.858	3459.92
841.182	3466.02
841.507	3436.19
841.832	3447.27
842.156	3425.35
842.481	3471
842.805	3396.42
843.13	3424.22
843.454	3421.05
843.778	3394.16
844.103	3389.87
844.427	3422.41
844.751	3419.02
845.075	3422.41
845.399	3409.53
845.723	3389.19
846.047	3405.24
846.371	3355.07
846.695	3368.85
847.019	3343.77
847.343	3318.01
847.666	3299.93
847.99	3304
848.313	3260.15
848.637	3239.59
848.96	3226.93
849.284	3208.4
849.607	3203.88
849.931	3224.9
850.254	3188.74
850.577	3194.17
850.9	3144.23
851.223	3202.53
851.546	3190.78
851.869	3151
852.192	3177.22
852.515	3196.43
852.838	3141.51
853.161	3198.46
853.483	3145.36
853.806	3124.34
854.129	3079.14
854.451	3100.38
854.774	3049.99
855.096	3051.57
855.419	3038.92
855.741	3035.98
856.063	2998.47
856.385	3003.44
856.708	2973.38
857.03	2994.85
857.352	2963.67
857.674	3001.63
857.996	2979.94
858.318	2979.94
858.64	2997.11
858.961	2926.38
859.283	2941.74
859.605	2968.64
859.926	2950.33
860.248	2956.66
860.57	2914.63
860.891	2928.64
861.212	2960.28
861.534	2919.37
861.855	2900.39
862.176	2935.42
862.498	2897.45
862.819	2874.85
863.14	2855.65
863.461	2832.6
863.782	2859.26
864.103	2841.86
864.424	2846.83
864.745	2855.19
865.065	2837.79
865.386	2826.04
865.707	2825.14
866.027	2778.36
866.348	2828.53
866.668	2853.61
866.989	2834.18
867.309	2818.81
867.63	2828.08
867.95	2835.53
868.27	2791.69
868.59	2864.68
868.91	2816.78
869.23	2804.8
869.55	2805.03
869.87	2792.37
870.19	2806.38
870.51	2786.95
870.83	2741.75
871.15	2757.57
871.469	2728.19
871.789	2730.22
872.109	2751.92
872.428	2720.28
872.748	2732.71
873.067	2735.42
873.386	2727.74
873.706	2753.28
874.025	2707.85
874.344	2739.49
874.663	2737.68
874.982	2727.06
875.301	2743.33
875.62	2702.65
875.939	2706.95
876.258	2716.21
876.577	2724.35
876.896	2697.23
877.214	2714.18
877.533	2709.89
877.852	2729.77
878.17	2696.78
878.489	2697.68
878.807	2681.64
879.125	2681.64
879.444	2617.46
879.762	2612.04
880.08	2608.42
880.398	2623.79
880.716	2618.82
881.034	2614.07
881.352	2621.75
881.67	2589.44
881.988	2642.77
882.306	2633.28
882.624	2598.93
882.941	2610.23
883.259	2601.41
883.577	2620.85
883.894	2608.42
884.212	2604.8
884.529	2584.69
884.846	2612.71
885.164	2606.61
885.481	2600.51
885.798	2602.09
886.115	2530.68
886.432	2571.81
886.75	2566.61
887.067	2553.51
887.383	2535.88
887.7	2511.93
888.017	2534.3
888.334	2554.64
888.651	2508.31
888.967	2519.83
889.284	2517.58
889.6	2457.24
889.917	2502.43
890.233	2519.83
890.55	2502.21
890.866	2453.17
891.182	2468.76
891.498	2481.19
891.815	2481.87
892.131	2465.37
892.447	2479.38
892.763	2452.04
893.079	2478.93
893.395	2471.93
893.71	2428.09
894.026	2429.44
894.342	2395.54
894.657	2386.28
894.973	2377.47
895.289	2380.63
895.604	2394.41
895.92	2350.12
896.235	2377.69
896.55	2368.65
896.865	2305.6
897.181	2360.52
897.496	2338.14
897.811	2351.03
898.126	2297.69
898.441	2294.76
898.756	2286.17
899.071	2280.29
899.386	2281.88
899.7	2289.11
900.015	2319.39
900.33	2301.99
900.644	2261.08
900.959	2284.36
901.273	2279.16
901.588	2311.03
901.902	2257.92
902.216	2258.37
902.531	2252.05
902.845	2269.45
903.159	2230.12
903.473	2228.09
903.787	2193.97
904.101	2202.78
904.415	2194.87
904.729	2177.25
905.042	2190.13
905.356	2158.94
905.67	2143.35
905.984	2156.91
906.297	2160.97
906.611	2137.47
906.924	2099.05
907.237	2098.6
907.551	2099.73
907.864	2126.17
908.177	2142.9
908.491	2110.35
908.804	2083.69
909.117	2125.04
909.43	2102.67
909.743	2090.92
910.056	2066.97
910.368	2065.84
910.681	2072.16
910.994	2042.56
911.307	2073.74
911.619	2058.6
911.932	2054.99
912.244	2043.46
912.557	2000.75
912.869	1990.13
913.181	1986.97
913.494	2006.63
913.806	1974.09
914.118	1960.08
914.43	1934.54
914.742	1952.84
915.054	1923.47
915.366	1962.56
915.678	1926.63
915.99	1938.16
916.302	1907.2
916.613	1899.96
916.925	1931.83
917.236	1930.02
917.548	1905.61
917.859	1923.47
918.171	1877.14
918.482	1906.74
918.794	1905.61
919.105	1865.16
919.416	1872.39
919.727	1872.62
920.038	1858.38
920.349	1864.26
920.66	1827.42
920.971	1868.55
921.282	1844.6
921.593	1817.71
921.903	1793.75
922.214	1796.01
922.525	1822.23
922.835	1795.79
923.146	1794.88
923.456	1782.45
923.767	1792.4
924.077	1754.66
924.387	1748.78
924.697	1747.43
925.008	1745.39
925.318	1742
925.628	1742.45
925.938	1715.34
926.248	1718.73
926.558	1722.34
926.867	1723.25
927.177	1706.52
927.487	1709.23
927.796	1697.71
928.106	1681.89
928.416	1698.61
928.725	1677.37
929.034	1672.4
929.344	1654.09
929.653	1646.19
929.962	1638.5
930.271	1643.25
930.581	1645.73
930.89	1631.95
931.199	1629.91
931.508	1613.64
931.817	1619.07
932.125	1617.03
932.434	1614.32
932.743	1610.03
933.051	1581.1
933.36	1587.43
933.669	1583.81
933.977	1549.69
934.286	1554.66
934.594	1575.68
934.902	1584.27
935.21	1578.84
935.519	1561.44
935.827	1555.11
936.135	1566.19
936.443	1586.75
936.751	1545.17
937.059	1565.06
937.367	1538.39
937.674	1518.28
937.982	1531.39
938.29	1513.08
938.597	1516.02
938.905	1476.25
939.213	1500.65
939.52	1488.68
939.827	1484.38
940.135	1457.26
940.442	1458.39
940.749	1469.47
941.056	1464.95
941.363	1430.37
941.67	1444.61
941.977	1412.07
942.284	1410.71
942.591	1405.74
942.898	1434.44
943.205	1444.38
943.511	1415.01
943.818	1423.37
944.125	1397.83
944.431	1405.29
944.738	1393.08
945.044	1377.04
945.35	1396.02
945.657	1395.12
945.963	1399.86
946.269	1396.25
946.575	1395.12
946.881	1395.12
947.187	1378.85
947.493	1373.88
947.799	1403.25
948.105	1361.22
948.41	1361.67
948.716	1330.49
949.022	1345.63
949.327	1339.53
949.633	1324.84
949.938	1342.46
950.244	1312.63
950.549	1322.13
950.854	1316.02
951.16	1298.17
951.465	1303.82
951.77	1299.3
952.075	1279.19
952.38	1304.5
952.685	1277.38
952.99	1248.91
953.294	1283.48
953.599	1263.82
953.904	1284.61
954.209	1269.47
954.513	1259.53
954.818	1249.59
955.122	1250.94
955.426	1234.67
955.731	1264.73
956.035	1258.17
956.339	1280.09
956.643	1248.23
956.948	1239.42
957.252	1227.89
957.556	1231.28
957.86	1213.43
958.163	1218.17
958.467	1198.97
958.771	1223.37
959.075	1210.49
959.378	1186.08
959.682	1160.1
959.985	1165.29
960.289	1167.78
960.592	1180.44
960.896	1182.69
961.199	1156.71
961.502	1169.81
961.805	1172.3
962.108	1156.48
962.411	1143.6
962.714	1144.73
963.017	1128.69
963.32	1130.94
963.623	1154.9
963.926	1128.23
964.228	1144.96
964.531	1116.03
964.833	1156.71
965.136	1116.03
965.438	1122.58
965.741	1104.96
966.043	1116.48
966.345	1100.89
966.648	1090.04
966.95	1111.51
967.252	1110.83
967.554	1108.35
967.856	1066.77
968.158	1059.53
968.46	1072.87
968.761	1044.62
969.063	1081.91
969.365	1080.55
969.666	1053.21
969.968	1065.64
970.269	1060.44
970.571	1058.86
970.872	1056.6
971.174	1045.75
971.475	1036.26
971.776	1058.86
972.077	1019.31
972.378	1026.09
972.679	1036.26
972.98	1017.73
973.281	1015.92
973.582	1025.41
973.883	1038.07
974.183	1024.73
974.484	1022.7
974.785	1009.37
975.085	988.58
975.386	1010.04
975.686	1009.37
975.986	989.25
976.287	1017.28
976.587	998.74
976.887	982.7
977.187	970.05
977.487	995.13
977.787	980.44
978.087	964.85
978.387	967.56
978.687	981.34
978.987	973.21
979.286	944.96
979.586	933.89
979.885	958.75
980.185	930.5
980.484	955.36
980.784	941.12
981.083	943.61
981.382	947.45
981.682	930.5
981.981	921.46
982.28	910.16
982.579	908.13
982.878	942.7
983.177	931.63
983.475	919.42
983.774	910.39
984.073	922.81
984.372	911.52
984.67	919.88
984.969	934.11
985.267	904.28
985.566	909.93
985.864	915.58
986.162	900.67
986.461	901.57
986.759	872.19
987.057	868.35
987.355	872.19
987.653	902.93
987.951	871.52
988.249	883.27
988.547	881.69
988.844	871.52
989.142	849.37
989.44	841.91
989.737	863.38
990.035	857.28
990.332	841.69
990.63	842.14
990.927	829.94
991.224	865.87
991.521	855.02
991.819	822.48
992.116	824.29
992.413	852.76
992.71	828.35
993.006	819.09
993.303	831.52
993.6	832.65
993.897	833.33
994.193	823.38
994.49	794.91
994.787	803.27
995.083	812.54
995.379	815.7
995.676	815.25
995.972	799.88
996.268	803.95
996.565	806.43
996.861	785.64
997.157	790.39
997.453	765.3
997.749	800.11
998.044	777.06
998.34	773.44
998.636	771.41
998.932	767.79
999.227	766.43
999.523	788.35
999.818	752.42
1000.114	756.72
1000.409	738.64
1000.704	746.1
1001	749.49
1001.295	755.81
1001.59	746.1
1001.885	751.52
1002.18	744.06
1002.475	734.35
1002.77	756.94
1003.065	766.21
1003.359	748.58
1003.654	726.66
1003.949	725.76
1004.243	744.29
1004.538	719.2
1004.832	721.69
1005.127	733.67
1005.421	732.31
1005.715	730.5
1006.009	704.74
1006.304	712.2
1006.598	696.15
1006.892	700.9
1007.186	709.49
1007.48	701.35
1007.773	690.05
1008.067	681.47
1008.361	690.73
1008.655	685.98
1008.948	695.02
1009.242	671.52
1009.535	690.05
1009.829	692.99
1010.122	676.04
1010.415	668.13
1010.708	670.39
1011.001	686.21
1011.295	656.61
1011.588	669.94
1011.881	658.87
1012.173	668.13
1012.466	662.93
1012.759	660.45
1013.052	660.22
1013.344	679.88
1013.637	649.83
1013.93	630.62
1014.222	642.14
1014.514	649.83
1014.807	651.41
1015.099	633.56
1015.391	632.65
1015.683	635.14
1015.976	638.08
1016.268	613.44
1016.56	627.68
1016.851	609.83
1017.143	616.83
1017.435	628.81
1017.727	619.32
1018.018	628.13
1018.31	592.2
1018.602	606.21
1018.893	608.47
1019.185	608.92
1019.476	618.87
1019.767	586.78
1020.058	592.2
1020.35	601.69
1020.641	586.78
1020.932	594.24
1021.223	593.78
1021.514	600.11
1021.804	586.1
1022.095	570.28
1022.386	607.79
1022.677	561.47
1022.967	570.96
1023.258	575.93
1023.548	564.18
1023.839	580.45
1024.129	563.5
1024.419	586.1
1024.709	565.31
1025	554.46
1025.29	547.46
1025.58	559.43
1025.87	540.45
1026.16	538.64
1026.449	580.22
1026.739	554.46
1027.029	534.12
1027.319	567.8
1027.608	541.58
1027.898	536.16
1028.187	530.96
1028.477	545.88
1028.766	531.41
1029.055	546.1
1029.344	546.55
1029.634	517.63
1029.923	544.07
1030.212	512.88
1030.501	504.52
1030.79	519.89
1031.078	496.39
1031.367	528.7
1031.656	513.56
1031.945	502.94
1032.233	520.11
1032.522	508.59
1032.81	511.07
1033.099	514.24
1033.387	523.73
1033.675	506.33
1033.963	521.7
1034.251	501.36
1034.54	505.88
1034.828	501.81
1035.116	494.58
1035.403	485.54
1035.691	512.66
1035.979	487.8
1036.267	470.17
1036.554	490.96
1036.842	487.12
1037.129	489.15
1037.417	482.83
1037.704	481.47
1037.992	477.18
1038.279	482.37
1038.566	482.15
1038.853	482.15
1039.14	482.15
