Data from foam2_polystyrene_foam_FLMS001491_00056.txt Node
Date: Wed Feb 08 10:58:10 GMT 2017
User: dcchb
Spectrometer: FLMS00149
Trigger mode: 0
Integration Time (sec): 2.000000E-2
Scans to average: 10
Electric dark correction enabled: true
Nonlinearity correction enabled: false
Boxcar width: 0
XAxis mode: Wavelengths
Number of Pixels in Spectrum: 2048
>>>>>Begin Spectral Data<<<<<
341.393	-7.17
341.776	-7.17
342.16	-7.17
342.543	-51.02
342.927	-73.84
343.31	-76.78
343.693	-68.64
344.077	-59.83
344.46	-56.67
344.843	-63.9
345.226	-55.31
345.61	-20.06
345.993	3.9
346.376	-28.64
346.759	6.61
347.142	26.5
347.525	45.48
347.908	47.51
348.291	80.51
348.674	102.43
349.057	116.89
349.44	141.75
349.823	149.21
350.206	177.9
350.588	205.02
350.971	223.55
351.354	227.85
351.737	248.86
352.119	257.45
352.502	252.93
352.884	275.3
353.267	278.47
353.65	292.25
354.032	306.72
354.414	320.27
354.797	324.79
355.179	310.33
355.562	344.23
355.944	325.7
356.326	326.38
356.709	345.36
357.091	352.36
357.473	361.18
357.855	351.23
358.238	359.37
358.62	364.11
359.002	342.87
359.384	343.1
359.766	379.26
360.148	365.47
360.53	327.05
360.912	347.62
361.294	352.14
361.676	348.07
362.057	352.36
362.439	339.48
362.821	335.41
363.203	340.16
363.584	344.23
363.966	360.05
364.348	355.08
364.729	343.55
365.111	348.97
365.493	335.64
365.874	332.48
366.256	340.61
366.637	322.76
367.019	331.8
367.4	355.75
367.781	348.3
368.163	351.23
368.544	337.9
368.925	353.49
369.306	352.82
369.688	361.63
370.069	337.67
370.45	344
370.831	339.71
371.212	346.94
371.593	351.01
371.974	361.63
372.355	343.55
372.736	374.96
373.117	344.91
373.498	358.47
373.879	376.77
374.26	363.44
374.641	361.18
375.021	352.59
375.402	378.8
375.783	365.7
376.163	359.37
376.544	374.51
376.925	374.74
377.305	366.6
377.686	379.26
378.066	384.23
378.447	397.56
378.827	388.29
379.208	398.24
379.588	379.26
379.968	384.23
380.349	394.17
380.729	420.38
381.109	381.29
381.489	392.59
381.87	412.02
382.25	402.53
382.63	384.45
383.01	412.02
383.39	405.92
383.77	414.28
384.15	402.98
384.53	417.9
384.91	432.59
385.29	424.23
385.67	435.07
386.049	432.59
386.429	434.17
386.809	419.03
387.189	440.5
387.568	439.59
387.948	452.02
388.328	462.64
388.707	463.1
389.087	476.2
389.466	465.58
389.846	444.34
390.225	458.8
390.605	451.34
390.984	473.94
391.363	473.94
391.743	469.2
392.122	474.85
392.501	487.05
392.881	476.88
393.26	485.92
393.639	482.08
394.018	496.09
394.397	504.68
394.776	510.55
395.155	520.27
395.534	533.38
395.913	522.3
396.292	516.88
396.671	545.35
397.05	534.51
397.429	531.12
397.808	536.99
398.186	531.57
398.565	546.48
398.944	555.97
399.323	551
399.701	560.95
400.08	548.74
400.458	540.38
400.837	562.98
401.215	572.02
401.594	588.97
401.972	575.63
402.351	554.17
402.729	587.61
403.107	590.1
403.486	606.14
403.864	604.33
404.242	605.01
404.62	613.83
404.999	604.79
405.377	645.69
405.755	614.73
406.133	639.14
406.511	658.57
406.889	641.17
407.267	638.01
407.645	659.25
408.023	680.49
408.401	635.75
408.779	670.32
409.156	679.36
409.534	671.68
409.912	701.51
410.29	705.8
410.667	729.53
411.045	724.33
411.422	718.46
411.8	726.59
412.178	731.11
412.555	751.45
412.933	753.26
413.31	760.94
413.687	793.93
414.065	793.03
414.442	784.89
414.819	774.27
415.197	824.89
415.574	830.77
415.951	823.99
416.328	823.31
416.705	841.39
417.082	852.92
417.46	857.44
417.837	850.2
418.214	868.06
418.591	861.95
418.967	885.23
419.344	847.94
419.721	879.81
420.098	903.08
420.475	893.37
420.852	900.6
421.228	912.35
421.605	912.35
421.982	928.62
422.358	967.04
422.735	933.14
423.111	970.43
423.488	976.75
423.864	974.49
424.241	993.25
424.617	1002.97
424.994	1009.75
425.37	1019.92
425.746	1008.84
426.123	1029.18
426.499	1025.57
426.875	1086.81
427.251	1084.32
427.627	1063.98
428.003	1092.46
428.379	1104.66
428.756	1112.34
429.132	1118.45
429.507	1134.49
429.883	1134.72
430.259	1175.39
430.635	1160.48
431.011	1213.36
431.387	1211.32
431.763	1230.31
432.138	1228.95
432.514	1242.51
432.89	1262.62
433.265	1268.5
433.641	1279.8
434.016	1294.71
434.392	1338.1
434.767	1376.29
435.143	1342.39
435.518	1375.16
435.894	1356.63
436.269	1405.67
436.644	1426.23
437.02	1423.07
437.395	1427.36
437.77	1472.33
438.145	1458.1
438.52	1480.02
438.895	1510.98
439.271	1508.49
439.646	1557.08
440.021	1550.3
440.395	1558.43
440.77	1553.69
441.145	1555.27
441.52	1616.74
441.895	1585.1
442.27	1635.49
442.645	1627.36
443.019	1652.44
443.394	1639.34
443.769	1693.8
444.143	1643.86
444.518	1708.26
444.892	1686.57
445.267	1754.81
445.641	1737.64
446.016	1769.73
446.39	1774.02
446.764	1774.93
447.139	1760.46
447.513	1790.74
447.887	1786.68
448.262	1819.44
448.636	1859.89
449.01	1856.28
449.384	1853.34
449.758	1894.47
450.132	1899.67
450.506	1912.32
450.88	1941.7
451.254	1945.09
451.628	1950.74
452.002	1990.29
452.376	2000.68
452.75	2022.15
453.123	2034.58
453.497	2046.1
453.871	2052.66
454.244	2111.87
454.618	2112.09
454.992	2183.5
455.365	2165.42
455.739	2211.3
456.112	2215.82
456.486	2249.94
456.859	2266.89
457.232	2314.8
457.606	2288.13
457.979	2341.24
458.352	2313.44
458.725	2425.76
459.099	2419.43
459.472	2430.28
459.845	2469.82
460.218	2516.15
460.591	2477.51
460.964	2489.71
461.337	2549.37
461.71	2614.23
462.083	2626.43
462.456	2597.73
462.829	2642.92
463.201	2682.47
463.574	2687.44
463.947	2756.59
464.32	2796.82
464.692	2807.44
465.065	2832.3
465.438	2847.21
465.81	2884.5
466.183	2926.08
466.555	2979.19
466.928	2999.3
467.3	3031.62
467.672	3072.07
468.045	3100.99
468.417	3128.79
468.789	3169.69
469.161	3202.46
469.534	3242.01
469.906	3300.76
470.278	3351.38
470.65	3349.8
471.022	3385.73
471.394	3452.4
471.766	3520.42
472.138	3556.57
472.51	3622.79
472.882	3679.96
473.253	3696.68
473.625	3742.78
473.997	3821.88
474.369	3852.61
474.74	3896.23
475.112	3948.2
475.484	4034.75
475.855	4109.33
476.227	4098.25
476.598	4225.26
476.97	4273.62
477.341	4354.74
477.713	4407.17
478.084	4436.78
478.455	4518.36
478.827	4622.31
479.198	4731.91
479.569	4657.56
479.94	4889.42
480.311	4878.8
480.682	5021.62
481.053	5106.14
481.424	5207.83
481.795	5252.35
482.166	5280.6
482.537	5352.46
482.908	5524.88
483.279	5552.45
483.65	5686.46
484.021	5771.66
484.391	5774.59
484.762	5873.35
485.133	5902.73
485.503	6046.45
485.874	6088.03
486.244	6206.22
486.615	6278.99
486.985	6341.81
487.356	6514.91
487.726	6486.44
488.097	6698.41
488.467	6727.79
488.837	6863.15
489.207	6919.2
489.578	6955.13
489.948	7026.76
490.318	7137.27
490.688	7211.84
491.058	7287.32
491.428	7395.12
491.798	7500.2
492.168	7629.01
492.538	7657.71
492.908	7734.99
493.278	7853.18
493.648	7942.45
494.017	8040.3
494.387	8099.73
494.757	8124.14
495.126	8245.72
495.496	8237.35
495.866	8382.89
496.235	8380.18
496.605	8488.19
496.974	8528.65
497.344	8628.98
497.713	8699.26
498.082	8749.43
498.452	8861.29
498.821	8837.56
499.19	8937.22
499.559	9009.54
499.928	9015.64
500.298	9114.17
500.667	9209.53
501.036	9188.97
501.405	9341.05
501.774	9330.21
502.143	9516.19
502.512	9611.56
502.88	9618.11
503.249	9629.63
503.618	9687.03
503.987	9796.86
504.356	9776.97
504.724	9882.96
505.093	10006.57
505.462	9995.73
505.83	10097.64
506.199	10112.33
506.567	10294.7
506.936	10279.33
507.304	10345.55
507.672	10407.69
508.041	10499.44
508.409	10557.52
508.777	10684.97
509.145	10659.21
509.514	10752.09
509.882	10902.14
510.25	10849.26
510.618	10995.47
510.986	10954.57
511.354	11100.1
511.722	11261
512.09	11326.76
512.458	11303.49
512.826	11397.27
513.193	11496.93
513.561	11578.74
513.929	11682.69
514.297	11807.88
514.664	11886.3
515.032	12009.01
515.4	12006.75
515.767	12019.4
516.135	12133.75
516.502	12126.07
516.869	12353.18
517.237	12410.58
517.604	12343.69
517.972	12520.86
518.339	12635.2
518.706	12601.76
519.073	12808.99
519.44	12882.66
519.808	13049.2
520.175	13038.36
520.542	13204
520.909	13251.23
521.276	13287.84
521.643	13432.25
522.009	13544.56
522.376	13593.15
522.743	13752.01
523.11	13919.46
523.477	14082.17
523.843	14072.91
524.21	14196.97
524.577	14370.53
524.943	14347.7
525.31	14481.03
525.676	14686.68
526.043	14766
526.409	14848.25
526.776	15027.23
527.142	14985.88
527.508	15220
527.874	15284.85
528.241	15371.86
528.607	15342.7
528.973	15572.3
529.339	15559.2
529.705	15761.68
530.071	15841.67
530.437	15904.72
530.803	15989.69
531.169	16050.26
531.535	16069.01
531.901	16216.81
532.267	16268.78
532.632	16378.61
532.998	16469.45
533.364	16539.28
533.73	16546.06
534.095	16774.3
534.461	16783.8
534.826	16933.85
535.192	16913.06
535.557	17128.19
535.923	17126.16
536.288	17150.57
536.653	17270.11
537.019	17262.65
537.384	17284.57
537.749	17499.03
538.114	17532.02
538.479	17581.06
538.845	17706.71
539.21	17621.29
539.575	17711.23
539.94	17890.66
540.305	17953.48
540.67	17912.13
541.034	18009.3
541.399	18147.83
541.764	18059.24
542.129	18202.97
542.494	18273.7
542.858	18290.42
543.223	18213.14
543.587	18514.15
543.952	18482.28
544.316	18535.61
544.681	18536.74
545.045	18648.83
545.41	18759.34
545.774	18794.59
546.138	18797.53
546.503	18975.15
546.867	18950.52
547.231	19151.64
547.595	19159.1
547.959	19201.13
548.324	19230.96
548.688	19275.93
549.052	19396.61
549.416	19449.26
549.779	19380.79
550.143	19523.16
550.507	19714.34
550.871	19781.68
551.235	19816.03
551.599	20027.78
551.962	20077.72
552.326	19992.3
552.689	20184.16
553.053	20085.4
553.417	20132.63
553.78	20434.32
554.143	20298.05
554.507	20509.35
554.87	20500.53
555.234	20754.31
555.597	20585.5
555.96	20814.42
556.323	20843.35
556.686	20889
557.05	21017.81
557.413	21158.14
557.776	21122.89
558.139	21295.99
558.502	21227.97
558.865	21461.41
559.228	21559.04
559.59	21667.28
559.953	21713.16
560.316	21957.22
560.679	21892.59
561.041	22093.71
561.404	22123.77
561.767	22281.05
562.129	22295.06
562.492	22469.07
562.854	22417.55
563.217	22494.38
563.579	22582.97
563.941	22744.32
564.304	22936.18
564.666	23082.39
565.028	22970.07
565.39	23059.79
565.753	23230.63
566.115	23390.18
566.477	23524.41
566.839	23513.34
567.201	23601.02
567.563	23863.61
567.925	23889.82
568.287	23869.49
568.648	24042.36
569.01	24193.09
569.372	24295.01
569.734	24139.08
570.095	24413.88
570.457	24496.36
570.819	24604.38
571.18	24614.32
571.542	24697.03
571.903	24722.34
572.265	24718.95
572.626	24895.9
572.987	24862.68
573.349	24930.47
573.71	25012.05
574.071	25014.09
574.432	25134.54
574.794	25331.37
575.155	25317.81
575.516	25197.59
575.877	25440.97
576.238	25408.43
576.599	25580.4
576.96	25605.94
577.32	25612.04
577.681	25727.97
578.042	25748.98
578.403	25639.61
578.763	25805.48
579.124	25904.91
579.485	25934.52
579.845	26024
580.206	25886.83
580.566	26082.31
580.927	26067.17
581.287	26179.03
581.648	26029.88
582.008	26117.56
582.368	25981.75
582.728	26080.73
583.089	26183.55
583.449	26240.72
583.809	26129.09
584.169	26111.46
584.529	26038.92
584.889	26224.68
585.249	26146.71
585.609	25968.19
585.969	26249.31
586.329	26182.64
586.688	26187.39
587.048	26160.95
587.408	26149.88
587.768	26106.94
588.127	26086.38
588.487	26079.14
588.846	26295.86
589.206	26174.28
589.565	26130.22
589.925	26228.52
590.284	26155.3
590.643	26200.95
591.003	26355.75
591.362	26399.59
591.721	26413.6
592.08	26304
592.44	26336.54
592.799	26396.65
593.158	26301.51
593.517	26205.92
593.876	26447.27
594.235	26321.62
594.593	26356.2
594.952	26516.87
595.311	26313.49
595.67	26369.31
596.029	26607.49
596.387	26527.72
596.746	26630.99
597.104	26355.97
597.463	26410.44
597.822	26520.26
598.18	26436.2
598.538	26412.47
598.897	26609.98
599.255	26473.48
599.613	26824.66
599.972	26659.69
600.33	26704.44
600.688	26578.79
601.046	26590.54
601.404	26960.03
601.762	26831.67
602.12	26872.12
602.478	26977.43
602.836	26982.62
603.194	26808.17
603.552	26966.35
603.91	26813.81
604.268	27010.65
604.625	26953.25
604.983	26948.5
605.341	26831.89
605.698	27040.48
606.056	27100.81
606.413	26977.43
606.771	27150.53
607.128	27183.07
607.485	27010.65
607.843	27068.05
608.2	27222.62
608.557	27271.43
608.914	27195.95
609.272	27253.58
609.629	27305.1
609.986	27507.36
610.343	27284.76
610.7	27477.07
611.057	27419.45
611.414	27433.46
611.771	27456.06
612.127	27576.05
612.484	27558.43
612.841	27622.61
613.198	27551.42
613.554	27582.38
613.911	27682.72
614.267	27685.88
614.624	27625.54
614.98	27646.56
615.337	27736.28
615.693	27851.53
616.05	27867.8
616.406	28079.09
616.762	27767.69
617.118	27805.88
617.475	27909.83
617.831	27963.84
618.187	27985.99
618.543	27969.94
618.899	28176.94
619.255	28100.79
619.611	28089.71
619.967	28112.31
620.323	28059.43
620.678	28104.18
621.034	27973.56
621.39	28004.52
621.746	28027.12
622.101	28339.65
622.457	28022.82
622.812	28060.11
623.168	28105.53
623.523	28147.79
623.879	28231.18
624.234	28070.73
624.589	28027.79
624.945	28077.74
625.3	28136.72
625.655	27997.74
626.01	28097.4
626.365	28121.12
626.72	28006.55
627.075	28082.26
627.43	28070.5
627.785	28067.34
628.14	28023.73
628.495	28007.23
628.85	28024.86
629.205	28000.68
629.559	28118.64
629.914	27903.73
630.269	27983.5
630.623	27909.61
630.978	27824.18
631.332	27905.76
631.687	27953.22
632.041	27921.81
632.396	27794.58
632.75	27794.58
633.104	27745.09
633.459	27716.39
633.813	27676.16
634.167	27607.01
634.521	27597.97
634.875	27637.3
635.229	27675.04
635.583	27368.38
635.937	27371.99
636.291	27487.02
636.645	27346
636.999	27296.74
637.352	27389.17
637.706	27149.4
638.06	27380.35
638.413	27240.02
638.767	27165.22
639.121	27112.79
639.474	27103.52
639.828	27067.59
640.181	27080.7
640.534	27062.17
640.888	26981.72
641.241	26877.77
641.594	26841.61
641.947	26982.85
642.301	26775.17
642.654	26853.36
643.007	26845.9
643.36	26814.49
643.713	26748.05
644.066	26725
644.419	26506.48
644.771	26384
645.124	26191.01
645.477	26167.73
645.83	25915.53
646.182	25850
646.535	25807.06
646.888	25872.6
647.24	25663.34
647.593	25777.23
647.945	25719.83
648.298	25678.48
648.65	25517.8
649.002	25407.98
649.355	25614.07
649.707	25607.97
650.059	25657.01
650.411	25906.04
650.763	25943.1
651.115	26184.45
651.467	26091.35
651.819	26179.26
652.171	26094.74
652.523	25932.48
652.875	26002.54
653.227	25901.75
653.578	26039.6
653.93	25934.29
654.282	25788.53
654.633	25778.59
654.985	25856.33
655.337	25866.72
655.688	25968.41
656.039	26054.96
656.391	25679.16
656.742	25762.77
657.094	25688.87
657.445	25858.81
657.796	25751.92
658.147	25661.98
658.498	25687.06
658.849	25692.26
659.2	25654.75
659.551	25522.1
659.902	25602.1
660.253	25603
660.604	25576.56
660.955	25388.09
661.306	25623.11
661.656	25499.27
662.007	25536.11
662.358	25400.52
662.708	25388.32
663.059	25431.93
663.409	25310.35
663.76	25488.65
664.11	25482.1
664.461	25504.24
664.811	25481.19
665.161	25461.08
665.511	25377.69
665.862	25424.47
666.212	25485.26
666.562	25338.83
666.912	25377.69
667.262	25466.28
667.612	25304.7
667.962	25392.38
668.312	25263.57
668.662	25351.71
669.011	25336.79
669.361	25357.36
669.711	25227.42
670.06	25281.2
670.41	25147.87
670.76	25118.04
671.109	25257.25
671.459	25214.08
671.808	25206.4
672.157	25200.52
672.507	25057.02
672.856	25029.91
673.205	25138.15
673.554	25229.22
673.904	25047.08
674.253	25052.73
674.602	24982.9
674.951	24649.13
675.3	24483.48
675.649	24985.61
675.998	24942.68
676.346	24948.78
676.695	24997.14
677.044	24730.71
677.393	24847.09
677.741	24928.89
678.09	24897.03
678.438	24882.79
678.787	24847.09
679.135	24805.73
679.484	24673.31
679.832	24858.61
680.181	24626.3
680.529	24817.48
680.877	24650.48
681.225	24634.21
681.573	24752.63
681.922	24559.18
682.27	24492.75
682.618	24421.11
682.966	24374.56
683.314	24466.08
683.661	24403.93
684.009	24257.05
684.357	24205.97
684.705	24165.52
685.053	24306.99
685.4	24207.1
685.748	24017.28
686.095	24115.81
686.443	23987.45
686.79	23991.06
687.138	23855.25
687.485	23992.65
687.832	23775.93
688.18	23772.76
688.527	23703.84
688.874	23627.46
689.221	23533
689.568	23621.36
689.915	23521.02
690.262	23502.26
690.609	23378.88
690.956	23414.36
691.303	23453.23
691.65	23385.88
691.997	23325.09
692.344	23043.97
692.69	23037.19
693.037	23039.45
693.383	23020.24
693.73	22919.91
694.077	22824.99
694.423	22812.34
694.769	22844.65
695.116	22711.78
695.462	22657.31
695.808	22604.21
696.155	22600.82
696.501	22369.19
696.847	22396.3
697.193	22256.65
697.539	22371.9
697.885	22153.82
698.231	22075.41
698.577	22025.92
698.923	22075.86
699.269	21973.72
699.614	21872.48
699.96	21858.92
700.306	21745.93
700.651	21614.18
700.997	21590.45
701.342	21651.92
701.688	21560.17
702.033	21508.42
702.379	21579.15
702.724	21477.91
703.069	21461.87
703.415	21159.05
703.76	21202.21
704.105	21166.05
704.45	21054.19
704.795	21016.45
705.14	21021.2
705.485	20953.18
705.83	20933.07
706.175	20921.09
706.52	20812.62
706.865	20766.74
707.209	20689.23
707.554	20650.13
707.899	20744.14
708.243	20495.79
708.588	20543.02
708.932	20383.02
709.277	20353.87
709.621	20368.79
709.966	20192.75
710.31	20323.36
710.654	20116.82
710.998	20081.34
711.342	20095.57
711.687	20098.96
712.031	19974.9
712.375	19880.44
712.719	19864.84
713.063	19825.98
713.407	19916.37
713.75	19777.62
714.094	19692.87
714.438	19687.9
714.782	19683.83
715.125	19667.34
715.469	19648.58
715.812	19616.94
716.156	19393.22
716.499	19355.25
716.843	19333.56
717.186	19266.89
717.53	19409.04
717.873	19349.6
718.216	19362.71
718.559	19327.91
718.902	19208.82
719.246	19174.24
719.589	19092.44
719.932	18951.65
720.275	19067.35
720.617	19009.27
720.96	19047.69
721.303	18970.63
721.646	18960.46
721.989	18761.6
722.331	18807.7
722.674	18803.18
723.016	18763.18
723.359	18799.34
723.701	18801.82
724.044	18593.24
724.386	18547.14
724.729	18654.48
725.071	18651.09
725.413	18618.78
725.755	18527.7
726.097	18507.14
726.439	18384.21
726.782	18363.19
727.124	18452.68
727.465	18342.4
727.807	18330.42
728.149	18279.12
728.491	18274.83
728.833	18240.71
729.175	18074.84
729.516	18134.04
729.858	17967.04
730.199	18025.12
730.541	18054.72
730.882	17964.33
731.224	18043.65
731.565	17930.66
731.906	17922.07
732.248	17894.5
732.589	17724.56
732.93	17863.09
733.271	17769.08
733.612	17826.93
733.953	17763.43
734.294	17671.23
734.635	17677.78
734.976	17718.91
735.317	17639.37
735.658	17526.15
735.999	17627.16
736.339	17674.62
736.68	17609.76
737.021	17461.29
737.361	17443.21
737.702	17536.54
738.042	17556.66
738.383	17438.02
738.723	17404.12
739.063	17445.47
739.404	17471.69
739.744	17323.22
740.084	17360.28
740.424	17258.36
740.764	17180.17
741.104	17270.56
741.444	17177.01
741.784	17080.29
742.124	17165.48
742.464	17092.04
742.804	17091.13
743.143	16937.01
743.483	17001.42
743.823	16843.23
744.162	16839.61
744.502	16947.63
744.841	16860.86
745.181	16951.25
745.52	16775.43
745.86	16719.62
746.199	16808.88
746.538	16721.2
746.877	16778.37
747.216	16721.65
747.556	16666.28
747.895	16680.97
748.234	16585.38
748.573	16599.39
748.911	16521.88
749.25	16534.09
749.589	16450.25
749.928	16407.99
750.267	16362.79
750.605	16311.94
750.944	16325.05
751.283	16399.17
751.621	16226.97
751.96	16224.94
752.298	16250.7
752.636	16219.07
752.975	16149.46
753.313	15986.98
753.651	16106.98
753.989	16015.68
754.327	16022.91
754.666	15830.83
755.004	15964.38
755.342	15909.69
755.679	15889.36
756.017	15918.51
756.355	15736.37
756.693	15794.44
757.031	15725.52
757.368	15645.07
757.706	15714.22
758.044	15521.23
758.381	15670.15
758.719	15493.43
759.056	15502.7
759.394	15419.76
759.731	15430.16
760.068	15304.96
760.405	15280.33
760.743	15248.47
761.08	15217.51
761.417	15257.28
761.754	15092.09
762.091	15117.63
762.428	15078.98
762.765	15013
763.102	15007.57
763.438	14926.67
763.775	14867.91
764.112	14893.45
764.449	14900.68
764.785	14761.02
765.122	14666.79
765.458	14649.84
765.795	14588.15
766.131	14588.15
766.467	14489.39
766.804	14394.93
767.14	14417.08
767.476	14351.32
767.812	14271.32
768.148	14298.21
768.485	14170.98
768.821	14154.94
769.157	14067.71
769.492	14069.97
769.828	14019.57
770.164	13839.47
770.5	13913.81
770.836	13890.09
771.171	13712.46
771.507	13711.33
771.842	13654.39
772.178	13549.08
772.513	13580.72
772.849	13602.64
773.184	13472.24
773.519	13458.91
773.855	13425.47
774.19	13419.36
774.525	13265.7
774.86	13296.43
775.195	13286.49
775.53	13207.62
775.865	13127.62
776.2	13046.95
776.535	12970.79
776.87	12975.53
777.205	12957.91
777.539	12915.65
777.874	12948.87
778.209	12733.73
778.543	12716.78
778.878	12694.64
779.212	12647.41
779.547	12584.13
779.881	12573.96
780.215	12529.44
780.55	12522.44
780.884	12448.54
781.218	12399.5
781.552	12403.12
781.886	12416.91
782.22	12299.39
782.554	12228.21
782.888	12104.15
783.222	12021.44
783.556	12006.29
783.889	12036.58
784.223	11931.49
784.557	11882
784.89	11888.33
785.224	11757.26
785.557	11717.94
785.891	11775.79
786.224	11670.71
786.558	11637.04
786.891	11589.81
787.224	11562.46
787.557	11541.67
787.891	11542.8
788.224	11527.44
788.557	11495.8
788.89	11359.98
789.223	11412.86
789.556	11286.09
789.888	11287.22
790.221	11299.42
790.554	11169.71
790.887	11158.41
791.219	11174
791.552	11151.18
791.884	11058.97
792.217	11002.48
792.549	10992.31
792.882	10892.65
793.214	10834.8
793.546	10922.71
793.879	10828.47
794.211	10799.32
794.543	10790.28
794.875	10790.96
795.207	10795.93
795.539	10709.83
795.871	10705.76
796.203	10623.96
796.535	10614.92
796.867	10578.99
797.198	10555.49
797.53	10480.46
797.862	10444.08
798.193	10458.31
798.525	10406.56
798.856	10381.03
799.188	10318.66
799.519	10212.67
799.85	10208.15
800.182	10204.31
800.513	10203.4
800.844	10125.67
801.175	10142.84
801.506	10158.89
801.837	10119.79
802.168	10052
802.499	10013.8
802.83	10032.11
803.161	9945.11
803.491	9927.03
803.822	9910.08
804.153	9836.63
804.483	9782.4
804.814	9721.83
805.145	9733.59
805.475	9708.95
805.805	9652.23
806.136	9688.39
806.466	9711.67
806.796	9605
807.126	9514.38
807.457	9533.59
807.787	9508.96
808.117	9461.95
808.447	9543.08
808.777	9441.16
809.107	9415.63
809.436	9438.68
809.766	9341.51
810.096	9418.79
810.426	9341.73
810.755	9313.03
811.085	9346.93
811.414	9290.89
811.744	9212.7
812.073	9212.02
812.403	9177.44
812.732	9156.43
813.061	9150.78
813.39	9110.1
813.719	9037.33
814.049	9116.2
814.378	9064.9
814.707	9061.74
815.036	9022.19
815.365	8968.18
815.693	8951.91
816.022	8903.55
816.351	8909.65
816.68	8790.11
817.008	8891.57
817.337	8769.32
817.665	8769.09
817.994	8778.36
818.322	8742.2
818.651	8705.82
818.979	8634.63
819.307	8748.3
819.636	8618.36
819.964	8600.96
820.292	8689.09
820.62	8680.73
820.948	8576.55
821.276	8695.42
821.604	8621.52
821.932	8630.56
822.259	8662.65
822.587	8596.67
822.915	8565.48
823.243	8625.82
823.57	8586.5
823.898	8565.93
824.225	8613.16
824.553	8593.28
824.88	8606.38
825.207	8623.11
825.535	8594.41
825.862	8623.33
826.189	8612.03
826.516	8627.17
826.843	8639.83
827.17	8585.59
827.497	8645.03
827.824	8643.67
828.151	8698.36
828.478	8605.25
828.805	8649.55
829.131	8591.02
829.458	8547.63
829.785	8542.88
830.111	8583.56
830.438	8592.82
830.764	8591.02
831.09	8587.63
831.417	8514.41
831.743	8579.94
832.069	8555.76
832.395	8537.01
832.722	8554.86
833.048	8501.98
833.374	8521.87
833.7	8497.46
834.026	8537.69
834.351	8449.1
834.677	8427.41
835.003	8414.3
835.329	8417.91
835.654	8494.52
835.98	8427.63
836.306	8463.11
836.631	8436.44
836.956	8428.54
837.282	8412.04
837.607	8355.32
837.932	8392.6
838.258	8313.28
838.583	8244.36
838.908	8281.42
839.233	8296.79
839.558	8188.09
839.883	8223.12
840.208	8169.56
840.533	8241.2
840.858	8241.42
841.182	8180.41
841.507	8173.17
841.832	8193.97
842.156	8155.1
842.481	8188.54
842.805	8102.89
843.13	8108.32
843.454	8059.28
843.778	8083.01
844.103	7994.65
844.427	8029
844.751	7979.96
845.075	8013.41
845.399	7981.32
845.723	7891.37
846.047	7941.32
846.371	7887.76
846.695	7878.72
847.019	7821.55
847.343	7759.85
847.666	7748.55
847.99	7664.94
848.313	7720.76
848.637	7624.26
848.96	7610.93
849.284	7606.86
849.607	7540.88
849.931	7579.97
850.254	7579.07
850.577	7439.18
850.9	7422.46
851.223	7448
851.546	7442.35
851.869	7357.38
852.192	7351.28
852.515	7275.35
852.838	7269.24
853.161	7302.92
853.483	7296.36
853.806	7229.92
854.129	7189.25
854.451	7156.25
854.774	7172.07
855.096	7103.15
855.419	7148.8
855.741	7117.38
856.063	7100.89
856.385	7074.9
856.708	6964.39
857.03	6996.93
857.352	6993.32
857.674	6965.52
857.996	6977.95
858.318	6872.42
858.64	6963.72
858.961	6857.5
859.283	6860.67
859.605	6782.25
859.926	6816.37
860.248	6767.11
860.57	6808.92
860.891	6741.35
861.212	6766.88
861.534	6700.22
861.855	6722.82
862.176	6710.84
862.498	6732.99
862.819	6706.55
863.14	6710.61
863.461	6639.43
863.782	6656.6
864.103	6678.07
864.424	6622.26
864.745	6611.86
865.065	6578.64
865.386	6600.56
865.707	6619.32
866.027	6543.16
866.348	6578.19
866.668	6583.39
866.989	6523.5
867.309	6474.69
867.63	6503.16
867.95	6487.34
868.27	6438.76
868.59	6466.78
868.91	6485.99
869.23	6503.16
869.55	6464.07
869.87	6415.03
870.19	6406.67
870.51	6433.11
870.83	6391.75
871.15	6361.25
871.469	6387.46
871.789	6377.06
872.109	6367.57
872.428	6372.54
872.748	6336.16
873.067	6341.13
873.386	6316.27
873.706	6321.25
874.025	6262.04
874.344	6274.02
874.663	6307.69
874.982	6257.75
875.301	6248.03
875.62	6238.99
875.939	6198.54
876.258	6215.94
876.577	6220.68
876.896	6204.87
877.214	6140.91
877.533	6173
877.852	6139.1
878.17	6179.33
878.489	6212.55
878.807	6151.31
879.125	6150.18
879.444	6152.44
879.762	6056.39
880.08	6100.69
880.398	6082.61
880.716	6063.85
881.034	6032.67
881.352	6064.98
881.67	6042.61
881.988	6065.89
882.306	6046
882.624	5983.4
882.941	5987.92
883.259	5976.62
883.577	5956.06
883.894	5931.88
884.212	5884.87
884.529	5929.39
884.846	5898.66
885.164	5858.66
885.481	5871.99
885.798	5846
886.115	5836.29
886.432	5906.57
886.75	5844.2
887.067	5793.8
887.383	5780.24
887.7	5777.98
888.017	5781.6
888.334	5782.28
888.651	5762.39
888.967	5742.73
889.284	5726.69
889.6	5673.35
889.917	5633.81
890.233	5693.01
890.55	5647.37
890.866	5676.52
891.182	5647.59
891.498	5621.83
891.815	5604.88
892.131	5539.12
892.447	5544.09
892.763	5539.35
893.079	5544.77
893.395	5472.45
893.71	5491.21
894.026	5522.85
894.342	5483.3
894.657	5458.44
894.973	5383.64
895.289	5418.67
895.604	5431.33
895.92	5409.86
896.235	5333.48
896.55	5370.08
896.865	5328.05
897.181	5298
897.496	5325.11
897.811	5265.91
898.126	5246.47
898.441	5276.75
898.756	5271.78
899.071	5280.6
899.386	5193.37
899.7	5193.82
900.015	5146.14
900.33	5104.1
900.644	5147.49
900.959	5128.51
901.273	5101.62
901.588	5053.93
901.902	5082.18
902.216	5016.2
902.531	4964.67
902.845	5008.51
903.159	4981.17
903.473	4957.67
903.787	4927.61
904.101	4922.86
904.415	4935.97
904.729	4931.45
905.042	4818.69
905.356	4882.87
905.67	4827.73
905.984	4840.16
906.297	4763.32
906.611	4774.17
906.924	4794.51
907.237	4736.66
907.551	4701.4
907.864	4695.3
908.177	4695.98
908.491	4711.57
908.804	4676.54
909.117	4704.34
909.43	4639.48
909.743	4610.78
910.056	4630.44
910.368	4597
910.681	4555.64
910.994	4545.25
911.307	4544.34
911.619	4493.5
911.932	4528.75
912.244	4452.37
912.557	4476.77
912.869	4436.1
913.181	4408.98
913.494	4395.42
913.806	4382.99
914.118	4359.94
914.43	4368.53
914.742	4338.47
915.054	4266.38
915.366	4329.89
915.678	4284.24
915.99	4235.43
916.302	4267.06
916.613	4191.13
916.925	4225.03
917.236	4196.33
917.548	4195.88
917.859	4199.72
918.171	4168.99
918.482	4157.69
918.794	4147.74
919.105	4063.23
919.416	4091.47
919.727	4080.63
920.038	4038.14
920.349	4039.5
920.66	3970.57
920.971	4026.62
921.282	3947.98
921.593	3982.32
921.903	3908.88
922.214	3953.4
922.525	3928.31
922.835	3902.78
923.146	3878.15
923.456	3906.17
923.767	3851.03
924.077	3839.05
924.387	3850.35
924.697	3811.71
925.008	3779.84
925.318	3789.34
925.628	3752.05
925.938	3754.31
926.248	3733.29
926.558	3724.25
926.867	3689
927.177	3712.28
927.487	3666.4
927.796	3651.49
928.106	3604.03
928.416	3632.73
928.725	3618.94
929.034	3609.23
929.344	3611.71
929.653	3573.75
929.962	3553.41
930.271	3565.84
930.581	3522.68
930.89	3519.96
931.199	3476.58
931.508	3527.87
931.817	3499.4
932.125	3462.79
932.434	3472.28
932.743	3430.02
933.051	3448.33
933.36	3376.24
933.669	3350.02
933.977	3378.05
934.286	3346.64
934.594	3377.82
934.902	3349.12
935.21	3344.15
935.519	3322.23
935.827	3301.21
936.135	3326.07
936.443	3275.68
936.751	3273.19
937.059	3250.59
937.367	3249.91
937.674	3211.05
937.982	3215.34
938.29	3184.61
938.597	3206.75
938.905	3162.91
939.213	3166.75
939.52	3157.04
939.827	3110.71
940.135	3111.39
940.442	3118.84
940.749	3100.09
941.056	3110.03
941.363	3074.33
941.67	3055.57
941.977	3024.16
942.284	3015.8
942.591	3028.9
942.898	2978.74
943.205	2993.2
943.511	3000.43
943.818	2984.16
944.125	2935.8
944.431	2994.78
944.738	2927.21
945.044	2920.66
945.35	2886.76
945.657	2873.43
945.963	2846.54
946.269	2858.06
946.575	2840.66
946.881	2843.82
947.187	2861.45
947.493	2805.86
947.799	2764.5
948.105	2769.7
948.41	2771.96
948.716	2793.88
949.022	2742.58
949.327	2769.93
949.633	2732.19
949.938	2744.62
950.244	2717.05
950.549	2708.46
950.854	2733.32
951.16	2670.72
951.465	2686.31
951.77	2673.43
952.075	2637.95
952.38	2628.46
952.685	2580.55
952.99	2625.98
953.294	2630.04
953.599	2581.46
953.904	2582.14
954.209	2594.56
954.513	2560.89
954.818	2567.45
955.122	2539.88
955.426	2511.4
955.731	2523.15
956.035	2508.01
956.339	2523.83
956.643	2488.13
956.948	2483.38
957.252	2494
957.556	2482.48
957.86	2442.48
958.163	2468.01
958.467	2460.56
958.771	2436.15
959.075	2416.94
959.378	2428.47
959.682	2402.71
959.985	2426.21
960.289	2356.83
960.592	2369.49
960.896	2385.08
961.199	2338.53
961.502	2322.26
961.805	2383.5
962.108	2353.89
962.411	2316.61
962.714	2284.74
963.017	2324.97
963.32	2337.17
963.623	2262.14
963.926	2267.34
964.228	2254.91
964.531	2233.67
964.833	2286.1
965.136	2225.53
965.438	2206.78
965.741	2198.64
966.043	2226.21
966.345	2199.55
966.648	2187.12
966.95	2197.06
967.252	2166.33
967.554	2119.55
967.856	2122.03
968.158	2144.18
968.46	2104.86
968.761	2139.44
969.063	2117.06
969.365	2099.89
969.666	2092.88
969.968	2070.06
970.269	2081.58
970.571	2087.23
970.872	2068.02
971.174	2044.52
971.475	2023.05
971.776	2071.64
972.077	2037.07
972.378	2025.31
972.679	2025.31
972.98	2016.05
973.281	2006.33
973.582	1982.38
973.883	1984.64
974.183	1966.56
974.484	1986.67
974.785	1935.15
975.085	1964.3
975.386	1931.76
975.686	1951.87
975.986	1927.92
976.287	1915.71
976.587	1908.93
976.887	1880.69
977.187	1920.01
977.487	1863.96
977.787	1890.4
978.087	1877.75
978.387	1847.47
978.687	1864.41
978.987	1862.83
979.286	1848.6
979.586	1831.87
979.885	1833.91
980.185	1805.88
980.484	1791.2
980.784	1781.48
981.083	1809.27
981.382	1776.28
981.682	1795.49
981.981	1770.86
982.28	1790.52
982.579	1753.23
982.878	1766.34
983.177	1729.95
983.475	1749.16
983.774	1754.13
984.073	1730.63
984.372	1692.67
984.67	1729.73
984.969	1706.68
985.267	1708.94
985.566	1681.14
985.864	1680.92
986.162	1704.19
986.461	1660.35
986.759	1675.94
987.057	1649.96
987.355	1648.15
987.653	1654.25
987.951	1604.31
988.249	1623.29
988.547	1614.7
988.844	1604.99
989.142	1637.08
989.44	1595.27
989.737	1575.38
990.035	1572.22
990.332	1566.34
990.63	1567.47
990.927	1568.6
991.224	1550.98
991.521	1585.78
991.819	1553.69
992.116	1525.89
992.413	1521.6
992.71	1519.11
993.006	1537.87
993.303	1539.68
993.6	1524.31
993.897	1470.98
994.193	1499
994.49	1498.1
994.787	1488.15
995.083	1476.18
995.379	1479.34
995.676	1462.16
995.972	1449.28
996.268	1446.8
996.565	1414.71
996.861	1470.98
997.157	1432.79
997.453	1452
997.749	1409.51
998.044	1427.82
998.34	1412.67
998.636	1407.48
998.932	1403.64
999.227	1395.73
999.523	1378.1
999.818	1358.89
1000.114	1366.35
1000.409	1365.67
1000.704	1363.41
1001	1344.88
1001.295	1352.56
1001.59	1341.94
1001.885	1354.6
1002.18	1336.97
1002.475	1302.62
1002.77	1316.41
1003.065	1308.27
1003.359	1311.89
1003.654	1311.43
1003.949	1298.1
1004.243	1279.34
1004.538	1268.05
1004.832	1268.95
1005.127	1270.08
1005.421	1271.44
1005.715	1252.9
1006.009	1242.74
1006.304	1215.62
1006.598	1235.5
1006.892	1229.4
1007.186	1221.49
1007.48	1214.94
1007.773	1201.61
1008.067	1213.58
1008.361	1202.28
1008.655	1179.69
1008.948	1182.17
1009.242	1202.28
1009.535	1187.37
1009.829	1168.39
1010.122	1175.39
1010.415	1164.32
1010.708	1149.63
1011.001	1155.51
1011.295	1157.09
1011.588	1127.26
1011.881	1135.85
1012.173	1131.78
1012.466	1141.72
1012.759	1115.96
1013.052	1112.8
1013.344	1134.94
1013.637	1095.85
1013.93	1090.65
1014.222	1105.11
1014.514	1070.76
1014.807	1062.4
1015.099	1067.6
1015.391	1057.66
1015.683	1066.47
1015.976	1081.84
1016.268	1033.7
1016.56	1055.4
1016.851	1022.63
1017.143	1040.48
1017.435	1034.38
1017.727	1016.75
1018.018	1006.58
1018.31	1028.28
1018.602	1007.26
1018.893	999.13
1019.185	1009.07
1019.476	972.01
1019.767	983.76
1020.058	981.27
1020.35	940.82
1020.641	970.65
1020.932	960.94
1021.223	940.6
1021.514	946.7
1021.804	959.81
1022.095	925.91
1022.386	938.79
1022.677	920.03
1022.967	936.98
1023.258	926.36
1023.548	920.48
1023.839	899.47
1024.129	911.44
1024.419	896.53
1024.709	889.07
1025	886.13
1025.29	894.95
1025.58	872.35
1025.87	873.48
1026.16	873.03
1026.449	858.79
1026.739	865.8
1027.029	859.02
1027.319	838.23
1027.608	870.09
1027.898	832.8
1028.187	831.22
1028.477	832.58
1028.766	811.33
1029.055	815.18
1029.344	819.02
1029.634	811.33
1029.923	812.46
1030.212	836.87
1030.501	794.84
1030.79	777.66
1031.078	785.8
1031.367	786.25
1031.656	798.23
1031.945	790.77
1032.233	779.92
1032.522	758
1032.81	756.42
1033.099	755.06
1033.387	736.08
1033.675	758.91
1033.963	740.38
1034.251	739.25
1034.54	735.86
1034.828	729.75
1035.116	727.27
1035.403	717.33
1035.691	725.24
1035.979	728.85
1036.267	736.53
1036.554	732.69
1036.842	715.07
1037.129	722.07
1037.417	724.33
1037.704	715.29
1037.992	710.09
1038.279	699.93
1038.566	675.52
1038.853	675.52
1039.14	675.52
