Data from foam2_polystyrene_foam_FLMS001491_00046.txt Node
Date: Wed Feb 08 10:58:01 GMT 2017
User: dcchb
Spectrometer: FLMS00149
Trigger mode: 0
Integration Time (sec): 2.000000E-2
Scans to average: 10
Electric dark correction enabled: true
Nonlinearity correction enabled: false
Boxcar width: 0
XAxis mode: Wavelengths
Number of Pixels in Spectrum: 2048
>>>>>Begin Spectral Data<<<<<
341.393	-14.31
341.776	-14.31
342.16	-14.31
342.543	-66.74
342.927	-61.99
343.31	-76.45
343.693	-68.32
344.077	-59.96
344.46	-63.35
344.843	-54.08
345.226	-54.08
345.61	-0.52
345.993	-9.11
346.376	-10.24
346.759	-5.49
347.142	15.75
347.525	58.91
347.908	52.58
348.291	56.2
348.674	116.76
349.057	101.4
349.44	121.73
349.823	144.56
350.206	165.12
350.588	218.68
350.971	220.71
351.354	253.71
351.737	246.93
352.119	272.46
352.502	282.86
352.884	277.66
353.267	315.4
353.65	288.96
354.032	316.08
354.414	318.11
354.797	339.13
355.179	330.99
355.562	351.33
355.944	349.98
356.326	341.16
356.709	337.55
357.091	353.59
357.473	378
357.855	343.2
358.238	361.05
358.62	381.16
359.002	366.47
359.384	378.68
359.766	343.2
360.148	362.86
360.53	373.7
360.912	339.36
361.294	361.28
361.676	363.99
362.057	341.16
362.439	373.03
362.821	352.69
363.203	353.59
363.584	361.28
363.966	341.16
364.348	349.52
364.729	345.68
365.111	366.02
365.493	379.35
365.874	357.89
366.256	356.98
366.637	335.29
367.019	339.58
367.4	333.03
367.781	338.23
368.163	329.19
368.544	349.07
368.925	363.54
369.306	361.05
369.688	347.49
370.069	361.05
370.45	338.23
370.831	359.92
371.212	367.15
371.593	382.29
371.974	366.25
372.355	387.26
372.736	360.37
373.117	384.1
373.498	376.19
373.879	378
374.26	367.6
374.641	364.89
375.021	366.47
375.402	379.13
375.783	372.12
376.163	410.77
376.544	394.27
376.925	428.39
377.305	391.56
377.686	378.68
378.066	394.5
378.447	406.7
378.827	401.73
379.208	416.19
379.588	407.15
379.968	406.25
380.349	410.09
380.729	427.94
381.109	425.68
381.489	418
381.87	423.42
382.25	437.21
382.63	441.05
383.01	439.01
383.39	434.27
383.77	452.35
384.15	455.28
384.53	448.96
384.91	459.58
385.29	468.62
385.67	453.7
386.049	460.48
386.429	432.23
386.809	479.46
387.189	473.82
387.568	491.89
387.948	487.37
388.328	503.64
388.707	495.28
389.087	512.23
389.466	509.07
389.846	505.23
390.225	504.1
390.605	524.21
390.984	519.01
391.363	526.92
391.743	522.85
392.122	557.43
392.501	528.5
392.881	539.58
393.26	547.03
393.639	558.11
394.018	561.72
394.397	549.29
394.776	556.75
395.155	549.75
395.534	583.42
395.913	587.26
396.292	585.68
396.671	571.89
397.05	598.78
397.429	602.63
397.808	615.28
398.186	606.69
398.565	603.98
398.944	603.76
399.323	626.81
399.701	627.26
400.08	641.04
400.458	665.9
400.837	638.56
401.215	666.35
401.594	660.48
401.972	682.4
402.351	671.32
402.729	673.13
403.107	676.75
403.486	677.43
403.864	715.84
404.242	723.07
404.62	714.94
404.999	708.16
405.377	723.07
405.755	730.76
406.133	724.66
406.511	724.43
406.889	748.61
407.267	804.43
407.645	745.67
408.023	784.54
408.401	776.41
408.779	810.3
409.156	829.51
409.534	820.47
409.912	843.07
410.29	827.25
410.667	848.04
411.045	876.06
411.422	877.65
411.8	897.53
412.178	897.53
412.555	892.11
412.933	914.48
413.31	919
413.687	942.5
414.065	940.24
414.442	953.58
414.819	975.04
415.197	950.86
415.574	1010.98
415.951	1000.81
416.328	1021.37
416.705	1037.42
417.082	1026.57
417.46	1024.54
417.837	1054.36
418.214	1073.8
418.591	1071.31
418.967	1070.86
419.344	1092.56
419.721	1097.3
420.098	1100.01
420.475	1107.7
420.852	1121.48
421.228	1148.37
421.605	1156.96
421.982	1154.7
422.358	1168.49
422.735	1224.76
423.111	1190.18
423.488	1192.21
423.864	1201.93
424.241	1252.55
424.617	1259.78
424.994	1268.14
425.37	1286
425.746	1270.18
426.123	1282.61
426.499	1317.86
426.875	1339.1
427.251	1361.25
427.627	1374.81
428.003	1359.44
428.379	1383.85
428.756	1411.87
429.132	1458.42
429.507	1452.32
429.883	1451.42
430.259	1510.85
430.635	1510.4
431.011	1519.21
431.387	1584.52
431.763	1571.87
432.138	1586.78
432.514	1619.55
432.89	1627.01
433.265	1688.47
433.641	1677.4
434.016	1679.66
434.392	1697.74
434.767	1758.08
435.143	1774.8
435.518	1765.53
435.894	1800.79
436.269	1814.34
436.644	1837.4
437.02	1850.05
437.395	1875.81
437.77	1893.66
438.145	1932.08
438.52	1928.69
438.895	1986.77
439.271	1979.76
439.646	2015.92
440.021	2036.26
440.395	2043.72
440.77	2040.1
441.145	2101.34
441.52	2109.03
441.895	2109.48
442.27	2148.12
442.645	2140.44
443.019	2166.65
443.394	2203.71
443.769	2218.85
444.143	2162.58
444.518	2238.97
444.892	2252.3
445.267	2231.06
445.641	2283.94
446.016	2299.53
446.39	2362.35
446.764	2332.75
447.139	2367.55
447.513	2379.98
447.887	2386.99
448.262	2414.33
448.636	2410.26
449.01	2454.1
449.384	2497.72
449.758	2476.7
450.132	2551.73
450.506	2538.17
450.88	2552.18
451.254	2572.97
451.628	2634.21
452.002	2631.72
452.376	2663.14
452.75	2685.28
453.123	2682.57
453.497	2746.07
453.871	2765.05
454.244	2812.51
454.618	2815.22
454.992	2896.8
455.365	2871.72
455.739	2950.59
456.112	2989.46
456.486	2992.85
456.859	3020.19
457.232	3097.7
457.606	3083.69
457.979	3133.63
458.352	3168.43
458.725	3208.43
459.099	3214.53
459.472	3303.57
459.845	3356.68
460.218	3363.23
460.591	3374.76
460.964	3412.5
461.337	3494.53
461.71	3564.58
462.083	3600.74
462.456	3617.91
462.829	3631.7
463.201	3670.79
463.574	3690.91
463.947	3731.36
464.32	3812.94
464.692	3857.23
465.065	3894.74
465.438	3985.36
465.81	4014.51
466.183	4066.49
466.555	4107.39
466.928	4157.79
467.3	4139.71
467.672	4235.98
468.045	4367.5
468.417	4351.23
468.789	4388.06
469.161	4470.77
469.534	4496.08
469.906	4658.56
470.278	4643.42
470.65	4702.86
471.022	4830.08
471.394	4908.95
471.766	4930.87
472.138	4992.79
472.51	5102.62
472.882	5171.54
473.253	5247.25
473.625	5323.63
473.997	5431.42
474.369	5407.02
474.74	5520.46
475.112	5667.8
475.484	5717.97
475.855	5848.82
476.227	5893.79
476.598	6064.18
476.97	6055.36
477.341	6185.53
477.713	6340.55
478.084	6358.18
478.455	6501.23
478.827	6597.27
479.198	6749.13
479.569	6718.4
479.94	6919.97
480.311	7024.15
480.682	7203.36
481.053	7323.13
481.424	7482.9
481.795	7502.78
482.166	7634.3
482.537	7775.54
482.908	7921.08
483.279	7980.51
483.65	8158.58
484.021	8317.45
484.391	8391.8
484.762	8451.46
485.133	8540.95
485.503	8714.73
485.874	8929.41
486.244	8996.08
486.615	9144.55
486.985	9255.51
487.356	9436.74
487.726	9535.5
488.097	9704.31
488.467	9715.83
488.837	9931.19
489.207	10140
489.578	10239.43
489.948	10304.74
490.318	10462.93
490.688	10551.97
491.058	10692.98
491.428	10818.85
491.798	10932.52
492.168	11176.36
492.538	11225.17
492.908	11321.89
493.278	11460.42
493.648	11513.3
494.017	11709
494.387	11781.09
494.757	11932.05
495.126	11997.81
495.496	12148.08
495.866	12189.21
496.235	12346.95
496.605	12501.75
496.974	12491.8
497.344	12571.58
497.713	12772.02
498.082	12862.42
498.452	13040.49
498.821	13141.28
499.19	13193.48
499.559	13305.79
499.928	13330.88
500.298	13418.79
500.667	13613.81
501.036	13532.68
501.405	13758.66
501.774	13811.09
502.143	13937.19
502.512	14009.05
502.88	14148.26
503.249	14129.95
503.618	14318.42
503.987	14377.18
504.356	14425.76
504.724	14529.26
505.093	14618.75
505.462	14708.92
505.83	14787.56
506.199	14984.17
506.567	15199.98
506.936	15101.68
507.304	15386.64
507.672	15446.08
508.041	15494.66
508.409	15624.38
508.777	15789.34
509.145	15966.97
509.514	15931.49
509.882	16051.03
510.25	16206.28
510.618	16323.79
510.986	16392.04
511.354	16516.56
511.722	16689.21
512.09	16877.23
512.458	16938.69
512.826	17023.21
513.193	17022.31
513.561	17159.25
513.929	17448.96
514.297	17556.08
514.664	17645.12
515.032	17702.74
515.4	17903.64
515.767	18005.33
516.135	18194.71
516.502	18121.71
516.869	18379.11
517.237	18553.34
517.604	18459.56
517.972	18726.89
518.339	18742.04
518.706	18974.57
519.073	19001.01
519.44	19176.83
519.808	19442.58
520.175	19390.61
520.542	19734.33
520.909	19825.62
521.276	19888.9
521.643	20096.35
522.009	20215.22
522.376	20349.45
522.743	20540.18
523.11	20731.14
523.477	20986.27
523.843	21068.08
524.21	21230.11
524.577	21456.09
524.943	21587.38
525.31	21701.96
525.676	21937.88
526.043	22176.97
526.409	22162.51
526.776	22429.62
527.142	22429.17
527.508	22667.58
527.874	22881.59
528.241	22917.07
528.607	23107.57
528.973	23361.58
529.339	23437.05
529.705	23579.2
530.071	23755.46
530.437	23880.66
530.803	24083.59
531.169	24163.81
531.535	24290.14
531.901	24349.8
532.267	24576.23
532.632	24718.38
532.998	24803.57
533.364	24863.68
533.73	24977.13
534.095	25228.64
534.461	25388.41
534.826	25458.02
535.192	25561.07
535.557	25723.09
535.923	25735.98
536.288	25836.99
536.653	25995.63
537.019	26012.58
537.384	26036.31
537.749	26132.58
538.114	26278.56
538.479	26325.56
538.845	26542.28
539.21	26529.4
539.575	26731.66
539.94	26751.54
540.305	26907.24
540.67	26999.45
541.034	26975.72
541.399	27233.79
541.764	27294.58
542.129	27441.02
542.494	27483.27
542.858	27722.36
543.223	27646.21
543.587	27905.64
543.952	27843.49
544.316	27972.53
544.681	27986.76
545.045	28120.09
545.41	28245.74
545.774	28289.13
546.138	28390.6
546.503	28545.85
546.867	28606.18
547.231	28852.28
547.595	28783.81
547.959	28996.46
548.324	29018.6
548.688	29121.88
549.052	29291.14
549.416	29398.48
549.779	29391.92
550.143	29432.83
550.507	29553.28
550.871	29587.85
551.235	29741.75
551.599	29964.34
551.962	29869.2
552.326	30128.63
552.689	30183.09
553.053	30165.69
553.417	30374.27
553.78	30636.19
554.143	30537.88
554.507	30680.03
554.87	30872.79
555.234	31181.03
555.597	31027.36
555.96	31177.41
556.323	31315.49
556.686	31433.45
557.05	31681.13
557.413	31767.68
557.776	31742.82
558.139	31994.57
558.502	32098.52
558.865	32247.67
559.228	32394.56
559.59	32514.78
559.953	32652.63
560.316	33062.34
560.679	33032.96
561.041	33248.09
561.404	33236.12
561.767	33452.16
562.129	33463.91
562.492	33867.51
562.854	33835.88
563.217	34103.67
563.579	34300.5
563.941	34357.22
564.304	34531
564.666	34744.33
565.028	34686.47
565.39	34745.68
565.753	34996.52
566.115	35090.53
566.477	35307.25
566.839	35353.8
567.201	35559.45
567.563	35598.77
567.925	35747.46
568.287	35896.39
568.648	36088.47
569.01	36261.57
569.372	36423.38
569.734	36361.46
570.095	36663.82
570.457	36771.62
570.819	36964.16
571.18	36948.56
571.542	37055.45
571.903	37123.93
572.265	37407.31
572.626	37310.36
572.987	37607.53
573.349	37575.21
573.71	37715.77
574.071	37906.96
574.432	37937.91
574.794	38239.83
575.155	38099.27
575.516	38146.95
575.877	38283.44
576.238	38410.67
576.599	38588.29
576.96	38424.68
577.32	38543.32
577.681	38594.39
578.042	38744.45
578.403	38720.27
578.763	38824.67
579.124	38955.97
579.485	38985.8
579.845	39191.22
580.206	38986.25
580.566	39037.77
580.927	39106.92
581.287	39414.94
581.648	39023.76
582.008	39359.35
582.368	39172.68
582.728	39375.62
583.089	39291.1
583.449	39351.21
583.809	39431.66
584.169	39393.47
584.529	39519.34
584.889	39547.82
585.249	39516.18
585.609	39223.76
585.969	39586.69
586.329	39512.56
586.688	39660.36
587.048	39569.28
587.408	39484.99
587.768	39470.3
588.127	39681.82
588.487	39515.05
588.846	39802.72
589.206	39497.65
589.565	39510.53
589.925	39743.52
590.284	39614.93
590.643	39725.44
591.003	39609.96
591.362	39762.73
591.721	39829.16
592.08	39707.36
592.44	39896.51
592.799	39831.88
593.158	39692.9
593.517	39694.03
593.876	39881.59
594.235	39812.44
594.593	39923.63
594.952	39813.57
595.311	39737.87
595.67	39954.13
596.029	40083.62
596.387	39816.74
596.746	40069.84
597.104	39870.52
597.463	39898.77
597.822	39998.2
598.18	39903.06
598.538	39864.19
598.897	40129.95
599.255	39852.21
599.613	40248.36
599.972	40104.64
600.33	40339.89
600.688	40118.42
601.046	40300.56
601.404	40448.81
601.762	40409.04
602.12	40500.11
602.478	40467.79
602.836	40528.13
603.194	40345.76
603.552	40487
603.91	40419.66
604.268	40581.91
604.625	40181.7
604.983	40696.26
605.341	40404.29
605.698	40647.9
606.056	40757.5
606.413	40605.87
606.771	40905.07
607.128	40876.59
607.485	40698.75
607.843	40898.97
608.2	41021.9
608.557	41209.24
608.914	40910.49
609.272	41207.21
609.629	41286.3
609.986	41352.97
610.343	41188.22
610.7	41462.34
611.057	41333.98
611.414	41374.66
611.771	41466.18
612.127	41702.34
612.484	41561.77
612.841	41728.78
613.198	41488.78
613.554	41462.79
613.911	41640.42
614.267	41614.88
614.624	41476.13
614.98	41759.28
615.337	41871.37
615.693	41950.46
616.05	41815.33
616.406	42091.93
616.762	41871.37
617.118	42026.62
617.475	41960.86
617.831	41964.25
618.187	42124.25
618.543	42186.84
618.899	42396.78
619.255	42144.81
619.611	42191.36
619.967	42238.59
620.323	42297.35
620.678	42257.12
621.034	42253.28
621.39	42309.55
621.746	42099.61
622.101	42471.81
622.457	42132.15
622.812	42327.18
623.168	42472.03
623.523	42337.8
623.879	42435.65
624.234	42206.96
624.589	42444.24
624.945	42505.48
625.3	42582.99
625.655	42541.64
626.01	42578.92
626.365	42497.57
626.72	42326.27
627.075	42303.9
627.43	42364.24
627.785	42233.17
628.14	42477.91
628.495	42357.69
628.85	42310.68
629.205	42207.41
629.559	42397.91
629.914	42389.78
630.269	42291.7
630.623	42139.84
630.978	41955.44
631.332	42234.53
631.687	42130.12
632.041	42068.88
632.396	42135.77
632.75	41912.05
633.104	41955.21
633.459	41829.79
633.813	41913.4
634.167	41821.43
634.521	41924.7
634.875	41834.31
635.229	41736.91
635.583	41484.71
635.937	41592.28
636.291	41512.96
636.645	41545.5
636.999	41317.26
637.352	41525.39
637.706	41332.85
638.06	41399.97
638.413	41281.78
638.767	41193.65
639.121	41381.89
639.474	41069.13
639.828	41096.93
640.181	40917.72
640.534	41029.36
640.888	40881.11
641.241	40703.27
641.594	40813.55
641.947	40908.46
642.301	40760.67
642.654	40868.23
643.007	40757.5
643.36	40597.73
643.713	40703.94
644.066	40749.14
644.419	40495.59
644.771	39978.99
645.124	39991.65
645.477	39786.91
645.83	39530.42
646.182	39311.66
646.535	39270.08
646.888	39198.22
647.24	39075.96
647.593	39293.13
647.945	39234.83
648.298	38834.39
648.65	38888.4
649.002	38725.24
649.355	38958.45
649.707	38895.18
650.059	39012.91
650.411	39287.71
650.763	39564.76
651.115	39882.27
651.467	39771.54
651.819	39696.96
652.171	39589.17
652.523	39648.38
652.875	39588.27
653.227	39332.45
653.578	39466.91
653.93	39404.09
654.282	39330.87
654.633	39236.19
654.985	39259.46
655.337	39097.88
655.688	39172.91
656.039	39153.7
656.391	38941.28
656.742	39046.13
657.094	39149.18
657.445	39181.05
657.796	39138.34
658.147	38943.09
658.498	38927.72
658.849	39065.12
659.2	38888.85
659.551	39013.59
659.902	38978.79
660.253	39057.89
660.604	39007.27
660.955	38847.04
661.306	38906.93
661.656	38827.38
662.007	38917.78
662.358	38814.73
662.708	38849.3
663.059	38788.51
663.409	38671.68
663.76	38782.86
664.11	38723.88
664.461	38713.49
664.811	38687.05
665.161	38731.11
665.511	38669.87
665.862	38532.48
666.212	38567.95
666.562	38655.86
666.912	38664.9
667.262	38524.34
667.612	38521.18
667.962	38613.83
668.312	38453.38
668.662	38652.02
669.011	38468.75
669.361	38371.12
669.711	38388.98
670.06	38484.12
670.41	38338.81
670.76	38249.55
671.109	38387.62
671.459	38445.25
671.808	38376.55
672.157	38571.57
672.507	38364.8
672.856	38227.85
673.205	38200.96
673.554	38395.08
673.904	38302.43
674.253	38420.39
674.602	38322.31
674.951	37710.58
675.3	37410.7
675.649	38068.76
675.998	38011.81
676.346	37905.37
676.695	38125.25
677.044	37798.94
677.393	38027.63
677.741	37968.87
678.09	37946.95
678.438	37814.08
678.787	37759.39
679.135	37902.66
679.484	37596.45
679.832	37675.55
680.181	37405.27
680.529	37690.92
680.877	37504.25
681.225	37531.37
681.573	37726.17
681.922	37537.93
682.27	37351.94
682.618	37398.27
682.966	37397.14
683.314	37416.57
683.661	37184.04
684.009	36936.81
684.357	36868.79
684.705	36842.12
685.053	36873.99
685.4	36685.29
685.748	36745.63
686.095	36494.34
686.443	36580.66
686.79	36627.44
687.138	36469.03
687.485	36397.62
687.832	36351.52
688.18	36354.45
688.527	36091.86
688.874	36044.86
689.221	36074.24
689.568	35979.55
689.915	35864.52
690.262	35828.14
690.609	35708.37
690.956	35573.91
691.303	35416.63
691.65	35415.95
691.997	35351.99
692.344	35131.21
692.69	35298.66
693.037	35084.88
693.383	34964.89
693.73	35033.36
694.077	34680.15
694.423	34804.44
694.769	34659.58
695.116	34540.72
695.462	34494.39
695.808	34401.28
696.155	34497.55
696.501	34134.17
696.847	34176.88
697.193	33956.55
697.539	34135.75
697.885	33872.94
698.231	33769.21
698.577	33833.84
698.923	33771.24
699.269	33670.68
699.614	33483.12
699.96	33477.92
700.306	33445.38
700.651	33211.94
700.997	33202.9
701.342	32994.99
701.688	33116.8
702.033	33016.24
702.379	32867.99
702.724	32889.46
703.069	32854.43
703.415	32616.02
703.76	32540.99
704.105	32614.89
704.45	32588
704.795	32319.76
705.14	32298.29
705.485	32297.39
705.83	32136.94
706.175	32113.66
706.52	31963.16
706.865	31804.06
707.209	31733.11
707.554	31607.91
707.899	31658.31
708.243	31537.41
708.588	31454.02
708.932	31239.79
709.277	31279.11
709.621	31263.51
709.966	31070.98
710.31	31143.29
710.654	30821.94
710.998	30905.78
711.342	30836.41
711.687	30837.31
712.031	30694.94
712.375	30506.25
712.719	30546.92
713.063	30494.72
713.407	30734.04
713.75	30423.54
714.094	30394.16
714.438	30287.49
714.782	30391.22
715.125	30142.19
715.469	30294.27
715.812	30054.96
716.156	29821.52
716.499	29907.62
716.843	29943.55
717.186	29757.34
717.53	29846.38
717.873	29863.1
718.216	29689.32
718.559	29544.01
718.902	29392.83
719.246	29440.74
719.589	29435.99
719.932	29230.8
720.275	29300.4
720.617	29276.22
720.96	29231.93
721.303	29118.03
721.646	29249.33
721.989	28906.06
722.331	29051.37
722.674	28958.72
723.016	28912.84
723.359	28873.97
723.701	28863.35
724.044	28754.43
724.386	28516.24
724.729	28756.01
725.071	28508.56
725.413	28540.42
725.755	28470.14
726.097	28468.11
726.439	28310.6
726.782	28273.31
727.124	28477.6
727.465	28281.67
727.807	28153.31
728.149	28088.23
728.491	28107.66
728.833	28079.64
729.175	27995.58
729.516	27981.34
729.858	27840.1
730.199	27842.59
730.541	27777.96
730.882	27769.14
731.224	27872.87
731.565	27716.71
731.906	27610.05
732.248	27754.23
732.589	27557.4
732.93	27546.78
733.271	27475.82
733.612	27534.12
733.953	27390.85
734.294	27309.49
734.635	27277.63
734.976	27437.17
735.317	27163.06
735.658	27038.31
735.999	27072.89
736.339	27047.13
736.68	27068.82
737.021	26977.3
737.361	26837.42
737.702	27001.25
738.042	26844.65
738.383	26821.15
738.723	26917.87
739.063	26681.71
739.404	26887.58
739.744	26652.34
740.084	26544.77
740.424	26506.13
740.764	26500.25
741.104	26641.49
741.444	26450.08
741.784	26335.28
742.124	26419.57
742.464	26347.71
742.804	26260.26
743.143	26189.52
743.483	26344.32
743.823	26206.25
744.162	26179.58
744.502	26195.85
744.841	26095.74
745.181	26126.7
745.52	25990.21
745.86	25960.15
746.199	25902.07
746.538	25874.05
746.877	25924.45
747.216	25943.65
747.556	25725.13
747.895	25868.85
748.234	25656.66
748.573	25641.97
748.911	25561.97
749.25	25746.82
749.589	25476.1
749.928	25401.75
750.267	25462.99
750.605	25386.61
750.944	25370.11
751.283	25206.05
751.621	25293.05
751.96	25100.74
752.298	25157.23
752.636	25074.3
752.975	24887.18
753.313	24949.1
753.651	24977.13
753.989	24831.14
754.327	24776.45
754.666	24723.12
755.004	24770.35
755.342	24690.58
755.679	24705.04
756.017	24281.55
756.355	24582.11
756.693	24374.43
757.031	24319.97
757.368	24194.1
757.706	24117.94
758.044	24074.55
758.381	24134.21
758.719	23968.56
759.056	24028.45
759.394	23931.28
759.731	23800.21
760.068	23684.5
760.405	23731.73
760.743	23599.31
761.08	23650.61
761.417	23484.74
761.754	23394.79
762.091	23449.03
762.428	23223.73
762.765	23195.48
763.102	23276.83
763.438	23119.77
763.775	22995.26
764.112	23030.74
764.449	22920.23
764.785	22816.96
765.122	22705.77
765.458	22674.81
765.795	22671.88
766.131	22545.33
766.467	22489.96
766.804	22432.11
767.14	22341.04
767.476	22278.89
767.812	22271.43
768.148	22308.04
768.485	22071.89
768.821	21932.91
769.157	21941.05
769.492	21871.67
769.828	21819.02
770.164	21589.19
770.5	21477.56
770.836	21633.03
771.171	21374.51
771.507	21519.36
771.842	21174.06
772.178	21342.19
772.513	21267.84
772.849	21166.6
773.184	21073.5
773.519	20975.42
773.855	20937.01
774.19	20732.49
774.525	20691.14
774.86	20812.72
775.195	20570.24
775.53	20673.51
775.865	20363.01
776.2	20296.12
776.535	20179.06
776.87	20217.48
777.205	20150.59
777.539	20010.7
777.874	19951.27
778.209	19876.92
778.543	19907.43
778.878	19672.63
779.212	19689.81
779.547	19636.93
779.881	19612.97
780.215	19510.83
780.55	19526.65
780.884	19395.8
781.218	19428.8
781.552	19350.38
781.886	19249.37
782.22	19195.58
782.554	19077.62
782.888	18919.88
783.222	18924.4
783.556	18828.36
783.889	18778.42
784.223	18769.38
784.557	18712.88
784.89	18683.28
785.224	18556.5
785.557	18407.58
785.891	18453.68
786.224	18417.52
786.558	18342.72
786.891	18166.23
787.224	18174.14
787.557	18033.58
787.891	18016.86
788.224	18053.69
788.557	17986.35
788.89	17905.67
789.223	17855.05
789.556	17726.24
789.888	17708.84
790.221	17656.64
790.554	17470.88
790.887	17559.24
791.219	17443.76
791.552	17449.19
791.884	17194.05
792.217	17198.57
792.549	17122.87
792.882	17123.09
793.214	16971.01
793.546	17030.44
793.879	16912.03
794.211	16806.04
794.543	16898.47
794.875	16726.5
795.207	16775.08
795.539	16693.28
795.871	16707.74
796.203	16614.41
796.535	16454.19
796.867	16463.23
797.198	16391.81
797.53	16339.61
797.862	16339.16
798.193	16313.4
798.525	16085.16
798.856	16166.96
799.188	16118.15
799.519	15952.05
799.85	15844.26
800.182	15904.37
800.513	15900.08
800.844	15725.17
801.175	15916.12
801.506	15829.34
801.837	15651.72
802.168	15702.12
802.499	15658.73
802.83	15517.49
803.161	15445.85
803.491	15462.12
803.822	15464.16
804.153	15380.09
804.483	15203.15
804.814	15199.08
805.145	15250.15
805.475	15142.58
805.805	15108.01
806.136	15080.89
806.466	15004.96
806.796	14930.61
807.126	14948.01
807.457	14792.08
807.787	14819.65
808.117	14820.33
808.447	14714.8
808.777	14750.73
809.107	14681.58
809.436	14616.95
809.766	14619.66
810.096	14692.2
810.426	14551.19
810.755	14626.66
811.085	14433.22
811.414	14514.35
811.744	14441.36
812.073	14367.01
812.403	14444.3
812.732	14238.43
813.061	14283.4
813.39	14307.8
813.719	14197.97
814.049	14265.77
814.378	14217.18
814.707	14054.93
815.036	14103.06
815.365	13994.59
815.693	13842.05
816.022	13900.13
816.351	13880.47
816.68	13812
817.008	13794.59
817.337	13661.49
817.665	13644.32
817.994	13703.98
818.322	13661.72
818.651	13624.88
818.979	13561.83
819.307	13686.8
819.636	13586.24
819.964	13426.69
820.292	13486.81
820.62	13510.76
820.948	13501.5
821.276	13552.79
821.604	13362.74
821.932	13520.03
822.259	13541.95
822.587	13478.9
822.915	13391.44
823.243	13351.67
823.57	13416.98
823.898	13448.16
824.225	13369.52
824.553	13402.51
824.88	13325.91
825.207	13342.4
825.535	13344.66
825.862	13479.12
826.189	13385.79
826.516	13472.12
826.843	13464.89
827.17	13454.72
827.497	13422.4
827.824	13430.31
828.151	13453.13
828.478	13421.72
828.805	13510.99
829.131	13407.26
829.458	13411.78
829.785	13273.93
830.111	13393.48
830.438	13373.36
830.764	13382.4
831.09	13333.82
831.417	13292.69
831.743	13333.14
832.069	13322.52
832.395	13284.33
832.722	13299.24
833.048	13258.56
833.374	13278
833.7	13263.08
834.026	13281.39
834.351	13251.56
834.677	13208.85
835.003	13209.07
835.329	13135.86
835.654	13201.39
835.98	13106.48
836.306	13107.83
836.631	13113.93
836.956	13138.12
837.282	13121.84
837.607	13113.93
837.932	12996.42
838.258	13034.39
838.583	12953.71
838.908	12994.16
839.233	12945.35
839.558	12871.46
839.883	12842.76
840.208	12777.9
840.533	12802.53
840.858	12807.95
841.182	12839.37
841.507	12798.24
841.832	12741.97
842.156	12714.4
842.481	12690.9
842.805	12657.22
843.13	12638.47
843.454	12689.99
843.778	12606.15
844.103	12564.8
844.427	12509.66
844.751	12658.35
845.075	12466.04
845.399	12437.57
845.723	12392.82
846.047	12413.84
846.371	12250.68
846.695	12359.6
847.019	12187.86
847.343	12177.24
847.666	12043
847.99	11994.42
848.313	12037.35
848.637	11908.77
848.96	11854.76
849.284	11858.15
849.607	11817.92
849.931	11730.24
850.254	11644.59
850.577	11544.26
850.9	11485.5
851.223	11509.91
851.546	11455.22
851.869	11414.77
852.192	11443.7
852.515	11244.83
852.838	11340.2
853.161	11189.24
853.483	11160.77
853.806	11179.75
854.129	11157.83
854.451	11014.33
854.774	11031.96
855.096	11011.84
855.419	10976.82
855.741	10906.99
856.063	10859.53
856.385	10852.53
856.708	10856.82
857.03	10874.22
857.352	10825.41
857.674	10809.14
857.996	10710.16
858.318	10769.59
858.64	10699.99
858.961	10572.31
859.283	10595.81
859.605	10547.9
859.926	10533.21
860.248	10512.42
860.57	10521.91
860.891	10474.46
861.212	10487.34
861.534	10400.33
861.855	10478.07
862.176	10425.19
862.498	10404.85
862.819	10389.26
863.14	10320.79
863.461	10333.44
863.782	10242.15
864.103	10232.88
864.424	10234.01
864.745	10300.68
865.065	10261.58
865.386	10215.25
865.707	10218.42
866.027	10208.25
866.348	10168.25
866.668	10171.87
866.989	10245.08
867.309	10082.83
867.63	10165.09
867.95	10156.27
868.27	10102.26
868.59	10107.46
868.91	10057.74
869.23	10077.86
869.55	9958.31
869.87	10073.34
870.19	9933.45
870.51	9992.66
870.83	10054.35
871.15	9886.22
871.469	9914.02
871.789	9940.46
872.109	9916.05
872.428	9818.43
872.748	9886
873.067	9806.9
873.386	9893.68
873.706	9802.84
874.025	9772.33
874.344	9730.52
874.663	9801.93
874.982	9772.33
875.301	9786.56
875.62	9717.19
875.939	9622.05
876.258	9710.18
876.577	9750.41
876.896	9657.53
877.214	9647.59
877.533	9652.78
877.852	9677.19
878.17	9621.82
878.489	9615.27
878.807	9570.98
879.125	9542.05
879.444	9521.03
879.762	9508.38
880.08	9456.86
880.398	9474.48
880.716	9443.07
881.034	9426.12
881.352	9428.61
881.67	9355.39
881.988	9412.34
882.306	9363.07
882.624	9350.64
882.941	9327.14
883.259	9277.65
883.577	9320.36
883.894	9310.87
884.212	9257.09
884.529	9169.63
884.846	9134.6
885.164	9130.76
885.481	9211.66
885.798	9172.8
886.115	9123.76
886.432	9112.01
886.75	9082.63
887.067	9060.03
887.383	9065.68
887.7	9050.54
888.017	8965.8
888.334	9048.73
888.651	8919.69
888.967	8958.34
889.284	8888.51
889.6	8870.2
889.917	8774.84
890.233	8811.68
890.55	8740.26
890.866	8786.82
891.182	8741.85
891.498	8749.53
891.815	8716.31
892.131	8632.02
892.447	8681.96
892.763	8593.15
893.079	8624.34
893.395	8596.31
893.71	8588.63
894.026	8579.82
894.342	8487.39
894.657	8415.3
894.973	8396.54
895.289	8393.83
895.604	8448.07
895.92	8343.21
896.235	8346.83
896.55	8366.26
896.865	8309.99
897.181	8305.02
897.496	8306.15
897.811	8168.3
898.126	8131.24
898.441	8146.61
898.756	8150.9
899.071	8032.03
899.386	8034.52
899.7	8035.42
900.015	7989.55
900.33	8002.88
900.644	7903.22
900.959	7868.2
901.273	7932.6
901.588	7882.66
901.902	7852.83
902.216	7772.15
902.531	7808.09
902.845	7782.55
903.159	7766.28
903.473	7629.33
903.787	7690.12
904.101	7632.72
904.415	7655.55
904.729	7564.02
905.042	7532.84
905.356	7465.72
905.67	7545.95
905.984	7507.98
906.297	7483.35
906.611	7422.56
906.924	7325.16
907.237	7447.64
907.551	7285.61
907.864	7298.27
908.177	7293.75
908.491	7208.33
908.804	7186.86
909.117	7206.29
909.43	7110.02
909.743	7100.31
910.056	7077.03
910.368	7089.91
910.681	7006.75
910.994	6996.81
911.307	7006.52
911.619	6904.83
911.932	6901.67
912.244	6871.39
912.557	6868.22
912.869	6772.41
913.181	6831.16
913.494	6791.39
913.806	6729.24
914.118	6721.33
914.43	6618.74
914.742	6673.65
915.054	6598.63
915.366	6558.18
915.678	6515.46
915.99	6551.62
916.302	6515.46
916.613	6513.66
916.925	6445.64
917.236	6425.52
917.548	6413.55
917.859	6351.4
918.171	6319.76
918.482	6315.24
918.794	6299.42
919.105	6301.01
919.416	6213.78
919.727	6195.7
920.038	6224.17
920.349	6198.86
920.66	6170.16
920.971	6121.12
921.282	6110.28
921.593	6064.63
921.903	6025.99
922.214	6033.9
922.525	6003.61
922.835	6039.32
923.146	5898.53
923.456	5915.93
923.767	5874.58
924.077	5887.01
924.387	5829.38
924.697	5791.87
925.008	5865.31
925.318	5745.77
925.628	5763.62
925.938	5739.44
926.248	5614.25
926.558	5655.83
926.867	5617.18
927.177	5624.87
927.487	5620.57
927.796	5577.86
928.106	5589.61
928.416	5585.32
928.725	5604.3
929.034	5465.32
929.344	5500.58
929.653	5497.19
929.962	5458.77
930.271	5393.91
930.581	5445.21
930.89	5363.4
931.199	5320.47
931.508	5383.97
931.817	5350.52
932.125	5299.9
932.434	5302.84
932.743	5207.48
933.051	5286.34
933.36	5148.27
933.669	5184.88
933.977	5161.38
934.286	5138.55
934.594	5135.84
934.902	5043.64
935.21	5094.26
935.519	5043.86
935.827	5024.66
936.135	4995.05
936.443	4951.89
936.751	4921.83
937.059	4955.51
937.367	4952.79
937.674	4908.95
937.982	4925.9
938.29	4881.16
938.597	4892.46
938.905	4748.28
939.213	4819.69
939.52	4785.79
939.827	4784.66
940.135	4741.27
940.442	4722.74
940.749	4731.1
941.056	4722.07
941.363	4662.86
941.67	4645.23
941.977	4638.68
942.284	4644.78
942.591	4564.1
942.898	4558.45
943.205	4591.45
943.511	4467.16
943.818	4570.2
944.125	4483.65
944.431	4528.17
944.738	4446.82
945.044	4445.91
945.35	4438.68
945.657	4376.09
945.963	4379.7
946.269	4357.55
946.575	4344.67
946.881	4313.94
947.187	4271
947.493	4286.37
947.799	4259.7
948.105	4257.9
948.41	4230.55
948.716	4261.51
949.022	4208.86
949.327	4190.55
949.633	4144.91
949.938	4126.15
950.244	4155.3
950.549	4136.54
950.854	4093.83
951.16	4096.32
951.465	4064.68
951.77	4014.74
952.075	4038.02
952.38	4006.6
952.685	4018.35
952.99	3968.64
953.294	3972.71
953.599	3948.75
953.904	3951.01
954.209	3921.41
954.513	3898.81
954.818	3908.3
955.122	3819.49
955.426	3849.09
955.731	3805.03
956.035	3779.27
956.339	3770.9
956.643	3767.29
956.948	3732.49
957.252	3711.47
957.556	3747.18
957.86	3723.22
958.163	3698.14
958.467	3631.25
958.771	3688.19
959.075	3632.83
959.378	3607.29
959.682	3578.14
959.985	3601.42
960.289	3633.51
960.592	3551.7
960.896	3536.11
961.199	3526.62
961.502	3490.46
961.805	3540.63
962.108	3476.22
962.411	3507.18
962.714	3452.72
963.017	3412.04
963.32	3441.65
963.623	3434.87
963.926	3418.6
964.228	3410.91
964.531	3379.73
964.833	3388.31
965.136	3326.4
965.438	3319.16
965.741	3327.75
966.043	3274.19
966.345	3293.4
966.648	3248.21
966.95	3249.34
967.252	3211.6
967.554	3203.46
967.856	3222.9
968.158	3155.55
968.46	3160.75
968.761	3193.07
969.063	3154.42
969.365	3142.9
969.666	3123.24
969.968	3083.46
970.269	3118.94
970.571	3109
970.872	3060.87
971.174	3051.83
971.475	3087.53
971.776	3010.7
972.077	3031.94
972.378	3022.9
972.679	3064.26
972.98	3026.06
973.281	2990.81
973.582	3009.34
973.883	2953.75
974.183	2886.86
974.484	2935.9
974.785	2925.73
975.085	2871.72
975.386	2928.44
975.686	2864.49
975.986	2883.92
976.287	2890.25
976.587	2836.69
976.887	2863.81
977.187	2793.98
977.487	2805.05
977.787	2789.46
978.087	2775.45
978.387	2763.02
978.687	2794.66
978.987	2719.63
979.286	2730.25
979.586	2720.54
979.885	2708.33
980.185	2676.92
980.484	2719.63
980.784	2686.64
981.083	2659.29
981.382	2663.59
981.682	2662.01
981.981	2625.85
982.28	2601.44
982.579	2617.04
982.878	2610.03
983.177	2587.88
983.475	2573.42
983.774	2562.8
984.073	2550.14
984.372	2526.87
984.67	2519.41
984.969	2495.46
985.267	2522.8
985.566	2483.48
985.864	2442.8
986.162	2473.76
986.461	2455.68
986.759	2465.63
987.057	2420.88
987.355	2432.63
987.653	2420.88
987.951	2373.88
988.249	2393.54
988.547	2369.81
988.844	2344.27
989.142	2356.93
989.44	2333.65
989.737	2311.06
990.035	2344.73
990.332	2332.98
990.63	2284.16
990.927	2321
991.224	2262.69
991.521	2310.15
991.819	2248.23
992.116	2253.43
992.413	2231.28
992.71	2264.28
993.006	2213.2
993.303	2194.22
993.6	2220.21
993.897	2194
994.193	2162.81
994.49	2186.31
994.787	2185.18
995.083	2120.33
995.379	2123.72
995.676	2093.21
995.972	2123.94
996.268	2102.02
996.565	2091.85
996.861	2039.2
997.157	2073.55
997.453	2052.76
997.749	2049.59
998.044	2048.24
998.34	2041.68
998.636	2028.35
998.932	2003.49
999.227	2002.59
999.523	1972.08
999.818	1976.15
1000.114	1970.05
1000.409	1931.18
1000.704	1971.85
1001	1931.4
1001.295	1899.09
1001.59	1913.78
1001.885	1930.73
1002.18	1877.39
1002.475	1872.65
1002.77	1877.17
1003.065	1840.11
1003.359	1852.99
1003.654	1850.05
1003.949	1838.07
1004.243	1856.83
1004.538	1820.67
1004.832	1794.68
1005.127	1817.51
1005.421	1780.45
1005.715	1773.44
1006.009	1785.19
1006.304	1806.89
1006.598	1767.79
1006.892	1740.9
1007.186	1733.22
1007.48	1734.57
1007.773	1721.24
1008.067	1711.97
1008.361	1690.28
1008.655	1689.15
1008.948	1686.44
1009.242	1671.3
1009.535	1699.77
1009.829	1646.89
1010.122	1658.87
1010.415	1631.98
1010.708	1613.45
1011.001	1582.03
1011.295	1607.34
1011.588	1587.91
1011.881	1577.52
1012.173	1556.27
1012.466	1565.99
1012.759	1573.22
1013.052	1533.9
1013.344	1557.63
1013.637	1516.05
1013.93	1534.35
1014.222	1516.73
1014.514	1510.62
1014.807	1521.47
1015.099	1478.53
1015.391	1485.09
1015.683	1469.5
1015.976	1476.95
1016.268	1445.77
1016.56	1449.38
1016.851	1424.75
1017.143	1421.13
1017.435	1439.67
1017.727	1393.79
1018.018	1414.58
1018.31	1401.7
1018.602	1380.01
1018.893	1385.2
1019.185	1354.02
1019.476	1381.14
1019.767	1379.33
1020.058	1344.98
1020.35	1333
1020.641	1325.09
1020.932	1314.92
1021.223	1323.74
1021.514	1307.47
1021.804	1288.03
1022.095	1318.54
1022.386	1276.28
1022.677	1259.33
1022.967	1270.86
1023.258	1231.54
1023.548	1234.7
1023.839	1243.74
1024.129	1226.11
1024.419	1225.21
1024.709	1231.76
1025	1202.16
1025.29	1204.64
1025.58	1213
1025.87	1178.2
1026.16	1174.81
1026.449	1166.68
1026.739	1180.46
1027.029	1147.7
1027.319	1139.79
1027.608	1152.44
1027.898	1135.94
1028.187	1128.04
1028.477	1133.01
1028.766	1135.49
1029.055	1097.75
1029.344	1114.02
1029.634	1085.78
1029.923	1077.87
1030.212	1087.13
1030.501	1078.55
1030.79	1071.31
1031.078	1050.3
1031.367	1049.62
1031.656	1042.61
1031.945	1040.81
1032.233	1020.24
1032.522	1021.6
1032.81	1028.15
1033.099	1003.97
1033.387	988.15
1033.675	995.16
1033.963	993.12
1034.251	962.84
1034.54	981.82
1034.828	970.53
1035.116	979.11
1035.403	950.64
1035.691	948.83
1035.979	948.83
1036.267	941.6
1036.554	930.07
1036.842	950.19
1037.129	927.36
1037.417	904.76
1037.704	907.25
1037.992	925.1
1038.279	909.96
1038.566	877.42
1038.853	877.42
1039.14	877.42
