Data from foam1_polythene_foam_FLMS001491_00054.txt Node
Date: Wed Feb 08 10:55:03 GMT 2017
User: dcchb
Spectrometer: FLMS00149
Trigger mode: 0
Integration Time (sec): 2.000000E-2
Scans to average: 10
Electric dark correction enabled: true
Nonlinearity correction enabled: false
Boxcar width: 0
XAxis mode: Wavelengths
Number of Pixels in Spectrum: 2048
>>>>>Begin Spectral Data<<<<<
341.393	7.91
341.776	7.91
342.16	7.91
342.543	-61.69
342.927	-54.46
343.31	-54.91
343.693	-52.43
344.077	-56.95
344.46	-57.17
344.843	-75.03
345.226	-44.52
345.61	-23.95
345.993	-21.47
346.376	-15.82
346.759	13.56
347.142	7.46
347.525	60.11
347.908	60.11
348.291	67.34
348.674	92.88
349.057	100.79
349.44	127
349.823	163.84
350.206	158.87
350.588	188.24
350.971	211.75
351.354	226.21
351.737	204.29
352.119	239.54
352.502	250.84
352.884	259.2
353.267	269.15
353.65	278.86
354.032	263.04
354.414	300.11
354.797	306.88
355.179	308.01
355.562	316.6
355.944	317.96
356.326	310.73
356.709	333.55
357.091	316.83
357.473	331.97
357.855	331.06
358.238	343.27
358.62	344.4
359.002	325.87
359.384	340.1
359.766	329.26
360.148	349.82
360.53	334.91
360.912	322.7
361.294	323.61
361.676	328.58
362.057	306.66
362.439	327.22
362.821	308.24
363.203	310.73
363.584	291.52
363.966	300.56
364.348	298.75
364.729	303.95
365.111	305.08
365.493	332.19
365.874	279.54
366.256	308.24
366.637	320.44
367.019	308.69
367.4	303.72
367.781	308.92
368.163	311.86
368.544	310.73
368.925	299.65
369.306	307.34
369.688	309.37
370.069	301.24
370.45	309.14
370.831	305.75
371.212	301.69
371.593	293.55
371.974	305.3
372.355	312.53
372.736	324.06
373.117	283.38
373.498	308.92
373.879	317.51
374.26	313.44
374.641	298.07
375.021	317.05
375.402	312.31
375.783	307.56
376.163	302.82
376.544	327
376.925	316.83
377.305	313.21
377.686	329.26
378.066	326.09
378.447	316.38
378.827	335.13
379.208	326.55
379.588	328.35
379.968	317.28
380.349	308.92
380.729	324.29
381.109	337.17
381.489	322.7
381.87	324.74
382.25	319.99
382.63	325.87
383.01	340.56
383.39	341.01
383.77	332.65
384.15	351.86
384.53	367.45
384.91	330.84
385.29	364.28
385.67	349.14
386.049	345.08
386.429	327.67
386.809	323.83
387.189	370.39
387.568	353.66
387.948	341.23
388.328	352.08
388.707	355.92
389.087	354.11
389.466	346.43
389.846	367.45
390.225	352.31
390.605	378.07
390.984	386.66
391.363	365.87
391.743	371.06
392.122	368.58
392.501	386.66
392.881	375.58
393.26	372.65
393.639	375.13
394.018	380.55
394.397	369.71
394.776	351.86
395.155	378.97
395.534	382.59
395.913	386.88
396.292	385.53
396.671	371.06
397.05	382.59
397.429	381.46
397.808	389.59
398.186	393.21
398.565	392.53
398.944	372.19
399.323	411.74
399.701	405.19
400.08	408.58
400.458	392.08
400.837	398.86
401.215	415.13
401.594	401.12
401.972	399.99
402.351	428.69
402.729	429.37
403.107	424.85
403.486	418.52
403.864	417.16
404.242	434.79
404.62	439.76
404.999	418.97
405.377	418.07
405.755	434.56
406.133	423.72
406.511	417.62
406.889	443.83
407.267	426.66
407.645	436.82
408.023	446.77
408.401	436.15
408.779	464.17
409.156	447.67
409.534	461
409.912	455.81
410.29	470.95
410.667	472.98
411.045	472.3
411.422	459.87
411.8	479.99
412.178	488.35
412.555	487.44
412.933	486.99
413.31	505.98
413.687	482.47
414.065	489.93
414.442	513.88
414.819	508.69
415.197	515.24
415.574	545.52
415.951	513.43
416.328	507.56
416.705	519.99
417.082	510.27
417.46	519.99
417.837	527.67
418.214	542.81
418.591	537.84
418.967	540.55
419.344	554.11
419.721	546.88
420.098	555.01
420.475	562.7
420.852	559.31
421.228	552.75
421.605	563.38
421.982	567.44
422.358	582.58
422.735	585.75
423.111	593.2
423.488	577.84
423.864	591.4
424.241	578.06
424.617	609.02
424.994	592.53
425.37	587.78
425.746	594.79
426.123	604.96
426.499	629.81
426.875	613.77
427.251	620.55
427.627	644.73
428.003	652.86
428.379	662.36
428.756	655.12
429.132	648.57
429.507	638.85
429.883	663.03
430.259	698.51
430.635	655.58
431.011	669.36
431.387	698.51
431.763	692.86
432.138	677.95
432.514	700.55
432.89	707.1
433.265	716.82
433.641	738.96
434.016	719.98
434.392	746.65
434.767	759.98
435.143	752.3
435.518	765.18
435.894	755.46
436.269	771.05
436.644	791.84
437.02	805.63
437.395	785.97
437.77	794.78
438.145	821.67
438.52	828.45
438.895	829.58
439.271	827.32
439.646	829.58
440.021	866.87
440.395	861.22
440.77	871.84
441.145	859.64
441.52	855.8
441.895	876.14
442.27	882.24
442.645	891.95
443.019	880.43
443.394	922.91
443.769	914.1
444.143	910.03
444.518	916.59
444.892	934.44
445.267	939.41
445.641	964.72
446.016	970.82
446.39	965.85
446.764	973.76
447.139	976.92
447.513	976.25
447.887	977.15
448.262	1021.44
448.636	999.07
449.01	1020.54
449.384	1009.92
449.758	1057.37
450.132	1039.07
450.506	1051.95
450.88	1061.44
451.254	1078.39
451.628	1061.89
452.002	1043.81
452.376	1082.91
452.75	1100.76
453.123	1090.82
453.497	1113.42
453.871	1129.46
454.244	1148.9
454.618	1133.98
454.992	1156.35
455.365	1164.26
455.739	1190.25
456.112	1204.49
456.486	1211.27
456.859	1193.64
457.232	1267.09
457.606	1239.29
457.979	1214.66
458.352	1258.95
458.725	1248.1
459.099	1250.36
459.472	1276.12
459.845	1277.48
460.218	1304.6
460.591	1299.63
460.964	1306.86
461.337	1346.63
461.71	1338.72
462.083	1365.39
462.456	1340.98
462.829	1377.59
463.201	1396.12
463.574	1392.28
463.947	1411.04
464.32	1419.62
464.692	1415.33
465.065	1452.62
465.438	1465.72
465.81	1480.87
466.183	1484.25
466.555	1514.76
466.928	1500.07
467.3	1526.51
467.672	1541.88
468.045	1577.59
468.417	1578.04
468.789	1601.99
469.161	1618.26
469.534	1673.85
469.906	1670.01
470.278	1672.27
470.65	1709.33
471.022	1742.55
471.394	1710.01
471.766	1760.41
472.138	1771.48
472.51	1800.86
472.882	1817.13
473.253	1860.52
473.625	1885.83
473.997	1883.11
474.369	1919.72
474.74	1942.1
475.112	1969.67
475.484	1964.24
475.855	2033.17
476.227	2046.05
476.598	2054.41
476.97	2096.44
477.341	2119.49
477.713	2158.36
478.084	2165.82
478.455	2251.24
478.827	2259.83
479.198	2306.38
479.569	2314.06
479.94	2369.43
480.311	2396.55
480.682	2430.44
481.053	2456.88
481.424	2525.81
481.795	2522.19
482.166	2547.5
482.537	2601.29
482.908	2596.54
483.279	2659.37
483.65	2715.86
484.021	2752.92
484.391	2791.57
484.762	2789.08
485.133	2799.25
485.503	2860.04
485.874	2930.77
486.244	2979.81
486.615	3025.01
486.985	3027.27
487.356	3100.26
487.726	3123.31
488.097	3174.61
488.467	3197.66
488.837	3254.6
489.207	3288.05
489.578	3347.93
489.948	3359.23
490.318	3372.57
490.688	3408.5
491.058	3510.87
491.428	3529.4
491.798	3569.62
492.168	3632.22
492.538	3646.01
492.908	3704.99
493.278	3724.65
493.648	3749.05
494.017	3783.4
494.387	3853.91
494.757	3874.47
495.126	3922.16
495.496	3911.76
495.866	3958.31
496.235	3966.22
496.605	4012.1
496.974	4053.23
497.344	4068.82
497.713	4083.96
498.082	4181.13
498.452	4181.36
498.821	4216.16
499.19	4239.44
499.559	4236.5
499.928	4277.85
500.298	4303.62
500.667	4359.89
501.036	4391.75
501.405	4389.94
501.774	4404.18
502.143	4509.26
502.512	4522.59
502.88	4544.51
503.249	4570.05
503.618	4580.9
503.987	4605.98
504.356	4654.34
504.724	4692.08
505.093	4702.93
505.462	4715.13
505.83	4804.17
506.199	4797.39
506.567	4889.59
506.936	4871.28
507.304	4899.08
507.672	4946.08
508.041	4976.59
508.409	5016.59
508.777	5072.18
509.145	5074.44
509.514	5090.71
509.882	5139.53
510.25	5163.48
510.618	5246.42
510.986	5273.99
511.354	5302.01
511.722	5325.28
512.09	5348.79
512.458	5400.99
512.826	5422
513.193	5430.37
513.561	5457.03
513.929	5550.81
514.297	5570.25
514.664	5580.64
515.032	5629.68
515.4	5702.22
515.767	5766.85
516.135	5793.52
516.502	5774.54
516.869	5869
517.237	5912.61
517.604	5916
517.972	5957.13
518.339	5953.06
518.706	6010.69
519.073	6026.51
519.44	6103.34
519.808	6172.49
520.175	6123.23
520.542	6223.79
520.909	6275.77
521.276	6312.15
521.643	6398.25
522.009	6436.21
522.376	6478.47
522.743	6514.63
523.11	6556.66
523.477	6567.74
523.843	6658.13
524.21	6797.56
524.577	6849.76
524.943	6839.37
525.31	6934.96
525.676	6942.87
526.043	6958.24
526.409	7008.63
526.776	7019.93
527.142	7083.66
527.508	7141.06
527.874	7229.87
528.241	7289.07
528.607	7263.09
528.973	7361.61
529.339	7373.59
529.705	7392.12
530.071	7459.46
530.437	7548.5
530.803	7583.08
531.169	7671.21
531.535	7643.64
531.901	7679.8
532.267	7729.29
532.632	7754.15
532.998	7848.16
533.364	7867.59
533.73	7805.22
534.095	7997.76
534.461	7995.95
534.826	7983.52
535.192	8012.9
535.557	8103.52
535.923	8051.31
536.288	8174.25
536.653	8170.41
537.019	8131.31
537.384	8235.94
537.749	8260.57
538.114	8290.86
538.479	8299.67
538.845	8358.65
539.21	8362.27
539.575	8407.46
539.94	8435.26
540.305	8478.87
540.67	8482.04
541.034	8514.13
541.399	8602.94
541.764	8630.51
542.129	8588.93
542.494	8709.15
542.858	8652.88
543.223	8721.13
543.587	8763.39
543.952	8642.26
544.316	8751.18
544.681	8788.24
545.045	8845.19
545.41	8872.08
545.774	8902.82
546.138	8910.73
546.503	8986.2
546.867	8994.79
547.231	9027.33
547.595	9067.33
547.959	9121.57
548.324	9038.63
548.688	9104.17
549.052	9155.92
549.416	9211.96
549.779	9284.73
550.143	9268.46
550.507	9276.37
550.871	9388.68
551.235	9347.55
551.599	9446.31
551.962	9461.9
552.326	9470.94
552.689	9499.64
553.053	9477.04
553.417	9525.63
553.78	9692.85
554.143	9695.79
554.507	9715.45
554.87	9696.02
555.234	9826.41
555.597	9774.21
555.96	9777.82
556.323	9866.63
556.686	9823.47
557.05	9970.13
557.413	9992.05
557.776	9985.73
558.139	10095.78
558.502	10037.25
558.865	10084.93
559.228	10230.01
559.59	10220.07
559.953	10237.7
560.316	10349.33
560.679	10311.37
561.041	10397.47
561.404	10486.28
561.767	10551.59
562.129	10553.17
562.492	10628.65
562.854	10605.14
563.217	10688.31
563.579	10729.89
563.941	10690.57
564.304	10788.19
564.666	10832.03
565.028	10860.28
565.39	10962.88
565.753	11006.94
566.115	11135.75
566.477	11183.66
566.839	11201.51
567.201	11190.89
567.563	11201.51
567.925	11306.14
568.287	11278.57
568.648	11273.6
569.01	11427.95
569.372	11458.91
569.734	11422.07
570.095	11486.25
570.457	11600.37
570.819	11576.19
571.18	11562.41
571.542	11718.34
571.903	11789.75
572.265	11754.95
572.626	11774.38
572.987	11738
573.349	11842.4
573.71	11863.42
574.071	11914.71
574.432	11881.72
574.794	11994.71
575.155	11982.28
575.516	12013.7
575.877	12118.55
576.238	12054.6
576.599	12110.87
576.96	12162.39
577.32	12149.06
577.681	12248.72
578.042	12207.81
578.403	12259.79
578.763	12175.27
579.124	12276.74
579.485	12332.11
579.845	12293.01
580.206	12337.98
580.566	12337.98
580.927	12387.02
581.287	12422.72
581.648	12417.98
582.008	12418.43
582.368	12389.05
582.728	12413.68
583.089	12440.35
583.449	12337.53
583.809	12486.68
584.169	12419.33
584.529	12386.34
584.889	12543.62
585.249	12476.73
585.609	12451.42
585.969	12571.42
586.329	12530.97
586.688	12534.36
587.048	12561.48
587.408	12530.07
587.768	12455.27
588.127	12533.46
588.487	12444.64
588.846	12524.64
589.206	12428.15
589.565	12415.72
589.925	12520.35
590.284	12494.13
590.643	12564.64
591.003	12643.74
591.362	12517.86
591.721	12562.83
592.08	12524.87
592.44	12524.19
592.799	12581.59
593.158	12599.22
593.517	12597.41
593.876	12545.66
594.235	12564.42
594.593	12518.54
594.952	12558.09
595.311	12552.66
595.67	12582.49
596.029	12794.92
596.387	12728.93
596.746	12708.82
597.104	12702.72
597.463	12631.31
597.822	12702.04
598.18	12583.85
598.538	12619.78
598.897	12722.6
599.255	12586.34
599.613	12728.48
599.972	12586.11
600.33	12695.49
600.688	12744.98
601.046	12872.88
601.404	12825.2
601.762	12834.01
602.12	12828.82
602.478	12821.36
602.836	12845.76
603.194	12813.45
603.552	12843.5
603.91	12751.53
604.268	12775.48
604.625	12767.57
604.983	12798.99
605.341	12759.66
605.698	12972.99
606.056	12944.52
606.413	12842.6
606.771	12965.53
607.128	12984.52
607.485	12997.62
607.843	12889.38
608.2	13045.53
608.557	13041.47
608.914	12973.67
609.272	13001.47
609.629	13009.6
609.986	13113.78
610.343	12995.82
610.7	13125.3
611.057	13154.68
611.414	13067.9
611.771	13141.35
612.127	13163.27
612.484	13154.68
612.841	13174.12
613.198	13119.88
613.554	13097.96
613.911	13205.75
614.267	13274.23
614.624	13184.74
614.98	13194.23
615.337	13142.03
615.693	13284.62
616.05	13242.36
616.406	13327.33
616.762	13325.75
617.118	13210.95
617.475	13187.9
617.831	13341.34
618.187	13321.23
618.543	13391.06
618.899	13492.07
619.255	13396.71
619.611	13353.32
619.967	13424.05
620.323	13424.96
620.678	13371.85
621.034	13359.42
621.39	13386.31
621.746	13292.08
622.101	13601.9
622.457	13434
622.812	13446.88
623.168	13492.53
623.523	13462.92
623.879	13398.07
624.234	13368.91
624.589	13430.38
624.945	13397.16
625.3	13396.26
625.655	13370.5
626.01	13404.17
626.365	13389.48
626.72	13356.94
627.075	13398.74
627.43	13392.19
627.785	13366.43
628.14	13423.83
628.495	13349.93
628.85	13377.95
629.205	13349.71
629.559	13461.79
629.914	13294.57
630.269	13286.88
630.623	13282.81
630.978	13302.93
631.332	13299.76
631.687	13345.41
632.041	13187
632.396	13301.12
632.75	13192.65
633.104	13178.86
633.459	13184.74
633.813	13248.92
634.167	13207.11
634.521	13233.78
634.875	13232.42
635.229	13186.32
635.583	13075.59
635.937	13118.75
636.291	13082.59
636.645	13073.55
636.999	13056.15
637.352	13061.8
637.706	12956.5
638.06	13076.49
638.413	13004.63
638.767	13048.7
639.121	12973.67
639.474	12938.87
639.828	12940.22
640.181	12991.97
640.534	12935.93
640.888	12926.44
641.241	12902.26
641.594	12868.81
641.947	12881.47
642.301	12898.19
642.654	12852.54
643.007	12877.18
643.36	12819.78
643.713	12818.19
644.066	12801.92
644.419	12714.24
644.771	12715.6
645.124	12668.37
645.477	12604.19
645.83	12551.76
646.182	12396.96
646.535	12432.44
646.888	12394.25
647.24	12268.15
647.593	12352.9
647.945	12295.72
648.298	12281.26
648.65	12281.26
649.002	12221.15
649.355	12247.36
649.707	12232.45
650.059	12283.74
650.411	12455.04
650.763	12431.31
651.115	12514.93
651.467	12411.65
651.819	12623.85
652.171	12467.47
652.523	12408.49
652.875	12413.23
653.227	12364.42
653.578	12477.41
653.93	12424.53
654.282	12397.64
654.633	12401.48
654.985	12312.67
655.337	12372.78
655.688	12311.31
656.039	12362.39
656.391	12241.03
656.742	12243.97
657.094	12335.72
657.445	12356.06
657.796	12289.39
658.147	12287.13
658.498	12288.72
658.849	12316.96
659.2	12295.04
659.551	12256.63
659.902	12277.87
660.253	12274.71
660.604	12298.21
660.955	12252.56
661.306	12304.76
661.656	12243.07
662.007	12224.76
662.358	12286.46
662.708	12237.87
663.059	12213.24
663.409	12099.57
663.76	12223.63
664.11	12131.66
664.461	12113.35
664.811	12201.49
665.161	12117.65
665.511	12109.51
665.862	12164.65
666.212	12196.06
666.562	12164.88
666.912	12139.79
667.262	12132.79
667.612	12158.32
667.962	12173.01
668.312	12173.47
668.662	12125.56
669.011	12112.68
669.361	12043.75
669.711	12120.36
670.06	12012.34
670.41	11999.23
670.76	12022.73
671.109	12058.44
671.459	12027.25
671.808	11989.74
672.157	12007.37
672.507	11965.56
672.856	11994.49
673.205	12067.93
673.554	12066.58
673.904	12059.8
674.253	12059.34
674.602	11994.94
674.951	11842.17
675.3	11799.46
675.649	11987.03
675.998	11905.45
676.346	11877.65
676.695	12021.83
677.044	11857.99
677.393	11864.09
677.741	11994.49
678.09	11853.7
678.438	11740.48
678.787	11920.36
679.135	11790.65
679.484	11797.43
679.832	11821.38
680.181	11749.75
680.529	11840.59
680.877	11773.48
681.225	11794.94
681.573	11897.99
681.922	11805.57
682.27	11806.7
682.618	11721.73
682.966	11696.19
683.314	11680.6
683.661	11619.36
684.009	11596.31
684.357	11527.15
684.705	11561.5
685.053	11554.27
685.4	11488.06
685.748	11446.48
686.095	11471.79
686.443	11417.33
686.79	11394.95
687.138	11424.56
687.485	11426.37
687.832	11337.56
688.18	11433.82
688.527	11355.41
688.874	11352.7
689.221	11307.95
689.568	11306.6
689.915	11220.27
690.262	11300.27
690.609	11180.05
690.956	11139.82
691.303	11160.84
691.65	11043.55
691.997	11069.99
692.344	11006.94
692.69	10919.71
693.037	11029.31
693.383	10915.87
693.73	10903.22
694.077	10891.01
694.423	10987.06
694.769	10883.33
695.116	10851.92
695.462	10835.65
695.808	10793.84
696.155	10836.1
696.501	10737.8
696.847	10757.23
697.193	10688.31
697.539	10639.49
697.885	10601.98
698.231	10579.83
698.577	10527.41
698.923	10525.37
699.269	10488.09
699.614	10392.95
699.96	10397.47
700.306	10445.15
700.651	10470.01
700.997	10355.43
701.342	10384.81
701.688	10321.76
702.033	10398.82
702.379	10294.64
702.724	10328.32
703.069	10314.08
703.415	10180.3
703.76	10117.47
704.105	10136.23
704.45	10156.34
704.795	10082.22
705.14	10044.03
705.485	10034.09
705.83	10004.48
706.175	9899.17
706.52	9954.54
706.865	9949.79
707.209	9936.46
707.554	9894.66
707.899	9898.72
708.243	9891.27
708.588	9879.74
708.932	9773.75
709.277	9852.62
709.621	9849.46
709.966	9766.52
710.31	9789.12
710.654	9688.33
710.998	9643.36
711.342	9645.4
711.687	9653.08
712.031	9572.4
712.375	9573.76
712.719	9537.15
713.063	9548.68
713.407	9533.53
713.75	9481.78
714.094	9496.02
714.438	9461.22
714.782	9476.81
715.125	9480.88
715.469	9504.16
715.812	9453.99
716.156	9366.76
716.499	9392.75
716.843	9413.54
717.186	9345.07
717.53	9377.61
717.873	9384.16
718.216	9363.82
718.559	9294.22
718.902	9246.99
719.246	9256.03
719.589	9152.08
719.932	9199.76
720.275	9164.05
720.617	9169.48
720.96	9113.66
721.303	9064.62
721.646	9103.04
721.989	9030.5
722.331	9109.14
722.674	9087.67
723.016	9077.5
723.359	9044.28
723.701	9109.36
724.044	9028.92
724.386	9015.81
724.729	9002.93
725.071	9007.22
725.413	9008.8
725.755	8958.41
726.097	8957.05
726.439	8858.98
726.782	8874.34
727.124	8901.01
727.465	8880.22
727.807	8859.88
728.149	8788.02
728.491	8821.46
728.833	8808.13
729.175	8794.57
729.516	8799.09
729.858	8785.31
730.199	8819.43
730.541	8704.63
730.882	8693.56
731.224	8753.89
731.565	8706.21
731.906	8744.4
732.248	8749.15
732.589	8697.85
732.93	8678.64
733.271	8658.76
733.612	8688.81
733.953	8696.72
734.294	8728.58
734.635	8616.95
734.976	8661.69
735.317	8525.65
735.658	8514.8
735.999	8535.59
736.339	8488.82
736.68	8530.85
737.021	8515.03
737.361	8450.85
737.702	8442.04
738.042	8490.85
738.383	8449.27
738.723	8533.33
739.063	8440.91
739.404	8500.57
739.744	8454.47
740.084	8473.9
740.424	8459.44
740.764	8449.27
741.104	8374.24
741.444	8314.58
741.784	8359.1
742.124	8439.33
742.464	8331.98
742.804	8326.33
743.143	8342.61
743.483	8260.8
743.823	8207.24
744.162	8241.14
744.502	8198.2
744.841	8159.11
745.181	8207.24
745.52	8181.48
745.86	8167.92
746.199	8207.47
746.538	8162.5
746.877	8222.16
747.216	8245.21
747.556	8200.69
747.895	8184.42
748.234	8106
748.573	8145.32
748.911	8162.95
749.25	8120.01
749.589	8046.57
749.928	8074.82
750.267	8058.55
750.605	8092.22
750.944	8066.68
751.283	7914.37
751.621	7964.08
751.96	7907.59
752.298	7915.27
752.636	7960.24
752.975	7879.34
753.313	7809.06
753.651	7847.03
753.989	7837.76
754.327	7855.84
754.666	7787.82
755.004	7810.87
755.342	7834.37
755.679	7786.69
756.017	7778.33
756.355	7757.99
756.693	7787.59
757.031	7767.48
757.368	7718.44
757.706	7679.57
758.044	7682.74
758.381	7699.46
758.719	7687.26
759.056	7654.49
759.394	7584.21
759.731	7520.03
760.068	7509.86
760.405	7511.21
760.743	7459.46
761.08	7431.67
761.417	7387.15
761.754	7411.78
762.091	7400.71
762.428	7433.02
762.765	7369.75
763.102	7335.85
763.438	7297.66
763.775	7330.65
764.112	7313.48
764.449	7350.09
764.785	7277.1
765.122	7270.09
765.458	7228.74
765.795	7182.41
766.131	7204.56
766.467	7139.7
766.804	7152.13
767.14	7115.52
767.476	7089.76
767.812	7066.93
768.148	7073.03
768.485	7006.14
768.821	6993.26
769.157	6981.06
769.492	6925.92
769.828	6929.99
770.164	6866.94
770.5	6831.01
770.836	6887.95
771.171	6822.87
771.507	6769.99
771.842	6763.44
772.178	6839.59
772.513	6739.94
772.849	6727.96
773.184	6685.93
773.519	6728.18
773.855	6651.35
774.19	6684.8
774.525	6621.97
774.86	6671.01
775.195	6652.48
775.53	6594.4
775.865	6561.86
776.2	6580.39
776.535	6450
776.87	6401.64
777.205	6474.63
777.539	6401.19
777.874	6414.97
778.209	6358.02
778.543	6348.31
778.878	6345.82
779.212	6262.43
779.547	6275.77
779.881	6276.9
780.215	6188.76
780.55	6221.53
780.884	6189.44
781.218	6186.05
781.552	6191.93
781.886	6118.03
782.22	6116.9
782.554	6116.9
782.888	6027.64
783.222	6055.89
783.556	6042.78
783.889	6047.3
784.223	5984.02
784.557	5944.02
784.89	5989.67
785.224	5944.25
785.557	5943.57
785.891	5864.93
786.224	5912.39
786.558	5895.89
786.891	5819.06
787.224	5794.65
787.557	5759.62
787.891	5818.83
788.224	5828.55
788.557	5729.79
788.89	5716.46
789.223	5705.39
789.556	5645.28
789.888	5648.44
790.221	5650.25
790.554	5623.13
790.887	5655.22
791.219	5589.91
791.552	5580.19
791.884	5555.56
792.217	5545.62
792.549	5511.95
792.882	5530.02
793.214	5480.76
793.546	5480.99
793.879	5455.22
794.211	5399.18
794.543	5431.72
794.875	5431.27
795.207	5445.28
795.539	5365.51
795.871	5359.18
796.203	5340.88
796.535	5327.32
796.867	5302.69
797.198	5268.11
797.53	5306.75
797.862	5268.79
798.193	5207.77
798.525	5292.52
798.856	5183.37
799.188	5171.39
799.519	5153.08
799.85	5067.21
800.182	5154.21
800.513	5123.48
800.844	5086.42
801.175	5096.36
801.506	5133.88
801.837	5145.85
802.168	5078.06
802.499	5031.51
802.83	4977.5
803.161	4971.62
803.491	4980.89
803.822	5017.72
804.153	5008
804.483	4928.46
804.814	4935.01
805.145	4954.22
805.475	4936.37
805.805	4908.35
806.136	4930.72
806.466	4943.15
806.796	4887.56
807.126	4883.26
807.457	4868.35
807.787	4814.34
808.117	4796.71
808.447	4772.53
808.777	4839.42
809.107	4774.56
809.436	4775.92
809.766	4745.19
810.096	4716.71
810.426	4727.11
810.755	4748.58
811.085	4719.65
811.414	4660.67
811.744	4690.27
812.073	4645.98
812.403	4678.97
812.732	4634.45
813.061	4631.97
813.39	4636.04
813.719	4617.96
814.049	4641.91
814.378	4650.95
814.707	4589.26
815.036	4630.61
815.365	4579.31
815.693	4576.38
816.022	4522.82
816.351	4516.27
816.68	4502.48
817.008	4537.73
817.337	4519.43
817.665	4476.04
817.994	4469.94
818.322	4468.13
818.651	4482.37
818.979	4427.23
819.307	4438.08
819.636	4441.01
819.964	4415.7
820.292	4382.03
820.62	4395.14
820.948	4353.33
821.276	4416.38
821.604	4359.89
821.932	4354.69
822.259	4331.86
822.587	4386.78
822.915	4368.25
823.243	4421.58
823.57	4385.87
823.898	4395.36
824.225	4414.57
824.553	4442.6
824.88	4398.53
825.207	4424.06
825.535	4361.92
825.862	4392.43
826.189	4423.39
826.516	4380
826.843	4408.47
827.17	4431.97
827.497	4412.31
827.824	4356.5
828.151	4382.03
828.478	4418.19
828.805	4374.35
829.131	4340.45
829.458	4374.35
829.785	4309.94
830.111	4308.36
830.438	4390.85
830.764	4359.89
831.09	4398.3
831.417	4329.38
831.743	4379.55
832.069	4349.04
832.395	4333.22
832.722	4392.2
833.048	4355.59
833.374	4355.59
833.7	4326.44
834.026	4323.5
834.351	4344.07
834.677	4333.45
835.003	4392.43
835.329	4338.87
835.654	4354.46
835.98	4307.23
836.306	4330.06
836.631	4287.12
836.956	4341.58
837.282	4330.06
837.607	4304.07
837.932	4276.5
838.258	4276.72
838.583	4271.75
838.908	4253.45
839.233	4241.02
839.558	4260.23
839.883	4208.02
840.208	4175.26
840.533	4243.05
840.858	4205.54
841.182	4197.18
841.507	4213.67
841.832	4174.35
842.156	4188.82
842.481	4213.22
842.805	4175.26
843.13	4160.79
843.454	4179.33
843.778	4158.31
844.103	4172.77
844.427	4142.04
844.751	4134.58
845.075	4110.85
845.399	4094.58
845.723	4102.49
846.047	4090.51
846.371	4084.19
846.695	4078.99
847.019	4036.05
847.343	4037.86
847.666	4006.9
847.99	3996.28
848.313	3976.39
848.637	3921.48
848.96	3902.5
849.284	3969.16
849.607	3894.36
849.931	3869.5
850.254	3820.69
850.577	3883.51
850.9	3833.12
851.223	3828.6
851.546	3790.18
851.869	3781.6
852.192	3871.76
852.515	3787.25
852.838	3742.5
853.161	3779.56
853.483	3754.7
853.806	3803.06
854.129	3764.87
854.451	3756.29
854.774	3723.29
855.096	3727.13
855.419	3700.02
855.741	3696.85
856.063	3633.8
856.385	3653.92
856.708	3587.48
857.03	3621.37
857.352	3631.54
857.674	3619.11
857.996	3578.66
858.318	3540.25
858.64	3556.97
858.961	3542.28
859.283	3541.15
859.605	3521.72
859.926	3498.21
860.248	3485.33
860.57	3520.59
860.891	3508.38
861.212	3460.7
861.534	3486.01
861.855	3467.03
862.176	3526.23
862.498	3501.38
862.819	3534.37
863.14	3485.56
863.461	3464.09
863.782	3478.1
864.103	3463.86
864.424	3479.23
864.745	3426.58
865.065	3469.29
865.386	3476.29
865.707	3473.35
866.027	3471.55
866.348	3426.12
866.668	3443.75
866.989	3418.22
867.309	3422.73
867.63	3404.66
867.95	3354.94
868.27	3362.62
868.59	3396.52
868.91	3343.64
869.23	3359.23
869.55	3328.05
869.87	3362.4
870.19	3309.07
870.51	3319.23
870.83	3324.21
871.15	3325.79
871.469	3295.73
871.789	3290.99
872.109	3299.57
872.428	3306.13
872.748	3287.6
873.067	3312.23
873.386	3335.73
873.706	3331.89
874.025	3318.56
874.344	3297.99
874.663	3334.6
874.982	3325.79
875.301	3284.66
875.62	3328.95
875.939	3285.11
876.258	3303.87
876.577	3249.18
876.896	3297.99
877.214	3271.55
877.533	3264.55
877.852	3261.84
878.17	3268.84
878.489	3259.8
878.807	3273.59
879.125	3215.06
879.444	3190.2
879.762	3233.36
880.08	3166.24
880.398	3171.89
880.716	3147.71
881.034	3179.35
881.352	3184.55
881.67	3151.78
881.988	3189.29
882.306	3171.89
882.624	3150.65
882.941	3146.81
883.259	3128.51
883.577	3142.52
883.894	3140.26
884.212	3142.52
884.529	3115.17
884.846	3137.77
885.164	3123.31
885.481	3096.42
885.798	3125.12
886.115	3098.45
886.432	3130.99
886.75	3122.4
887.067	3116.98
887.383	3105.46
887.7	3116.75
888.017	3079.47
888.334	3069.98
888.651	3071.78
888.967	3045.12
889.284	3040.15
889.6	3029.52
889.917	3014.84
890.233	3009.41
890.55	3035.63
890.866	3001.05
891.182	2941.17
891.498	2952.69
891.815	2962.18
892.131	2958.57
892.447	2940.49
892.763	2947.49
893.079	2911.79
893.395	2903.43
893.71	2879.7
894.026	2912.24
894.342	2907.95
894.657	2882.64
894.973	2833.6
895.289	2862.75
895.604	2837.89
895.92	2826.37
896.235	2838.12
896.55	2845.12
896.865	2802.41
897.181	2840.83
897.496	2826.59
897.811	2792.24
898.126	2831.34
898.441	2802.64
898.756	2765.8
899.071	2825.69
899.386	2818.68
899.7	2772.81
900.015	2791.34
900.33	2736.43
900.644	2755.41
900.959	2737.78
901.273	2759.48
901.588	2724
901.902	2702.08
902.216	2669.53
902.531	2705.69
902.845	2693.49
903.159	2677.44
903.473	2635.64
903.787	2642.87
904.101	2647.39
904.415	2624.34
904.729	2612.81
905.042	2592.7
905.356	2611.23
905.67	2581.18
905.984	2596.09
906.297	2577.56
906.611	2578.46
906.924	2543.44
907.237	2555.64
907.551	2549.99
907.864	2562.19
908.177	2509.09
908.491	2557.22
908.804	2522.65
909.117	2529.88
909.43	2533.72
909.743	2509.54
910.056	2508.41
910.368	2486.94
910.681	2487.84
910.994	2437
911.307	2459.37
911.619	2480.39
911.932	2469.31
912.244	2437.22
912.557	2415.98
912.869	2440.61
913.181	2405.81
913.494	2410.11
913.806	2386.38
914.118	2365.59
914.43	2377.56
914.742	2376.43
915.054	2366.72
915.366	2368.07
915.678	2303.22
915.99	2315.19
916.302	2293.5
916.613	2308.87
916.925	2274.74
917.236	2269.77
917.548	2265.48
917.859	2293.95
918.171	2273.16
918.482	2244.91
918.794	2246.27
919.105	2206.72
919.416	2236.33
919.727	2216.89
920.038	2216.89
920.349	2197.23
920.66	2232.94
920.971	2225.25
921.282	2209.89
921.593	2184.12
921.903	2159.94
922.214	2136.67
922.525	2180.96
922.835	2130.34
923.146	2127.63
923.456	2106.61
923.767	2136.89
924.077	2140.51
924.387	2131.7
924.697	2123.79
925.008	2115.2
925.318	2095.76
925.628	2091.7
925.938	2082.88
926.248	2072.94
926.558	2057.57
926.867	2080.85
927.177	2069.55
927.487	2065.03
927.796	2035.65
928.106	2024.13
928.416	1997.01
928.725	1980.96
929.034	1973.51
929.344	1975.77
929.653	1961.53
929.962	1975.77
930.271	1952.04
930.581	1942.1
930.89	1947.07
931.199	1916.79
931.508	1898.48
931.817	1945.94
932.125	1895.09
932.434	1901.19
932.743	1892.38
933.051	1900.97
933.36	1906.84
933.669	1879.72
933.977	1891.02
934.286	1862.55
934.594	1893.51
934.902	1883.79
935.21	1843.12
935.519	1854.64
935.827	1871.82
936.135	1828.88
936.443	1856.45
936.751	1837.47
937.059	1817.35
937.367	1805.83
937.674	1809.22
937.982	1834.3
938.29	1796.11
938.597	1805.6
938.905	1804.47
939.213	1781.87
939.52	1757.69
939.827	1777.35
940.135	1757.24
940.442	1740.75
940.749	1733.06
941.056	1766.96
941.363	1719.28
941.67	1738.49
941.977	1708.2
942.284	1703.68
942.591	1717.47
942.898	1684.48
943.205	1724.47
943.511	1665.72
943.818	1665.04
944.125	1667.07
944.431	1660.07
944.738	1651.48
945.044	1642.89
945.35	1656.23
945.657	1626.4
945.963	1656.91
946.269	1626.85
946.575	1605.16
946.881	1641.54
947.187	1596.79
947.493	1597.47
947.799	1594.53
948.105	1596.34
948.41	1580.75
948.716	1587.53
949.022	1588.21
949.327	1577.36
949.633	1567.42
949.938	1579.39
950.244	1573.29
950.549	1571.26
950.854	1558.6
951.16	1525.38
951.465	1536
951.77	1524.03
952.075	1538.94
952.38	1539.39
952.685	1515.67
952.99	1498.49
953.294	1523.8
953.599	1538.72
953.904	1510.92
954.209	1484.03
954.513	1485.84
954.818	1481.77
955.122	1507.53
955.426	1494.2
955.731	1465.05
956.035	1467.08
956.339	1466.63
956.643	1447.19
956.948	1447.87
957.252	1422.79
957.556	1430.24
957.86	1410.81
958.163	1440.19
958.467	1395.67
958.771	1410.81
959.075	1412.39
959.378	1408.78
959.682	1403.8
959.985	1381.21
960.289	1369.68
960.592	1396.57
960.896	1385.5
961.199	1363.35
961.502	1355.9
961.805	1367.87
962.108	1376.23
962.411	1395.44
962.714	1355.9
963.017	1340.3
963.32	1339.17
963.623	1346.41
963.926	1349.8
964.228	1340.98
964.531	1322.68
964.833	1314.77
965.136	1308.89
965.438	1310.02
965.741	1296.69
966.043	1293.75
966.345	1318.38
966.648	1309.12
966.95	1293.53
967.252	1286.97
967.554	1295.79
967.856	1257.14
968.158	1272.06
968.46	1268.89
968.761	1292.62
969.063	1284.03
969.365	1242
969.666	1226.18
969.968	1241.55
970.269	1239.06
970.571	1230.02
970.872	1244.04
971.174	1233.87
971.475	1220.31
971.776	1195.22
972.077	1241.78
972.378	1207.43
972.679	1191.38
972.98	1207.2
973.281	1192.74
973.582	1185.51
973.883	1146.64
974.183	1175.11
974.484	1183.25
974.785	1186.18
975.085	1157.03
975.386	1178.27
975.686	1144.83
975.986	1159.74
976.287	1185.73
976.587	1152.29
976.887	1157.03
977.187	1129.91
977.487	1147.09
977.787	1143.92
978.087	1152.96
978.387	1140.53
978.687	1134.43
978.987	1099.18
979.286	1126.3
979.586	1101.89
979.885	1092.4
980.185	1104.38
980.484	1093.53
980.784	1127.43
981.083	1132.85
981.382	1109.12
981.682	1100.31
981.981	1115.68
982.28	1085.17
982.579	1063.25
982.878	1091.95
983.177	1077.49
983.475	1088.56
983.774	1055.34
984.073	1049.01
984.372	1049.24
984.67	1040.2
984.969	1061.22
985.267	1036.58
985.566	1044.27
985.864	1029.58
986.162	1045.17
986.461	1023.02
986.759	1028.22
987.057	1023.7
987.355	1027.32
987.653	1012.63
987.951	1003.36
988.249	1014.89
988.547	1013.53
988.844	1005.85
989.142	998.17
989.44	998.84
989.737	995.45
990.035	988.67
990.332	987.77
990.63	1004.95
990.927	956.13
991.224	970.37
991.521	965.62
991.819	962.01
992.116	957.49
992.413	976.02
992.71	968.34
993.006	947.55
993.303	951.16
993.6	932.86
993.897	941.9
994.193	938.73
994.49	948.9
994.787	925.63
995.083	934.44
995.379	924.72
995.676	919.52
995.972	923.37
996.268	915.46
996.565	932.63
996.861	913.42
997.157	890.15
997.453	892.41
997.749	887.21
998.044	896.02
998.34	906.87
998.636	916.13
998.932	897.38
999.227	892.41
999.523	877.04
999.818	867.55
1000.114	899.41
1000.409	870.03
1000.704	853.31
1001	875.91
1001.295	890.6
1001.59	843.37
1001.885	865.97
1002.18	845.18
1002.475	835.68
1002.77	850.15
1003.065	856.25
1003.359	843.59
1003.654	829.13
1003.949	811.05
1004.243	825.06
1004.538	800.66
1004.832	797.49
1005.127	833.65
1005.421	814.67
1005.715	815.12
1006.009	815.8
1006.304	819.64
1006.598	782.35
1006.892	807.21
1007.186	812.63
1007.48	785.74
1007.773	804.5
1008.067	774.44
1008.361	774.89
1008.655	776.93
1008.948	775.35
1009.242	783.03
1009.535	786.87
1009.829	763.37
1010.122	768.79
1010.415	753.65
1010.708	761.79
1011.001	763.6
1011.295	753.65
1011.588	766.31
1011.881	756.82
1012.173	762.69
1012.466	756.14
1012.759	752.75
1013.052	721.34
1013.344	729.7
1013.637	719.98
1013.93	711.85
1014.222	717.95
1014.514	724.95
1014.807	719.3
1015.099	725.63
1015.391	695.8
1015.683	721.56
1015.976	713.88
1016.268	699.19
1016.56	698.74
1016.851	706.87
1017.143	723.6
1017.435	697.83
1017.727	689.02
1018.018	670.49
1018.31	684.95
1018.602	678.17
1018.893	668.91
1019.185	679.53
1019.476	649.93
1019.767	667.55
1020.058	693.77
1020.35	658.29
1020.641	636.59
1020.932	645.18
1021.223	653.54
1021.514	653.32
1021.804	651.28
1022.095	654.22
1022.386	643.82
1022.677	623.26
1022.967	635.92
1023.258	634.56
1023.548	638.85
1023.839	629.81
1024.129	639.08
1024.419	611.06
1024.709	602.02
1025	617.61
1025.29	615.58
1025.58	641.11
1025.87	618.29
1026.16	615.35
1026.449	611.51
1026.739	600.66
1027.029	613.77
1027.319	605.63
1027.608	582.13
1027.898	590.04
1028.187	607.89
1028.477	601.11
1028.766	587.78
1029.055	583.26
1029.344	618.74
1029.634	593.43
1029.923	573.54
1030.212	577.16
1030.501	571.96
1030.79	568.12
1031.078	581.68
1031.367	588.01
1031.656	569.7
1031.945	572.64
1032.233	575.8
1032.522	564.05
1032.81	568.57
1033.099	557.95
1033.387	556.82
1033.675	554.34
1033.963	558.86
1034.251	541.45
1034.54	532.19
1034.828	555.24
1035.116	531.74
1035.403	548.69
1035.691	534
1035.979	542.81
1036.267	531.06
1036.554	548.46
1036.842	542.36
1037.129	539.42
1037.417	528.12
1037.704	530.16
1037.992	532.87
1038.279	500.55
1038.566	517.27
1038.853	517.27
1039.14	517.27
