Data from foam_black_FLMS001491_00080.txt Node
Date: Wed Feb 08 10:44:38 GMT 2017
User: dcchb
Spectrometer: FLMS00149
Trigger mode: 0
Integration Time (sec): 2.000000E-2
Scans to average: 10
Electric dark correction enabled: true
Nonlinearity correction enabled: false
Boxcar width: 0
XAxis mode: Wavelengths
Number of Pixels in Spectrum: 2048
>>>>>Begin Spectral Data<<<<<
341.393	-11.17
341.776	-11.17
342.16	-11.17
342.543	-43.04
342.927	-52.3
343.31	-81.45
343.693	-81.45
344.077	-76.26
344.46	-65.18
344.843	-35.13
345.226	-49.14
345.61	-14.34
345.993	-16.6
346.376	0.58
346.759	-10.04
347.142	35.15
347.525	24.53
347.908	64.31
348.291	72.44
348.674	108.6
349.057	123.97
349.44	127.58
349.823	147.47
350.206	151.99
350.588	184.76
350.971	204.87
351.354	216.39
351.737	222.27
352.119	250.74
352.502	262.49
352.884	253
353.267	260.46
353.65	252.55
354.032	269.5
354.414	286.45
354.797	287.35
355.179	303.4
355.562	304.75
355.944	286
356.326	304.75
356.709	318.31
357.091	325.77
357.473	320.8
357.855	320.8
358.238	328.03
358.62	328.93
359.002	325.99
359.384	335.26
359.766	340.91
360.148	315.83
360.53	330.97
360.912	324.41
361.294	304.98
361.676	321.47
362.057	328.03
362.439	313.79
362.821	319.21
363.203	312.21
363.584	316.73
363.966	312.44
364.348	321.7
364.729	313.11
365.111	303.17
365.493	316.73
365.874	319.21
366.256	309.72
366.637	322.6
367.019	281.48
367.4	284.87
367.781	303.62
368.163	305.2
368.544	315.15
368.925	300.23
369.306	318.31
369.688	282.38
370.069	292.77
370.45	293.23
370.831	284.41
371.212	304.53
371.593	309.5
371.974	302.49
372.355	311.76
372.736	304.07
373.117	318.54
373.498	300.23
373.879	305.43
374.26	319.67
374.641	290.29
375.021	299.55
375.402	314.7
375.783	316.28
376.163	318.99
376.544	312.89
376.925	309.05
377.305	305.66
377.686	333.45
378.066	306.56
378.447	321.47
378.827	325.54
379.208	332.32
379.588	324.41
379.968	318.99
380.349	287.8
380.729	317.63
381.109	336.62
381.489	332.77
381.87	345.88
382.25	324.86
382.63	333.23
383.01	340.23
383.39	337.52
383.77	335.71
384.15	335.03
384.53	312.66
384.91	329.38
385.29	348.37
385.67	347.24
386.049	320.57
386.429	350.85
386.809	335.71
387.189	344.98
387.568	355.15
387.948	350.85
388.328	354.47
388.707	329.61
389.087	350.17
389.466	337.52
389.846	342.72
390.225	379.33
390.605	349.72
390.984	351.98
391.363	349.5
391.743	349.72
392.122	353.56
392.501	349.95
392.881	369.16
393.26	370.96
393.639	360.34
394.018	361.7
394.397	362.15
394.776	363.51
395.155	377.97
395.534	352.43
395.913	372.09
396.292	394.24
396.671	361.02
397.05	368.03
397.429	359.89
397.808	369.83
398.186	372.77
398.565	393.34
398.944	383.62
399.323	392.89
399.701	392.66
400.08	390.4
400.458	393.79
400.837	398.53
401.215	396.73
401.594	387.01
401.972	403.05
402.351	401.92
402.729	423.17
403.107	405.31
403.486	407.12
403.864	395.14
404.242	423.84
404.62	405.31
404.999	405.31
405.377	415.26
405.755	427.91
406.133	418.2
406.511	415.48
406.889	430.17
407.267	409.61
407.645	417.29
408.023	434.92
408.401	426.1
408.779	435.14
409.156	448.7
409.534	440.12
409.912	442.38
410.29	436.95
410.667	438.08
411.045	435.14
411.422	447.35
411.8	453
412.178	474.46
412.555	453.22
412.933	448.7
413.31	467.01
413.687	465.88
414.065	466.78
414.442	475.59
414.819	473.79
415.197	457.29
415.574	462.71
415.951	466.33
416.328	489.15
416.705	505.88
417.082	486.44
417.46	485.09
417.837	489.38
418.214	484.86
418.591	493.45
418.967	488.25
419.344	516.05
419.721	507.01
420.098	505.2
420.475	511.53
420.852	521.02
421.228	526.67
421.605	538.42
421.982	507.01
422.358	540.9
422.735	536.84
423.111	528.02
423.488	526.89
423.864	518.53
424.241	547.01
424.617	537.06
424.994	524.86
425.37	559.21
425.746	532.77
426.123	556.95
426.499	531.19
426.875	557.4
427.251	576.84
427.627	580.22
428.003	577.06
428.379	614.35
428.756	573.9
429.132	593.78
429.507	584.52
429.883	597.63
430.259	604.63
430.635	599.89
431.011	600.79
431.387	649.6
431.763	630.39
432.138	645.08
432.514	650.28
432.89	647.34
433.265	649.83
433.641	648.47
434.016	640.11
434.392	651.18
434.767	664.29
435.143	663.16
435.518	682.37
435.894	671.75
436.269	698.87
436.644	677.85
437.02	699.09
437.395	694.57
437.77	692.31
438.145	702.93
438.52	710.84
438.895	704.52
439.271	719.88
439.646	719.66
440.021	705.65
440.395	723.5
440.77	714.68
441.145	721.92
441.52	743.16
441.895	725.31
442.27	753.78
442.645	789.94
443.019	753.78
443.394	740.22
443.769	761.91
444.143	758.98
444.518	775.02
444.892	745.64
445.267	791.52
445.641	794.68
446.016	763.72
446.39	794.23
446.764	773.21
447.139	801.24
447.513	816.38
447.887	796.94
448.262	805.98
448.636	795.81
449.01	804.85
449.384	813.44
449.758	815.02
450.132	827.22
450.506	827.68
450.88	848.01
451.254	839.2
451.628	868.58
452.002	886.66
452.376	855.25
452.75	859.09
453.123	864.96
453.497	881.69
453.871	916.71
454.244	905.64
454.618	919.65
454.992	925.3
455.365	918.75
455.739	965.3
456.112	970.5
456.486	959.65
456.859	975.02
457.232	979.08
457.606	978.18
457.979	970.05
458.352	1013.43
458.725	998.97
459.099	996.03
459.472	1024.28
459.845	1043.26
460.218	1026.09
460.591	1061.34
460.964	1053.88
461.337	1070.61
461.71	1088.91
462.083	1088.01
462.456	1082.81
462.829	1068.8
463.201	1089.59
463.574	1092.75
463.947	1099.08
464.32	1141.57
464.692	1143.15
465.065	1164.39
465.438	1153.32
465.81	1187.21
466.183	1171.85
466.555	1214.78
466.928	1215.69
467.3	1216.82
467.672	1223.37
468.045	1265.86
468.417	1291.39
468.789	1268.57
469.161	1287.78
469.534	1315.35
469.906	1340.43
470.278	1360.09
470.65	1377.94
471.022	1384.05
471.394	1378.17
471.766	1395.12
472.138	1415.46
472.51	1419.98
472.882	1443.7
473.253	1454.1
473.625	1483.7
473.997	1494.33
474.369	1527.77
474.74	1527.54
475.112	1541.56
475.484	1558.05
475.855	1587.66
476.227	1597.6
476.598	1645.96
476.97	1645.96
477.341	1708.1
477.713	1715.11
478.084	1702
478.455	1716.92
478.827	1763.7
479.198	1798.05
479.569	1817.71
479.94	1837.59
480.311	1847.31
480.682	1892.96
481.053	1899.74
481.424	1969.34
481.795	1965.5
482.166	1982.22
482.537	2057.25
482.908	2055.89
483.279	2088.21
483.65	2116.46
484.021	2172.05
484.391	2186.96
484.762	2197.13
485.133	2221.31
485.503	2239.62
485.874	2258.82
486.244	2294.53
486.615	2338.14
486.985	2359.39
487.356	2385.6
487.726	2396.22
488.097	2447.52
488.467	2460.4
488.837	2507.63
489.207	2535.65
489.578	2576.1
489.948	2601.64
490.318	2620.62
490.688	2601.64
491.058	2662.43
491.428	2692.03
491.798	2737.46
492.168	2743.78
492.538	2731.81
492.908	2808.64
493.278	2837.34
493.648	2847.06
494.017	2857.45
494.387	2889.32
494.757	2911.91
495.126	2923.44
495.496	2942.42
495.866	2989.88
496.235	3005.47
496.605	3025.58
496.974	2998.47
497.344	3025.81
497.713	3073.72
498.082	3108.97
498.452	3105.36
498.821	3148.52
499.19	3175.18
499.559	3156.43
499.928	3192.81
500.298	3194.39
500.667	3258.12
501.036	3266.03
501.405	3278.91
501.774	3306.03
502.143	3332.69
502.512	3363.43
502.88	3376.31
503.249	3388.74
503.618	3392.13
503.987	3446.82
504.356	3498.34
504.724	3479.58
505.093	3521.16
505.462	3531.56
505.83	3548.06
506.199	3565.68
506.567	3645.45
506.936	3623.08
507.304	3614.95
507.672	3684.78
508.041	3728.62
508.409	3703.53
508.777	3722.74
509.145	3794.6
509.514	3737.66
509.882	3787.37
510.25	3817.88
510.618	3823.98
510.986	3808.39
511.354	3892.23
511.722	3930.42
512.09	3965.9
512.458	3954.37
512.826	3962.96
513.193	4002.28
513.561	4020.36
513.929	4048.38
514.297	4033.47
514.664	4161.6
515.032	4142.17
515.4	4139.45
515.767	4148.94
516.135	4183.07
516.502	4168.38
516.869	4244.76
517.237	4291.31
517.604	4287.92
517.972	4342.84
518.339	4327.24
518.706	4383.06
519.073	4430.29
519.44	4453.34
519.808	4479.11
520.175	4457.86
520.542	4559.1
520.909	4581.93
521.276	4523.85
521.643	4629.38
522.009	4625.32
522.376	4681.81
522.743	4728.59
523.11	4760.23
523.477	4825.31
523.843	4821.92
524.21	4869.15
524.577	4892.88
524.943	4958.41
525.31	4955.93
525.676	4968.58
526.043	4983.72
526.409	5036.83
526.776	5087.45
527.142	5134.46
527.508	5135.59
527.874	5179.2
528.241	5238.18
528.607	5230.05
528.973	5293.1
529.339	5284.73
529.705	5359.53
530.071	5356.6
530.437	5420.55
530.803	5428.23
531.169	5469.81
531.535	5541.68
531.901	5543.48
532.267	5525.18
532.632	5600.43
532.998	5664.84
533.364	5683.37
533.73	5687.66
534.095	5709.58
534.461	5729.92
534.826	5799.52
535.192	5773.53
535.557	5795.23
535.923	5832.52
536.288	5834.1
536.653	5875.9
537.019	5853.76
537.384	5926.07
537.749	5934.89
538.114	5966.07
538.479	5986.86
538.845	5974.89
539.21	5959.74
539.575	5968.56
539.94	6057.59
540.305	6066.41
540.67	6122.23
541.034	6119.74
541.399	6173.75
541.764	6178.72
542.129	6162
542.494	6251.04
542.858	6219.17
543.223	6239.51
543.587	6267.98
543.952	6249.68
544.316	6261.43
544.681	6277.93
545.045	6274.09
545.41	6371.94
545.774	6358.38
546.138	6312.28
546.503	6388.66
546.867	6402.67
547.231	6444.03
547.595	6445.16
547.959	6453.06
548.324	6475.21
548.688	6478.37
549.052	6518.83
549.416	6495.32
549.779	6496
550.143	6560.86
550.507	6641.99
550.871	6628.2
551.235	6648.54
551.599	6663
551.962	6686.96
552.326	6688.76
552.689	6778.03
553.053	6776.67
553.417	6813.96
553.78	6881.08
554.143	6846.5
554.507	6918.14
554.87	6924.46
555.234	6968.53
555.597	6872.49
555.96	7006.04
556.323	7074.07
556.686	7075.65
557.05	7105.93
557.413	7124.46
557.776	7130.56
558.139	7251.69
558.502	7281.74
558.865	7302.08
559.228	7370.55
559.59	7347.28
559.953	7345.24
560.316	7480.83
560.679	7485.13
561.041	7444
561.404	7516.99
561.767	7597.44
562.129	7584.56
562.492	7645.58
562.854	7719.92
563.217	7712.24
563.579	7726.7
563.941	7768.51
564.304	7841.28
564.666	7835.4
565.028	7815.74
565.39	7874.72
565.753	7933.48
566.115	7985
566.477	8005.11
566.839	7947.94
567.201	8022.29
567.563	8109.07
567.925	8122.4
568.287	8144.32
568.648	8176.86
569.01	8150.87
569.372	8199.46
569.734	8248.95
570.095	8297.99
570.457	8348.83
570.819	8370.75
571.18	8378.66
571.542	8440.13
571.903	8414.82
572.265	8469.96
572.626	8487.59
572.987	8497.98
573.349	8530.75
573.71	8568.72
574.071	8544.54
574.432	8593.35
574.794	8674.93
575.155	8674.7
575.516	8703.85
575.877	8688.49
576.238	8719.22
576.599	8809.16
576.96	8817.3
577.32	8751.76
577.681	8846.9
578.042	8821.14
578.403	8883.51
578.763	8869.05
579.124	8964.86
579.485	8956.95
579.845	8989.72
580.206	9011.19
580.566	8974.58
580.927	8945.65
581.287	9005.09
581.648	9033.11
582.008	9048.7
582.368	9051.64
582.728	9030.17
583.089	9071.75
583.449	9050.28
583.809	9010.74
584.169	9114.92
584.529	9055.03
584.889	9121.02
585.249	9041.92
585.609	9042.15
585.969	9171.41
586.329	9106.78
586.688	9125.99
587.048	9094.35
587.408	9106.33
587.768	9092.09
588.127	9082.37
588.487	9048.7
588.846	9113.11
589.206	9102.26
589.565	9044.86
589.925	9106.55
590.284	9135.48
590.643	9062.94
591.003	9159.89
591.362	9158.53
591.721	9058.19
592.08	9111.75
592.44	9146.55
592.799	9112.43
593.158	9062.94
593.517	9076.5
593.876	9151.98
594.235	9137.51
594.593	9095.93
594.952	9120.34
595.311	9082.6
595.67	9109.72
596.029	9149.72
596.387	9128.93
596.746	9151.98
597.104	9107.46
597.463	9107.23
597.822	9160.11
598.18	9167.8
598.538	9070.4
598.897	9204.18
599.255	9124.18
599.613	9270.84
599.972	9124.41
600.33	9198.98
600.688	9156.72
601.046	9181.58
601.404	9187
601.762	9216.16
602.12	9251.18
602.478	9210.96
602.836	9172.09
603.194	9230.17
603.552	9292.99
603.91	9212.77
604.268	9277.17
604.625	9221.58
604.983	9238.3
605.341	9199.66
605.698	9336.15
606.056	9337.28
606.413	9321.01
606.771	9372.54
607.128	9318.3
607.485	9325.53
607.843	9288.47
608.2	9302.93
608.557	9409.15
608.914	9433.55
609.272	9457.51
609.629	9382.93
609.986	9437.85
610.343	9407.56
610.7	9451.18
611.057	9432.65
611.414	9429.48
611.771	9485.3
612.127	9450.5
612.484	9427.45
612.841	9526.2
613.198	9470.61
613.554	9487.79
613.911	9580.21
614.267	9565.98
614.624	9550.16
614.98	9530.05
615.337	9534.11
615.693	9587.45
616.05	9536.83
616.406	9568.01
616.762	9519.2
617.118	9542.25
617.475	9488.01
617.831	9590.38
618.187	9610.72
618.543	9643.49
618.899	9659.08
619.255	9645.52
619.611	9544.73
619.967	9555.58
620.323	9625.18
620.678	9635.58
621.034	9556.94
621.39	9615.24
621.746	9630.61
622.101	9666.09
622.457	9619.54
622.812	9637.61
623.168	9643.72
623.523	9641.91
623.879	9723.04
624.234	9622.7
624.589	9631.29
624.945	9656.6
625.3	9701.79
625.655	9687.1
626.01	9662.25
626.365	9739.31
626.72	9722.58
627.075	9708.12
627.43	9673.09
627.785	9680.55
628.14	9734.79
628.495	9755.12
628.85	9745.63
629.205	9752.41
629.559	9754.22
629.914	9720.1
630.269	9706.09
630.623	9658.63
630.978	9687.56
631.332	9753.54
631.687	9795.35
632.041	9745.86
632.396	9745.86
632.75	9690.04
633.104	9689.14
633.459	9749.48
633.813	9697.5
634.167	9703.6
634.521	9704.28
634.875	9681.68
635.229	9688.46
635.583	9692.3
635.937	9675.58
636.291	9617.5
636.645	9635.81
636.999	9664.73
637.352	9644.39
637.706	9653.21
638.06	9653.21
638.413	9632.87
638.767	9571.63
639.121	9600.55
639.474	9523.49
639.828	9582.02
640.181	9610.5
640.534	9563.49
640.888	9478.3
641.241	9445.98
641.594	9551.51
641.947	9510.16
642.301	9500.67
642.654	9488.01
643.007	9492.31
643.36	9489.6
643.713	9389.26
644.066	9454.12
644.419	9401.24
644.771	9275.14
645.124	9212.09
645.477	9187.68
645.83	9103.62
646.182	9119.44
646.535	9064.75
646.888	9173.22
647.24	9021.13
647.593	9087.57
647.945	9116.95
648.298	9010.51
648.65	8964.86
649.002	8952.43
649.355	8986.56
649.707	8973
650.059	8956.05
650.411	9102.26
650.763	9051.19
651.115	9194.01
651.467	9099.1
651.819	9168.25
652.171	9078.31
652.523	9112.2
652.875	9051.19
653.227	8996.5
653.578	9114.92
653.93	9106.1
654.282	9071.75
654.633	9044.64
654.985	9039.44
655.337	9046.22
655.688	9077.4
656.039	9033.56
656.391	8910.18
656.742	9006.22
657.094	8993.56
657.445	9072.66
657.796	9006.22
658.147	8979.55
658.498	9013.9
658.849	9042.6
659.2	9039.66
659.551	9011.19
659.902	9033.34
660.253	8989.04
660.604	9044.64
660.955	9027.91
661.306	9051.41
661.656	9030.4
662.007	9019.55
662.358	8968.48
662.708	8988.37
663.059	9020.91
663.409	8936.39
663.76	9025.65
664.11	9049.61
664.461	8964.41
664.811	8968.03
665.161	8999.66
665.511	8872.89
665.862	8945.2
666.212	8964.19
666.562	8972.09
666.912	8924.41
667.262	8925.32
667.612	8885.32
667.962	8917.18
668.312	8904.07
668.662	8921.25
669.011	8901.36
669.361	8848.26
669.711	8920.12
670.06	8936.39
670.41	8839.89
670.76	8880.57
671.109	8905.43
671.459	8921.02
671.808	8842.38
672.157	8882.83
672.507	8862.72
672.856	8840.57
673.205	8854.13
673.554	8850.52
673.904	8776.85
674.253	8775.49
674.602	8749.5
674.951	8596.29
675.3	8568.72
675.649	8755.38
675.998	8718.32
676.346	8784.53
676.695	8724.19
677.044	8671.54
677.393	8643.97
677.741	8645.78
678.09	8623.18
678.438	8681.03
678.787	8631.31
679.135	8664.76
679.484	8534.14
679.832	8588.15
680.181	8585.44
680.529	8578.21
680.877	8580.24
681.225	8529.39
681.573	8501.37
681.922	8501.82
682.27	8516.97
682.618	8427.48
682.966	8424.76
683.314	8519.45
683.661	8469.28
684.009	8381.83
684.357	8401.04
684.705	8380.47
685.053	8380.7
685.4	8474.93
685.748	8332.34
686.095	8359.46
686.443	8312
686.79	8305.22
687.138	8290.76
687.485	8310.87
687.832	8276.97
688.18	8317.2
688.527	8300.02
688.874	8301.15
689.221	8211.66
689.568	8168.5
689.915	8226.35
690.262	8230.87
690.609	8232.68
690.956	8191.55
691.303	8178.9
691.65	8184.54
691.997	8194.49
692.344	8159.91
692.69	8090.76
693.037	8106.58
693.383	8098.45
693.73	8117.65
694.077	8019.35
694.423	8016.41
694.769	8001.5
695.116	8028.39
695.462	7961.5
695.808	8000.37
696.155	7968.51
696.501	7996.3
696.847	7928.96
697.193	7871.33
697.539	7831.33
697.885	7796.53
698.231	7800.83
698.577	7789.98
698.923	7823.88
699.269	7725.57
699.614	7718.34
699.96	7709.53
700.306	7778.91
700.651	7646.03
700.997	7730.32
701.342	7717.44
701.688	7651.68
702.033	7636.08
702.379	7651.68
702.724	7582.53
703.069	7598.12
703.415	7492.81
703.76	7481.96
704.105	7503.88
704.45	7429.76
704.795	7457.78
705.14	7455.07
705.485	7414.85
705.83	7354.74
706.175	7415.07
706.52	7357.22
706.865	7331.91
707.209	7262.76
707.554	7279.26
707.899	7233.61
708.243	7279.26
708.588	7229.09
708.932	7250.78
709.277	7179.6
709.621	7228.41
709.966	7123.1
710.31	7070
710.654	7033.84
710.998	7078.81
711.342	7114.97
711.687	7086.49
712.031	7015.08
712.375	7027.74
712.719	6994.07
713.063	6968.31
713.407	7055.53
713.75	6933.28
714.094	6879.95
714.438	6849.66
714.782	6901.41
715.125	6855.54
715.469	6882.66
715.812	6867.74
716.156	6815.99
716.499	6856.67
716.843	6841.08
717.186	6781.87
717.53	6848.76
717.873	6804.47
718.216	6808.99
718.559	6756.79
718.902	6710.91
719.246	6731.7
719.589	6681.76
719.932	6637.01
720.275	6737.13
720.617	6735.32
720.96	6701.87
721.303	6648.54
721.646	6620.52
721.989	6609.22
722.331	6626.39
722.674	6576.45
723.016	6625.26
723.359	6557.24
723.701	6659.84
724.044	6578.03
724.386	6555.66
724.729	6569.45
725.071	6586.62
725.413	6589.11
725.755	6521.76
726.097	6523.8
726.439	6492.39
726.782	6517.7
727.124	6536.23
727.465	6578.94
727.807	6540.29
728.149	6547.75
728.491	6444.25
728.833	6498.71
729.175	6438.15
729.516	6506.4
729.858	6505.49
730.199	6500.3
730.541	6497.13
730.882	6462.56
731.224	6437.02
731.565	6476.79
731.906	6432.05
732.248	6438.6
732.589	6453.06
732.93	6440.86
733.271	6466.85
733.612	6486.96
733.953	6515.89
734.294	6430.01
734.635	6440.18
734.976	6406.74
735.317	6414.65
735.658	6397.25
735.999	6442.22
736.339	6375.78
736.68	6430.69
737.021	6416.23
737.361	6374.87
737.702	6384.59
738.042	6361.99
738.383	6364.48
738.723	6383.01
739.063	6357.25
739.404	6399.51
739.744	6378.72
740.084	6345.72
740.424	6322.22
740.764	6277.48
741.104	6344.14
741.444	6319.28
741.784	6304.14
742.124	6230.47
742.464	6249.91
742.804	6242
743.143	6222.56
743.483	6211.49
743.823	6198.16
744.162	6222.11
744.502	6173.52
744.841	6157.48
745.181	6158.38
745.52	6166.52
745.86	6190.47
746.199	6167.2
746.538	6136.46
746.877	6115.22
747.216	6117.48
747.556	6073.19
747.895	6089.68
748.234	6063.02
748.573	5978.73
748.911	6091.27
749.25	6075.67
749.589	5972.4
749.928	5994.09
750.267	6015.34
750.605	6032.06
750.944	6015.56
751.283	5941.44
751.621	5919.75
751.96	5902.12
752.298	5928.78
752.636	5894.44
752.975	5872.52
753.313	5848.33
753.651	5900.99
753.989	5864.38
754.327	5807.43
754.666	5762.46
755.004	5835.68
755.342	5814.66
755.679	5836.36
756.017	5705.97
756.355	5738.28
756.693	5715.91
757.031	5766.53
757.368	5715.01
757.706	5697.15
758.044	5689.24
758.381	5676.36
758.719	5632.97
759.056	5604.95
759.394	5599.3
759.731	5587.1
760.068	5588.45
760.405	5593.2
760.743	5540.55
761.08	5536.7
761.417	5535.12
761.754	5472.07
762.091	5503.26
762.428	5460.77
762.765	5480.89
763.102	5505.52
763.438	5409.48
763.775	5410.83
764.112	5466.2
764.449	5409.02
764.785	5430.04
765.122	5332.42
765.458	5331.29
765.795	5367.22
766.131	5351.62
766.467	5350.04
766.804	5342.36
767.14	5269.59
767.476	5257.39
767.812	5201.35
768.148	5226.88
768.485	5239.76
768.821	5220.33
769.157	5193.66
769.492	5142.82
769.828	5196.37
770.164	5098.75
770.5	5094.91
770.836	5123.61
771.171	5117.05
771.507	5055.59
771.842	5060.11
772.178	5013.78
772.513	4988.24
772.849	5001.8
773.184	4963.39
773.519	4980.34
773.855	4944.63
774.19	4962.93
774.525	4934.69
774.86	4924.07
775.195	4931.75
775.53	4937.4
775.865	4892.88
776.2	4841.36
776.535	4825.76
776.87	4856.04
777.205	4801.58
777.539	4778.98
777.874	4797.52
778.209	4742.38
778.543	4745.31
778.878	4770.85
779.212	4684.3
779.547	4717.29
779.881	4684.52
780.215	4689.5
780.55	4673.9
780.884	4657.63
781.218	4644.52
781.552	4656.95
781.886	4597.75
782.22	4553.68
782.554	4565.2
782.888	4499.22
783.222	4520.91
783.556	4506.9
783.889	4507.35
784.223	4494.92
784.557	4429.16
784.89	4379.22
785.224	4386.9
785.557	4392.1
785.891	4361.59
786.224	4359.56
786.558	4334.48
786.891	4322.5
787.224	4287.7
787.557	4311.43
787.891	4263.74
788.224	4258.55
788.557	4254.93
788.89	4258.55
789.223	4196.17
789.556	4168.83
789.888	4170.64
790.221	4157.98
790.554	4132.45
790.887	4092.9
791.219	4099.68
791.552	4079.57
791.884	4083.41
792.217	4053.81
792.549	4018.33
792.882	3996.18
793.214	3992.56
793.546	3960.7
793.879	4000.47
794.211	3967.48
794.543	3960.93
794.875	3964.09
795.207	3952.34
795.539	3916.41
795.871	3921.61
796.203	3901.04
796.535	3870.99
796.867	3867.14
797.198	3855.39
797.53	3826.02
797.862	3807.48
798.193	3825.79
798.525	3765.23
798.856	3809.52
799.188	3762.06
799.519	3803.42
799.85	3733.81
800.182	3701.95
800.513	3727.94
800.844	3676.41
801.175	3685.91
801.506	3706.7
801.837	3686.36
802.168	3656.98
802.499	3659.69
802.83	3705.34
803.161	3635.51
803.491	3583.76
803.822	3627.15
804.153	3619.92
804.483	3618.79
804.814	3602.74
805.145	3559.13
805.475	3600.48
805.805	3604.55
806.136	3544.89
806.466	3596.64
806.796	3534.05
807.126	3540.37
807.457	3528.4
807.787	3551.45
808.117	3554.16
808.447	3484.33
808.777	3518.45
809.107	3541.95
809.436	3468.28
809.766	3474.16
810.096	3471
810.426	3513.26
810.755	3498.57
811.085	3494.95
811.414	3482.97
811.744	3433.26
812.073	3482.75
812.403	3463.54
812.732	3448.62
813.061	3435.74
813.39	3411.11
813.719	3389.87
814.049	3437.55
814.378	3433.48
814.707	3431.68
815.036	3417.89
815.365	3406.14
815.693	3360.49
816.022	3401.85
816.351	3385.12
816.68	3402.07
817.008	3392.81
817.337	3350.77
817.665	3365.46
817.994	3341.73
818.322	3353.03
818.651	3329.53
818.979	3351.9
819.307	3337.67
819.636	3343.54
819.964	3339.47
820.292	3315.07
820.62	3305.58
820.948	3276.2
821.276	3308.29
821.604	3286.82
821.932	3280.04
822.259	3325.69
822.587	3292.7
822.915	3284.56
823.243	3315.29
823.57	3317.1
823.898	3331.79
824.225	3307.84
824.553	3332.24
824.88	3269.42
825.207	3287.95
825.535	3253.6
825.862	3310.32
826.189	3287.27
826.516	3306.93
826.843	3296.54
827.17	3328.4
827.497	3305.12
827.824	3294.73
828.151	3353.03
828.478	3279.36
828.805	3293.15
829.131	3261.06
829.458	3251.12
829.785	3298.35
830.111	3299.25
830.438	3314.16
830.764	3294.73
831.09	3327.05
831.417	3274.62
831.743	3288.63
832.069	3331.34
832.395	3264
832.722	3300.61
833.048	3232.58
833.374	3254.28
833.7	3225.13
834.026	3263.32
834.351	3232.36
834.677	3241.85
835.003	3273.49
835.329	3238.01
835.654	3254.96
835.98	3209.99
836.306	3216.77
836.631	3233.49
836.956	3247.5
837.282	3184.22
837.607	3189.2
837.932	3213.38
838.258	3196.88
838.583	3205.47
838.908	3175.64
839.233	3162.98
839.558	3187.39
839.883	3169.31
840.208	3132.25
840.533	3153.94
840.858	3177.67
841.182	3183.55
841.507	3160.27
841.832	3143.77
842.156	3143.55
842.481	3169.76
842.805	3147.84
843.13	3144.45
843.454	3120.72
843.778	3121.85
844.103	3125.24
844.427	3078.24
844.751	3099.03
845.075	3068.07
845.399	3072.81
845.723	3115.3
846.047	3093.83
846.371	3071.01
846.695	3052.93
847.019	3018.58
847.343	3021.74
847.666	3015.42
847.99	3010.67
848.313	2992.14
848.637	2978.35
848.96	2965.25
849.284	2998.01
849.607	3006.38
849.931	2946.26
850.254	2926.83
850.577	2944.68
850.9	2938.35
851.223	2898.58
851.546	2892.03
851.869	2899.49
852.192	2913.5
852.515	2836.89
852.838	2903.78
853.161	2887.96
853.483	2864.46
853.806	2887.96
854.129	2824.91
854.451	2825.14
854.774	2831.92
855.096	2809.54
855.419	2816.78
855.741	2817.91
856.063	2777
856.385	2762.77
856.708	2764.12
857.03	2793.05
857.352	2761.64
857.674	2770.22
857.996	2803.22
858.318	2754.86
858.64	2764.35
858.961	2759.6
859.283	2720.28
859.605	2716.67
859.926	2758.02
860.248	2703.78
860.57	2753.28
860.891	2731.13
861.212	2724.12
861.534	2745.14
861.855	2655.65
862.176	2698.14
862.498	2697.46
862.819	2697.23
863.14	2687.29
863.461	2696.55
863.782	2655.2
864.103	2683.9
864.424	2680.73
864.745	2668.53
865.065	2655.88
865.386	2637.12
865.707	2628.08
866.027	2631.92
866.348	2659.94
866.668	2649.1
866.989	2645.03
867.309	2632.83
867.63	2659.72
867.95	2615.65
868.27	2591.92
868.59	2614.52
868.91	2620.85
869.23	2609.78
869.55	2581.3
869.87	2593.73
870.19	2566.61
870.51	2596.89
870.83	2605.93
871.15	2549.66
871.469	2542.66
871.789	2570.91
872.109	2559.83
872.428	2575.43
872.748	2572.71
873.067	2561.19
873.386	2574.07
873.706	2569.1
874.025	2543.56
874.344	2501.53
874.663	2549.21
874.982	2512.38
875.301	2534.75
875.62	2510.12
875.939	2491.81
876.258	2488.2
876.577	2499.04
876.896	2482.55
877.214	2478.25
877.533	2515.77
877.852	2513.28
878.17	2494.52
878.489	2482.1
878.807	2460.63
879.125	2480.51
879.444	2465.15
879.762	2459.05
880.08	2449.1
880.398	2435.54
880.716	2428.76
881.034	2468.54
881.352	2449.33
881.67	2403.45
881.988	2461.31
882.306	2424.47
882.624	2374.3
882.941	2388.76
883.259	2397.13
883.577	2391.48
883.894	2359.84
884.212	2383.12
884.529	2353.74
884.846	2379.5
885.164	2364.58
885.481	2343.57
885.798	2352.16
886.115	2329.78
886.432	2350.8
886.75	2311.03
887.067	2325.04
887.383	2307.41
887.7	2311.25
888.017	2275.1
888.334	2292.04
888.651	2285.04
888.967	2258.82
889.284	2280.97
889.6	2249.56
889.917	2241.88
890.233	2249.56
890.55	2224.93
890.866	2234.42
891.182	2214.53
891.498	2236.9
891.815	2263.12
892.131	2206.4
892.447	2213.4
892.763	2206.62
893.079	2212.27
893.395	2187.87
893.71	2144.48
894.026	2208.88
894.342	2197.36
894.657	2134.76
894.973	2134.76
895.289	2162.56
895.604	2143.12
895.92	2167.08
896.235	2127.98
896.55	2133.4
896.865	2110.35
897.181	2107.19
897.496	2137.02
897.811	2137.02
898.126	2076.46
898.441	2092.73
898.756	2097.25
899.071	2079.85
899.386	2083.91
899.7	2054.54
900.015	2012.05
900.33	2049.79
900.644	2061.54
900.959	2036.23
901.273	2031.94
901.588	2035.78
901.902	1996.68
902.216	2022.9
902.531	1995.55
902.845	1995.55
903.159	1995.55
903.473	2004.59
903.787	1965.73
904.101	1962.34
904.415	1957.82
904.729	1989
905.042	1960.98
905.356	1931.15
905.67	1944.71
905.984	1943.58
906.297	1952.17
906.611	1944.03
906.924	1927.99
907.237	1911.94
907.551	1924.6
907.864	1920.53
908.177	1890.25
908.491	1897.7
908.804	1876.24
909.117	1871.04
909.43	1847.54
909.743	1833.75
910.056	1869
910.368	1848.44
910.681	1857.03
910.994	1855.45
911.307	1801.66
911.619	1839.63
911.932	1842.56
912.244	1822.23
912.557	1809.12
912.869	1814.77
913.181	1824.26
913.494	1799.4
913.806	1807.99
914.118	1803.7
914.43	1772.51
914.742	1800.31
915.054	1786.52
915.366	1803.47
915.678	1746.75
915.99	1752.85
916.302	1705.17
916.613	1756.24
916.925	1735.22
917.236	1735.9
917.548	1719.86
917.859	1743.13
918.171	1691.38
918.482	1715.79
918.794	1743.81
919.105	1738.84
919.416	1698.16
919.727	1696.81
920.038	1704.49
920.349	1697.26
920.66	1661.78
920.971	1652.97
921.282	1667.43
921.593	1623.81
921.903	1681.66
922.214	1669.24
922.525	1634.89
922.835	1617.71
923.146	1642.12
923.456	1651.84
923.767	1615.68
924.077	1627.43
924.387	1629.91
924.697	1606.86
925.008	1588.33
925.318	1615.68
925.628	1582.46
925.938	1606.64
926.248	1595.34
926.558	1559.63
926.867	1544.27
927.177	1538.39
927.487	1554.44
927.796	1554.21
928.106	1545.62
928.416	1578.16
928.725	1560.31
929.034	1536.58
929.344	1519.18
929.653	1529.13
929.962	1510.37
930.271	1533.65
930.581	1513.31
930.89	1527.77
931.199	1496.13
931.508	1490.26
931.817	1485.74
932.125	1481.67
932.434	1488.68
932.743	1478.51
933.051	1488.22
933.36	1454.1
933.669	1461.11
933.977	1448.9
934.286	1447.77
934.594	1418.17
934.902	1425.85
935.21	1447.32
935.519	1405.74
935.827	1397.83
936.135	1416.14
936.443	1413.65
936.751	1401.9
937.059	1381.56
937.367	1418.17
937.674	1377.27
937.982	1388.79
938.29	1399.64
938.597	1385.18
938.905	1381.11
939.213	1367.77
939.52	1365.74
939.827	1340.2
940.135	1368.23
940.442	1342.92
940.749	1349.47
941.056	1334.1
941.363	1292.52
941.67	1336.82
941.977	1301.56
942.284	1323.93
942.591	1321
942.898	1305.18
943.205	1321.67
943.511	1312.41
943.818	1304.5
944.125	1299.3
944.431	1299.08
944.738	1264.95
945.044	1264.05
945.35	1271.51
945.657	1266.31
945.963	1255.69
946.269	1282.58
946.575	1248.46
946.881	1288
947.187	1231.73
947.493	1242.58
947.799	1257.04
948.105	1205.07
948.41	1245.52
948.716	1227.44
949.022	1206.88
949.327	1241.45
949.633	1195.35
949.938	1231.96
950.244	1242.81
950.549	1206.88
950.854	1200.55
951.16	1191.06
951.465	1209.59
951.77	1205.75
952.075	1182.24
952.38	1156.93
952.685	1162.13
952.99	1165.75
953.294	1164.39
953.599	1177.95
953.904	1154
954.209	1123.04
954.513	1137.27
954.818	1143.37
955.122	1142.7
955.426	1149.02
955.731	1124.39
956.035	1117.61
956.339	1120.32
956.643	1118.29
956.948	1102.7
957.252	1118.29
957.556	1122.81
957.86	1120.55
958.163	1090.04
958.467	1121.45
958.771	1111.96
959.075	1100.21
959.378	1106.99
959.682	1103.37
959.985	1077.16
960.289	1092.75
960.592	1081.91
960.896	1073.55
961.199	1100.89
961.502	1063.15
961.805	1069.48
962.108	1072.87
962.411	1053.88
962.714	1048.69
963.017	1059.53
963.32	1042.36
963.623	1042.59
963.926	1044.62
964.228	1041.68
964.531	1034.22
964.833	1028.8
965.136	1026.77
965.438	1015.47
965.741	1000.78
966.043	1020.89
966.345	1034
966.648	1010.5
966.95	1014.34
967.252	1002.13
967.554	996.94
967.856	999.2
968.158	997.16
968.46	1014.56
968.761	993.32
969.063	995.81
969.365	1005.07
969.666	975.47
969.968	964.62
970.269	965.53
970.571	993.32
970.872	951.06
971.174	952.87
971.475	956.26
971.776	963.49
972.077	959.65
972.378	970.72
972.679	948.58
972.98	970.72
973.281	982.25
973.582	954.23
973.883	935.24
974.183	944.06
974.484	916.26
974.785	943.15
975.085	962.14
975.386	934.11
975.686	949.93
975.986	935.92
976.287	928.92
976.587	897.5
976.887	908.13
977.187	914.91
977.487	906.09
977.787	931.85
978.087	885.75
978.387	923.94
978.687	898.86
978.987	900.67
979.286	883.95
979.586	888.69
979.885	902.25
980.185	889.14
980.484	883.72
980.784	894.57
981.083	872.19
981.382	900.89
981.682	879.88
981.981	880.56
982.28	877.62
982.579	850.95
982.878	858.86
983.177	849.6
983.475	866.55
983.774	879.43
984.073	850.05
984.372	852.53
984.67	871.52
984.969	848.47
985.267	840.11
985.566	844.62
985.864	835.36
986.162	822.7
986.461	819.99
986.759	858.86
987.057	828.81
987.355	810.28
987.653	848.47
987.951	819.77
988.249	812.76
988.547	808.69
988.844	794.68
989.142	812.54
989.44	796.72
989.737	814.79
990.035	815.02
990.332	827.68
990.63	795.36
990.927	758.75
991.224	807.79
991.521	804.17
991.819	790.16
992.116	765.76
992.413	785.87
992.71	808.24
993.006	789.71
993.303	774.57
993.6	801.91
993.897	791.07
994.193	772.31
994.49	785.87
994.787	754.91
995.083	748.36
995.379	776.6
995.676	766.66
995.972	763.5
996.268	751.29
996.565	754.46
996.861	763.95
997.157	733.44
997.453	754.91
997.749	755.14
998.044	736.38
998.34	716.94
998.636	728.47
998.932	749.03
999.227	738.41
999.523	724.85
999.818	721.24
1000.114	700.9
1000.409	720.79
1000.704	728.92
1001	728.24
1001.295	715.36
1001.59	723.95
1001.885	711.07
1002.18	726.66
1002.475	696.61
1002.77	690.5
1003.065	692.76
1003.359	684.63
1003.654	678.08
1003.949	695.02
1004.243	709.71
1004.538	675.36
1004.832	656.61
1005.127	697.28
1005.421	662.93
1005.715	663.16
1006.009	662.93
1006.304	674.01
1006.598	676.04
1006.892	662.48
1007.186	634.46
1007.48	649.6
1007.773	641.24
1008.067	644.4
1008.361	638.08
1008.655	660.67
1008.948	628.81
1009.242	618.87
1009.535	623.16
1009.829	627
1010.122	626.1
1010.415	635.82
1010.708	628.81
1011.001	617.29
1011.295	618.64
1011.588	626.55
1011.881	610.73
1012.173	619.77
1012.466	591.52
1012.759	597.63
1013.052	591.75
1013.344	603.73
1013.637	587.68
1013.93	603.05
1014.222	611.41
1014.514	588.81
1014.807	587.23
1015.099	598.76
1015.391	605.76
1015.683	609.38
1015.976	587.46
1016.268	583.84
1016.56	572.99
1016.851	567.12
1017.143	564.41
1017.435	584.07
1017.727	574.35
1018.018	569.83
1018.31	587.68
1018.602	551.07
1018.893	569.15
1019.185	566.21
1019.476	542.71
1019.767	574.35
1020.058	568.47
1020.35	551.3
1020.641	557.17
1020.932	536.61
1021.223	542.71
1021.514	549.49
1021.804	546.55
1022.095	563.5
1022.386	528.7
1022.677	543.84
1022.967	544.75
1023.258	535.48
1023.548	514.24
1023.839	528.47
1024.129	528.25
1024.419	521.47
1024.709	535.93
1025	520.34
1025.29	521.7
1025.58	514.01
1025.87	490.96
1026.16	504.07
1026.449	504.75
1026.739	497.97
1027.029	485.31
1027.319	500.45
1027.608	514.69
1027.898	495.26
1028.187	486.67
1028.477	499.77
1028.766	482.15
1029.055	479.44
1029.344	498.65
1029.634	498.42
1029.923	506.78
1030.212	506.55
1030.501	509.72
1030.79	498.42
1031.078	492.32
1031.367	468.82
1031.656	484.63
1031.945	490.51
1032.233	489.83
1032.522	490.74
1032.81	468.82
1033.099	472.88
1033.387	481.47
1033.675	467.46
1033.963	486.67
1034.251	477.18
1034.54	464.3
1034.828	480.79
1035.116	463.62
1035.403	479.89
1035.691	461.58
1035.979	464.97
1036.267	464.3
1036.554	472.43
1036.842	463.17
1037.129	440.34
1037.417	445.31
1037.704	460.68
1037.992	485.54
1038.279	451.87
1038.566	452.54
1038.853	452.54
1039.14	452.54
