Data from foam2_polystyrene_foam_FLMS001491_00098.txt Node
Date: Wed Feb 08 10:58:48 GMT 2017
User: dcchb
Spectrometer: FLMS00149
Trigger mode: 0
Integration Time (sec): 2.000000E-2
Scans to average: 10
Electric dark correction enabled: true
Nonlinearity correction enabled: false
Boxcar width: 0
XAxis mode: Wavelengths
Number of Pixels in Spectrum: 2048
>>>>>Begin Spectral Data<<<<<
341.393	-21.1
341.776	-21.1
342.16	-21.1
342.543	-64.72
342.927	-63.36
343.31	-53.87
343.693	-57.71
344.077	-56.13
344.46	-60.65
344.843	-68.78
345.226	-54.32
345.61	-22.46
345.993	-1.21
346.376	-30.14
346.759	-4.38
347.142	29.29
347.525	53.02
347.908	64.55
348.291	75.62
348.674	79.01
349.057	108.16
349.44	128.73
349.823	151.1
350.206	171.21
350.588	201.72
350.971	196.52
351.354	219.57
351.737	235.62
352.119	248.5
352.502	264.99
352.884	280.36
353.267	277.42
353.65	301.6
354.032	304.09
354.414	285.11
354.797	302.28
355.179	320.58
355.562	314.48
355.944	327.36
356.326	349.28
356.709	333.92
357.091	330.75
357.473	349.28
357.855	327.59
358.238	356.97
358.62	331.21
359.002	338.89
359.384	345.67
359.766	331.88
360.148	344.09
360.53	333.24
360.912	338.44
361.294	346.35
361.676	352.22
362.057	333.69
362.439	354.71
362.821	355.39
363.203	323.07
363.584	322.17
363.966	351.77
364.348	337.53
364.729	333.92
365.111	326.46
365.493	335.27
365.874	321.49
366.256	335.05
366.637	349.06
367.019	319.68
367.4	321.94
367.781	334.14
368.163	307.7
368.544	357.42
368.925	345.22
369.306	335.73
369.688	335.95
370.069	320.13
370.45	341.6
370.831	323.97
371.212	341.83
371.593	328.95
371.974	339.57
372.355	334.14
372.736	338.66
373.117	333.69
373.498	346.8
373.879	362.62
374.26	339.34
374.641	348.61
375.021	332.11
375.402	352.67
375.783	367.14
376.163	364.88
376.544	345.22
376.925	351.09
377.305	367.82
377.686	372.11
378.066	370.98
378.447	382.73
378.827	362.62
379.208	359.23
379.588	349.51
379.968	365.33
380.349	399
380.729	379.79
381.109	372.33
381.489	395.16
381.87	377.53
382.25	364.88
382.63	382.28
383.01	380.7
383.39	389.96
383.77	397.19
384.15	409.62
384.53	403.07
384.91	399.45
385.29	414.37
385.67	409.85
386.049	416.63
386.429	438.55
386.809	425.89
387.189	417.76
387.568	437.19
387.948	436.51
388.328	439
388.707	421.37
389.087	442.16
389.466	441.49
389.846	459.11
390.225	442.16
390.605	448.72
390.984	458.21
391.363	445.33
391.743	445.55
392.122	475.61
392.501	474.25
392.881	473.8
393.26	460.69
393.639	478.09
394.018	467.93
394.397	484.2
394.776	475.83
395.155	475.38
395.534	490.75
395.913	497.3
396.292	507.92
396.671	486
397.05	495.95
397.429	518.32
397.808	541.37
398.186	512.44
398.565	521.71
398.944	530.3
399.323	524.87
399.701	507.7
400.08	495.95
400.458	526.46
400.837	548.38
401.215	550.86
401.594	554.25
401.972	570.3
402.351	532.1
402.729	576.85
403.107	577.3
403.486	577.08
403.864	587.92
404.242	595.61
404.62	590.86
404.999	601.48
405.377	590.86
405.755	589.5
406.133	590.18
406.511	595.15
406.889	608.26
407.267	617.3
407.645	618.2
408.023	645.55
408.401	653.68
408.779	627.7
409.156	649.62
409.534	658.43
409.912	668.37
410.29	663.85
410.667	677.41
411.045	660.91
411.422	667.47
411.8	690.97
412.178	694.59
412.555	710.41
412.933	723.51
413.31	713.34
413.687	722.61
414.065	749.5
414.442	761.7
414.819	767.35
415.197	768.26
415.574	759.9
415.951	768.48
416.328	765.54
416.705	770.52
417.082	772.1
417.46	774.36
417.837	804.41
418.214	791.53
418.591	835.15
418.967	822.27
419.344	815.26
419.721	840.35
420.098	833.11
420.475	857.29
420.852	854.81
421.228	853
421.605	893.9
421.982	883.73
422.358	880.8
422.735	901.36
423.111	898.2
423.488	887.12
423.864	898.65
424.241	930.06
424.617	939.78
424.994	924.18
425.37	961.02
425.746	951.75
426.123	938.42
426.499	965.54
426.875	982.49
427.251	995.14
427.627	1012.77
428.003	1027.68
428.379	1017.52
428.756	1044.63
429.132	1036.95
429.507	1059.55
429.883	1082.15
430.259	1104.29
430.635	1096.84
431.011	1115.82
431.387	1122.82
431.763	1152.2
432.138	1167.12
432.514	1197.62
432.89	1205.76
433.265	1188.13
433.641	1197.17
434.016	1237.4
434.392	1252.31
434.767	1272.42
435.143	1267.9
435.518	1285.31
435.894	1264.97
436.269	1309.94
436.644	1333.21
437.02	1336.38
437.395	1338.19
437.77	1382.25
438.145	1381.8
438.52	1382.25
438.895	1449.37
439.271	1410.05
439.646	1431.06
440.021	1453.44
440.395	1424.51
440.77	1470.61
441.145	1464.28
441.52	1485.98
441.895	1503.83
442.27	1519.2
442.645	1506.09
443.019	1553.77
443.394	1542.47
443.769	1568.46
444.143	1557.84
444.518	1591.96
444.892	1597.39
445.267	1603.71
445.641	1622.02
446.016	1646.88
446.39	1676.26
446.764	1658.18
447.139	1673.54
447.513	1685.29
447.887	1701.79
448.262	1705.41
448.636	1710.83
449.01	1717.38
449.384	1730.72
449.758	1742.47
450.132	1795.57
450.506	1795.57
450.88	1831.73
451.254	1805.97
451.628	1824.05
452.002	1883.03
452.376	1862.24
452.75	1896.81
453.123	1893.88
453.497	1930.71
453.871	1941.56
454.244	1969.13
454.618	1999.86
454.992	2008.68
455.365	2028.11
455.739	2061.1
456.112	2069.47
456.486	2091.16
456.859	2109.69
457.232	2128.22
457.606	2126.64
457.979	2129.35
458.352	2220.2
458.725	2189.24
459.099	2234.43
459.472	2302.91
459.845	2304.71
460.218	2300.87
460.591	2346.07
460.964	2333.19
461.337	2351.72
461.71	2386.75
462.083	2417.25
462.456	2412.96
462.829	2438.95
463.201	2497.93
463.574	2454.09
463.947	2540.87
464.32	2589.68
464.692	2601.43
465.065	2629.9
465.438	2664.93
465.81	2694.99
466.183	2723.01
466.555	2772.27
466.928	2778.6
467.3	2795.77
467.672	2808.65
468.045	2907.86
468.417	2899.5
468.789	2913.28
469.161	2957.8
469.534	3008.65
469.906	3064.02
470.278	3062.21
470.65	3091.36
471.022	3174.97
471.394	3241.41
471.766	3287.29
472.138	3255.42
472.51	3325.25
472.882	3438.69
473.253	3407.06
473.625	3442.54
473.997	3504.23
474.369	3578.35
474.74	3605.7
475.112	3656.54
475.484	3727.05
475.855	3771.57
476.227	3801.62
476.598	3903.09
476.97	3921.62
477.341	4032.8
477.713	4065.8
478.084	4069.41
478.455	4198.9
478.827	4206.58
479.198	4349.63
479.569	4343.3
479.94	4485.22
480.311	4522.51
480.682	4606.8
481.053	4723.63
481.424	4780.35
481.795	4785.78
482.166	4899.9
482.537	4938.32
482.908	5053.57
483.279	5094.24
483.65	5167.01
484.021	5247.01
484.391	5314.35
484.762	5376.5
485.133	5468.47
485.503	5482.71
485.874	5690.84
486.244	5664.63
486.615	5775.58
486.985	5857.39
487.356	5924.05
487.726	5986.2
488.097	6155.23
488.467	6163.37
488.837	6296.47
489.207	6374.44
489.578	6424.15
489.948	6515.22
490.318	6540.08
490.688	6565.17
491.058	6673.64
491.428	6787.76
491.798	6854.2
492.168	7037.24
492.538	7037.7
492.908	7064.14
493.278	7198.14
493.648	7193.85
494.017	7387.74
494.387	7394.75
494.757	7524.46
495.126	7630
495.496	7556.55
495.866	7606.27
496.235	7716.1
496.605	7835.64
496.974	7890.33
497.344	7920.84
497.713	8000.83
498.082	8082.19
498.452	8159.25
498.821	8157.67
499.19	8232.47
499.559	8280.15
499.928	8354.05
500.298	8422.74
500.667	8493.48
501.036	8454.83
501.405	8582.51
501.774	8587.26
502.143	8712.23
502.512	8707.71
502.88	8818.21
503.249	8800.36
503.618	8944.09
503.987	8908.38
504.356	8986.35
504.724	9068.15
505.093	9136.4
505.462	9201.26
505.83	9205.55
506.199	9349.73
506.567	9418.42
506.936	9445.77
507.304	9601.47
507.672	9563.51
508.041	9673.79
508.409	9721.47
508.777	9829.94
509.145	9881.92
509.514	9980.22
509.882	9925.08
510.25	10084.62
510.618	10151.29
510.986	10078.07
511.354	10249.36
511.722	10305.41
512.09	10403.26
512.458	10422.24
512.826	10537.49
513.193	10547.89
513.561	10678.96
513.929	10720.76
514.297	10841.44
514.664	10831.27
515.032	11010.7
515.4	11060.19
515.767	11048.44
516.135	11221.32
516.502	11080.75
516.869	11387.19
517.237	11364.59
517.604	11336.57
517.972	11598.71
518.339	11561.19
518.706	11668.31
519.073	11652.49
519.44	11688.2
519.808	11824.01
520.175	11920.51
520.542	12037.56
520.909	12160.95
521.276	12186.94
521.643	12421.51
522.009	12359.82
522.376	12505.35
522.743	12600.94
523.11	12693.82
523.477	12761.39
523.843	12909.41
524.21	13020.36
524.577	13059.46
524.943	13089.29
525.31	13332.67
525.676	13361.15
526.043	13447.02
526.409	13484.53
526.776	13681.14
527.142	13630.07
527.508	13776.5
527.874	13945.31
528.241	14018.76
528.607	14035.93
528.973	14217.39
529.339	14102.6
529.705	14364.74
530.071	14384.85
530.437	14519.76
530.803	14503.71
531.169	14584.62
531.535	14640.89
531.901	14755.69
532.267	14806.76
532.632	14941.9
532.998	14976.92
533.364	15082.68
533.73	15060.76
534.095	15288.1
534.461	15294.2
534.826	15297.37
535.192	15487.19
535.557	15480.86
535.923	15531.26
536.288	15531.48
536.653	15733.06
537.019	15601.09
537.384	15708.43
537.749	15778.03
538.114	15863
538.479	15960.4
538.845	15955.2
539.21	15941.87
539.575	16087.4
539.94	16041.08
540.305	16288.3
540.67	16241.07
541.034	16350.67
541.399	16432.03
541.764	16419.14
542.129	16438.35
542.494	16561.51
542.858	16592.93
543.223	16667.5
543.587	16760.38
543.952	16713.15
544.316	16792.02
544.681	16802.41
545.045	16907.49
545.41	16984.33
545.774	17063.42
546.138	17079.24
546.503	17074.27
546.867	17127.83
547.231	17290.31
547.595	17383.19
547.959	17464.99
548.324	17457.08
548.688	17523.3
549.052	17464.09
549.416	17550.41
549.779	17629.06
550.143	17741.6
550.507	17813.23
550.871	17780.24
551.235	17893.46
551.599	18081.93
551.962	18084.19
552.326	18104.3
552.689	18293.9
553.053	18187.23
553.417	18275.14
553.78	18565.3
554.143	18466.1
554.507	18578.64
554.87	18641.68
555.234	18893.2
555.597	18859.53
555.96	18832.64
556.323	18851.62
556.686	18998.51
557.05	19097.04
557.413	19095.01
557.776	19172.52
558.139	19321.67
558.502	19444.83
558.865	19435.79
559.228	19607.76
559.59	19682.56
559.953	19735.89
560.316	19926.62
560.679	19944.48
561.041	20129.78
561.404	20302.88
561.767	20354.63
562.129	20367.97
562.492	20479.83
562.854	20471.47
563.217	20439.38
563.579	20584.68
563.941	20695.87
564.304	20846.6
564.666	20996.43
565.028	21006.14
565.39	21161.39
565.753	21247.04
566.115	21332.01
566.477	21445.91
566.839	21569.52
567.201	21579.23
567.563	21567.94
567.925	21746.01
568.287	21842.05
568.648	21944.65
569.01	22028.26
569.372	22096.51
569.734	22164.76
570.095	22335.37
570.457	22382.6
570.819	22383.06
571.18	22522.94
571.542	22535.59
571.903	22662.82
572.265	22653.1
572.626	22802.25
572.987	22883.83
573.349	22875.7
573.71	22997.73
574.071	23046.77
574.432	23079.99
574.794	23294.67
575.155	23261
575.516	23227.1
575.877	23362.01
576.238	23334.44
576.599	23455.12
576.96	23500.77
577.32	23498.28
577.681	23636.58
578.042	23642.68
578.403	23619.86
578.763	23649.69
579.124	23619.41
579.485	23900.3
579.845	23877.03
580.206	23829.57
580.566	23939.4
580.927	23931.26
581.287	23981.21
581.648	23896.69
582.008	24053.97
582.368	23900.08
582.728	24083.12
583.089	24101.2
583.449	24080.19
583.809	24126.96
584.169	24060.3
584.529	24219.39
584.889	24282.44
585.249	24157.02
585.609	24069.34
585.969	24213.29
586.329	24185.27
586.688	24299.62
587.048	24230.24
587.408	24359.95
587.768	24333.96
588.127	24281.08
588.487	24207.64
588.846	24390.46
589.206	24265.49
589.565	24277.69
589.925	24402.44
590.284	24376.68
590.643	24443.11
591.003	24392.95
591.362	24440.85
591.721	24436.56
592.08	24359.95
592.44	24436.11
592.799	24475.43
593.158	24432.95
593.517	24416.22
593.876	24499.84
594.235	24377.58
594.593	24539.83
594.952	24502.77
595.311	24400.18
595.67	24551.81
596.029	24660.51
596.387	24667.52
596.746	24665.71
597.104	24414.64
597.463	24521.08
597.822	24742.32
598.18	24595.65
598.538	24585.71
598.897	24825.7
599.255	24482.66
599.613	24891.46
599.972	24684.69
600.33	24816.44
600.688	24734.41
601.046	24767.17
601.404	24846.95
601.762	24873.61
602.12	24900.96
602.478	24906.38
602.836	24968.75
603.194	24802.65
603.552	24904.12
603.91	24792.26
604.268	24962.87
604.625	24877.23
604.983	25034.96
605.341	24900.28
605.698	24947.06
606.056	25106.6
606.413	24909.32
606.771	25062.76
607.128	25151.12
607.485	24831.8
607.843	25034.06
608.2	25187.05
608.557	25230.44
608.914	25238.12
609.272	25192.47
609.629	25326.93
609.986	25424.56
610.343	25253.49
610.7	25428.4
611.057	25349.76
611.414	25355.86
611.771	25384.11
612.127	25456.42
612.484	25404.45
612.841	25452.13
613.198	25417.1
613.554	25534.61
613.911	25498
614.267	25579.13
614.624	25620.26
614.98	25696.87
615.337	25796.75
615.693	25732.57
616.05	25557.66
616.406	25793.36
616.762	25642.18
617.118	25685.79
617.475	25664.78
617.831	25698.67
618.187	25852.12
618.543	25775.51
618.899	25867.26
619.255	25889.86
619.611	25863.42
619.967	25859.8
620.323	25948.61
620.678	25835.17
621.034	25659.13
621.39	25690.77
621.746	25686.47
622.101	26100.92
622.457	25864.55
622.812	25830.42
623.168	25919.23
623.523	25911.55
623.879	26023.86
624.234	25790.42
624.589	25927.14
624.945	25872.23
625.3	25954.04
625.655	25802.85
626.01	25787.94
626.365	25793.36
626.72	25744.1
627.075	25727.15
627.43	25681.05
627.785	25608.28
628.14	25745.45
628.495	25650.31
628.85	25654.16
629.205	25586.14
629.559	25751.33
629.914	25547.72
630.269	25581.16
630.623	25547.27
630.978	25511.33
631.332	25603.99
631.687	25605.8
632.041	25538.9
632.396	25576.64
632.75	25371.9
633.104	25506.82
633.459	25321.06
633.813	25311.79
634.167	25261.17
634.521	25164.68
634.875	25307.27
635.229	25240.83
635.583	25084.45
635.937	25190.21
636.291	25139.82
636.645	25202.87
636.999	24987.73
637.352	25114.74
637.706	24949.32
638.06	25132.59
638.413	24890.56
638.767	24876.55
639.121	24888.75
639.474	24720.17
639.828	24668.87
640.181	24874.29
640.534	24672.71
640.888	24618.25
641.241	24575.99
641.594	24571.25
641.947	24713.84
642.301	24566.27
642.654	24593.84
643.007	24462.77
643.36	24449.44
643.713	24493.96
644.066	24575.54
644.419	24286.51
644.771	24132.84
645.124	23940.98
645.477	23919.51
645.83	23775.56
646.182	23585.06
646.535	23556.58
646.888	23567.66
647.24	23383.93
647.593	23506.64
647.945	23452.63
648.298	23345.97
648.65	23341.45
649.002	23295.35
649.355	23446.08
649.707	23372.41
650.059	23416.7
650.411	23714.32
650.763	23842.9
651.115	23985.27
651.467	23894.65
651.819	23781.44
652.171	23749.8
652.523	23769.91
652.875	23828.22
653.227	23658.28
653.578	23653.98
653.93	23652.63
654.282	23591.39
654.633	23507.32
654.985	23624.38
655.337	23567.21
655.688	23573.08
656.039	23508.22
656.391	23327.21
656.742	23311.62
657.094	23418.06
657.445	23513.87
657.796	23468.22
658.147	23396.36
658.498	23428.23
658.849	23432.75
659.2	23434.55
659.551	23319.3
659.902	23376.7
660.253	23316.59
660.604	23304.16
660.955	23185.75
661.306	23346.19
661.656	23245.86
662.007	23257.38
662.358	23268
662.708	23194.33
663.059	23253.99
663.409	23010.38
663.76	23275.46
664.11	23131.74
664.461	23173.09
664.811	23203.37
665.161	23258.29
665.511	23133.32
665.862	23133.09
666.212	23172.19
666.562	23206.54
666.912	23094.45
667.262	23070.72
667.612	23045.86
667.962	23194.56
668.312	23122.47
668.662	23176.26
669.011	23168.12
669.361	23043.6
669.711	23095.35
670.06	22945.98
670.41	22996.15
670.76	22867.11
671.109	22909.37
671.459	22964.74
671.808	22981.01
672.157	22903.04
672.507	22821.01
672.856	22802.25
673.205	22949.59
673.554	22931.74
673.904	22828.24
674.253	22848.81
674.602	22785.3
674.951	22516.39
675.3	22397.07
675.649	22830.05
675.998	22778.07
676.346	22777.62
676.695	22795.7
677.044	22655.14
677.393	22838.41
677.741	22775.81
678.09	22706.44
678.438	22684.74
678.787	22671.64
679.135	22656.04
679.484	22478.65
679.832	22613.33
680.181	22459.66
680.529	22515.93
680.877	22510.74
681.225	22453.34
681.573	22590.06
681.922	22405.88
682.27	22316.84
682.618	22359.33
682.966	22340.57
683.314	22319.55
683.661	22223.74
684.009	22038.88
684.357	22006.79
684.705	22059.22
685.053	22057.19
685.4	22002.73
685.748	21994.37
686.095	21900.58
686.443	21737.2
686.79	21772
687.138	21859.91
687.485	21844.99
687.832	21738.1
688.18	21819.91
688.527	21686.8
688.874	21653.81
689.221	21564.32
689.568	21619.91
689.915	21564.77
690.262	21480.03
690.609	21529.74
690.956	21341.05
691.303	21358.68
691.65	21174.05
691.997	21176.08
692.344	21069.42
692.69	20981.51
693.037	21021.51
693.383	20887.05
693.73	20888.86
694.077	20900.61
694.423	20864.23
694.769	20761.63
695.116	20772.25
695.462	20752.14
695.808	20591.92
696.155	20654.97
696.501	20477.12
696.847	20481.64
697.193	20406.84
697.539	20396.89
697.885	20249.78
698.231	20233.06
698.577	20279.38
698.923	20251.13
699.269	20188.54
699.614	20057.92
699.96	19959.84
700.306	20025.38
700.651	19965.27
700.997	19891.37
701.342	19941.76
701.688	19962.78
702.033	19729.57
702.379	19776.12
702.724	19684.14
703.069	19732.96
703.415	19424.49
703.76	19462
704.105	19435.34
704.45	19399.86
704.795	19317.6
705.14	19187.66
705.485	19190.15
705.83	19231.95
706.175	19141.78
706.52	19097.94
706.865	18974.78
707.209	19029.25
707.554	18880.77
707.899	18941.11
708.243	18867.44
708.588	18942.69
708.932	18704.28
709.277	18715.36
709.621	18794.68
709.966	18647.11
710.31	18635.36
710.654	18488.02
710.998	18502.25
711.342	18451.86
711.687	18472.65
712.031	18285.08
712.375	18261.58
712.719	18350.39
713.063	18369.38
713.407	18243.5
713.75	18268.81
714.094	18222.94
714.438	18143.39
714.782	18196.72
715.125	18046.9
715.469	18123.28
715.812	18029.5
716.156	17933.23
716.499	17874.02
716.843	17939.78
717.186	17756.74
717.53	17895.49
717.873	17784.53
718.216	17770.3
718.559	17737.75
718.902	17523.75
719.246	17548.15
719.589	17602.16
719.932	17441.04
720.275	17550.19
720.617	17566.46
720.96	17462.28
721.303	17412.79
721.646	17467.25
721.989	17411.89
722.331	17346.8
722.674	17386.12
723.016	17415.05
723.359	17328.5
723.701	17269.07
724.044	17109.52
724.386	17074.72
724.729	17190.88
725.071	17175.06
725.413	17076.53
725.755	16985.91
726.097	16937.55
726.439	16876.99
726.782	16950.88
727.124	16983.2
727.465	16843.54
727.807	16843.77
728.149	16792.92
728.491	16886.48
728.833	16808.29
729.175	16819.81
729.516	16758.34
729.858	16689.42
730.199	16666.6
730.541	16589.08
730.882	16644
731.224	16601.29
731.565	16575.98
731.906	16482.19
732.248	16580.5
732.589	16326.49
732.93	16310.22
733.271	16308.19
733.612	16421.63
733.953	16441.97
734.294	16286.49
734.635	16335.53
734.976	16326.04
735.317	16266.38
735.658	16182.77
735.999	16178.7
736.339	16140.96
736.68	16159.94
737.021	16074.52
737.361	16058.48
737.702	16106.38
738.042	16040.62
738.383	15971.92
738.723	15948.42
739.063	16003.34
739.404	16001.08
739.744	15879.5
740.084	15859.16
740.424	15919.95
740.764	15719.73
741.104	15752.27
741.444	15674.98
741.784	15653.06
742.124	15643.35
742.464	15638.83
742.804	15669.11
743.143	15607.87
743.483	15598.83
743.823	15535.78
744.162	15472.95
744.502	15463.01
744.841	15501.43
745.181	15585.95
745.52	15459.17
745.86	15467.08
746.199	15386.18
746.538	15445.38
746.877	15396.57
747.216	15355.9
747.556	15282.9
747.895	15253.75
748.234	15215.33
748.573	15154.77
748.911	15139.63
749.25	15153.87
749.589	15004.04
749.928	15060.99
750.267	15110.48
750.605	15096.92
750.944	14997.94
751.283	14904.16
751.621	14931.5
751.96	14857.83
752.298	14826.87
752.636	14815.12
752.975	14824.38
753.313	14811.96
753.651	14770.83
753.989	14712.3
754.327	14675.91
754.666	14619.87
755.004	14591.62
755.342	14642.02
755.679	14477.05
756.017	14448.35
756.355	14487.22
756.693	14429.14
757.031	14389.59
757.368	14270.05
757.706	14298.07
758.044	14303.27
758.381	14189.37
758.719	14169.03
759.056	14155.7
759.394	14052.2
759.731	14042.26
760.068	13974.24
760.405	13998.42
760.743	13920.68
761.08	13989.83
761.417	13946.89
761.754	13851.98
762.091	13793.68
762.428	13760.23
762.765	13670.74
763.102	13654.47
763.438	13679.78
763.775	13571.54
764.112	13420.81
764.449	13503.06
764.785	13428.26
765.122	13336.74
765.458	13286.12
765.795	13233.01
766.131	13327.47
766.467	13177.42
766.804	13216.29
767.14	13149.85
767.476	13037.31
767.812	13021.72
768.148	13060.14
768.485	12974.49
768.821	12929.52
769.157	12852.23
769.492	12835.96
769.828	12802.52
770.164	12790.77
770.5	12664.67
770.836	12706.25
771.171	12492.24
771.507	12595.06
771.842	12481.17
772.178	12472.13
772.513	12433.71
772.849	12397.1
773.184	12268.29
773.519	12292.02
773.855	12227.39
774.19	12145.81
774.525	12157.11
774.86	12094.74
775.195	12123.44
775.53	12008.64
775.865	11947.4
776.2	11899.49
776.535	11894.52
776.87	11812.49
777.205	11713.28
777.539	11747.63
777.874	11740.4
778.209	11674.41
778.543	11573.4
778.878	11495.43
779.212	11528.43
779.547	11429.67
779.881	11400.52
780.215	11412.72
780.55	11339.05
780.884	11252.5
781.218	11313.06
781.552	11324.59
781.886	11264.25
782.22	11180.64
782.554	11203.69
782.888	11044.6
783.222	11002.34
783.556	10891.83
783.889	11000.3
784.223	10831.72
784.557	10824.26
784.89	10807.09
785.224	10805.51
785.557	10688.22
785.891	10744.49
786.224	10577.94
786.558	10651.16
786.891	10600.54
787.224	10459.53
787.557	10485.29
787.891	10449.81
788.224	10463.37
788.557	10420.88
788.89	10387.21
789.223	10400.32
789.556	10293.2
789.888	10253.66
790.221	10259.76
790.554	10173.21
790.887	10158.97
791.219	10112.87
791.552	10049.82
791.884	9977.51
792.217	10009.6
792.549	9913.55
792.882	9925.3
793.214	9848.7
793.546	9868.13
793.879	9794.23
794.211	9763.27
794.543	9755.36
794.875	9725.54
795.207	9718.98
795.539	9711.3
795.871	9619.55
796.203	9644.86
796.535	9511.08
796.867	9509.27
797.198	9480.8
797.53	9529.83
797.862	9433.79
798.193	9450.97
798.525	9409.61
798.856	9374.36
799.188	9275.6
799.519	9267.47
799.85	9186.57
800.182	9311.31
800.513	9237.86
800.844	9219.56
801.175	9178.66
801.506	9157.41
801.837	9042.39
802.168	9066.12
802.499	9088.26
802.83	9074.48
803.161	8993.58
803.491	9014.14
803.822	8929.17
804.153	8933.24
804.483	8873.13
804.814	8793.81
805.145	8842.85
805.475	8826.12
805.805	8797.2
806.136	8743.19
806.466	8719.46
806.796	8700.25
807.126	8669.97
807.457	8624.55
807.787	8670.42
808.117	8631.78
808.447	8572.35
808.777	8601.95
809.107	8474.49
809.436	8474.04
809.766	8507.04
810.096	8523.76
810.426	8419.13
810.755	8457.77
811.085	8412.8
811.414	8335.97
811.744	8305.46
812.073	8311.56
812.403	8345.68
812.732	8252.13
813.061	8253.71
813.39	8257.33
813.719	8242.64
814.049	8185.01
814.378	8231.79
814.707	8121.06
815.036	8122.87
815.365	8102.3
815.693	8056.2
816.022	8127.16
816.351	8056.43
816.68	8023.66
817.008	8029.31
817.337	7928.97
817.665	8004.22
817.994	8029.76
818.322	7910.22
818.651	7904.57
818.979	7862.53
819.307	7893.72
819.636	7826.6
819.964	7747.73
820.292	7832.7
820.62	7803.55
820.948	7733.27
821.276	7858.01
821.604	7773.27
821.932	7829.99
822.259	7778.24
822.587	7842.42
822.915	7772.37
823.243	7824.79
823.57	7748.41
823.898	7855.3
824.225	7798.58
824.553	7797.45
824.88	7753.16
825.207	7731.01
825.535	7779.6
825.862	7788.19
826.189	7723.33
826.516	7770.11
826.843	7861.86
827.17	7792.48
827.497	7750.45
827.824	7760.39
828.151	7797
828.478	7780.28
828.805	7854.4
829.131	7778.92
829.458	7734.4
829.785	7758.58
830.111	7789.54
830.438	7862.08
830.764	7743.21
831.09	7807.17
831.417	7696.66
831.743	7812.14
832.069	7717.45
832.395	7710
832.722	7763.78
833.048	7702.76
833.374	7794.29
833.7	7742.76
834.026	7726.94
834.351	7693.95
834.677	7660.28
835.003	7699.6
835.329	7642.43
835.654	7690.33
835.98	7615.76
836.306	7747.73
836.631	7592.94
836.956	7674.52
837.282	7671.58
837.607	7606.95
837.932	7638.36
838.258	7617.57
838.583	7549.77
838.908	7512.03
839.233	7510.23
839.558	7521.07
839.883	7491.47
840.208	7499.38
840.533	7485.37
840.858	7486.72
841.182	7460.51
841.507	7463.9
841.832	7428.42
842.156	7414.41
842.481	7345.03
842.805	7406.73
843.13	7353.39
843.454	7304.36
843.778	7313.17
844.103	7330.57
844.427	7294.19
844.751	7286.28
845.075	7225.71
845.399	7259.39
845.723	7168.99
846.047	7170.8
846.371	7140.07
846.695	7184.36
847.019	7098.03
847.343	7044.48
847.666	7068.88
847.99	7014.42
848.313	6990.69
848.637	6988.21
848.96	6975.33
849.284	6889.9
849.607	6876.34
849.931	6894.42
850.254	6827.53
850.577	6796.35
850.9	6733.07
851.223	6745.05
851.546	6691.72
851.869	6680.87
852.192	6714.09
852.515	6586.18
852.838	6632.51
853.161	6615.33
853.483	6635
853.806	6551.38
854.129	6535.56
854.451	6573.3
854.774	6566.07
855.096	6484.94
855.419	6492.63
855.741	6481.1
856.063	6459.86
856.385	6437.94
856.708	6420.99
857.03	6343.93
857.352	6348.45
857.674	6360.65
857.996	6308.68
858.318	6267.32
858.64	6326.08
858.961	6258.28
859.283	6264.16
859.605	6173.31
859.926	6205.63
860.248	6210.83
860.57	6178.96
860.891	6171.05
861.212	6094.22
861.534	6141.22
861.855	6125.86
862.176	6131.51
862.498	6107.33
862.819	6107.55
863.14	6082.47
863.461	6093.54
863.782	6042.02
864.103	6122.24
864.424	6064.16
864.745	6064.84
865.065	6028.46
865.386	6005.18
865.707	6031.4
866.027	6029.59
866.348	5998.63
866.668	5961.57
866.989	5972.19
867.309	5955.24
867.63	5954.56
867.95	5940.1
868.27	5953.88
868.59	5922.02
868.91	5954.33
869.23	5907.56
869.55	5901.91
869.87	5884.51
870.19	5860.55
870.51	5866.88
870.83	5832.3
871.15	5854
871.469	5875.24
871.789	5944.62
872.109	5823.49
872.428	5775.13
872.748	5860.33
873.067	5802.7
873.386	5855.13
873.706	5804.51
874.025	5805.64
874.344	5712.99
874.663	5807.67
874.982	5785.75
875.301	5773.1
875.62	5752.31
875.939	5748.92
876.258	5726.32
876.577	5705.98
876.896	5703.27
877.214	5669.6
877.533	5641.8
877.852	5616.49
878.17	5666.21
878.489	5682.93
878.807	5691.97
879.125	5668.01
879.444	5622.82
879.762	5599.32
880.08	5583.27
880.398	5581.01
880.716	5547.79
881.034	5547.79
881.352	5546.44
881.67	5546.21
881.988	5530.84
882.306	5517.74
882.624	5483.61
882.941	5513.89
883.259	5437.96
883.577	5480.45
883.894	5452.2
884.212	5431.64
884.529	5480.22
884.846	5454.91
885.164	5451.98
885.481	5392.99
885.798	5411.98
886.115	5413.33
886.432	5388.02
886.75	5383.05
887.067	5385.08
887.383	5343.5
887.7	5336.95
888.017	5290.17
888.334	5320.45
888.651	5295.14
888.967	5269.38
889.284	5319.55
889.6	5240.91
889.917	5227.35
890.233	5192.55
890.55	5205.88
890.866	5152.77
891.182	5187.8
891.498	5177.18
891.815	5125.88
892.131	5166.11
892.447	5154.36
892.763	5126.33
893.079	5049.73
893.395	5080.23
893.71	5058.54
894.026	5032.1
894.342	5029.84
894.657	4980.35
894.973	4995.72
895.289	5007.47
895.604	4987.35
895.92	4974.93
896.235	4960.46
896.55	4913.46
896.865	4942.38
897.181	4895.38
897.496	4935.38
897.811	4845.21
898.126	4846.79
898.441	4841.37
898.756	4831.88
899.071	4845.21
899.386	4860.35
899.7	4751.2
900.015	4761.37
900.33	4728.15
900.644	4723.63
900.959	4731.77
901.273	4713.92
901.588	4687.93
901.902	4694.03
902.216	4628.95
902.531	4627.59
902.845	4582.62
903.159	4568.61
903.473	4584.2
903.787	4566.35
904.101	4541.49
904.415	4520.47
904.729	4496.29
905.042	4463.98
905.356	4510.31
905.67	4537.65
905.984	4471.66
906.297	4460.59
906.611	4424.66
906.924	4434.15
907.237	4388.95
907.551	4396.86
907.864	4338.33
908.177	4403.87
908.491	4405.45
908.804	4334.26
909.117	4280.71
909.43	4321.16
909.743	4316.64
910.056	4247.94
910.368	4269.86
910.681	4235.51
910.994	4221.05
911.307	4184.44
911.619	4150.09
911.932	4162.52
912.244	4102.86
912.557	4101.05
912.869	4108.06
913.181	4078.68
913.494	4086.81
913.806	4065.57
914.118	4027.83
914.43	4047.27
914.742	4017.21
915.054	3925.46
915.366	4027.61
915.678	3979.25
915.99	3976.31
916.302	3933.82
916.613	3934.05
916.925	3918.46
917.236	3918.91
917.548	3868.29
917.859	3874.62
918.171	3889.3
918.482	3781.74
918.794	3821.74
919.105	3834.84
919.416	3814.96
919.727	3807.72
920.038	3768.86
920.349	3750.33
920.66	3727.05
920.971	3745.35
921.282	3734.96
921.593	3714.85
921.903	3675.75
922.214	3678.01
922.525	3647.05
922.835	3627.84
923.146	3595.75
923.456	3598.24
923.767	3592.82
924.077	3566.6
924.387	3545.13
924.697	3553.95
925.008	3511.69
925.318	3511.24
925.628	3487.96
925.938	3508.98
926.248	3468.75
926.558	3414.74
926.867	3411.58
927.177	3396.66
927.487	3414.97
927.796	3405.7
928.106	3385.36
928.416	3362.31
928.725	3385.81
929.034	3379.94
929.344	3329.32
929.653	3365.93
929.962	3286.38
930.271	3321.18
930.581	3278.02
930.89	3250.45
931.199	3262.65
931.508	3223.11
931.817	3233.28
932.125	3269.21
932.434	3198.7
932.743	3166.61
933.051	3181.98
933.36	3181.98
933.669	3131.13
933.977	3117.12
934.286	3115.77
934.594	3143.56
934.902	3124.13
935.21	3086.39
935.519	3095.2
935.827	3047.74
936.135	3026.5
936.443	3004.81
936.751	3038.25
937.059	2989.44
937.367	2994.19
937.674	2942.21
937.982	2996.9
938.29	2960.74
938.597	2972.27
938.905	2913.74
939.213	2924.81
939.52	2892.95
939.827	2902.21
940.135	2909.9
940.442	2867.64
940.749	2880.74
941.056	2880.74
941.363	2828.77
941.67	2834.19
941.977	2843.46
942.284	2828.09
942.591	2814.08
942.898	2775.89
943.205	2806.4
943.511	2785.15
943.818	2766.62
944.125	2740.63
944.431	2709
944.738	2717.13
945.044	2680.3
945.35	2707.64
945.657	2675.33
945.963	2679.62
946.269	2666.96
946.575	2634.87
946.881	2638.72
947.187	2599.85
947.493	2622.22
947.799	2580.19
948.105	2585.84
948.41	2563.24
948.716	2551.26
949.022	2563.46
949.327	2558.04
949.633	2530.02
949.938	2537.93
950.244	2504.93
950.549	2520.98
950.854	2477.14
951.16	2494.31
951.465	2459.96
951.77	2495.67
952.075	2456.57
952.38	2462.68
952.685	2455.44
952.99	2426.29
953.294	2421.09
953.599	2376.8
953.904	2397.14
954.209	2366.18
954.513	2376.35
954.818	2347.2
955.122	2345.62
955.426	2345.39
955.731	2299.06
956.035	2304.94
956.339	2326.41
956.643	2319.4
956.948	2315.33
957.252	2253.19
957.556	2304.94
957.86	2271.95
958.163	2256.81
958.467	2249.12
958.771	2233.08
959.075	2236.92
959.378	2228.33
959.682	2205.28
959.985	2208.44
960.289	2188.56
960.592	2203.25
960.896	2192.4
961.199	2176.81
961.502	2173.87
961.805	2159.86
962.108	2139.97
962.411	2143.14
962.714	2147.43
963.017	2105.4
963.32	2116.7
963.623	2099.97
963.926	2053.87
964.228	2074.66
964.531	2048.45
964.833	2075.11
965.136	2047.32
965.438	2054.32
965.741	2046.64
966.043	2053.87
966.345	2049.58
966.648	2017.72
966.95	1991.95
967.252	1994.44
967.554	1993.99
967.856	1999.64
968.158	1940.43
968.46	1977.94
968.761	1950.15
969.063	1973.87
969.365	1982.69
969.666	1959.64
969.968	1935.23
970.269	1920.54
970.571	1902.92
970.872	1900.2
971.174	1890.26
971.475	1911.96
971.776	1875.57
972.077	1862.69
972.378	1855.46
972.679	1846.65
972.98	1859.3
973.281	1872.18
973.582	1858.62
973.883	1806.2
974.183	1789.25
974.484	1846.87
974.785	1795.57
975.085	1843.93
975.386	1794.67
975.686	1818.4
975.986	1786.53
976.287	1780.43
976.587	1781.11
976.887	1782.02
977.187	1746.76
977.487	1745.86
977.787	1748.8
978.087	1749.7
978.387	1712.41
978.687	1723.49
978.987	1690.49
979.286	1694.56
979.586	1710.6
979.885	1685.07
980.185	1699.76
980.484	1678.97
980.784	1650.49
981.083	1665.18
981.382	1675.35
981.682	1642.58
981.981	1636.48
982.28	1669.93
982.579	1608.23
982.878	1612.08
983.177	1622.02
983.475	1620.44
983.774	1636.03
984.073	1579.76
984.372	1580.89
984.67	1577.73
984.969	1612.3
985.267	1576.6
985.566	1556.71
985.864	1557.84
986.162	1565.52
986.461	1511.06
986.759	1549.25
987.057	1547.67
987.355	1506.77
987.653	1508.12
987.951	1516.49
988.249	1527.56
988.547	1495.02
988.844	1501.12
989.142	1468.58
989.44	1470.84
989.737	1487.11
990.035	1478.97
990.332	1462.7
990.63	1467.45
990.927	1464.28
991.224	1437.39
991.521	1417.05
991.819	1430.39
992.116	1439.88
992.413	1433.1
992.71	1396.94
993.006	1401.23
993.303	1408.47
993.6	1391.97
993.897	1356.72
994.193	1422.48
994.49	1409.37
994.787	1354.68
995.083	1344.74
995.379	1374.57
995.676	1380.67
995.972	1320.11
996.268	1344.74
996.565	1364.17
996.861	1357.39
997.157	1344.96
997.453	1319.65
997.749	1331.63
998.044	1291.18
998.34	1302.25
998.636	1283.5
998.932	1288.92
999.227	1276.94
999.523	1286.66
999.818	1267.68
1000.114	1263.84
1000.409	1257.28
1000.704	1254.35
1001	1274.46
1001.295	1255.48
1001.59	1264.29
1001.885	1236.72
1002.18	1232.88
1002.475	1223.39
1002.77	1226.78
1003.065	1202.14
1003.359	1228.36
1003.654	1199.43
1003.949	1203.05
1004.243	1190.62
1004.538	1172.09
1004.832	1186.32
1005.127	1177.74
1005.421	1165.31
1005.715	1163.05
1006.009	1164.4
1006.304	1139.55
1006.598	1130.96
1006.892	1147.68
1007.186	1118.98
1007.48	1147.91
1007.773	1114.24
1008.067	1128.7
1008.361	1110.85
1008.655	1105.2
1008.948	1092.77
1009.242	1082.15
1009.535	1083.95
1009.829	1105.2
1010.122	1073.79
1010.415	1063.16
1010.708	1104.52
1011.001	1076.5
1011.295	1056.84
1011.588	1044.86
1011.881	1018.87
1012.173	1062.49
1012.466	1027.23
1012.759	1058.64
1013.052	1027.91
1013.344	1010.28
1013.637	1012.77
1013.93	1028.59
1014.222	1000.34
1014.514	1004.18
1014.807	1001.7
1015.099	1000.79
1015.391	991.98
1015.683	975.26
1015.976	977.74
1016.268	981.13
1016.56	966.67
1016.851	965.54
1017.143	934.13
1017.435	949.72
1017.727	950.62
1018.018	949.72
1018.31	954.01
1018.602	952.66
1018.893	927.12
1019.185	923.51
1019.476	908.37
1019.767	907.91
1020.058	899.78
1020.35	916.5
1020.641	920.34
1020.932	882.38
1021.223	896.61
1021.514	893.68
1021.804	875.15
1022.095	878.99
1022.386	868.82
1022.677	865.66
1022.967	850.74
1023.258	841.7
1023.548	844.86
1023.839	843.28
1024.129	854.36
1024.419	838.31
1024.709	821.59
1025	818.42
1025.29	849.84
1025.58	814.36
1025.87	828.14
1026.16	816.16
1026.449	825.2
1026.739	787.47
1027.029	769.61
1027.319	800.8
1027.608	777.97
1027.898	805.09
1028.187	782.95
1028.477	786.11
1028.766	772.1
1029.055	763.06
1029.344	777.3
1029.634	781.59
1029.923	740.01
1030.212	763.74
1030.501	755.38
1030.79	752.44
1031.078	727.35
1031.367	728.94
1031.656	736.17
1031.945	726
1032.233	737.07
1032.522	734.81
1032.81	708.82
1033.099	701.59
1033.387	699.78
1033.675	726.9
1033.963	697.98
1034.251	706.34
1034.54	716.28
1034.828	698.88
1035.116	695.72
1035.403	674.93
1035.691	682.38
1035.979	680.8
1036.267	674.02
1036.554	683.51
1036.842	653.68
1037.129	673.34
1037.417	652.1
1037.704	653.46
1037.992	676.28
1038.279	663.63
1038.566	653.23
1038.853	653.23
1039.14	653.23
