Data from foam_black_FLMS001491_00022.txt Node
Date: Wed Feb 08 10:43:38 GMT 2017
User: dcchb
Spectrometer: FLMS00149
Trigger mode: 0
Integration Time (sec): 2.000000E-2
Scans to average: 10
Electric dark correction enabled: true
Nonlinearity correction enabled: false
Boxcar width: 0
XAxis mode: Wavelengths
Number of Pixels in Spectrum: 2048
>>>>>Begin Spectral Data<<<<<
341.393	-14.1
341.776	-14.1
342.16	-14.1
342.543	-60.42
342.927	-60.2
343.31	-91.38
343.693	-66.75
344.077	-67.88
344.46	-68.78
344.843	-41.21
345.226	-27.43
345.61	-19.52
345.993	-20.65
346.376	-3.25
346.759	17.77
347.142	32.68
347.525	22.97
347.908	62.06
348.291	64.55
348.674	86.01
349.057	120.82
349.44	123.3
349.823	135.73
350.206	160.59
350.588	194.26
350.971	197.2
351.354	198.33
351.737	250.76
352.119	235.39
352.502	249.4
352.884	281.49
353.267	253.24
353.65	300.25
354.032	273.35
354.414	292.11
354.797	284.43
355.179	312.9
355.562	315.84
355.944	319
356.326	321.71
356.709	317.42
357.091	305.67
357.473	353.8
357.855	339.79
358.238	346.57
358.62	357.42
359.002	319
359.384	327.59
359.766	344.99
360.148	322.17
360.53	335.5
360.912	317.65
361.294	318.1
361.676	323.3
362.057	331.88
362.439	317.2
362.821	328.95
363.203	324.43
363.584	329.62
363.966	327.36
364.348	328.27
364.729	309.74
365.111	317.87
365.493	306.12
365.874	314.48
366.256	307.03
366.637	318.32
367.019	315.84
367.4	313.13
367.781	309.96
368.163	311.55
368.544	328.95
368.925	302.51
369.306	314.71
369.688	357.87
370.069	299.57
370.45	330.53
370.831	328.95
371.212	326.46
371.593	316.52
371.974	319.68
372.355	328.27
372.736	317.87
373.117	337.99
373.498	305.44
373.879	330.3
374.26	298.44
374.641	319.91
375.021	332.11
375.402	323.07
375.783	336.4
376.163	347.7
376.544	336.86
376.925	328.04
377.305	340.02
377.686	343.86
378.066	318.55
378.447	345.44
378.827	355.61
379.208	348.83
379.588	355.84
379.968	335.73
380.349	338.21
380.729	351.09
381.109	356.52
381.489	362.17
381.87	349.96
382.25	344.54
382.63	368.49
383.01	356.97
383.39	335.27
383.77	376.18
384.15	355.39
384.53	370.3
384.91	363.97
385.29	355.84
385.67	375.05
386.049	359.91
386.429	365.1
386.809	359.23
387.189	381.37
387.568	377.31
387.948	371.88
388.328	382.28
388.707	387.93
389.087	396.97
389.466	396.29
389.846	387.25
390.225	379.79
390.605	383.41
390.984	398.1
391.363	400.58
391.743	422.28
392.122	401.26
392.501	378.89
392.881	411.43
393.26	403.97
393.639	397.19
394.018	405.1
394.397	425.67
394.776	408.72
395.155	426.12
395.534	409.62
395.913	404.88
396.292	424.76
396.671	420.24
397.05	439.9
397.429	423.18
397.808	422.05
398.186	436.74
398.565	432.45
398.944	421.37
399.323	412.56
399.701	440.58
400.08	463.63
400.458	460.02
400.837	453.24
401.215	433.8
401.594	484.42
401.972	435.38
402.351	447.36
402.729	459.56
403.107	460.24
403.486	469.73
403.864	481.03
404.242	480.13
404.62	457.3
404.999	467.93
405.377	483.29
405.755	477.87
406.133	489.39
406.511	488.94
406.889	475.61
407.267	506.79
407.645	480.13
408.023	505.66
408.401	492.78
408.779	516.51
409.156	517.42
409.534	544.53
409.912	522.84
410.29	518.55
410.667	526.91
411.045	554.48
411.422	551.31
411.8	521.26
412.178	544.76
412.555	546.79
412.933	550.18
413.31	574.82
413.687	573.01
414.065	566.91
414.442	542.95
414.819	572.33
415.197	561.71
415.574	596.28
415.951	599.9
416.328	580.46
416.705	605.55
417.082	594.02
417.46	592.44
417.837	599.45
418.214	581.14
418.591	617.53
418.967	604.65
419.344	620.46
419.721	641.03
420.098	614.81
420.475	627.02
420.852	652.55
421.228	653.46
421.605	645.1
421.982	648.03
422.358	644.87
422.735	655.94
423.111	646.9
423.488	660.01
423.864	684.19
424.241	669.28
424.617	680.35
424.994	684.87
425.37	700.46
425.746	718.77
426.123	698.43
426.499	708.37
426.875	723.74
427.251	713.34
427.627	733
428.003	741.14
428.379	741.82
428.756	747.24
429.132	734.13
429.507	761.25
429.883	789.5
430.259	764.19
430.635	798.54
431.011	829.27
431.387	799.22
431.763	796.96
432.138	808.71
432.514	790.63
432.89	810.74
433.265	846.22
433.641	814.81
434.016	828.82
434.392	846.45
434.767	833.11
435.143	881.7
435.518	897.07
435.894	880.57
436.269	902.72
436.644	893.45
437.02	895.03
437.395	891.42
437.77	912.89
438.145	926.22
438.52	927.12
438.895	934.81
439.271	943.62
439.646	955.14
440.021	966.44
440.395	975.03
440.77	968.48
441.145	959.66
441.52	995.14
441.895	985.43
442.27	997.4
442.645	981.36
443.019	999.89
443.394	996.95
443.769	991.53
444.143	1003.28
444.518	1062.26
444.892	1043.96
445.267	1044.41
445.641	1039.44
446.016	1030.85
446.39	1042.15
446.764	1063.39
447.139	1045.09
447.513	1065.88
447.887	1055.25
448.262	1057.51
448.636	1054.12
449.01	1072.2
449.384	1108.59
449.758	1097.06
450.132	1104.29
450.506	1121.92
450.88	1090.73
451.254	1125.31
451.628	1137.96
452.002	1144.97
452.376	1166.21
452.75	1162.14
453.123	1168.25
453.497	1210.73
453.871	1203.73
454.244	1200.34
454.618	1205.31
454.992	1209.37
455.365	1225.87
455.739	1274.68
456.112	1265.42
456.486	1261.13
456.859	1312.88
457.232	1306.32
457.606	1300.67
457.979	1313.33
458.352	1349.94
458.725	1371.86
459.099	1364.85
459.472	1380.44
459.845	1384.96
460.218	1401.46
460.591	1420.22
460.964	1420.22
461.337	1472.19
461.71	1473.55
462.083	1495.02
462.456	1498.63
462.829	1490.05
463.201	1535.92
463.574	1495.24
463.947	1522.81
464.32	1554.68
464.692	1614.34
465.065	1583.83
465.438	1609.59
465.81	1611.85
466.183	1630.15
466.555	1696.82
466.928	1658.85
467.3	1675.8
467.672	1696.82
468.045	1699.76
468.417	1709.7
468.789	1762.13
469.161	1757.16
469.534	1794.9
469.906	1812.3
470.278	1846.87
470.65	1872.63
471.022	1922.35
471.394	1935.46
471.766	1949.47
472.138	1950.37
472.51	2013.65
472.882	2015
473.253	2030.14
473.625	2030.37
473.997	2102.68
474.369	2090.48
474.74	2143.59
475.112	2150.37
475.484	2181.55
475.855	2248.9
476.227	2253.19
476.598	2300.87
476.97	2321.89
477.341	2341.1
477.713	2393.75
478.084	2404.37
478.455	2488.66
478.827	2473.97
479.198	2550.13
479.569	2600.52
479.94	2603.24
480.311	2632.61
480.682	2687.3
481.053	2758.71
481.424	2765.72
481.795	2819.28
482.166	2842.78
482.537	2891.82
482.908	2931.14
483.279	2954.64
483.65	2996.67
484.021	3058.82
484.391	3050.46
484.762	3113.96
485.133	3102.88
485.503	3177.91
485.874	3230.79
486.244	3262.43
486.615	3335.65
486.985	3339.26
487.356	3424.23
487.726	3412.03
488.097	3551.46
488.467	3511.46
488.837	3555.08
489.207	3597.56
489.578	3653.83
489.948	3692.93
490.318	3733.6
490.688	3738.12
491.058	3812.47
491.428	3858.12
491.798	3860.6
492.168	3958
492.538	3984.9
492.908	4019.92
493.278	4083.65
493.648	4095.17
494.017	4143.31
494.387	4152.57
494.757	4162.52
495.126	4264.66
495.496	4246.58
495.866	4294.94
496.235	4313.7
496.605	4377.65
496.974	4385.11
497.344	4447.26
497.713	4439.12
498.082	4524.99
498.452	4549.85
498.821	4574.94
499.19	4540.13
499.559	4602.05
499.928	4643.86
500.298	4636.63
500.667	4724.08
501.036	4720.47
501.405	4714.37
501.774	4754.14
502.143	4795.27
502.512	4835.27
502.88	4907.81
503.249	4833.46
503.618	4925.44
503.987	4903.29
504.356	4970.86
504.724	5006.34
505.093	4943.29
505.462	5034.13
505.83	5033.91
506.199	5120.46
506.567	5193
506.936	5220.79
507.304	5282.26
507.672	5286.78
508.041	5302.15
508.409	5341.02
508.777	5404.52
509.145	5498.75
509.514	5456.49
509.882	5482.93
510.25	5561.58
510.618	5541.69
510.986	5523.39
511.354	5621.24
511.722	5623.95
512.09	5668.92
512.458	5640.9
512.826	5724.51
513.193	5722.02
513.561	5778.75
513.929	5839.76
514.297	5875.47
514.664	5910.49
515.032	5944.39
515.4	5978.52
515.767	6040.66
516.135	6052.64
516.502	6035.91
516.869	6190.26
517.237	6202.24
517.604	6231.84
517.972	6343.03
518.339	6362.23
518.706	6395
519.073	6420.76
519.44	6475.68
519.808	6581.89
520.175	6498.28
520.542	6688.78
520.909	6683.81
521.276	6670.25
521.643	6737.82
522.009	6775.33
522.376	6883.12
522.743	6823.01
523.11	6904.82
523.477	6900.98
523.843	6938.49
524.21	7054.42
524.577	7047.87
524.943	7103.01
525.31	7201.53
525.676	7214.41
526.043	7257.58
526.409	7343.9
526.776	7351.13
527.142	7391.36
527.508	7459.61
527.874	7621.18
528.241	7581.86
528.607	7681.3
528.973	7723.78
529.339	7817.34
529.705	7876.54
530.071	7980.04
530.437	8016.43
530.803	7984.56
531.169	8092.13
531.535	8131.45
531.901	8101.62
532.267	8192.69
532.632	8222.52
532.998	8260.49
533.364	8290.09
533.73	8361.5
534.095	8312.47
534.461	8398.34
534.826	8392.24
535.192	8396.08
535.557	8464.78
535.923	8452.8
536.288	8511.56
536.653	8573.48
537.019	8497.77
537.384	8607.6
537.749	8660.93
538.114	8652.8
538.479	8751.55
538.845	8797.88
539.21	8840.81
539.575	8908.83
539.94	8841.26
540.305	8971.66
540.67	8988.83
541.034	9016.4
541.399	9138.43
541.764	9148.83
542.129	9077.64
542.494	9151.09
542.858	9254.36
543.223	9234.47
543.587	9247.13
543.952	9264.3
544.316	9315.6
544.681	9319.67
545.045	9381.14
545.41	9375.71
545.774	9379.33
546.138	9416.62
546.503	9487.35
546.867	9405.77
547.231	9540.91
547.595	9579.32
547.959	9573
548.324	9567.8
548.688	9643.5
549.052	9691.64
549.416	9705.87
549.779	9706.33
550.143	9844.85
550.507	9861.35
550.871	9873.78
551.235	9931.41
551.599	10073.55
551.962	10118.07
552.326	10109.25
552.689	10179.31
553.053	10134.11
553.417	10154.22
553.78	10358.06
554.143	10306.31
554.507	10429.92
554.87	10410.71
555.234	10537.94
555.597	10447.32
555.96	10473.31
556.323	10518.73
556.686	10525.29
557.05	10671.95
557.413	10596.92
557.776	10638.28
558.139	10736.36
558.502	10735.45
558.865	10789.01
559.228	10853.64
559.59	10841.44
559.953	10943.58
560.316	11054.77
560.679	11093.86
561.041	11143.35
561.404	11204.82
561.767	11320.07
562.129	11247.08
562.492	11385.83
562.854	11476.9
563.217	11468.77
563.579	11527.97
563.941	11651.36
564.304	11710.57
564.666	11671.25
565.028	11770.23
565.39	11821.98
565.753	11905.14
566.115	12007.06
566.477	12040.5
566.839	12088.41
567.201	12093.83
567.563	12082.08
567.925	12179.03
568.287	12283.43
568.648	12202.31
569.01	12347.61
569.372	12420.38
569.734	12342.42
570.095	12431
570.457	12504.22
570.819	12540.15
571.18	12621.28
571.542	12650.2
571.903	12635.97
572.265	12702.41
572.626	12748.96
572.987	12693.37
573.349	12868.96
573.71	12857.2
574.071	12853.36
574.432	12953.02
574.794	13061.04
575.155	13076.18
575.516	13036.86
575.877	13111.66
576.238	13158.21
576.599	13158.89
576.96	13186.46
577.32	13140.36
577.681	13204.54
578.042	13367.47
578.403	13374.25
578.763	13274.82
579.124	13392.11
579.485	13450.41
579.845	13382.16
580.206	13369.28
580.566	13416.74
580.927	13441.37
581.287	13539.67
581.648	13556.39
582.008	13540.8
582.368	13517.75
582.728	13543.97
583.089	13585.09
583.449	13620.57
583.809	13592.33
584.169	13605.66
584.529	13665.09
584.889	13687.92
585.249	13607.92
585.609	13619.44
585.969	13624.19
586.329	13645.88
586.688	13583.96
587.048	13622.83
587.408	13637.75
587.768	13590.74
588.127	13480.46
588.487	13575.83
588.846	13680.91
589.206	13520.92
589.565	13478.88
589.925	13513.68
590.284	13532.89
590.643	13701.48
591.003	13672.78
591.362	13767.01
591.721	13639.78
592.08	13689.27
592.44	13692.89
592.799	13680.23
593.158	13716.16
593.517	13906.44
593.876	13840.91
594.235	13882.49
594.593	13915.26
594.952	13876.16
595.311	13924.07
595.67	13964.75
596.029	13955.71
596.387	13985.99
596.746	14032.77
597.104	13988.02
597.463	13856.05
597.822	14135.59
598.18	14027.34
598.538	13974.01
598.897	14092.2
599.255	13934.92
599.613	14133.55
599.972	13998.42
600.33	14079.55
600.688	13941.02
601.046	14013.78
601.404	14091.97
601.762	14017.4
602.12	13989.6
602.478	14050.85
602.836	14040.22
603.194	13927.68
603.552	13995.25
603.91	13904.18
604.268	13970.17
604.625	13937.85
604.983	14068.02
605.341	14006.55
605.698	14015.14
606.056	14059.66
606.413	14110.73
606.771	14084.06
607.128	14170.16
607.485	14063.73
607.843	14196.83
608.2	14273.44
608.557	14224.63
608.914	14385.07
609.272	14418.75
609.629	14424.85
609.986	14535.8
610.343	14389.59
610.7	14541.68
611.057	14572.19
611.414	14487.22
611.771	14501.68
612.127	14645.41
612.484	14583.94
612.841	14679.08
613.198	14534.9
613.554	14521.12
613.911	14669.13
614.267	14641.11
614.624	14569.7
614.98	14549.82
615.337	14652.19
615.693	14679.53
616.05	14637.95
616.406	14674.78
616.762	14602.24
617.118	14611.28
617.475	14617.38
617.831	14576.93
618.187	14587.33
618.543	14616.71
618.899	14620.32
619.255	14639.08
619.611	14604.05
619.967	14766.08
620.323	14784.61
620.678	14754.56
621.034	14713.43
621.39	14775.57
621.746	14696.93
622.101	15025.51
622.457	14817.83
622.812	14926.53
623.168	14989.58
623.523	15020.54
623.879	14923.36
624.234	14907.55
624.589	15043.14
624.945	15111.83
625.3	15003.81
625.655	15035
626.01	15107.77
626.365	15103.47
626.72	14962.69
627.075	15057.37
627.43	15090.59
627.785	14944.38
628.14	14988
628.495	15022.8
628.85	15010.82
629.205	14852.41
629.559	14951.16
629.914	14896.92
630.269	14897.83
630.623	14894.89
630.978	14778.51
631.332	14855.34
631.687	14837.04
632.041	14695.8
632.396	14634.56
632.75	14705.52
633.104	14679.3
633.459	14552.75
633.813	14538.74
634.167	14535.8
634.521	14569.02
634.875	14631.62
635.229	14597.27
635.583	14442.25
635.937	14442.25
636.291	14493.55
636.645	14457.39
636.999	14481.34
637.352	14512.75
637.706	14379.2
638.06	14497.84
638.413	14454.9
638.767	14400.44
639.121	14426.2
639.474	14297.39
639.828	14345.75
640.181	14400.21
640.534	14448.8
640.888	14364.96
641.241	14422.13
641.594	14354.34
641.947	14462.13
642.301	14385.07
642.654	14424.62
643.007	14328.13
643.36	14269.6
643.713	14374.68
644.066	14399.31
644.419	14185.08
644.771	14105.53
645.124	14045.42
645.477	13912.77
645.83	13925.65
646.182	13857.18
646.535	13868.48
646.888	13955.93
647.24	13890.4
647.593	13921.81
647.945	13890.85
648.298	13896.5
648.65	13757.52
649.002	13654.02
649.355	13748.71
649.707	13638.43
650.059	13720.23
650.411	13864.64
650.763	13790.97
651.115	14017.4
651.467	13951.41
651.819	14008.36
652.171	13959.77
652.523	13956.84
652.875	13922.71
653.227	13886.78
653.578	13982.82
653.93	13886.78
654.282	13824.64
654.633	13826.9
654.985	13825.77
655.337	13737.41
655.688	13807.46
656.039	13842.49
656.391	13785.09
656.742	13770.85
657.094	13713.9
657.445	13862.38
657.796	13749.84
658.147	13803.17
658.498	13771.53
658.849	13784.64
659.2	13789.84
659.551	13737.86
659.902	13837.97
660.253	13730.18
660.604	13776.05
660.955	13658.09
661.306	13734.92
661.656	13678.88
662.007	13803.62
662.358	13716.16
662.708	13779.44
663.059	13792.55
663.409	13677.3
663.76	13762.27
664.11	13771.08
664.461	13783.51
664.811	13814.47
665.161	13728.82
665.511	13710.97
665.862	13723.62
666.212	13667.35
666.562	13795.71
666.912	13699.67
667.262	13661.25
667.612	13674.13
667.962	13743.73
668.312	13616.05
668.662	13724.3
669.011	13705.09
669.361	13627.58
669.711	13626.22
670.06	13588.94
670.41	13614.25
670.76	13464.65
671.109	13595.04
671.459	13593.23
671.808	13476.4
672.157	13543.06
672.507	13439.34
672.856	13451.54
673.205	13480.46
673.554	13485.21
673.904	13429.17
674.253	13516.17
674.602	13347.36
674.951	13229.62
675.3	13112.34
675.649	13249.06
675.998	13282.28
676.346	13377.64
676.695	13328.6
677.044	13176.29
677.393	13253.8
677.741	13333.8
678.09	13405.89
678.438	13296.06
678.787	13317.31
679.135	13347.13
679.484	13284.54
679.832	13296.29
680.181	13235.5
680.529	13260.58
680.877	13193.92
681.225	13246.35
681.573	13339.45
681.922	13310.3
682.27	13267.81
682.618	13218.32
682.966	13233.24
683.314	13207.03
683.661	13204.77
684.009	13133.58
684.357	13177.42
684.705	13051.1
685.053	13085.22
685.4	13081.38
685.748	13080.25
686.095	13033.92
686.443	12937.2
686.79	12861.5
687.138	12901.95
687.485	12996.41
687.832	12853.36
688.18	12855.17
688.527	12781.73
688.874	12771.1
689.221	12686.36
689.568	12739.69
689.915	12616.31
690.262	12658.11
690.609	12586.93
690.956	12529.53
691.303	12475.52
691.65	12460.83
691.997	12374.51
692.344	12344
692.69	12373.38
693.037	12392.13
693.383	12256.54
693.73	12287.28
694.077	12228.29
694.423	12213.83
694.769	12194.85
695.116	12133.38
695.462	12169.09
695.808	12117.34
696.155	12155.98
696.501	12021.29
696.847	12063.55
697.193	11999.6
697.539	12037.34
697.885	11980.39
698.231	11880.28
698.577	11908.3
698.923	11911.92
699.269	11856.33
699.614	11751.92
699.96	11801.19
700.306	11828.08
700.651	11722.54
700.997	11753.5
701.342	11640.06
701.688	11668.53
702.033	11640.97
702.379	11706.5
702.724	11632.15
703.069	11616.33
703.415	11433.51
703.76	11466.28
704.105	11420.63
704.45	11455.89
704.795	11398.94
705.14	11336.34
705.485	11260.18
705.83	11237.13
706.175	11247.76
706.52	11267.64
706.865	11211.37
707.209	11166.63
707.554	11134.54
707.899	11146.97
708.243	11045.95
708.588	11042.11
708.932	11007.08
709.277	11000.53
709.621	11001.66
709.966	10965.5
710.31	10998.72
710.654	10899.74
710.998	10829.46
711.342	10934.77
711.687	10897.71
712.031	10789.46
712.375	10738.62
712.719	10826.07
713.063	10800.08
713.407	10790.59
713.75	10777.48
714.094	10773.64
714.438	10705.62
714.782	10735.23
715.125	10697.26
715.469	10689.13
715.812	10664.04
716.156	10553.54
716.499	10616.36
716.843	10614.1
717.186	10514.22
717.53	10591.73
717.873	10634.21
718.216	10625.85
718.559	10509.47
718.902	10430.15
719.246	10476.7
719.589	10470.37
719.932	10479.19
720.275	10429.25
720.617	10451.84
720.96	10372.98
721.303	10403.94
721.646	10397.61
721.989	10248.69
722.331	10328.01
722.674	10231.96
723.016	10224.51
723.359	10196.48
723.701	10234.67
724.044	10185.86
724.386	10189.25
724.729	10204.84
725.071	10198.74
725.413	10140.89
725.755	10143.38
726.097	10020.44
726.439	9956.94
726.782	10032.19
727.124	10091.18
727.465	9966.88
727.807	9966.21
728.149	10010.5
728.491	9916.49
728.833	9923.72
729.175	9900.67
729.516	9886.21
729.858	9900.22
730.199	9901.35
730.541	9881.92
730.882	9833.33
731.224	9883.05
731.565	9842.59
731.906	9831.07
732.248	9859.09
732.589	9744.97
732.93	9770.51
733.271	9787.68
733.612	9823.61
733.953	9704.97
734.294	9717.17
734.635	9683.05
734.976	9732.09
735.317	9639.44
735.658	9702.03
735.999	9683.95
736.339	9655.71
736.68	9697.74
737.021	9655.71
737.361	9602.83
737.702	9609.38
738.042	9634.24
738.383	9575.26
738.723	9617.97
739.063	9566.22
739.404	9624.52
739.744	9516.95
740.084	9533.68
740.424	9535.03
740.764	9549.04
741.104	9568.48
741.444	9477.18
741.784	9450.97
742.124	9446.45
742.464	9456.39
742.804	9408.93
743.143	9393.11
743.483	9393.34
743.823	9345.66
744.162	9367.13
744.502	9344.08
744.841	9321.25
745.181	9431.76
745.52	9332.78
745.86	9350.63
746.199	9345.66
746.538	9271.31
746.877	9320.35
747.216	9266.34
747.556	9259.33
747.895	9230.41
748.234	9220.46
748.573	9219.11
748.911	9178.43
749.25	9157.64
749.589	9102.5
749.928	9144.99
750.267	9117.42
750.605	9072.67
750.944	9120.81
751.283	9065.89
751.621	9125.78
751.96	8961.94
752.298	8983.63
752.636	8976.85
752.975	8995.38
753.313	8942.5
753.651	8968.04
753.989	8904.99
754.327	8849.85
754.666	8860.47
755.004	8873.13
755.342	8800.14
755.679	8820.25
756.017	8697.99
756.355	8709.29
756.693	8690.76
757.031	8690.76
757.368	8643.3
757.706	8641.5
758.044	8668.61
758.381	8563.08
758.719	8535.28
759.056	8676.07
759.394	8561.72
759.731	8495.51
760.068	8597.43
760.405	8510.43
760.743	8451.67
761.08	8533.25
761.417	8364.44
761.754	8372.12
762.091	8330.09
762.428	8345.68
762.765	8350.43
763.102	8324.67
763.438	8264.33
763.775	8289.87
764.112	8207.38
764.449	8225.69
764.785	8270.43
765.122	8225.69
765.458	8145.24
765.795	8111.11
766.131	8221.62
766.467	8040.16
766.804	8119.48
767.14	8049.87
767.476	8085.58
767.812	7970.55
768.148	8034.51
768.485	7975.3
768.821	7945.47
769.157	7906.6
769.492	7919.48
769.828	7894.17
770.164	7864.57
770.5	7851.91
770.836	7822.99
771.171	7762.42
771.507	7761.29
771.842	7693.05
772.178	7681.07
772.513	7737.34
772.849	7706.83
773.184	7647.85
773.519	7629.09
773.855	7573.28
774.19	7562.43
774.525	7547.74
774.86	7520.85
775.195	7478.81
775.53	7459.15
775.865	7386.84
776.2	7389.78
776.535	7321.3
776.87	7278.59
777.205	7302.55
777.539	7234.53
777.874	7230.69
778.209	7205.38
778.543	7145.94
778.878	7071.14
779.212	7130.8
779.547	7069.11
779.881	7058.26
780.215	6965.38
780.55	7021.88
780.884	7023.69
781.218	6940.07
781.552	6913.63
781.886	6814.2
782.22	6865.72
782.554	6834.99
782.888	6802.45
783.222	6814.43
783.556	6789.34
783.889	6750.02
784.223	6716.8
784.557	6662.34
784.89	6685.84
785.224	6665.95
785.557	6632.06
785.891	6647.88
786.224	6598.16
786.558	6584.6
786.891	6551.16
787.224	6511.16
787.557	6427.77
787.891	6539.18
788.224	6467.77
788.557	6483.81
788.89	6516.13
789.223	6509.35
789.556	6409.92
789.888	6376.7
790.221	6393.87
790.554	6323.14
790.887	6378.5
791.219	6353.19
791.552	6380.31
791.884	6332.86
792.217	6237.94
792.549	6279.75
792.882	6249.24
793.214	6252.86
793.546	6252.41
793.879	6188.68
794.211	6198.17
794.543	6146.87
794.875	6152.07
795.207	6158.17
795.539	6178.28
795.871	6144.39
796.203	6084.73
796.535	6055.8
796.867	6080.43
797.198	5971.51
797.53	5983.71
797.862	6005.63
798.193	5998.4
798.525	5972.64
798.856	5913.66
799.188	5907.56
799.519	5849.7
799.85	5853.09
800.182	5824.39
800.513	5828.91
800.844	5776.71
801.175	5862.36
801.506	5791.4
801.837	5775.36
802.168	5731.29
802.499	5732.87
802.83	5638.41
803.161	5701.01
803.491	5666.88
803.822	5622.82
804.153	5602.25
804.483	5581.01
804.814	5535.36
805.145	5581.46
805.475	5536.72
805.805	5513.22
806.136	5494.23
806.466	5486.78
806.796	5504.86
807.126	5407.23
807.457	5448.81
807.787	5420.79
808.117	5401.81
808.447	5394.12
808.777	5378.3
809.107	5343.5
809.436	5344.86
809.766	5355.93
810.096	5291.08
810.426	5288.82
810.755	5371.53
811.085	5305.31
811.414	5242.94
811.744	5248.59
812.073	5260.12
812.403	5249.95
812.732	5238.65
813.061	5210.63
813.39	5206.11
813.719	5222.15
814.049	5232.09
814.378	5174.69
814.707	5201.59
815.036	5176.28
815.365	5200.23
815.693	5150.51
816.022	5158.2
816.351	5138.76
816.68	5135.15
817.008	5118.65
817.337	5073.23
817.665	5022.61
817.994	5065.32
818.322	5084.3
818.651	5062.61
818.979	5094.92
819.307	5061.93
819.636	5051.76
819.964	5028.03
820.292	5032.33
820.62	5044.75
820.948	5047.24
821.276	5060.8
821.604	5049.5
821.932	5057.64
822.259	5012.89
822.587	5035.94
822.915	4987.35
823.243	5013.12
823.57	5013.12
823.898	5024.87
824.225	4995.72
824.553	4936.28
824.88	4996.39
825.207	4989.61
825.535	4978.54
825.862	4989.84
826.189	4964.08
826.516	4971.31
826.843	4976.06
827.17	4981.03
827.497	4986.68
827.824	4946
828.151	4965.89
828.478	4949.39
828.805	4976.28
829.131	4997.3
829.458	4946.68
829.785	4881.14
830.111	4941.03
830.438	4974.93
830.764	4990.29
831.09	4978.32
831.417	4977.19
831.743	4960.69
832.069	4910.07
832.395	4887.7
832.722	4911.65
833.048	4896.74
833.374	4889.05
833.7	4912.78
834.026	4913.46
834.351	4921.14
834.677	4902.39
835.003	4894.93
835.329	4866.45
835.654	4908.03
835.98	4871.65
836.306	4878.21
836.631	4859.9
836.956	4908.03
837.282	4854.25
837.607	4793.24
837.932	4820.81
838.258	4831.2
838.583	4827.81
838.908	4800.47
839.233	4787.13
839.558	4807.47
839.883	4770.64
840.208	4752.11
840.533	4820.58
840.858	4807.7
841.182	4740.58
841.507	4765.44
841.832	4730.64
842.156	4715.27
842.481	4759.56
842.805	4743.07
843.13	4729.06
843.454	4697.64
843.778	4647.7
844.103	4666.69
844.427	4618.55
844.751	4667.59
845.075	4635.27
845.399	4643.41
845.723	4587.59
846.047	4575.61
846.371	4562.73
846.695	4629.4
847.019	4594.6
847.343	4514.82
847.666	4477.54
847.99	4513.24
848.313	4457.88
848.637	4473.47
848.96	4475.5
849.284	4451.32
849.607	4414.26
849.931	4462.85
850.254	4385.56
850.577	4402.51
850.9	4345.11
851.223	4304.89
851.546	4270.54
851.869	4266.47
852.192	4314.15
852.515	4299.92
852.838	4281.84
853.161	4242.06
853.483	4242.29
853.806	4226.92
854.129	4213.59
854.451	4213.59
854.774	4191.44
855.096	4240.26
855.419	4163.42
855.741	4129.52
856.063	4151.44
856.385	4143.76
856.708	4167.94
857.03	4110.99
857.352	4087.72
857.674	4099.69
857.996	4071.9
858.318	4099.02
858.64	4064.89
858.961	4065.8
859.283	4058.34
859.605	4063.99
859.926	4042.75
860.248	4020.37
860.57	4017.66
860.891	4015.85
861.212	3993.03
861.534	3993.71
861.855	4007.72
862.176	3988.96
862.498	4001.62
862.819	3940.15
863.14	3975.63
863.461	3944.9
863.782	3965.91
864.103	3957.55
864.424	3961.84
864.745	3948.29
865.065	3906.93
865.386	3911.22
865.707	3937.89
866.027	3900.6
866.348	3935.18
866.668	3897.21
866.989	3875.07
867.309	3853.83
867.63	3850.89
867.95	3875.75
868.27	3851.79
868.59	3829.87
868.91	3869.64
869.23	3811.34
869.55	3789.87
869.87	3795.3
870.19	3754.62
870.51	3804.79
870.83	3746.71
871.15	3753.94
871.469	3767.73
871.789	3798.69
872.109	3775.64
872.428	3767.95
872.748	3753.49
873.067	3714.17
873.386	3763.43
873.706	3758.91
874.025	3712.59
874.344	3709.2
874.663	3710.78
874.982	3705.81
875.301	3711.68
875.62	3700.38
875.939	3690.89
876.258	3697.67
876.577	3671.91
876.896	3661.51
877.214	3667.84
877.533	3677.11
877.852	3699.03
878.17	3662.87
878.489	3642.31
878.807	3649.99
879.125	3631.46
879.444	3615.41
879.762	3644.11
880.08	3638.24
880.398	3667.16
880.716	3646.37
881.034	3576.09
881.352	3616.54
881.67	3583.78
881.988	3628.75
882.306	3628.52
882.624	3597.11
882.941	3586.26
883.259	3605.7
883.577	3541.97
883.894	3579.48
884.212	3557.34
884.529	3639.37
884.846	3565.47
885.164	3558.69
885.481	3578.13
885.798	3544.91
886.115	3543.55
886.432	3529.09
886.75	3528.41
887.067	3540.16
887.383	3506.49
887.7	3530.22
888.017	3496.55
888.334	3479.6
888.651	3479.37
888.967	3473.04
889.284	3462.2
889.6	3440.5
889.917	3475.98
890.233	3446.83
890.55	3439.37
890.866	3425.36
891.182	3429.88
891.498	3395.31
891.815	3400.96
892.131	3399.6
892.447	3383.1
892.763	3354.18
893.079	3363.67
893.395	3322.09
893.71	3290.45
894.026	3304.46
894.342	3278.02
894.657	3317.79
894.973	3304.91
895.289	3284.12
895.604	3325.25
895.92	3286.16
896.235	3255.2
896.55	3242.32
896.865	3235.31
897.181	3202.54
897.496	3202.77
897.811	3181.75
898.126	3149.44
898.441	3166.61
898.756	3190.79
899.071	3127.97
899.386	3130.23
899.7	3076.67
900.015	3107.4
900.33	3068.76
900.644	3063.34
900.959	3017.69
901.273	3036.45
901.588	3040.97
901.902	3013.62
902.216	2992.6
902.531	3013.4
902.845	2931.59
903.159	2933.17
903.473	2933.4
903.787	2913.96
904.101	2930.23
904.415	2913.06
904.729	2898.6
905.042	2881.42
905.356	2891.14
905.67	2890.23
905.984	2876.45
906.297	2858.82
906.611	2826.73
906.924	2834.87
907.237	2842.78
907.551	2828.09
907.864	2814.53
908.177	2816.34
908.491	2808.65
908.804	2795.32
909.117	2815.21
909.43	2754.65
909.743	2767.07
910.056	2766.17
910.368	2775.89
910.681	2723.46
910.994	2738.6
911.307	2759.16
911.619	2686.85
911.932	2712.61
912.244	2696.57
912.557	2728.66
912.869	2715.32
913.181	2682.1
913.494	2701.09
913.806	2667.87
914.118	2678.94
914.43	2610.92
914.742	2666.51
915.054	2621.99
915.366	2675.55
915.678	2609.34
915.99	2626.06
916.302	2618.83
916.613	2578.6
916.925	2597.59
917.236	2605.5
917.548	2585.38
917.859	2610.47
918.171	2586.97
918.482	2536.8
918.794	2551.94
919.105	2580.41
919.416	2512.17
919.727	2535.89
920.038	2511.94
920.349	2509.23
920.66	2494.31
920.971	2496.12
921.282	2521.66
921.593	2456.8
921.903	2466.29
922.214	2479.85
922.525	2469.68
922.835	2446.86
923.146	2441.66
923.456	2394.43
923.767	2437.37
924.077	2426.74
924.387	2436.46
924.697	2355.33
925.008	2356.92
925.318	2379.74
925.628	2345.84
925.938	2338.16
926.248	2365.73
926.558	2338.16
926.867	2329.57
927.177	2325.96
927.487	2298.16
927.796	2299.52
928.106	2264.49
928.416	2290.93
928.725	2258.39
929.034	2264.49
929.344	2255.45
929.653	2243.92
929.962	2200.76
930.271	2181.78
930.581	2167.09
930.89	2147.66
931.199	2151.72
931.508	2135.68
931.817	2127.09
932.125	2093.65
932.434	2138.62
932.743	2119.41
933.051	2095.23
933.36	2088.9
933.669	2089.8
933.977	2087.09
934.286	2076.92
934.594	2049.35
934.902	2043.7
935.21	2019.75
935.519	1995.34
935.827	2004.83
936.135	1986.53
936.443	2002.57
936.751	2001.67
937.059	1966.87
937.367	1958.73
937.674	1984.27
937.982	1961.67
938.29	1941.33
938.597	1935.01
938.905	1898.85
939.213	1934.1
939.52	1945.17
939.827	1943.14
940.135	1910.83
940.442	1908.79
940.749	1892.75
941.056	1895.68
941.363	1903.82
941.67	1872.86
941.977	1843.26
942.284	1872.63
942.591	1876.48
942.898	1893.42
943.205	1852.07
943.511	1885.06
943.818	1869.92
944.125	1832.64
944.431	1822.47
944.738	1814.33
945.044	1828.79
945.35	1797.38
945.657	1818.17
945.963	1795.57
946.269	1845.52
946.575	1788.79
946.881	1777.72
947.187	1800.77
947.493	1792.18
947.799	1759.64
948.105	1790.6
948.41	1760.32
948.716	1736.37
949.022	1739.53
949.327	1752.64
949.633	1737.27
949.938	1718.97
950.244	1766.2
950.549	1741.34
950.854	1717.38
951.16	1705.86
951.465	1722.36
951.77	1706.76
952.075	1719.87
952.38	1708.57
952.685	1665.63
952.99	1668.8
953.294	1702.02
953.599	1671.96
953.904	1655.92
954.209	1642.58
954.513	1656.37
954.818	1652.53
955.122	1649.82
955.426	1642.58
955.731	1626.99
956.035	1618.4
956.339	1595.81
956.643	1626.31
956.948	1598.07
957.252	1585.86
957.556	1581.57
957.86	1589.25
958.163	1597.16
958.467	1550.38
958.771	1556.94
959.075	1548.58
959.378	1544.73
959.682	1532.08
959.985	1554
960.289	1536.6
960.592	1517.39
960.896	1492.98
961.199	1510.61
961.502	1517.84
961.805	1488.24
962.108	1492.08
962.411	1449.59
962.714	1471.74
963.017	1478.07
963.32	1474.9
963.623	1456.15
963.926	1467.9
964.228	1445.3
964.531	1478.07
964.833	1447.56
965.136	1389.26
965.438	1399.88
965.741	1391.74
966.043	1404.4
966.345	1401.91
966.648	1368.92
966.95	1365.76
967.252	1364.17
967.554	1382.93
967.856	1362.37
968.158	1362.14
968.46	1367.34
968.761	1351.74
969.063	1356.72
969.365	1346.09
969.666	1327.34
969.968	1325.98
970.269	1304.06
970.571	1316.26
970.872	1314.46
971.174	1290.5
971.475	1335.93
971.776	1258.19
972.077	1296.6
972.378	1285.08
972.679	1296.83
972.98	1285.08
973.281	1271.52
973.582	1266.55
973.883	1284.63
974.183	1274.46
974.484	1271.07
974.785	1272.88
975.085	1262.93
975.386	1263.84
975.686	1228.81
975.986	1232.43
976.287	1254.12
976.587	1243.27
976.887	1269.49
977.187	1233.56
977.487	1220
977.787	1218.87
978.087	1208.7
978.387	1201.01
978.687	1199.66
978.987	1234.91
979.286	1224.52
979.586	1201.47
979.885	1193.56
980.185	1198.98
980.484	1170.05
980.784	1175.7
981.083	1177.29
981.382	1200.34
981.682	1163.95
981.981	1151.07
982.28	1153.11
982.579	1176.16
982.878	1161.69
983.177	1161.47
983.475	1173.22
983.774	1141.35
984.073	1138.19
984.372	1143.84
984.67	1154.69
984.969	1127.57
985.267	1116.5
985.566	1138.42
985.864	1118.08
986.162	1094.58
986.461	1119.66
986.759	1141.35
987.057	1109.72
987.355	1090.73
987.653	1104.97
987.951	1076.5
988.249	1116.27
988.547	1079.21
988.844	1078.53
989.142	1077.4
989.44	1063.16
989.737	1076.72
990.035	1078.08
990.332	1095.03
990.63	1066.33
990.927	1062.03
991.224	1049.61
991.521	1041.47
991.819	1058.64
992.116	1043.96
992.413	1033.11
992.71	1040.11
993.006	1022.04
993.303	1007.57
993.6	1021.58
993.897	1012.32
994.193	1035.14
994.49	993.56
994.787	996.73
995.083	981.58
995.379	992.66
995.676	978.42
995.972	995.82
996.268	974.35
996.565	972.32
996.861	962.38
997.157	960.79
997.453	959.66
997.749	964.64
998.044	927.8
998.34	945.65
998.636	927.57
998.932	901.36
999.227	933.68
999.523	915.82
999.818	902.26
1000.114	931.42
1000.409	915.37
1000.704	899.33
1001	892.1
1001.295	910.4
1001.59	922.6
1001.885	898.87
1002.18	894.58
1002.475	896.84
1002.77	906.78
1003.065	883.28
1003.359	869.04
1003.654	845.99
1003.949	861.81
1004.243	882.6
1004.538	887.12
1004.832	845.09
1005.127	861.36
1005.421	850.29
1005.715	842.6
1006.009	830.18
1006.304	860.91
1006.598	810.29
1006.892	852.32
1007.186	859.33
1007.48	827.46
1007.773	836.05
1008.067	810.06
1008.361	804.41
1008.655	817.52
1008.948	832.89
1009.242	810.97
1009.535	800.35
1009.829	810.52
1010.122	803.74
1010.415	808.26
1010.708	823.4
1011.001	790.85
1011.295	774.58
1011.588	814.36
1011.881	810.97
1012.173	762.61
1012.466	763.74
1012.759	763.06
1013.052	779.33
1013.344	764.19
1013.637	754.92
1013.93	766.9
1014.222	756.51
1014.514	766.45
1014.807	738.43
1015.099	744.3
1015.391	771.19
1015.683	748.14
1015.976	746.56
1016.268	742.27
1016.56	735.26
1016.851	724.64
1017.143	734.13
1017.435	726.45
1017.727	735.49
1018.018	725.32
1018.31	713.34
1018.602	713.79
1018.893	696.85
1019.185	717.18
1019.476	721.25
1019.767	694.59
1020.058	686
1020.35	690.29
1020.641	708.6
1020.932	714.7
1021.223	669.73
1021.514	686.9
1021.804	680.8
1022.095	704.3
1022.386	688.26
1022.677	672.44
1022.967	671.76
1023.258	680.8
1023.548	653.46
1023.839	656.85
1024.129	671.08
1024.419	661.37
1024.709	658.43
1025	659.78
1025.29	664.3
1025.58	648.71
1025.87	621.14
1026.16	662.95
1026.449	651.65
1026.739	621.14
1027.029	637.19
1027.319	611.65
1027.608	647.81
1027.898	634.93
1028.187	620.92
1028.477	621.14
1028.766	628.15
1029.055	621.14
1029.344	607.36
1029.634	613.91
1029.923	581.14
1030.212	600.58
1030.501	603.97
1030.79	585.89
1031.078	603.52
1031.367	560.8
1031.656	607.58
1031.945	568.26
1032.233	594.02
1032.522	569.39
1032.81	563.74
1033.099	572.56
1033.387	560.35
1033.675	567.36
1033.963	569.84
1034.251	546.34
1034.54	541.14
1034.828	548.6
1035.116	549.05
1035.403	555.61
1035.691	560.58
1035.979	566.45
1036.267	511.31
1036.554	527.81
1036.842	555.83
1037.129	537.08
1037.417	502.73
1037.704	564.65
1037.992	521.94
1038.279	538.66
1038.566	527.58
1038.853	527.58
1039.14	527.58
