Data from foam_black_FLMS001491_00065.txt Node
Date: Wed Feb 08 10:44:24 GMT 2017
User: dcchb
Spectrometer: FLMS00149
Trigger mode: 0
Integration Time (sec): 2.000000E-2
Scans to average: 10
Electric dark correction enabled: true
Nonlinearity correction enabled: false
Boxcar width: 0
XAxis mode: Wavelengths
Number of Pixels in Spectrum: 2048
>>>>>Begin Spectral Data<<<<<
341.393	-11.65
341.776	-11.65
342.16	-11.65
342.543	-56.85
342.927	-69.5
343.31	-67.47
343.693	-57.75
344.077	-94.59
344.46	-55.94
344.843	-58.66
345.226	-52.33
345.61	-27.7
345.993	-11.65
346.376	17.27
346.759	1
347.142	25.41
347.525	55.69
347.908	48.23
348.291	76.03
348.674	96.37
349.057	106.08
349.44	134.33
349.823	146.31
350.206	156.48
350.588	183.37
350.971	208.91
351.354	209.13
351.737	202.13
352.119	235.57
352.502	233.99
352.884	257.04
353.267	260.43
353.65	297.72
354.032	286.87
354.414	259.08
354.797	302.46
355.179	306.76
355.562	335.46
355.944	298.85
356.326	311.28
356.709	312.86
357.091	301.56
357.473	342.24
357.855	325.06
358.238	326.19
358.62	320.77
359.002	335.68
359.384	337.04
359.766	310.83
360.148	328
360.53	313.76
360.912	323.25
361.294	323.03
361.676	318.28
362.057	316.02
362.439	320.99
362.821	302.01
363.203	299.07
363.584	292.97
363.966	285.74
364.348	286.19
364.729	304.72
365.111	291.62
365.493	313.31
365.874	304.95
366.256	305.63
366.637	298.17
367.019	306.76
367.4	293.2
367.781	297.04
368.163	302.01
368.544	293.42
368.925	298.17
369.306	322.58
369.688	296.59
370.069	288.45
370.45	293.88
370.831	282.8
371.212	299.75
371.593	288.23
371.974	296.14
372.355	306.98
372.736	313.99
373.117	294.33
373.498	292.97
373.879	303.82
374.26	306.31
374.641	302.46
375.021	278.74
375.402	317.38
375.783	305.85
376.163	287.32
376.544	300.43
376.925	297.72
377.305	290.49
377.686	290.49
378.066	318.28
378.447	322.12
378.827	308.57
379.208	316.25
379.588	306.08
379.968	327.55
380.349	309.02
380.729	329.13
381.109	314.67
381.489	312.86
381.87	322.35
382.25	336.59
382.63	328
383.01	325.06
383.39	329.81
383.77	314.89
384.15	317.15
384.53	332.75
384.91	322.58
385.29	336.81
385.67	319.64
386.049	342.24
386.429	318.06
386.809	325.06
387.189	331.84
387.568	334.78
387.948	333.88
388.328	317.38
388.707	332.29
389.087	365.74
389.466	342.01
389.846	343.37
390.225	340.43
390.605	353.76
390.984	329.81
391.363	344.04
391.743	350.82
392.122	341.33
392.501	325.74
392.881	362.8
393.26	345.85
393.639	354.67
394.018	353.08
394.397	355.57
394.776	355.12
395.155	368.45
395.534	363.93
395.913	354.89
396.292	366.87
396.671	368.45
397.05	350.6
397.429	356.47
397.808	384.95
398.186	372.29
398.565	368
398.944	349.47
399.323	367.09
399.701	358.51
400.08	370.48
400.458	385.85
400.837	378.62
401.215	381.33
401.594	355.8
401.972	367.09
402.351	360.09
402.729	383.14
403.107	390.15
403.486	377.49
403.864	399.86
404.242	388.11
404.62	376.36
404.999	391.95
405.377	388.11
405.755	391.05
406.133	411.16
406.511	389.24
406.889	400.77
407.267	403.48
407.645	396.7
408.023	417.26
408.401	403.93
408.779	398.05
409.156	411.16
409.534	407.77
409.912	413.87
410.29	421.1
410.667	396.92
411.045	437.38
411.422	418.17
411.8	451.39
412.178	434.89
412.555	426.08
412.933	408.9
413.31	422.91
413.687	427.21
414.065	447.77
414.442	425.62
414.819	462.69
415.197	440.99
415.574	425.85
415.951	436.92
416.328	445.96
416.705	437.6
417.082	445.28
417.46	446.87
417.837	468.11
418.214	450.26
418.591	468.79
418.967	483.25
419.344	475.57
419.721	475.79
420.098	466.75
420.475	484.83
420.852	466.3
421.228	480.54
421.605	470.82
421.982	468.56
422.358	507.2
422.735	475.57
423.111	479.86
423.488	496.81
423.864	483.48
424.241	487.77
424.617	492.29
424.994	506.75
425.37	492.06
425.746	480.54
426.123	498.39
426.499	517.15
426.875	515.11
427.251	509.69
427.627	539.29
428.003	509.69
428.379	516.47
428.756	535.45
429.132	519.86
429.507	553.98
429.883	534.32
430.259	526.64
430.635	547.88
431.011	559.41
431.387	553.3
431.763	566.86
432.138	547.66
432.514	569.35
432.89	559.63
433.265	569.35
433.641	588.33
434.016	570.03
434.392	570.71
434.767	571.61
435.143	580.65
435.518	593.98
435.894	579.07
436.269	609.35
436.644	590.37
437.02	586.98
437.395	618.16
437.77	583.13
438.145	603.7
438.52	629.23
438.895	617.26
439.271	604.6
439.646	632.4
440.021	626.07
440.395	624.72
440.77	635.79
441.145	653.64
441.52	630.59
441.895	637.82
442.27	638.27
442.645	651.83
443.019	624.26
443.394	659.29
443.769	666.07
444.143	656.58
444.518	654.32
444.892	647.31
445.267	656.58
445.641	665.17
446.016	686.18
446.39	661.32
446.764	682.79
447.139	660.19
447.513	701.55
447.887	665.84
448.262	695.9
448.636	679.18
449.01	679.18
449.384	702.91
449.758	683.92
450.132	711.27
450.506	721.44
450.88	715.56
451.254	719.18
451.628	702.68
452.002	742.45
452.376	730.7
452.75	716.92
453.123	728.89
453.497	778.84
453.871	752.17
454.244	771.15
454.618	770.02
454.992	762.56
455.365	764.15
455.739	792.85
456.112	789.91
456.486	787.87
456.859	783.13
457.232	831.04
457.606	826.97
457.979	807.54
458.352	798.72
458.725	827.2
459.099	843.47
459.472	842.34
459.845	871.71
460.218	843.24
460.591	843.69
460.964	866.74
461.337	870.58
461.71	877.14
462.083	921.2
462.456	904.26
462.829	897.02
463.201	889.57
463.574	901.09
463.947	935.89
464.32	923.24
464.692	946.29
465.065	949.9
465.438	953.75
465.81	985.61
466.183	967.31
466.555	957.14
466.928	994.65
467.3	973.41
467.672	1006.85
468.045	1010.92
468.417	999.62
468.789	1025.61
469.161	1009.79
469.534	1029
469.906	1065.38
470.278	1057.47
470.65	1078.26
471.022	1073.52
471.394	1102.89
471.766	1111.48
472.138	1129.56
472.51	1118.94
472.882	1176.11
473.253	1137.24
473.625	1169.11
473.997	1177.47
474.369	1191.71
474.74	1194.42
475.112	1191.03
475.484	1231.93
475.855	1258.82
476.227	1247.98
476.598	1273.29
476.97	1301.08
477.341	1328.2
477.713	1320.74
478.084	1323.91
478.455	1343.57
478.827	1360.52
479.198	1398.93
479.569	1404.58
479.94	1433.51
480.311	1431.47
480.682	1472.83
481.053	1487.07
481.424	1485.26
481.795	1520.96
482.166	1555.76
482.537	1572.71
482.908	1579.72
483.279	1562.09
483.65	1605.48
484.021	1623.33
484.391	1664.24
484.762	1658.59
485.133	1693.39
485.503	1671.69
485.874	1720.28
486.244	1730
486.615	1767.28
486.985	1770.45
487.356	1813.84
487.726	1824.23
488.097	1863.78
488.467	1853.61
488.837	1849.54
489.207	1896.32
489.578	1892.93
489.948	1941.52
490.318	1975.64
490.688	1969.99
491.058	1994.17
491.428	2018.58
491.798	1998.92
492.168	2064.45
492.538	2042.08
492.908	2120.95
493.278	2144.22
493.648	2082.98
494.017	2153.04
494.387	2151.91
494.757	2172.92
495.126	2150.1
495.496	2201.85
495.866	2245.01
496.235	2206.82
496.605	2202.07
496.974	2268.97
497.344	2242.3
497.713	2259.47
498.082	2293.15
498.452	2314.39
498.821	2313.03
499.19	2317.1
499.559	2339.47
499.928	2372.92
500.298	2395.29
500.667	2372.47
501.036	2405.91
501.405	2398.45
501.774	2431
502.143	2451.11
502.512	2429.87
502.88	2422.18
503.249	2497.43
503.618	2475.74
503.987	2499.24
504.356	2512.8
504.724	2529.98
505.093	2531.11
505.462	2565.68
505.83	2588.51
506.199	2553.93
506.567	2586.02
506.936	2624.44
507.304	2646.36
507.672	2626.7
508.041	2628.5
508.409	2681.16
508.777	2718.22
509.145	2735.39
509.514	2732.23
509.882	2733.36
510.25	2765.22
510.618	2751.44
510.986	2794.38
511.354	2846.35
511.722	2827.37
512.09	2845.45
512.458	2848.39
512.826	2889.97
513.193	2917.31
513.561	2912.56
513.929	2940.36
514.297	2982.85
514.664	2967.7
515.032	3016.74
515.4	2966.12
515.767	2996.63
516.135	3060.36
516.502	3041.83
516.869	3090.87
517.237	3024.88
517.604	3106.01
517.972	3085.89
518.339	3178.32
518.706	3149.62
519.073	3158.89
519.44	3154.14
519.808	3176.51
520.175	3195.04
520.542	3211.54
520.909	3277.98
521.276	3274.59
521.643	3318.43
522.009	3294.7
522.376	3343.74
522.743	3372.67
523.11	3390.29
523.477	3424.19
523.843	3449.05
524.21	3454.7
524.577	3514.36
524.943	3512.1
525.31	3543.73
525.676	3573.79
526.043	3609.95
526.409	3613.34
526.776	3663.05
527.142	3644.52
527.508	3673
527.874	3713.22
528.241	3713.9
528.607	3734.69
528.973	3748.02
529.339	3744.18
529.705	3816.72
530.071	3848.13
530.437	3841.35
530.803	3814.24
531.169	3847.91
531.535	3835.93
531.901	3871.64
532.267	3858.75
532.632	3928.36
532.998	3962.25
533.364	3914.57
533.73	3988.92
534.095	4024.17
534.461	4017.17
534.826	4005.19
535.192	4052.65
535.557	4061.91
535.923	4052.42
536.288	4105.53
536.653	4128.58
537.019	4102.59
537.384	4142.81
537.749	4137.17
538.114	4203.15
538.479	4194.79
538.845	4213.1
539.21	4224.39
539.575	4238.18
539.94	4276.14
540.305	4315.47
540.67	4272.75
541.034	4270.5
541.399	4342.81
541.764	4351.17
542.129	4329.02
542.494	4296.48
542.858	4344.84
543.223	4295.13
543.587	4375.13
543.952	4369.02
544.316	4411.73
544.681	4369.02
545.045	4444.73
545.41	4410.6
545.774	4456.93
546.138	4462.58
546.503	4467.78
546.867	4436.59
547.231	4499.87
547.595	4484.5
547.959	4538.51
548.324	4533.99
548.688	4592.75
549.052	4576.48
549.416	4630.26
549.779	4636.14
550.143	4649.24
550.507	4639.75
550.871	4702.35
551.235	4732.63
551.599	4744.38
551.962	4706.19
552.326	4790.93
552.689	4818.73
553.053	4785.74
553.417	4782.57
553.78	4865.73
554.143	4891.95
554.507	4902.79
554.87	4879.52
555.234	4951.61
555.597	4929.23
555.96	4938.95
556.323	4977.82
556.686	4972.4
557.05	4943.7
557.413	5007.88
557.776	5014.2
558.139	5087.87
558.502	5024.15
558.865	5049.23
559.228	5122.9
559.59	5175.78
559.953	5127.87
560.316	5168.78
560.679	5126.52
561.041	5217.59
561.404	5209.23
561.767	5228.44
562.129	5263.24
562.492	5290.36
562.854	5344.82
563.217	5294.87
563.579	5364.7
563.941	5394.53
564.304	5393.4
564.666	5390.92
565.028	5466.85
565.39	5455.1
565.753	5514.76
566.115	5576.9
566.477	5607.64
566.839	5582.1
567.201	5650.8
567.563	5666.62
567.925	5683.57
568.287	5710.91
568.648	5713.39
569.01	5772.38
569.372	5720.4
569.734	5770.57
570.095	5809.21
570.457	5819.38
570.819	5848.31
571.18	5808.76
571.542	5878.14
571.903	5876.55
572.265	5888.31
572.626	5905.48
572.987	5912.26
573.349	5944.12
573.71	5960.17
574.071	5940.51
574.432	5961.75
574.794	6025.7
575.155	6041.3
575.516	5957.23
575.877	6012.82
576.238	6044.69
576.599	6051.24
576.96	6064.8
577.32	6010.79
577.681	6085.59
578.042	6109.54
578.403	6130.11
578.763	6114.29
579.124	6096.21
579.485	6182.08
579.845	6171.46
580.206	6185.25
580.566	6212.59
580.927	6203.33
581.287	6226.6
581.648	6268.41
582.008	6225.25
582.368	6173.04
582.728	6212.82
583.089	6226.83
583.449	6299.14
583.809	6321.06
584.169	6225.7
584.529	6245.81
584.889	6314.96
585.249	6217.79
585.609	6308.18
585.969	6326.71
586.329	6266.6
586.688	6288.07
587.048	6277.22
587.408	6237.22
587.768	6305.7
588.127	6253.49
588.487	6278.58
588.846	6271.8
589.206	6228.86
589.565	6206.72
589.925	6368.07
590.284	6256.43
590.643	6226.83
591.003	6240.16
591.362	6247.17
591.721	6240.61
592.08	6275.41
592.44	6244.45
592.799	6308.86
593.158	6237
593.517	6261.18
593.876	6241.29
594.235	6229.99
594.593	6240.61
594.952	6230.67
595.311	6228.64
595.67	6292.81
596.029	6268.18
596.387	6309.31
596.746	6352.47
597.104	6295.3
597.463	6296.43
597.822	6323.55
598.18	6294.62
598.538	6306.15
598.897	6356.54
599.255	6333.27
599.613	6362.19
599.972	6333.49
600.33	6379.14
600.688	6350.21
601.046	6385.92
601.404	6352.47
601.762	6399.7
602.12	6397.44
602.478	6386.6
602.836	6412.81
603.194	6368.29
603.552	6396.54
603.91	6319.93
604.268	6439.03
604.625	6364.68
604.983	6380.5
605.341	6349.99
605.698	6412.13
606.056	6405.58
606.413	6411.46
606.771	6427.5
607.128	6372.59
607.485	6363.32
607.843	6374.62
608.2	6448.97
608.557	6417.33
608.914	6432.02
609.272	6451.91
609.629	6481.51
609.986	6512.7
610.343	6453.04
610.7	6498.91
611.057	6471.57
611.414	6499.36
611.771	6505.92
612.127	6499.59
612.484	6530.77
612.841	6553.6
613.198	6533.26
613.554	6512.47
613.911	6596.31
614.267	6592.92
614.624	6558.57
614.98	6574.84
615.337	6647.38
615.693	6578.91
616.05	6541.85
616.406	6641.96
616.762	6600.15
617.118	6566.48
617.475	6601.06
617.831	6633.82
618.187	6608.06
618.543	6558.8
618.899	6658.45
619.255	6639.25
619.611	6651
619.967	6633.14
620.323	6689.87
620.678	6597.67
621.034	6603.99
621.39	6623.88
621.746	6609.87
622.101	6638.57
622.457	6591.56
622.812	6595.41
623.168	6629.76
623.523	6656.2
623.879	6654.39
624.234	6585.24
624.589	6629.98
624.945	6634.73
625.3	6657.78
625.655	6655.07
626.01	6672.92
626.365	6659.58
626.72	6615.29
627.075	6651.22
627.43	6600.6
627.785	6638.57
628.14	6677.44
628.495	6699.58
628.85	6702.97
629.205	6592.47
629.559	6694.61
629.914	6653.26
630.269	6632.92
630.623	6672.47
630.978	6622.07
631.332	6619.59
631.687	6645.57
632.041	6608.51
632.396	6677.89
632.75	6566.03
633.104	6594.5
633.459	6597.67
633.813	6594.05
634.167	6606.03
634.521	6538.23
634.875	6586.14
635.229	6544.79
635.583	6560.15
635.937	6506.14
636.291	6503.88
636.645	6534.84
636.999	6531
637.352	6544.56
637.706	6457.33
638.06	6451.68
638.413	6454.62
638.767	6366.94
639.121	6424.56
639.474	6466.14
639.828	6388.18
640.181	6464.56
640.534	6432.47
640.888	6356.99
641.241	6335.98
641.594	6365.13
641.947	6372.13
642.301	6377.56
642.654	6334.17
643.007	6334.62
643.36	6387.95
643.713	6335.3
644.066	6400.61
644.419	6256.21
644.771	6247.17
645.124	6217.34
645.477	6221.63
645.83	6166.04
646.182	6112.48
646.535	6097.11
646.888	6158.13
647.24	6157
647.593	6163.1
647.945	6141.18
648.298	6148.86
648.65	6134.17
649.002	6121.29
649.355	6153.16
649.707	6099.15
650.059	6098.92
650.411	6186.38
650.763	6201.52
651.115	6275.64
651.467	6223.44
651.819	6214.17
652.171	6228.41
652.523	6183.89
652.875	6193.16
653.227	6103.67
653.578	6199.48
653.93	6203.33
654.282	6183.67
654.633	6113.61
654.985	6148.41
655.337	6123.78
655.688	6119.03
656.039	6148.19
656.391	6108.41
656.742	6126.94
657.094	6101.41
657.445	6109.99
657.796	6062.09
658.147	6106.83
658.498	6103.67
658.849	6076.78
659.2	6079.49
659.551	6078.58
659.902	6102.76
660.253	6051.24
660.604	6096.44
660.955	6019.83
661.306	6027.74
661.656	6041.75
662.007	6031.13
662.358	6048.3
662.708	6063.44
663.059	6039.04
663.409	6040.62
663.76	6051.24
664.11	6082.2
664.461	6051.69
664.811	6078.36
665.161	6086.49
665.511	6058.47
665.862	6045.59
666.212	6056.44
666.562	6044.91
666.912	6031.8
667.262	6086.49
667.612	6027.29
667.962	6054.4
668.312	6071.58
668.662	6118.13
669.011	6050.56
669.361	6050.56
669.711	5999.94
670.06	6025.93
670.41	6016.66
670.76	5968.98
671.109	6028.41
671.459	6025.25
671.808	5986.61
672.157	5982.99
672.507	5962.88
672.856	5959.94
673.205	5931.24
673.554	5942.77
673.904	5912.94
674.253	5962.43
674.602	5969.43
674.951	5869.55
675.3	5858.93
675.649	5899.15
675.998	5949.32
676.346	5897.8
676.695	5887.18
677.044	5870.45
677.393	5838.36
677.741	5832.94
678.09	5834.07
678.438	5828.87
678.787	5851.02
679.135	5842.21
679.484	5811.02
679.832	5849.21
680.181	5813.73
680.529	5804.69
680.877	5825.26
681.225	5820.28
681.573	5824.58
681.922	5778.48
682.27	5783
682.618	5810.12
682.966	5755.88
683.314	5821.64
683.661	5767.86
684.009	5736.9
684.357	5749.33
684.705	5736.67
685.053	5761.98
685.4	5735.09
685.748	5690.57
686.095	5695.32
686.443	5729.21
686.79	5726.5
687.138	5723.56
687.485	5711.14
687.832	5717.46
688.18	5673.17
688.527	5648.76
688.874	5701.42
689.221	5674.53
689.568	5610.12
689.915	5641.31
690.262	5643.79
690.609	5644.7
690.956	5593.85
691.303	5613.74
691.65	5571.03
691.997	5552.04
692.344	5533.06
692.69	5532.38
693.037	5529.22
693.383	5492.84
693.73	5453.74
694.077	5475.21
694.423	5429.79
694.769	5400.86
695.116	5375.78
695.462	5397.47
695.808	5349.34
696.155	5369.9
696.501	5323.12
696.847	5297.59
697.193	5277.02
697.539	5220.3
697.885	5196.8
698.231	5200.64
698.577	5207.65
698.923	5211.94
699.269	5111.38
699.614	5154.09
699.96	5139.62
700.306	5131.94
700.651	5086.29
700.997	5086.97
701.342	5129.91
701.688	5084.94
702.033	5074.09
702.379	5089.68
702.724	5014.66
703.069	5006.75
703.415	5002
703.76	4966.75
704.105	4951.16
704.45	4990.02
704.795	5018.05
705.14	4986.86
705.485	5017.82
705.83	4925.17
706.175	5013.3
706.52	4931.72
706.865	4922.68
707.209	4936.69
707.554	4944.15
707.899	4962.45
708.243	4924.72
708.588	4919.52
708.932	4847.2
709.277	4864.15
709.621	4891.04
709.966	4852.4
710.31	4835.45
710.654	4853.3
710.998	4838.39
711.342	4842.91
711.687	4878.61
712.031	4816.02
712.375	4825.51
712.719	4818.5
713.063	4809.24
713.407	4840.42
713.75	4831.38
714.094	4789.8
714.438	4740.09
714.782	4728.79
715.125	4716.13
715.469	4703.7
715.812	4716.13
716.156	4684.95
716.499	4646.76
716.843	4658.51
717.186	4649.92
717.53	4639.75
717.873	4656.02
718.216	4613.54
718.559	4620.54
718.902	4555.69
719.246	4627.32
719.589	4536.25
719.932	4559.3
720.275	4554.56
720.617	4505.29
720.96	4501.22
721.303	4521.34
721.646	4556.82
721.989	4465.97
722.331	4451.96
722.674	4453.32
723.016	4477.5
723.359	4468.23
723.701	4466.87
724.044	4422.13
724.386	4413.77
724.729	4434.56
725.071	4407.89
725.413	4402.92
725.755	4412.41
726.097	4358.18
726.439	4376.03
726.782	4332.87
727.124	4416.48
727.465	4398.18
727.807	4408.12
728.149	4341
728.491	4372.19
728.833	4367.22
729.175	4396.82
729.516	4386.88
729.858	4376.25
730.199	4361.11
730.541	4351.85
730.882	4343.04
731.224	4398.63
731.565	4309.36
731.906	4311.62
732.248	4343.71
732.589	4337.39
732.93	4359.31
733.271	4291.96
733.612	4296.48
733.953	4322.92
734.294	4310.04
734.635	4280.21
734.976	4298.29
735.317	4277.73
735.658	4270.27
735.999	4273.21
736.339	4259.2
736.68	4280.89
737.021	4261
737.361	4255.35
737.702	4278.86
738.042	4283.15
738.383	4230.72
738.723	4222.36
739.063	4249.93
739.404	4230.27
739.744	4164.74
740.084	4156.83
740.424	4170.16
740.764	4198.18
741.104	4211.29
741.444	4162.02
741.784	4156.37
742.124	4180.33
742.464	4126.77
742.804	4146.66
743.143	4140.55
743.483	4092.42
743.823	4096.71
744.162	4097.39
744.502	4075.92
744.841	4045.87
745.181	4135.81
745.52	4063.27
745.86	4076.6
746.199	4075.92
746.538	4065.75
746.877	4084.51
747.216	4057.62
747.556	4044.74
747.895	4045.64
748.234	4009.48
748.573	4002.03
748.911	3984.17
749.25	3948.24
749.589	3943.72
749.928	3967
750.267	3953.22
750.605	3952.54
750.944	3965.19
751.283	3910.73
751.621	3916.15
751.96	3927
752.298	3890.39
752.636	3919.09
752.975	3903.73
753.313	3863.05
753.651	3837.06
753.989	3922.03
754.327	3866.89
754.666	3834.8
755.004	3836.16
755.342	3877.51
755.679	3856.95
756.017	3831.64
756.355	3900.11
756.693	3813.11
757.031	3836.38
757.368	3806.55
757.706	3825.08
758.044	3809.49
758.381	3820.56
758.719	3796.16
759.056	3821.69
759.394	3809.49
759.731	3774.01
760.068	3760.68
760.405	3772.88
760.743	3771.07
761.08	3771.98
761.417	3709.15
761.754	3710.96
762.091	3745.99
762.428	3732.88
762.765	3728.14
763.102	3718.87
763.438	3703.96
763.775	3666.9
764.112	3724.75
764.449	3697.4
764.785	3680.91
765.122	3642.26
765.458	3661.25
765.795	3687.69
766.131	3614.92
766.467	3615.37
766.804	3610.17
767.14	3579.21
767.476	3591.87
767.812	3572.89
768.148	3545.09
768.485	3495.15
768.821	3558.42
769.157	3526.79
769.492	3487.24
769.828	3480.46
770.164	3410.63
770.5	3454.92
770.836	3451.76
771.171	3385.09
771.507	3384.87
771.842	3364.3
772.178	3358.65
772.513	3377.41
772.849	3347.81
773.184	3291.76
773.519	3358.88
773.855	3312.33
774.19	3263.52
774.525	3284.53
774.86	3297.19
775.195	3259.9
775.53	3274.36
775.865	3228.94
776.2	3213.12
776.535	3219.68
776.87	3200.69
777.205	3179.45
777.539	3184.65
777.874	3162.28
778.209	3214.25
778.543	3152.78
778.878	3164.31
779.212	3169.96
779.547	3127.93
779.881	3156.85
780.215	3124.76
780.55	3082.05
780.884	3092.45
781.218	3090.87
781.552	3096.29
781.886	3049.74
782.22	3075.5
782.554	3032.79
782.888	3065.1
783.222	3062.17
783.556	3067.81
783.889	3037.31
784.223	3042.5
784.557	3020.81
784.89	3039.79
785.224	3001.6
785.557	2957.31
785.891	2990.08
786.224	2999.12
786.558	2988.04
786.891	2996.18
787.224	2971.55
787.557	2954.6
787.891	2944.43
788.224	2989.17
788.557	2920.7
788.89	2953.47
789.223	2962.51
789.556	2903.07
789.888	2915.5
790.221	2908.95
790.554	2870.76
790.887	2866.69
791.219	2875.28
791.552	2848.16
791.884	2859.68
792.217	2839.57
792.549	2799.35
792.882	2798.44
793.214	2812.68
793.546	2813.81
793.879	2776.52
794.211	2782.62
794.543	2757.99
794.875	2749.86
795.207	2753.7
795.539	2719.12
795.871	2696.07
796.203	2714.6
796.535	2690.2
796.867	2693.36
797.198	2685.23
797.53	2662.4
797.862	2623.53
798.193	2640.48
798.525	2633.48
798.856	2652.68
799.188	2639.8
799.519	2618.34
799.85	2582.63
800.182	2608.62
800.513	2598.67
800.844	2602.97
801.175	2595.96
801.506	2553.48
801.837	2553.48
802.168	2539.24
802.499	2540.6
802.83	2514.84
803.161	2536.08
803.491	2516.42
803.822	2512.58
804.153	2505.34
804.483	2480.49
804.814	2473.03
805.145	2454.95
805.475	2491.78
805.805	2454.72
806.136	2481.16
806.466	2469.86
806.796	2444.1
807.126	2458.79
807.457	2454.72
807.787	2445.01
808.117	2427.15
808.447	2459.24
808.777	2415.85
809.107	2436.42
809.436	2404.78
809.766	2406.59
810.096	2431.9
810.426	2396.42
810.755	2403.88
811.085	2424.44
811.414	2437.1
811.744	2390.77
812.073	2365.91
812.403	2423.31
812.732	2402.3
813.061	2429.19
813.39	2370.66
813.719	2412.46
814.049	2409.3
814.378	2382.64
814.707	2356.87
815.036	2361.17
815.365	2385.57
815.693	2359.81
816.022	2354.16
816.351	2396.65
816.68	2325.24
817.008	2341.51
817.337	2316.87
817.665	2346.48
817.994	2320.04
818.322	2336.08
818.651	2301.51
818.979	2301.06
819.307	2304.45
819.636	2299.02
819.964	2288.63
820.292	2330.43
820.62	2296.76
820.948	2279.13
821.276	2274.39
821.604	2283.2
821.932	2313.71
822.259	2299.47
822.587	2254.73
822.915	2288.63
823.243	2289.08
823.57	2239.81
823.898	2301.73
824.225	2263.09
824.553	2248.85
824.88	2266.25
825.207	2266.48
825.535	2240.72
825.862	2260.6
826.189	2254.95
826.516	2231.45
826.843	2255.63
827.17	2273.71
827.497	2239.36
827.824	2268.06
828.151	2278.46
828.478	2276.2
828.805	2286.59
829.131	2259.25
829.458	2256.54
829.785	2276.2
830.111	2238.01
830.438	2250.89
830.764	2240.49
831.09	2221.96
831.417	2200.04
831.743	2245.01
832.069	2230.77
832.395	2235.29
832.722	2231.9
833.048	2215.86
833.374	2223.54
833.7	2234.84
834.026	2227.38
834.351	2244.79
834.677	2230.32
835.003	2222.19
835.329	2189.19
835.654	2199.14
835.98	2208.4
836.306	2194.62
836.631	2167.05
836.956	2193.94
837.282	2212.92
837.607	2191.91
837.932	2211.11
838.258	2187.84
838.583	2204.11
838.908	2201.17
839.233	2177.89
839.558	2188.06
839.883	2156.43
840.208	2206.14
840.533	2145.58
840.858	2182.87
841.182	2160.27
841.507	2165.47
841.832	2170.89
842.156	2222.19
842.481	2194.84
842.805	2176.76
843.13	2167.05
843.454	2187.61
843.778	2191.68
844.103	2180.38
844.427	2149.87
844.751	2133.83
845.075	2162.3
845.399	2159.82
845.723	2123.88
846.047	2105.35
846.371	2136.09
846.695	2127.73
847.019	2105.35
847.343	2103.32
847.666	2064.68
847.99	2093.83
848.313	2086.15
848.637	2095.41
848.96	2077.11
849.284	2053.83
849.607	2038.92
849.931	2041.63
850.254	2041.63
850.577	2061.06
850.9	2005.47
851.223	2017.45
851.546	2011.57
851.869	2036.2
852.192	2009.54
852.515	2011.8
852.838	1985.58
853.161	1948.97
853.483	1998.46
853.806	1982.19
854.129	1956.66
854.451	1960.05
854.774	1939.71
855.096	1963.66
855.419	1947.62
855.741	1933.16
856.063	1937.22
856.385	1920.73
856.708	1897.45
857.03	1915.75
857.352	1928.64
857.674	1914.62
857.996	1903.78
858.318	1895.87
858.64	1895.42
858.961	1901.97
859.283	1892.25
859.605	1881.86
859.926	1889.31
860.248	1886.15
860.57	1865.59
860.891	1847.51
861.212	1835.98
861.534	1840.05
861.855	1811.58
862.176	1832.59
862.498	1850.67
862.819	1856.55
863.14	1823.55
863.461	1813.16
863.782	1807.51
864.103	1795.08
864.424	1777.91
864.745	1851.35
865.065	1778.81
865.386	1784.23
865.707	1810.9
866.027	1818.81
866.348	1804.8
866.668	1795.31
866.989	1788.98
867.309	1795.98
867.63	1751.92
867.95	1764.8
868.27	1802.09
868.59	1765.25
868.91	1777.91
869.23	1740.84
869.55	1746.27
869.87	1757.11
870.19	1757.34
870.51	1746.04
870.83	1756.21
871.15	1768.64
871.469	1739.26
871.789	1727.51
872.109	1716.21
872.428	1732.48
872.748	1732.26
873.067	1783.78
873.386	1748.08
873.706	1728.19
874.025	1742.43
874.344	1718.25
874.663	1730.22
874.982	1738.13
875.301	1755.76
875.62	1714.63
875.939	1738.81
876.258	1713.27
876.577	1751.92
876.896	1712.14
877.214	1725.93
877.533	1714.63
877.852	1732.93
878.17	1704.01
878.489	1733.39
878.807	1702.43
879.125	1702.2
879.444	1739.71
879.762	1729.54
880.08	1728.64
880.398	1723.67
880.716	1707.62
881.034	1702.88
881.352	1687.74
881.67	1733.16
881.988	1727.29
882.306	1710.79
882.624	1688.42
882.941	1667.63
883.259	1680.51
883.577	1692.94
883.894	1689.55
884.212	1661.52
884.529	1664.91
884.846	1699.04
885.164	1670.34
885.481	1668.53
885.798	1681.64
886.115	1674.63
886.432	1684.12
886.75	1685.48
887.067	1666.72
887.383	1662.65
887.7	1636.89
888.017	1620.4
888.334	1670.79
888.651	1656.78
888.967	1647.51
889.284	1640.73
889.6	1634.86
889.917	1633.5
890.233	1601.86
890.55	1635.31
890.866	1645.03
891.182	1609.1
891.498	1633.95
891.815	1591.92
892.131	1588.08
892.447	1595.99
892.763	1597.57
893.079	1564.58
893.395	1580.4
893.71	1566.84
894.026	1570.91
894.342	1556.44
894.657	1567.29
894.973	1544.69
895.289	1572.49
895.604	1551.24
895.92	1513.73
896.235	1533.39
896.55	1511.7
896.865	1526.39
897.181	1473.96
897.496	1500.17
897.811	1514.86
898.126	1478.03
898.441	1497.91
898.756	1480.96
899.071	1464.69
899.386	1486.16
899.7	1442.55
900.015	1483
900.33	1445.26
900.644	1449.1
900.959	1465.82
901.273	1408.42
901.588	1432.38
901.902	1380.4
902.216	1435.77
902.531	1429.89
902.845	1418.59
903.159	1413.17
903.473	1423.11
903.787	1396.22
904.101	1385.6
904.415	1361.64
904.729	1399.61
905.042	1370.01
905.356	1366.84
905.67	1383.57
905.984	1388.31
906.297	1410.23
906.611	1377.69
906.924	1371.14
907.237	1364.81
907.551	1365.71
907.864	1346.96
908.177	1344.92
908.491	1341.98
908.804	1343.79
909.117	1346.28
909.43	1334.98
909.743	1339.95
910.056	1303.12
910.368	1316.67
910.681	1321.42
910.994	1324.36
911.307	1335.66
911.619	1318.71
911.932	1332.27
912.244	1283
912.557	1322.78
912.869	1293.85
913.181	1294.08
913.494	1304.47
913.806	1281.42
914.118	1259.05
914.43	1268.09
914.742	1293.4
915.054	1279.61
915.366	1299.73
915.678	1288.65
915.99	1254.3
916.302	1262.21
916.613	1282.1
916.925	1273.96
917.236	1247.3
917.548	1270.57
917.859	1276
918.171	1274.19
918.482	1250.69
918.794	1226.06
919.105	1236.9
919.416	1233.06
919.727	1239.39
920.038	1237.81
920.349	1225.6
920.66	1209.33
920.971	1231.93
921.282	1231.93
921.593	1195.32
921.903	1192.16
922.214	1212.27
922.525	1199.39
922.835	1196
923.146	1174.76
923.456	1193.06
923.767	1168.66
924.077	1175.21
924.387	1170.92
924.697	1157.36
925.008	1186.73
925.318	1161.2
925.628	1161.88
925.938	1165.94
926.248	1156.68
926.558	1168.66
926.867	1144.48
927.177	1142.44
927.487	1142.89
927.796	1125.94
928.106	1124.14
928.416	1132.27
928.725	1106.06
929.034	1126.17
929.344	1121.43
929.653	1096.34
929.962	1101.54
930.271	1072.61
930.581	1100.86
930.89	1082.56
931.199	1076.68
931.508	1079.84
931.817	1089.56
932.125	1068.77
932.434	1072.16
932.743	1055.44
933.051	1052.27
933.36	1071.71
933.669	1059.28
933.977	1058.83
934.286	1063.57
934.594	1046.85
934.902	1038.49
935.21	1018.15
935.519	1005.27
935.827	1019.51
936.135	1031.94
936.443	1026.29
936.751	1007.76
937.059	972.73
937.367	998.04
937.674	998.49
937.982	998.04
938.29	983.8
938.597	979.28
938.905	990.13
939.213	991.26
939.52	966.63
939.827	957.14
940.135	950.13
940.442	954.88
940.749	972.5
941.056	951.94
941.363	975.21
941.67	950.13
941.977	936.35
942.284	940.19
942.591	940.64
942.898	919.62
943.205	921.88
943.511	918.94
943.818	925.72
944.125	949
944.431	925.05
944.738	900.87
945.044	943.12
945.35	950.36
945.657	924.59
945.963	913.3
946.269	899.51
946.575	904.48
946.881	906.29
947.187	881.88
947.493	888.66
947.799	901.77
948.105	904.48
948.41	890.24
948.716	881.66
949.022	882.11
949.327	900.87
949.633	869.23
949.938	891.6
950.244	881.43
950.549	882.11
950.854	856.12
951.16	861.77
951.465	903.13
951.77	880.53
952.075	880.98
952.38	860.87
952.685	870.58
952.99	868.55
953.294	855.9
953.599	839.62
953.904	851.15
954.209	844.37
954.513	835.33
954.818	838.95
955.122	863.13
955.426	840.08
955.731	871.26
956.035	865.84
956.339	853.64
956.643	832.62
956.948	838.04
957.252	818.38
957.556	844.6
957.86	838.72
958.163	810.7
958.467	816.8
958.771	821.55
959.075	823.35
959.378	793.75
959.682	819.74
959.985	824.03
960.289	813.41
960.592	807.08
960.896	807.54
961.199	799.85
961.502	810.02
961.805	779.51
962.108	797.14
962.411	802.56
962.714	792.85
963.017	797.37
963.32	790.36
963.623	772.73
963.926	782.45
964.228	800.76
964.531	763.24
964.833	776.58
965.136	770.93
965.438	797.37
965.741	760.76
966.043	767.99
966.345	767.99
966.648	759.17
966.95	779.51
967.252	757.14
967.554	755.11
967.856	736.35
968.158	747.42
968.46	734.99
968.761	752.62
969.063	744.71
969.365	706.29
969.666	731.15
969.968	741.77
970.269	738.84
970.571	719.63
970.872	745.84
971.174	748.55
971.475	713.75
971.776	741.32
972.077	719.85
972.378	725.5
972.679	711.27
972.98	705.17
973.281	718.05
973.582	708.1
973.883	700.19
974.183	691.15
974.484	714.43
974.785	692.74
975.085	708.55
975.386	715.56
975.686	677.6
975.986	679.18
976.287	691.38
976.587	685.5
976.887	700.19
977.187	669.69
977.487	674.43
977.787	686.86
978.087	682.11
978.387	654.54
978.687	675.56
978.987	692.96
979.286	676.47
979.586	716.24
979.885	666.07
980.185	646.86
980.484	652.29
980.784	661.55
981.083	659.97
981.382	648.44
981.682	658.39
981.981	648.9
982.28	658.84
982.579	645.05
982.878	659.29
983.177	652.96
983.475	647.09
983.774	651.38
984.073	653.42
984.372	661.55
984.67	641.21
984.969	629.69
985.267	651.83
985.566	645.05
985.864	617.26
986.162	604.38
986.461	612.74
986.759	624.94
987.057	619.97
987.355	621.1
987.653	613.87
987.951	624.04
988.249	613.42
988.547	629.91
988.844	603.02
989.142	604.6
989.44	595.34
989.737	596.24
990.035	606.41
990.332	599.18
990.63	613.87
990.927	601.21
991.224	610.93
991.521	615.45
991.819	586.98
992.116	606.41
992.413	583.81
992.71	598.5
993.006	595.56
993.303	593.08
993.6	567.99
993.897	592.4
994.193	586.52
994.49	593.98
994.787	588.11
995.083	582.91
995.379	572.06
995.676	576.13
995.972	580.2
996.268	566.41
996.565	593.53
996.861	595.56
997.157	589.91
997.453	577.48
997.749	574.1
998.044	575.68
998.34	569.8
998.636	567.77
998.932	568.22
999.227	548.11
999.523	556.47
999.818	584.72
1000.114	563.02
1000.409	551.04
1000.704	554.43
1001	573.87
1001.295	552.63
1001.59	573.64
1001.885	568.45
1002.18	570.71
1002.475	558.28
1002.77	537.71
1003.065	533.64
1003.359	536.13
1003.654	551.04
1003.949	558.5
1004.243	547.2
1004.538	534.1
1004.832	523.02
1005.127	567.32
1005.421	541.33
1005.715	542.91
1006.009	514.89
1006.304	532.29
1006.598	534.77
1006.892	524.83
1007.186	536.58
1007.48	543.81
1007.773	513.31
1008.067	530.03
1008.361	511.27
1008.655	516.24
1008.948	508.11
1009.242	522.57
1009.535	517.15
1009.829	518.05
1010.122	529.58
1010.415	514.89
1010.708	508.33
1011.001	508.79
1011.295	502.46
1011.588	522.35
1011.881	518.96
1012.173	495
1012.466	504.49
1012.759	518.5
1013.052	518.05
1013.344	491.84
1013.637	512.85
1013.93	497.26
1014.222	493.42
1014.514	474.89
1014.807	492.74
1015.099	465.4
1015.391	508.79
1015.683	498.62
1015.976	501.78
1016.268	476.47
1016.56	495.23
1016.851	480.99
1017.143	468.56
1017.435	479.18
1017.727	478.05
1018.018	473.76
1018.31	478.96
1018.602	474.89
1018.893	462.69
1019.185	476.92
1019.476	467.43
1019.767	462.46
1020.058	468.11
1020.35	454.78
1020.641	460.43
1020.932	455.68
1021.223	455.23
1021.514	451.61
1021.804	471.05
1022.095	466.53
1022.386	457.26
1022.677	452.74
1022.967	445.51
1023.258	451.61
1023.548	460.43
1023.839	450.93
1024.129	452.74
1024.419	445.51
1024.709	445.06
1025	448
1025.29	447.77
1025.58	450.48
1025.87	429.69
1026.16	431.05
1026.449	442.35
1026.739	443.93
1027.029	455.91
1027.319	422.91
1027.608	429.47
1027.898	425.62
1028.187	436.7
1028.477	425.4
1028.766	426.98
1029.055	423.36
1029.344	438.73
1029.634	426.53
1029.923	441.22
1030.212	422.23
1030.501	430.14
1030.79	424.95
1031.078	420.88
1031.367	411.61
1031.656	417.26
1031.945	442.12
1032.233	417.94
1032.522	453.42
1032.81	421.33
1033.099	409.35
1033.387	424.04
1033.675	416.36
1033.963	396.92
1034.251	403.7
1034.54	400.31
1034.828	416.81
1035.116	405.96
1035.403	395.34
1035.691	420.65
1035.979	372.97
1036.267	424.27
1036.554	403.03
1036.842	393.76
1037.129	402.35
1037.417	385.17
1037.704	390.6
1037.992	394.66
1038.279	392.4
1038.566	419.07
1038.853	419.07
1039.14	419.07
