Data from foam_black_FLMS001491_00091.txt Node
Date: Wed Feb 08 10:45:04 GMT 2017
User: dcchb
Spectrometer: FLMS00149
Trigger mode: 0
Integration Time (sec): 2.000000E-2
Scans to average: 10
Electric dark correction enabled: true
Nonlinearity correction enabled: false
Boxcar width: 0
XAxis mode: Wavelengths
Number of Pixels in Spectrum: 2048
>>>>>Begin Spectral Data<<<<<
341.393	-6.64
341.776	-6.64
342.16	-6.64
342.543	-53.87
342.927	-67.43
343.31	-75.11
343.693	-50.93
344.077	-66.07
344.46	-59.07
344.843	-45.06
345.226	-64.72
345.61	-25.17
345.993	-22.68
346.376	2.85
346.759	15.28
347.142	25.68
347.525	36.52
347.908	55.06
348.291	60.03
348.674	103.64
349.057	109.74
349.44	119.01
349.823	139.12
350.206	161.49
350.588	182.51
350.971	183.87
351.354	219.12
351.737	229.97
352.119	222.73
352.502	228.84
352.884	248.5
353.267	251.43
353.65	263.19
354.032	277.65
354.414	261.6
354.797	276.07
355.179	293.69
355.562	288.95
355.944	307.7
356.326	312
356.709	306.57
357.091	309.96
357.473	329.62
357.855	313.58
358.238	311.32
358.62	328.95
359.002	310.87
359.384	288.95
359.766	320.81
360.148	308.38
360.53	309.29
360.912	284.65
361.294	295.73
361.676	319.91
362.057	291.66
362.439	317.65
362.821	295.05
363.203	309.06
363.584	318.55
363.966	305.9
364.348	290.3
364.729	296.86
365.111	285.78
365.493	293.92
365.874	283.52
366.256	287.82
366.637	257.76
367.019	295.5
367.4	292.56
367.781	278.78
368.163	299.34
368.544	296.86
368.925	287.14
369.306	282.17
369.688	295.27
370.069	278.33
370.45	286.91
370.831	273.81
371.212	305.67
371.593	288.72
371.974	266.8
372.355	297.08
372.736	290.98
373.117	286.24
373.498	283.75
373.879	280.81
374.26	289.17
374.641	280.13
375.021	278.55
375.402	285.11
375.783	286.46
376.163	281.49
376.544	290.53
376.925	276.07
377.305	263.86
377.686	283.07
378.066	299.12
378.447	301.83
378.827	287.37
379.208	293.69
379.588	291.88
379.968	273.58
380.349	290.98
380.729	297.53
381.109	312.45
381.489	294.82
381.87	291.43
382.25	296.4
382.63	288.72
383.01	283.98
383.39	309.29
383.77	299.79
384.15	287.14
384.53	312.68
384.91	309.74
385.29	307.03
385.67	318.78
386.049	313.58
386.429	305.22
386.809	308.38
387.189	311.32
387.568	318.32
387.948	317.87
388.328	321.71
388.707	300.7
389.087	323.07
389.466	300.7
389.846	326.69
390.225	316.74
390.605	317.65
390.984	309.06
391.363	319.91
391.743	314.03
392.122	310.42
392.501	322.39
392.881	308.61
393.26	289.4
393.639	322.39
394.018	310.87
394.397	305.9
394.776	335.05
395.155	321.49
395.534	320.13
395.913	308.38
396.292	317.42
396.671	321.04
397.05	309.74
397.429	326.23
397.808	304.99
398.186	316.74
398.565	334.14
398.944	314.48
399.323	319.23
399.701	320.58
400.08	330.98
400.458	345.44
400.837	331.21
401.215	334.6
401.594	330.3
401.972	349.51
402.351	345.44
402.729	338.44
403.107	320.58
403.486	354.71
403.864	311.32
404.242	340.92
404.62	321.49
404.999	344.09
405.377	307.93
405.755	349.28
406.133	355.16
406.511	345.22
406.889	335.73
407.267	349.51
407.645	339.79
408.023	329.62
408.401	341.6
408.779	345.44
409.156	337.08
409.534	344.99
409.912	352.9
410.29	346.57
410.667	361.71
411.045	344.54
411.422	339.57
411.8	349.28
412.178	354.48
412.555	362.17
412.933	371.88
413.31	351.54
413.687	371.2
414.065	370.98
414.442	362.39
414.819	368.72
415.197	378.44
415.574	359.68
415.951	369.4
416.328	383.63
416.705	364.65
417.082	370.53
417.46	354.71
417.837	361.94
418.214	351.54
418.591	381.15
418.967	362.17
419.344	372.33
419.721	374.59
420.098	386.35
420.475	393.8
420.852	386.57
421.228	398.32
421.605	387.7
421.982	382.96
422.358	367.59
422.735	358.1
423.111	383.18
423.488	385.44
423.864	369.4
424.241	384.54
424.617	396.29
424.994	396.06
425.37	401.26
425.746	400.13
426.123	406.46
426.499	406.01
426.875	396.29
427.251	410.3
427.627	385.22
428.003	398.1
428.379	410.3
428.756	413.46
429.132	410.3
429.507	418.44
429.883	414.37
430.259	402.84
430.635	406.91
431.011	405.78
431.387	415.72
431.763	415.72
432.138	437.19
432.514	430.41
432.89	416.85
433.265	410.53
433.641	427.7
434.016	433.35
434.392	441.26
434.767	438.77
435.143	443.29
435.518	424.31
435.894	450.3
436.269	453.91
436.644	443.97
437.02	438.32
437.395	422.73
437.77	436.74
438.145	427.25
438.52	443.75
438.895	438.77
439.271	440.36
439.646	451.88
440.021	451.88
440.395	448.72
440.77	443.29
441.145	475.38
441.52	468.38
441.895	452.56
442.27	423.41
442.645	474.71
443.019	464.54
443.394	462.5
443.769	448.27
444.143	488.49
444.518	460.92
444.892	468.6
445.267	453.24
445.641	479.22
446.016	465.67
446.39	462.28
446.764	477.19
447.139	456.85
447.513	501.82
447.887	495.04
448.262	488.72
448.636	479.45
449.01	493.24
449.384	500.02
449.758	491.65
450.132	490.75
450.506	481.48
450.88	465.67
451.254	500.69
451.628	477.19
452.002	489.39
452.376	479.68
452.75	498.43
453.123	521.26
453.497	506.79
453.871	488.49
454.244	496.17
454.618	519
454.992	531.88
455.365	522.39
455.739	514.25
456.112	535.95
456.486	525.1
456.859	528.26
457.232	517.19
457.606	520.35
457.979	544.76
458.352	559
458.725	542.95
459.099	540.92
459.472	563.74
459.845	541.82
460.218	566.23
460.591	530.52
460.964	558.77
461.337	553.12
461.71	569.17
462.083	566.45
462.456	566.23
462.829	589.96
463.201	570.52
463.574	584.08
463.947	562.16
464.32	592.22
464.692	589.05
465.065	580.01
465.438	601.93
465.81	602.39
466.183	617.75
466.555	626.34
466.928	632.89
467.3	622.27
467.672	608.71
468.045	636.73
468.417	635.15
468.789	641.71
469.161	650.29
469.534	639.22
469.906	629.5
470.278	655.94
470.65	655.49
471.022	657.3
471.394	658.65
471.766	658.43
472.138	677.41
472.51	690.74
472.882	708.37
473.253	684.19
473.625	688.26
473.997	688.71
474.369	690.52
474.74	721.48
475.112	726.22
475.484	747.24
475.855	716.96
476.227	737.97
476.598	744.3
476.97	766.67
477.341	797.86
477.713	777.07
478.084	774.81
478.455	797.18
478.827	791.98
479.198	770.52
479.569	798.76
479.94	803.96
480.311	850.06
480.682	844.86
481.053	850.51
481.424	826.33
481.795	835.15
482.166	854.58
482.537	883.73
482.908	847.8
483.279	876.05
483.65	903.85
484.021	897.74
484.391	930.29
484.762	903.39
485.133	883.28
485.503	924.64
485.874	930.06
486.244	975.03
486.615	1009.15
486.985	960.57
487.356	1004.18
487.726	979.32
488.097	998.31
488.467	1011.64
488.837	1037.4
489.207	1044.18
489.578	1042.6
489.948	1039.89
490.318	1085.31
490.688	1055.93
491.058	1073.56
491.428	1100.45
491.798	1093.22
492.168	1115.82
492.538	1132.31
492.908	1119.21
493.278	1140.9
493.648	1170.05
494.017	1140
494.387	1151.3
494.757	1159.43
495.126	1193.56
495.496	1206.66
495.866	1180.68
496.235	1194.46
496.605	1186.32
496.974	1214.35
497.344	1239.66
497.713	1228.36
498.082	1234.23
498.452	1235.36
498.821	1235.59
499.19	1215.7
499.559	1269.94
499.928	1253.67
500.298	1258.64
500.667	1264.06
501.036	1260.9
501.405	1278.53
501.774	1263.16
502.143	1271.52
502.512	1320.78
502.88	1279.43
503.249	1303.38
503.618	1340.44
503.987	1326.21
504.356	1283.72
504.724	1327.56
505.093	1307.45
505.462	1310.39
505.83	1334.8
506.199	1337.51
506.567	1355.81
506.936	1351.07
507.304	1359.2
507.672	1364.4
508.041	1358.75
508.409	1378.64
508.777	1402.59
509.145	1364.63
509.514	1383.61
509.882	1381.35
510.25	1410.05
510.618	1438.52
510.986	1437.39
511.354	1461.12
511.722	1436.71
512.09	1471.06
512.458	1456.15
512.826	1475.58
513.193	1491.4
513.561	1483.94
513.929	1513.32
514.297	1553.32
514.664	1539.31
515.032	1535.47
515.4	1532.76
515.767	1565.75
516.135	1580.66
516.502	1577.5
516.869	1581.79
517.237	1610.49
517.604	1635.8
517.972	1638.06
518.339	1650.49
518.706	1660.44
519.073	1647.56
519.44	1618.18
519.808	1680.1
520.175	1705.63
520.542	1698.18
520.909	1711.73
521.276	1712.19
521.643	1727.33
522.009	1721
522.376	1748.34
522.743	1710.6
523.11	1747.89
523.477	1760.32
523.843	1783.82
524.21	1761
524.577	1793.54
524.943	1787.44
525.31	1822.92
525.676	1807.1
526.043	1836.25
526.409	1801.9
526.776	1852.07
527.142	1841
527.508	1836.7
527.874	1872.86
528.241	1857.49
528.607	1852.75
528.973	1899.75
529.339	1866.98
529.705	1891.39
530.071	1904.05
530.437	1920.54
530.803	1899.3
531.169	1929.36
531.535	1925.74
531.901	1942.69
532.267	1934.1
532.632	1939.3
532.998	1965.74
533.364	1977.49
533.73	1973.42
534.095	1972.97
534.461	1956.47
534.826	2002.12
535.192	2012.52
535.557	1999.18
535.923	1987.89
536.288	2024.27
536.653	2060.43
537.019	2031.95
537.384	2051.61
537.749	2063.14
538.114	2069.92
538.479	2074.44
538.845	2091.16
539.21	2120.76
539.575	2127.77
539.94	2122.12
540.305	2136.36
540.67	2152.85
541.034	2180.42
541.399	2177.71
541.764	2165.28
542.129	2198.5
542.494	2181.1
542.858	2214.09
543.223	2181.55
543.587	2232.17
543.952	2187.88
544.316	2246.86
544.681	2241.21
545.045	2261.55
545.41	2277.37
545.774	2296.58
546.138	2232.85
546.503	2283.25
546.867	2302
547.231	2304.94
547.595	2292.06
547.959	2327.99
548.324	2327.99
548.688	2314.43
549.052	2336.35
549.416	2349.68
549.779	2328.89
550.143	2340.87
550.507	2360.98
550.871	2386.97
551.235	2374.99
551.599	2409.57
551.962	2389.23
552.326	2398.04
552.689	2409.12
553.053	2420.87
553.417	2396.24
553.78	2440.08
554.143	2384.03
554.507	2429.46
554.87	2407.31
555.234	2465.84
555.597	2400.76
555.96	2445.5
556.323	2438.5
556.686	2451.83
557.05	2471.26
557.413	2442.56
557.776	2496.8
558.139	2456.57
558.502	2500.87
558.865	2475.33
559.228	2522.33
559.59	2519.17
559.953	2502.22
560.316	2529.79
560.679	2536.57
561.041	2578.15
561.404	2573.63
561.767	2571.15
562.129	2577.02
562.492	2620.86
562.854	2580.64
563.217	2611.15
563.579	2620.41
563.941	2605.04
564.304	2646.17
564.666	2627.87
565.028	2665.38
565.39	2678.04
565.753	2680.52
566.115	2730.24
566.477	2702.44
566.839	2721.2
567.201	2757.81
567.563	2740.18
567.925	2771.82
568.287	2778.6
568.648	2810.69
569.01	2808.65
569.372	2820.41
569.734	2812.95
570.095	2845.94
570.457	2833.74
570.819	2860.18
571.18	2868.09
571.542	2866.05
571.903	2910.35
572.265	2901.99
572.626	2932.27
572.987	2940.85
573.349	2939.95
573.71	2948.54
574.071	2979.72
574.432	2947.86
574.794	2986.73
575.155	2980.4
575.516	2994.19
575.877	2984.92
576.238	3031.47
576.599	3019.27
576.96	3009.1
577.32	3049.33
577.681	3065.82
578.042	3049.33
578.403	3031.7
578.763	3072.83
579.124	3057.24
579.485	3077.8
579.845	3116.9
580.206	3081.64
580.566	3090.46
580.927	3101.75
581.287	3089.33
581.648	3102.43
582.008	3069.44
582.368	3077.8
582.728	3092.72
583.089	3085.48
583.449	3094.52
583.809	3100.17
584.169	3126.39
584.529	3088.65
584.889	3083.68
585.249	3114.86
585.609	3087.07
585.969	3102.88
586.329	3103.34
586.688	3124.35
587.048	3080.06
587.408	3104.69
587.768	3030.8
588.127	3087.07
588.487	3061.76
588.846	3077.35
589.206	3080.74
589.565	3081.87
589.925	3077.8
590.284	3095.88
590.643	3074.18
591.003	3065.15
591.362	3073.05
591.721	3039.38
592.08	3040.29
592.44	3034.64
592.799	3098.14
593.158	3063.34
593.517	3050.23
593.876	3022.21
594.235	3109.89
594.593	3070.57
594.952	3078.7
595.311	3059.95
595.67	3050
596.029	3110.79
596.387	3054.07
596.746	3088.87
597.104	3082.09
597.463	3085.03
597.822	3110.57
598.18	3083.68
598.538	3088.42
598.897	3098.36
599.255	3061.08
599.613	3120.51
599.972	3101.08
600.33	3101.08
600.688	3083.45
601.046	3139.04
601.404	3086.84
601.762	3103.79
602.12	3130.91
602.478	3108.31
602.836	3114.64
603.194	3106.73
603.552	3136.56
603.91	3115.54
604.268	3133.17
604.625	3136.33
604.983	3137.46
605.341	3127.06
605.698	3139.04
606.056	3174.97
606.413	3176.78
606.771	3182.88
607.128	3171.58
607.485	3182.43
607.843	3156.67
608.2	3243.22
608.557	3232.6
608.914	3200.06
609.272	3234.63
609.629	3230.34
609.986	3269.21
610.343	3207.97
610.7	3215.42
611.057	3269.89
611.414	3247.29
611.771	3252.49
612.127	3263.11
612.484	3269.89
612.841	3278.93
613.198	3262.2
613.554	3269.66
613.911	3283.67
614.267	3309.43
614.624	3292.26
614.98	3324.57
615.337	3286.61
615.693	3274.63
616.05	3314.18
616.406	3324.35
616.762	3333.84
617.118	3326.61
617.475	3326.16
617.831	3323.44
618.187	3327.51
618.543	3342.88
618.899	3286.16
619.255	3323.44
619.611	3323.9
619.967	3363.67
620.323	3351.47
620.678	3328.64
621.034	3304.01
621.39	3315.99
621.746	3319.6
622.101	3327.29
622.457	3322.09
622.812	3320.51
623.168	3317.34
623.523	3317.57
623.879	3308.08
624.234	3298.81
624.589	3344.69
624.945	3244.12
625.3	3334.29
625.655	3286.38
626.01	3329.77
626.365	3336.55
626.72	3322.77
627.075	3272.82
627.43	3280.96
627.785	3292.94
628.14	3308.08
628.495	3317.79
628.85	3281.86
629.205	3269.89
629.559	3294.97
629.914	3245.93
630.269	3304.69
630.623	3308.98
630.978	3282.31
631.332	3251.13
631.687	3227.85
632.041	3269.21
632.396	3224.01
632.75	3215.65
633.104	3235.54
633.459	3206.38
633.813	3219.27
634.167	3222.66
634.521	3195.76
634.875	3205.48
635.229	3214.52
635.583	3172.49
635.937	3174.75
636.291	3208.42
636.645	3231.92
636.999	3183.11
637.352	3204.8
637.706	3184.46
638.06	3183.33
638.413	3152.15
638.767	3200.28
639.121	3160.51
639.474	3156.44
639.828	3176.1
640.181	3151.7
640.534	3147.63
640.888	3152.37
641.241	3148.08
641.594	3154.86
641.947	3175.42
642.301	3174.07
642.654	3154.63
643.007	3142.66
643.36	3158.7
643.713	3134.07
644.066	3146.5
644.419	3135.65
644.771	3139.72
645.124	3078.93
645.477	3117.35
645.83	3042.55
646.182	3065.15
646.535	3073.96
646.888	3070.57
647.24	3094.52
647.593	3114.41
647.945	3044.81
648.298	3086.84
648.65	3020.85
649.002	3027.86
649.355	3092.94
649.707	3052.26
650.059	3086.84
650.411	3108.08
650.763	3115.77
651.115	3144.92
651.467	3128.87
651.819	3145.14
652.171	3112.38
652.523	3128.42
652.875	3121.19
653.227	3126.61
653.578	3175.65
653.93	3138.82
654.282	3126.39
654.633	3120.06
654.985	3161.64
655.337	3149.21
655.688	3136.78
656.039	3074.86
656.391	3083.9
656.742	3153.28
657.094	3140.17
657.445	3104.92
657.796	3116.22
658.147	3133.84
658.498	3079.61
658.849	3112.6
659.2	3098.82
659.551	3093.39
659.902	3116.9
660.253	3095.2
660.604	3094.3
660.955	3053.39
661.306	3102.66
661.656	3095.65
662.007	3070.12
662.358	3100.62
662.708	3085.94
663.059	3076.9
663.409	3033.73
663.76	3049.55
664.11	3093.62
664.461	3049.33
664.811	3070.12
665.161	3057.91
665.511	3084.35
665.862	3089.33
666.212	3050.46
666.562	3061.76
666.912	3070.12
667.262	3072.38
667.612	3051.59
667.962	3018.82
668.312	3041.87
668.662	3019.5
669.011	3024.92
669.361	3035.99
669.711	3018.82
670.06	2977.01
670.41	3008.65
670.76	2985.83
671.109	3027.41
671.459	2982.89
671.808	3030.12
672.157	3012.72
672.507	2987.86
672.856	3016.11
673.205	3016.33
673.554	3010.01
673.904	2983.34
674.253	3009.33
674.602	3026.28
674.951	2983.34
675.3	2938.6
675.649	2946.28
675.998	2960.29
676.346	2991.25
676.695	2968.42
677.044	2968.2
677.393	2974.75
677.741	2977.69
678.09	2964.36
678.438	2978.14
678.787	2965.71
679.135	2966.39
679.484	2938.37
679.832	2935.88
680.181	2951.48
680.529	2942.44
680.877	2911.25
681.225	2896.34
681.573	2946.73
681.922	2916.45
682.27	2927.52
682.618	2935.66
682.966	2909.22
683.314	2923.45
683.661	2892.72
684.009	2896.11
684.357	2904.47
684.705	2840.07
685.053	2892.49
685.4	2873.96
685.748	2840.97
686.095	2869.44
686.443	2892.49
686.79	2863.57
687.138	2883.68
687.485	2875.55
687.832	2821.76
688.18	2833.97
688.527	2859.5
688.874	2855.66
689.221	2858.6
689.568	2802.55
689.915	2825.38
690.262	2840.97
690.609	2869.67
690.956	2816.34
691.303	2788.32
691.65	2820.41
691.997	2817.69
692.344	2791.71
692.69	2810.01
693.037	2816.11
693.383	2778.37
693.73	2802.78
694.077	2749.9
694.423	2749.45
694.769	2781.76
695.116	2766.4
695.462	2738.83
695.808	2738.15
696.155	2740.18
696.501	2750.8
696.847	2728.43
697.193	2684.36
697.539	2734.53
697.885	2725.95
698.231	2678.71
698.577	2692.05
698.923	2698.15
699.269	2645.95
699.614	2652.73
699.96	2648.43
700.306	2665.83
700.651	2704.02
700.997	2666.96
701.342	2662.22
701.688	2641.2
702.033	2617.47
702.379	2641.2
702.724	2643.46
703.069	2632.16
703.415	2613.18
703.76	2626.96
704.105	2610.47
704.45	2614.99
704.795	2596.01
705.14	2599.39
705.485	2591.03
705.83	2600.52
706.175	2568.66
706.52	2606.4
706.865	2607.3
707.209	2591.71
707.554	2574.99
707.899	2590.81
708.243	2565.72
708.588	2541.54
708.932	2526.18
709.277	2519.4
709.621	2553.97
709.966	2533.63
710.31	2549.23
710.654	2535.44
710.998	2472.39
711.342	2509.68
711.687	2535.67
712.031	2516.69
712.375	2476.23
712.719	2499.74
713.063	2498.15
713.407	2509
713.75	2482.34
714.094	2475.56
714.438	2444.37
714.782	2474.2
715.125	2498.38
715.469	2426.07
715.812	2454.99
716.156	2449.34
716.499	2454.31
716.843	2463.13
717.186	2431.49
717.53	2422
717.873	2446.18
718.216	2427.2
718.559	2391.72
718.902	2400.76
719.246	2375.45
719.589	2404.6
719.932	2386.07
720.275	2377.25
720.617	2384.71
720.96	2365.5
721.303	2355.11
721.646	2376.58
721.989	2328.22
722.331	2365.73
722.674	2366.86
723.016	2383.13
723.359	2382.23
723.701	2335.22
724.044	2322.57
724.386	2327.76
724.729	2336.58
725.071	2354.66
725.413	2332.06
725.755	2312.62
726.097	2316.01
726.439	2311.27
726.782	2349.23
727.124	2354.2
727.465	2307.65
727.807	2307.43
728.149	2302
728.491	2278.73
728.833	2285.73
729.175	2277.6
729.516	2258.84
729.858	2265.62
730.199	2268.33
730.541	2274.66
730.882	2275.56
731.224	2273.53
731.565	2249.12
731.906	2266.97
732.248	2256.81
732.589	2264.04
732.93	2232.62
733.271	2232.4
733.612	2235.79
733.953	2233.3
734.294	2259.06
734.635	2235.34
734.976	2258.61
735.317	2234.88
735.658	2240.31
735.999	2263.58
736.339	2237.37
736.68	2249.12
737.021	2210.25
737.361	2215.9
737.702	2206.86
738.042	2206.64
738.383	2226.52
738.723	2220.42
739.063	2207.31
739.404	2202.57
739.744	2215.68
740.084	2170.93
740.424	2232.4
740.764	2183.59
741.104	2191.04
741.444	2192.4
741.784	2179.97
742.124	2193.98
742.464	2200.76
742.804	2145.4
743.143	2175.9
743.483	2184.94
743.823	2151.72
744.162	2153.08
744.502	2189.91
744.841	2167.99
745.181	2170.71
745.52	2155.56
745.86	2148.11
746.199	2158.73
746.538	2143.59
746.877	2147.43
747.216	2188.33
747.556	2159.41
747.895	2120.31
748.234	2100.88
748.573	2129.58
748.911	2133.64
749.25	2124.83
749.589	2144.04
749.928	2154.43
750.267	2099.3
750.605	2081.44
750.944	2109.92
751.283	2109.92
751.621	2071.73
751.96	2099.52
752.298	2124.83
752.636	2099.52
752.975	2097.71
753.313	2090.48
753.651	2105.17
753.989	2092.97
754.327	2082.57
754.666	2081.67
755.004	2090.03
755.342	2085.51
755.679	2079.41
756.017	2050.71
756.355	2047.32
756.693	2023.59
757.031	2043.48
757.368	2040.31
757.706	2040.09
758.044	2040.99
758.381	2027.88
758.719	2033.31
759.056	2032.86
759.394	2038.96
759.731	2006.87
760.068	2022.46
760.405	1990.15
760.743	2018.62
761.08	2008.9
761.417	2017.04
761.754	2012.52
762.091	1979.75
762.428	1956.93
762.765	1955.57
763.102	2005.51
763.438	1980.2
763.775	1951.95
764.112	1968.23
764.449	1952.63
764.785	1952.41
765.122	1944.72
765.458	1922.12
765.795	1937.94
766.131	1929.58
766.467	1896.59
766.804	1902.69
767.14	1916.7
767.476	1903.37
767.812	1901.56
768.148	1895.23
768.485	1875.8
768.821	1878.74
769.157	1873.76
769.492	1876.93
769.828	1878.51
770.164	1865.85
770.5	1837.83
770.836	1839.41
771.171	1842.35
771.507	1856.59
771.842	1815.23
772.178	1834.67
772.513	1813.43
772.849	1824.95
773.184	1810.26
773.519	1817.72
773.855	1801.9
774.19	1784.05
774.525	1756.71
774.86	1790.38
775.195	1764.84
775.53	1770.26
775.865	1775.01
776.2	1768
776.535	1752.64
776.87	1741.34
777.205	1731.85
777.539	1747.67
777.874	1738.63
778.209	1714.67
778.543	1708.12
778.878	1715.12
779.212	1707.89
779.547	1726.65
779.881	1694.79
780.215	1696.59
780.55	1695.46
780.884	1698.4
781.218	1681
781.552	1676.93
781.886	1704.05
782.22	1689.81
782.554	1652.75
782.888	1654.34
783.222	1639.42
783.556	1657.05
783.889	1644.39
784.223	1608.46
784.557	1670.61
784.89	1624.51
785.224	1620.89
785.557	1605.52
785.891	1613.43
786.224	1613.21
786.558	1615.01
786.891	1596.03
787.224	1601.46
787.557	1615.01
787.891	1592.42
788.224	1603.71
788.557	1578.18
788.89	1577.5
789.223	1575.02
789.556	1606.65
789.888	1573.66
790.221	1547.22
790.554	1553.77
790.887	1578.18
791.219	1539.08
791.552	1557.39
791.884	1570.27
792.217	1545.86
792.549	1499.54
792.882	1536.37
793.214	1504.51
793.546	1531.85
793.879	1518.75
794.211	1529.82
794.543	1506.99
794.875	1484.4
795.207	1506.99
795.539	1516.49
795.871	1523.04
796.203	1504.73
796.535	1464.74
796.867	1485.3
797.198	1485.07
797.53	1485.53
797.862	1506.99
798.193	1499.76
798.525	1480.33
798.856	1498.86
799.188	1494.57
799.519	1466.32
799.85	1481.68
800.182	1483.04
800.513	1451.63
800.844	1479.65
801.175	1469.48
801.506	1440.56
801.837	1441.91
802.168	1427
802.499	1435.36
802.83	1410.27
803.161	1475.58
803.491	1451.4
803.822	1409.6
804.153	1416.38
804.483	1404.17
804.814	1416.6
805.145	1413.44
805.475	1428.13
805.805	1428.58
806.136	1412.08
806.466	1428.13
806.796	1424.74
807.126	1383.16
807.457	1402.36
807.787	1383.83
808.117	1405.08
808.447	1383.61
808.777	1402.82
809.107	1396.04
809.436	1377.73
809.766	1418.64
810.096	1378.64
810.426	1403.27
810.755	1393.78
811.085	1382.93
811.414	1374.12
811.744	1368.47
812.073	1356.72
812.403	1361.24
812.732	1371.4
813.061	1353.1
813.39	1359.65
813.719	1373.66
814.049	1356.72
814.378	1360.11
814.707	1341.57
815.036	1350.39
815.365	1318.75
815.693	1324.63
816.022	1367.34
816.351	1333.44
816.68	1363.27
817.008	1300.45
817.337	1348.13
817.665	1319.2
817.994	1313.1
818.322	1327.79
818.651	1321.91
818.979	1298.19
819.307	1322.14
819.636	1322.82
819.964	1293.89
820.292	1304.51
820.62	1293.44
820.948	1284.63
821.276	1285.98
821.604	1277.85
821.932	1283.72
822.259	1304.06
822.587	1307.9
822.915	1301.58
823.243	1293.44
823.57	1309.71
823.898	1315.13
824.225	1328.02
824.553	1305.64
824.88	1288.92
825.207	1317.17
825.535	1304.51
825.862	1298.19
826.189	1270.62
826.516	1269.49
826.843	1310.84
827.17	1279.88
827.497	1272.88
827.824	1271.97
828.151	1300.22
828.478	1290.05
828.805	1282.14
829.131	1269.26
829.458	1280.56
829.785	1296.6
830.111	1256.38
830.438	1289.82
830.764	1267.9
831.09	1292.76
831.417	1268.13
831.743	1278.3
832.069	1258.87
832.395	1271.52
832.722	1255.93
833.048	1268.13
833.374	1285.53
833.7	1260.45
834.026	1290.95
834.351	1277.62
834.677	1280.79
835.003	1270.62
835.329	1225.87
835.654	1254.35
835.98	1252.76
836.306	1239.2
836.631	1238.98
836.956	1228.13
837.282	1255.02
837.607	1269.03
837.932	1271.29
838.258	1250.5
838.583	1248.02
838.908	1222.71
839.233	1252.09
839.558	1252.76
839.883	1207.12
840.208	1246.44
840.533	1223.16
840.858	1231.3
841.182	1222.03
841.507	1233.33
841.832	1239.43
842.156	1216.38
842.481	1226.55
842.805	1232.43
843.13	1228.81
843.454	1227.45
843.778	1215.93
844.103	1206.66
844.427	1205.08
844.751	1214.8
845.075	1195.82
845.399	1224.52
845.723	1199.43
846.047	1206.21
846.371	1185.42
846.695	1200.34
847.019	1200.79
847.343	1186.78
847.666	1161.47
847.99	1170.51
848.313	1171.64
848.637	1186.32
848.96	1146.78
849.284	1177.29
849.607	1155.82
849.931	1142.48
850.254	1133.9
850.577	1161.24
850.9	1144.74
851.223	1139.55
851.546	1156.04
851.869	1116.72
852.192	1114.24
852.515	1115.14
852.838	1120.11
853.161	1134.12
853.483	1147
853.806	1123.28
854.129	1125.54
854.451	1137.29
854.774	1135.03
855.096	1121.47
855.419	1123.95
855.741	1090.73
856.063	1073.79
856.385	1113.56
856.708	1100
857.03	1095.93
857.352	1098.87
857.674	1103.84
857.996	1104.74
858.318	1099.55
858.64	1080.56
858.961	1110.17
859.283	1107.46
859.605	1083.73
859.926	1090.06
860.248	1088.47
860.57	1077.4
860.891	1064.07
861.212	1059.55
861.534	1069.27
861.855	1069.04
862.176	1076.27
862.498	1071.98
862.819	1081.69
863.14	1070.62
863.461	1069.49
863.782	1071.07
864.103	1081.69
864.424	1062.03
864.745	1072.88
865.065	1071.53
865.386	1063.39
865.707	1089.6
866.027	1074.01
866.348	1076.05
866.668	1078.98
866.989	1063.84
867.309	1042.83
867.63	1078.53
867.95	1062.49
868.27	1069.04
868.59	1053.22
868.91	1053.67
869.23	1078.98
869.55	1054.12
869.87	1053.67
870.19	1062.94
870.51	1058.42
870.83	1055.71
871.15	1047.12
871.469	1064.29
871.789	1050.06
872.109	1040.79
872.428	1050.96
872.748	1074.92
873.067	1047.12
873.386	1026.1
873.706	1057.51
874.025	1067.01
874.344	1044.41
874.663	1064.07
874.982	1026.55
875.301	1049.15
875.62	1067.23
875.939	1029.94
876.258	1070.4
876.577	1027.01
876.896	1040.11
877.214	1020
877.533	1036.27
877.852	1047.12
878.17	1056.38
878.489	1017.52
878.807	1052.09
879.125	1035.59
879.444	1012.32
879.762	1031.07
880.08	1037.85
880.398	1011.19
880.716	1028.14
881.034	1012.54
881.352	1020
881.67	1038.08
881.988	1034.46
882.306	1025.88
882.624	1039.66
882.941	1013.67
883.259	1026.55
883.577	998.08
883.894	998.76
884.212	998.76
884.529	993.79
884.846	995.14
885.164	1019.55
885.481	1018.19
885.798	993.11
886.115	998.08
886.432	1000.11
886.75	1009.15
887.067	994.01
887.383	975.71
887.7	991.53
888.017	1001.24
888.334	992.43
888.651	973.67
888.967	987.01
889.284	989.49
889.6	969.83
889.917	975.48
890.233	980.23
890.55	972.77
890.866	988.59
891.182	988.82
891.498	974.8
891.815	971.42
892.131	978.65
892.447	994.47
892.763	969.38
893.079	973.9
893.395	946.56
893.71	970.29
894.026	946.56
894.342	928.93
894.657	939.33
894.973	952.88
895.289	958.31
895.604	942.26
895.92	916.05
896.235	945.88
896.55	944.07
896.865	920.57
897.181	948.14
897.496	910.17
897.811	914.02
898.126	915.37
898.441	922.38
898.756	923.51
899.071	911.08
899.386	910.17
899.7	910.63
900.015	902.04
900.33	894.13
900.644	866.56
900.959	909.27
901.273	881.93
901.588	882.6
901.902	867.92
902.216	898.2
902.531	867.69
902.845	865.88
903.159	873.11
903.473	866.11
903.787	876.5
904.101	885.99
904.415	869.72
904.729	868.14
905.042	869.95
905.356	873.79
905.67	854.36
905.984	863.62
906.297	844.86
906.611	822.04
906.924	845.77
907.237	830.18
907.551	853.68
907.864	833.11
908.177	838.99
908.491	822.94
908.804	849.61
909.117	847.58
909.43	817.75
909.743	809.39
910.056	803.96
910.368	833.34
910.681	801.7
910.994	805.77
911.307	825.43
911.619	806.67
911.932	834.7
912.244	812.32
912.557	795.37
912.869	791.53
913.181	789.27
913.494	783.62
913.806	798.99
914.118	786.79
914.43	787.01
914.742	796.05
915.054	778.2
915.366	792.89
915.678	776.39
915.99	789.27
916.302	766.9
916.613	793.34
916.925	763.74
917.236	764.64
917.548	764.87
917.859	749.5
918.171	747.01
918.482	771.65
918.794	756.73
919.105	736.39
919.416	743.17
919.727	750.63
920.038	752.66
920.349	740.01
920.66	732.1
920.971	741.14
921.282	741.59
921.593	739.33
921.903	754.02
922.214	738.65
922.525	724.87
922.835	743.4
923.146	720.8
923.456	752.44
923.767	753.79
924.077	744.53
924.387	726
924.697	728.03
925.008	736.39
925.318	728.71
925.628	720.57
925.938	726.22
926.248	725.55
926.558	708.15
926.867	699.33
927.177	680.8
927.487	695.26
927.796	714.47
928.106	723.96
928.416	720.12
928.725	708.6
929.034	691.42
929.344	696.17
929.653	690.52
929.962	700.01
930.271	710.18
930.581	693.91
930.89	689.16
931.199	680.58
931.508	677.19
931.817	700.24
932.125	681.71
932.434	681.03
932.743	700.91
933.051	704.3
933.36	673.8
933.669	679.22
933.977	690.74
934.286	686
934.594	688.26
934.902	677.86
935.21	686.22
935.519	674.02
935.827	674.02
936.135	673.12
936.443	669.95
936.751	697.07
937.059	669.05
937.367	673.34
937.674	653.23
937.982	661.14
938.29	659.11
938.597	651.2
938.905	660.69
939.213	678.77
939.52	649.84
939.827	648.71
940.135	668.6
940.442	656.4
940.749	630.63
941.056	651.42
941.363	657.3
941.67	627.7
941.977	650.75
942.284	615.94
942.591	649.39
942.898	657.75
943.205	648.26
943.511	664.08
943.818	624.76
944.125	639.9
944.431	639.22
944.738	636.73
945.044	640.8
945.35	666.56
945.657	644.19
945.963	657.98
946.269	631.09
946.575	628.6
946.881	632.67
947.187	612.78
947.493	631.54
947.799	619.79
948.105	647.36
948.41	637.19
948.716	637.19
949.022	617.3
949.327	641.48
949.633	622.72
949.938	615.49
950.244	616.85
950.549	608.03
950.854	616.85
951.16	627.02
951.465	617.3
951.77	590.41
952.075	601.93
952.38	610.97
952.685	608.03
952.99	602.84
953.294	592.89
953.599	616.62
953.904	621.37
954.209	604.19
954.513	601.48
954.818	601.03
955.122	596.06
955.426	577.98
955.731	593.8
956.035	573.91
956.339	579.11
956.643	590.86
956.948	588.83
957.252	573.46
957.556	594.48
957.86	574.82
958.163	563.52
958.467	566.68
958.771	575.72
959.075	570.97
959.378	562.39
959.682	592.67
959.985	588.15
960.289	601.71
960.592	580.46
960.896	561.03
961.199	577.08
961.502	580.92
961.805	570.52
962.108	575.04
962.411	561.48
962.714	564.19
963.017	564.42
963.32	559
963.623	561.93
963.926	566.68
964.228	555.61
964.531	570.52
964.833	570.07
965.136	573.46
965.438	569.62
965.741	551.31
966.043	566.23
966.345	554.48
966.648	564.19
966.95	573.23
967.252	543.4
967.554	531.65
967.856	525.55
968.158	572.78
968.46	557.87
968.761	547.25
969.063	544.76
969.365	549.73
969.666	550.86
969.968	529.17
970.269	527.13
970.571	527.58
970.872	543.18
971.174	529.84
971.475	510.18
971.776	526
972.077	519.9
972.378	529.17
972.679	540.24
972.98	530.52
973.281	537.3
973.582	515.61
973.883	532.78
974.183	534.36
974.484	520.13
974.785	540.24
975.085	528.94
975.386	529.39
975.686	529.84
975.986	532.56
976.287	525.33
976.587	524.2
976.887	528.04
977.187	499.34
977.487	493.24
977.787	509.96
978.087	521.94
978.387	496.85
978.687	530.75
978.987	513.12
979.286	515.16
979.586	494.82
979.885	489.62
980.185	517.42
980.484	505.89
980.784	493.91
981.083	498.21
981.382	508.38
981.682	505.44
981.981	500.69
982.28	504.08
982.579	489.17
982.878	495.5
983.177	493.91
983.475	486
983.774	524.65
984.073	487.59
984.372	503.63
984.67	478.32
984.969	512.67
985.267	484.2
985.566	484.87
985.864	481.26
986.162	484.42
986.461	486.46
986.759	476.96
987.057	479.9
987.355	479.45
987.653	464.99
987.951	482.61
988.249	477.64
988.547	478.09
988.844	471.32
989.142	470.64
989.44	484.87
989.737	472.67
990.035	484.2
990.332	464.99
990.63	470.19
990.927	459.79
991.224	460.92
991.521	476.29
991.819	479.22
992.116	464.08
992.413	472.67
992.71	465.44
993.006	463.63
993.303	475.38
993.6	471.54
993.897	450.98
994.193	461.82
994.49	455.27
994.787	462.95
995.083	466.12
995.379	465.21
995.676	464.08
995.972	467.02
996.268	451.2
996.565	438.1
996.861	456.63
997.157	448.72
997.453	447.59
997.749	431.77
998.044	472.67
998.34	449.85
998.636	468.38
998.932	447.59
999.227	469.96
999.523	450.3
999.818	450.3
1000.114	454.59
1000.409	441.71
1000.704	447.59
1001	434.93
1001.295	426.57
1001.59	443.29
1001.885	425.89
1002.18	424.76
1002.475	412.33
1002.77	435.38
1003.065	434.71
1003.359	448.04
1003.654	413.92
1003.949	438.1
1004.243	429.51
1004.538	430.86
1004.832	417.76
1005.127	422.73
1005.421	422.05
1005.715	430.64
1006.009	412.79
1006.304	412.33
1006.598	423.63
1006.892	406.01
1007.186	424.08
1007.48	425.21
1007.773	419.79
1008.067	431.54
1008.361	434.03
1008.655	431.77
1008.948	422.5
1009.242	424.54
1009.535	403.29
1009.829	407.36
1010.122	416.18
1010.415	407.59
1010.708	402.84
1011.001	413.46
1011.295	404.2
1011.588	398.32
1011.881	392.67
1012.173	394.03
1012.466	407.36
1012.759	404.42
1013.052	365.56
1013.344	394.26
1013.637	400.13
1013.93	410.3
1014.222	385.44
1014.514	397.19
1014.807	384.09
1015.099	404.42
1015.391	412.79
1015.683	394.26
1015.976	399.23
1016.268	397.64
1016.56	403.52
1016.851	382.28
1017.143	414.59
1017.435	411.43
1017.727	396.29
1018.018	398.77
1018.31	399.23
1018.602	392.22
1018.893	374.37
1019.185	403.75
1019.476	400.13
1019.767	385.22
1020.058	389.96
1020.35	376.18
1020.641	403.52
1020.932	404.42
1021.223	375.27
1021.514	402.84
1021.804	396.29
1022.095	410.3
1022.386	375.95
1022.677	377.31
1022.967	395.39
1023.258	399.45
1023.548	382.28
1023.839	391.77
1024.129	381.6
1024.419	365.78
1024.709	370.75
1025	383.41
1025.29	390.64
1025.58	376.63
1025.87	377.76
1026.16	384.31
1026.449	373.69
1026.739	378.89
1027.029	387.25
1027.319	390.64
1027.608	402.84
1027.898	369.17
1028.187	379.79
1028.477	368.72
1028.766	367.82
1029.055	373.92
1029.344	367.14
1029.634	355.84
1029.923	386.12
1030.212	367.14
1030.501	381.83
1030.79	365.56
1031.078	365.1
1031.367	367.59
1031.656	390.64
1031.945	392.45
1032.233	380.92
1032.522	359.45
1032.81	382.73
1033.099	370.53
1033.387	372.79
1033.675	381.37
1033.963	386.57
1034.251	361.26
1034.54	368.04
1034.828	370.98
1035.116	360.81
1035.403	367.14
1035.691	354.26
1035.979	362.84
1036.267	358.1
1036.554	363.52
1036.842	354.26
1037.129	358.32
1037.417	356.97
1037.704	365.56
1037.992	362.84
1038.279	342.05
1038.566	365.56
1038.853	365.56
1039.14	365.56
