Data from foam2_polystyrene_foam_FLMS001491_00079.txt Node
Date: Wed Feb 08 10:58:29 GMT 2017
User: dcchb
Spectrometer: FLMS00149
Trigger mode: 0
Integration Time (sec): 2.000000E-2
Scans to average: 10
Electric dark correction enabled: true
Nonlinearity correction enabled: false
Boxcar width: 0
XAxis mode: Wavelengths
Number of Pixels in Spectrum: 2048
>>>>>Begin Spectral Data<<<<<
341.393	-16.96
341.776	-16.96
342.16	-16.96
342.543	-49.96
342.927	-49.05
343.31	-85.89
343.693	-80.69
344.077	-55.38
344.46	-62.39
344.843	-41.14
345.226	-53.12
345.61	-15.83
345.993	-8.83
346.376	-24.87
346.759	2.7
347.142	32.3
347.525	47.89
347.908	72.07
348.291	83.15
348.674	95.8
349.057	94.22
349.44	97.38
349.823	150.94
350.206	173.54
350.588	217.83
350.971	232.3
351.354	217.61
351.737	265.52
352.119	264.39
352.502	254.44
352.884	264.39
353.267	284.5
353.65	319.07
354.032	315.01
354.414	320.2
354.797	330.15
355.179	346.64
355.562	342.12
355.944	366.98
356.326	349.13
356.709	362.69
357.091	348.9
357.473	366.53
357.855	369.92
358.238	356.13
358.62	365.4
359.002	364.95
359.384	356.13
359.766	381.67
360.148	373.08
360.53	376.02
360.912	365.4
361.294	370.82
361.676	367.21
362.057	358.85
362.439	370.6
362.821	344.38
363.203	370.37
363.584	352.97
363.966	355
364.348	347.32
364.729	357.72
365.111	363.59
365.493	369.24
365.874	359.98
366.256	357.04
366.637	349.81
367.019	373.08
367.4	361.56
367.781	350.26
368.163	382.35
368.544	374.67
368.925	357.04
369.306	382.35
369.688	343.93
370.069	371.73
370.45	374.44
370.831	365.85
371.212	362.24
371.593	391.61
371.974	370.6
372.355	370.82
372.736	357.94
373.117	354.1
373.498	387.32
373.879	385.74
374.26	367.43
374.641	372.63
375.021	395
375.402	378.73
375.783	400.88
376.163	424.38
376.544	402.91
376.925	398.62
377.305	390.94
377.686	385.96
378.066	403.59
378.447	409.24
378.827	417.83
379.208	408.79
379.588	400.43
379.968	402.69
380.349	421.9
380.729	426.19
381.109	428.68
381.489	409.69
381.87	433.19
382.25	438.62
382.63	422.8
383.01	426.87
383.39	449.01
383.77	438.39
384.15	437.26
384.53	444.72
384.91	438.17
385.29	472.74
385.67	472.74
386.049	461.67
386.429	478.17
386.809	450.37
387.189	467.09
387.568	494.66
387.948	514.55
388.328	492.4
388.707	490.37
389.087	495.34
389.466	470.71
389.846	523.81
390.225	501.44
390.605	534.66
390.984	527.43
391.363	521.1
391.743	538.73
392.122	531.72
392.501	553.64
392.881	557.49
393.26	542.57
393.639	593.64
394.018	580.31
394.397	560.42
394.776	559.97
395.155	580.54
395.534	583.93
395.913	570.14
396.292	582.12
396.671	610.14
397.05	593.19
397.429	612.63
397.808	610.14
398.186	628.22
398.565	628.9
398.944	633.42
399.323	617.82
399.701	623.92
400.08	627.77
400.458	658.73
400.837	648.56
401.215	667.76
401.594	676.58
401.972	659.18
402.351	689.91
402.729	706.18
403.107	695.33
403.486	703.47
403.864	720.42
404.242	707.54
404.62	727.88
404.999	713.19
405.377	728.1
405.755	740.08
406.133	734.43
406.511	744.15
406.889	763.36
407.267	770.81
407.645	786.86
408.023	798.16
408.401	806.07
408.779	810.13
409.156	810.59
409.534	795.22
409.912	846.29
410.29	855.78
410.667	865.5
411.045	861.66
411.422	869.57
411.8	871.83
412.178	893.3
412.555	907.53
412.933	909.34
413.31	916.12
413.687	924.48
414.065	957.25
414.442	939.62
414.819	952.96
415.197	969.68
415.574	965.61
415.951	970.58
416.328	997.93
416.705	1001.54
417.082	1051.03
417.46	1028.89
417.837	1051.26
418.214	1041.31
418.591	1059.39
418.967	1088.54
419.344	1083.35
419.721	1091.71
420.098	1092.84
420.475	1103.23
420.852	1118.15
421.228	1136.68
421.605	1141.42
421.982	1145.49
422.358	1161.99
422.735	1186.4
423.111	1195.43
423.488	1211.48
423.864	1234.98
424.241	1216.68
424.617	1246.28
424.994	1251.7
425.37	1251.03
425.746	1257.58
426.123	1281.31
426.499	1298.71
426.875	1314.08
427.251	1329.89
427.627	1376.67
428.003	1367.86
428.379	1404.47
428.756	1402.43
429.132	1423.9
429.507	1405.15
429.883	1446.5
430.259	1477.24
430.635	1489.21
431.011	1494.86
431.387	1540.51
431.763	1573.96
432.138	1578.48
432.514	1586.38
432.89	1628.87
433.265	1671.35
433.641	1660.96
434.016	1674.97
434.392	1685.59
434.767	1704.57
435.143	1717
435.518	1757.45
435.894	1771.01
436.269	1789.77
436.644	1814.63
437.02	1858.92
437.395	1858.47
437.77	1859.15
438.145	1924.68
438.52	1957.9
438.895	1951.12
439.271	1959.26
439.646	1992.25
440.021	2002.42
440.395	2032.02
440.77	1992.48
441.145	2017.33
441.52	2071.57
441.895	2093.04
442.27	2087.61
442.645	2095.07
443.019	2144.79
443.394	2131.91
443.769	2159.93
444.143	2135.07
444.518	2203.32
444.892	2204
445.267	2232.47
445.641	2233.15
446.016	2257.33
446.39	2275.41
446.764	2320.38
447.139	2302.98
447.513	2336.42
447.887	2339.81
448.262	2364.9
448.636	2364.67
449.01	2421.39
449.384	2437.89
449.758	2469.75
450.132	2472.01
450.506	2484.21
450.88	2476.76
451.254	2503.65
451.628	2555.85
452.002	2560.14
452.376	2641.95
452.75	2634.04
453.123	2680.82
453.497	2646.92
453.871	2675.62
454.244	2770.99
454.618	2740.7
454.992	2827.03
455.365	2834.26
455.739	2905.67
456.112	2909.74
456.486	2946.8
456.859	2962.39
457.232	3035.61
457.606	3034.26
457.979	3071.32
458.352	3129.4
458.725	3161.26
459.099	3175.27
459.472	3235.61
459.845	3274.7
460.218	3285.55
460.591	3318.32
460.964	3334.14
461.337	3415.04
461.71	3459.33
462.083	3514.92
462.456	3519.22
462.829	3556.28
463.201	3590.85
463.574	3597.18
463.947	3654.58
464.32	3744.07
464.692	3754.01
465.065	3818.87
465.438	3892.09
465.81	3891.63
466.183	3899.54
466.555	4019.09
466.928	4066.77
467.3	4040.56
467.672	4159.88
468.045	4210.95
468.417	4210.04
468.789	4218.63
469.161	4325.97
469.534	4397.84
469.906	4501.11
470.278	4505.18
470.65	4544.73
471.022	4692.07
471.394	4728.45
471.766	4808.67
472.138	4811.84
472.51	4922.79
472.882	4973.87
473.253	5016.58
473.625	5120.98
473.997	5201.43
474.369	5228.1
474.74	5314.65
475.112	5449.11
475.484	5532.95
475.855	5624.02
476.227	5671.25
476.598	5835.76
476.97	5856.56
477.341	5993.73
477.713	6101.29
478.084	6157.56
478.455	6275.75
478.827	6349.65
479.198	6498.12
479.569	6528.18
479.94	6705.35
480.311	6775.85
480.682	6919.13
481.053	7068.95
481.424	7200.7
481.795	7204.09
482.166	7392.56
482.537	7401.83
482.908	7538.54
483.279	7657.64
483.65	7828.25
484.021	7914.13
484.391	8092.65
484.762	8181.92
485.133	8216.94
485.503	8319.09
485.874	8557.73
486.244	8590.95
486.615	8817.38
486.985	8855.12
487.356	9041.33
487.726	9082.46
488.097	9288.78
488.467	9355.9
488.837	9471.83
489.207	9660.97
489.578	9761.54
489.948	9864.36
490.318	10034.52
490.688	10032.26
491.058	10206.27
491.428	10253.95
491.798	10485.36
492.168	10645.58
492.538	10665.24
492.908	10825.69
493.278	11022.52
493.648	10937.55
494.017	11122.63
494.387	11274.04
494.757	11379.35
495.126	11456.86
495.496	11498.67
495.866	11642.84
496.235	11737.76
496.605	11829.73
496.974	11909.05
497.344	11998.99
497.713	12149.04
498.082	12309.04
498.452	12374.12
498.821	12411.86
499.19	12462.26
499.559	12640.33
499.928	12732.98
500.298	12880.55
500.667	12963.26
501.036	12884.17
501.405	13048.23
501.774	13056.14
502.143	13303.14
502.512	13346.3
502.88	13418.16
503.249	13451.61
503.618	13592.4
503.987	13604.15
504.356	13776.12
504.724	13827.64
505.093	13921.88
505.462	13928.66
505.83	14224.02
506.199	14210.69
506.567	14426.27
506.936	14424.69
507.304	14558.25
507.672	14713.72
508.041	14736.55
508.409	14889.31
508.777	15050.21
509.145	15146.93
509.514	15181.96
509.882	15347.15
510.25	15365.46
510.618	15422.63
510.986	15581.5
511.354	15710.99
511.722	15790.08
512.09	16045.44
512.458	16038.43
512.826	16183.74
513.193	16196.17
513.561	16311.65
513.929	16493.56
514.297	16621.47
514.664	16695.59
515.032	16837.06
515.4	16942.37
515.767	16965.87
516.135	17133.09
516.502	17114.34
516.869	17522.91
517.237	17463.48
517.604	17570.82
517.972	17728.33
518.339	17927.88
518.706	17943.24
519.073	18078.38
519.44	18098.27
519.808	18406.28
520.175	18458.94
520.542	18693.05
520.909	18760.17
521.276	18767.18
521.643	19111.57
522.009	19179.37
522.376	19365.8
522.743	19357.44
523.11	19589.98
523.477	19805.57
523.843	20030.19
524.21	20148.61
524.577	20287.14
524.943	20413.23
525.31	20540.91
525.676	20737.07
526.043	20815.94
526.409	21018.87
526.776	21144.74
527.142	21201.01
527.508	21372.08
527.874	21608.23
528.241	21740.88
528.607	21774.33
528.973	22130.03
529.339	22074.43
529.705	22351.04
530.071	22446.63
530.437	22438.94
530.803	22823.34
531.169	22920.29
531.535	22794.41
531.901	22983.56
532.267	23102.2
532.632	23302.2
532.998	23237.57
533.364	23544.68
533.73	23541.29
534.095	23704.67
534.461	23844.56
534.826	23996.64
535.192	24148.05
535.557	24381.04
535.923	24334.94
536.288	24512.11
536.653	24628.04
537.019	24563.63
537.384	24710.3
537.749	24860.35
538.114	24850.63
538.479	24965.43
538.845	25317.74
539.21	25107.57
539.575	25275.48
539.94	25243.39
540.305	25518.18
540.67	25424.18
541.034	25622.81
541.399	25733.09
541.764	25858.29
542.129	25906.42
542.494	26091.28
542.858	26087.21
543.223	26281.78
543.587	26364.49
543.952	26309.12
544.316	26326.3
544.681	26393.19
545.045	26572.85
545.41	26782.33
545.774	26746.85
546.138	26818.26
546.503	26905.27
546.867	27004.47
547.231	27175.09
547.595	27215.99
547.959	27427.29
548.324	27340.51
548.688	27482.65
549.052	27562.88
549.416	27711.57
549.779	27705.7
550.143	27757.67
550.507	27960.15
550.871	28158.57
551.235	28017.55
551.599	28346.13
551.962	28304.33
552.326	28467.71
552.689	28537.31
553.053	28526.02
553.417	28742.73
553.78	29068.83
554.143	28916.29
554.507	29019.34
554.87	29229.95
555.234	29434.92
555.597	29241.93
555.96	29451.64
556.323	29551.3
556.686	29772.31
557.05	30024.96
557.413	29984.73
557.776	30075.35
558.139	30311.51
558.502	30386.53
558.865	30576.81
559.228	30744.94
559.59	30834.88
559.953	30996.46
560.316	31331.14
560.679	31258.82
561.041	31473.73
561.404	31711.47
561.767	31740.62
562.129	31734.07
562.492	32025.36
562.854	32090.67
563.217	32109.65
563.579	32258.35
563.941	32548.96
564.304	32628.05
564.666	32924.54
565.028	32905.56
565.39	33056.29
565.753	33148.27
566.115	33385.77
566.477	33471.65
566.839	33715.94
567.201	33859.43
567.563	33767.23
567.925	34063.5
568.287	34159.99
568.648	34254.45
569.01	34508.46
569.372	34625.29
569.734	34543.26
570.095	34883.14
570.457	35051.49
570.819	35099.4
571.18	34966.3
571.542	35288.78
571.903	35381.2
572.265	35356.8
572.626	35444.03
572.987	35537.13
573.349	35670.23
573.71	35741.87
574.071	35834.75
574.432	35963.33
574.794	36249.43
575.155	36130.56
575.516	36060.05
575.877	36382.76
576.238	36374.62
576.599	36609.19
576.96	36485.13
577.32	36535.75
577.681	36577.1
578.042	36824.78
578.403	36799.92
578.763	36828.17
579.124	36823.88
579.485	36983.42
579.845	37070.42
580.206	37011.44
580.566	37016.19
580.927	37068.39
581.287	37281.49
581.648	37256.86
582.008	37384.54
582.368	37239.91
582.728	37385.67
583.089	37243.53
583.449	37439.91
583.809	37402.39
584.169	37478.77
584.529	37354.48
584.889	37660.24
585.249	37367.82
585.609	37297.99
585.969	37479
586.329	37417.99
586.688	37573.46
587.048	37539.34
587.408	37431.32
587.768	37463.86
588.127	37316.97
588.487	37339.8
588.846	37538.66
589.206	37269.29
589.565	37309.06
589.925	37526.46
590.284	37565.1
590.643	37546.12
591.003	37526.68
591.362	37585.66
591.721	37625.66
592.08	37646.68
592.44	37731.42
592.799	37582.05
593.158	37530.98
593.517	37519.45
593.876	37711.54
594.235	37516.74
594.593	37623.63
594.952	37791.76
595.311	37581.6
595.67	37750.63
596.029	37855.71
596.387	37749.73
596.746	37906.11
597.104	37720.35
597.463	37666.34
597.822	37937.07
598.18	37752.89
598.538	37705.89
598.897	37865.43
599.255	37540.02
599.613	38155.37
599.972	37932.32
600.33	38044.41
600.688	37872.66
601.046	38099.78
601.404	38202.37
601.762	38185.87
602.12	38241.01
602.478	38238.75
602.836	38349.94
603.194	38169.15
603.552	38276.04
603.91	38282.14
604.268	38272.88
604.625	38262.93
604.983	38396.04
605.341	38331.41
605.698	38532.08
606.056	38549.48
606.413	38501.8
606.771	38632.42
607.128	38596.94
607.485	38534.79
607.843	38556.26
608.2	38776.37
608.557	38794.67
608.914	38757.61
609.272	38943.37
609.629	39062.01
609.986	39106.08
610.343	38890.49
610.7	39138.39
611.057	39085.06
611.414	39028.79
611.771	39186.75
612.127	39252.51
612.484	39119.41
612.841	39377.03
613.198	39200.99
613.554	39093.42
613.911	39401.21
614.267	39311.49
614.624	39304.26
614.98	39370.25
615.337	39485.5
615.693	39502
616.05	39391.04
616.406	39604.82
616.762	39640.75
617.118	39575.67
617.475	39624.93
617.831	39603.46
618.187	39637.36
618.543	39880.97
618.899	40104.47
619.255	39881.42
619.611	39891.37
619.967	40064.7
620.323	40085.03
620.678	40089.33
621.034	39992.15
621.39	39968.43
621.746	39880.29
622.101	40353.95
622.457	40069.67
622.812	40121.64
623.168	40113.73
623.523	40164.13
623.879	40322.54
624.234	40054.53
624.589	40140.85
624.945	40194.86
625.3	40126.16
625.655	40051.59
626.01	40095.43
626.365	40170.91
626.72	40099.04
627.075	40169.78
627.43	40045.49
627.785	39917.13
628.14	40083.23
628.495	40086.16
628.85	40028.54
629.205	39984.02
629.559	40048.42
629.914	39944.47
630.269	39818.6
630.623	39814.08
630.978	39796.68
631.332	39978.6
631.687	39993.28
632.041	39924.81
632.396	39922.33
632.75	39676
633.104	39681.43
633.459	39569.34
633.813	39597.14
634.167	39665.38
634.521	39567.31
634.875	39432.85
635.229	39423.36
635.583	39060.88
635.937	39259.74
636.291	39236.47
636.645	39089.35
636.999	38989.02
637.352	39083.03
637.706	38922.35
638.06	39089.13
638.413	38795.12
638.767	38761.9
639.121	38778.63
639.474	38582.7
639.828	38651.4
640.181	38683.94
640.534	38693.66
640.888	38608.01
641.241	38351.52
641.594	38468.35
641.947	38597.62
642.301	38277.17
642.654	38329.15
643.007	38368.02
643.36	38369.82
643.713	38151.3
644.066	38332.76
644.419	38017.52
644.771	37774.36
645.124	37488.49
645.477	37313.58
645.83	37185.22
646.182	37098.22
646.535	36841.05
646.888	36978.9
647.24	36699.13
647.593	36990.43
647.945	36876.08
648.298	36559.25
648.65	36584.79
649.002	36476.09
649.355	36613.94
649.707	36520.61
650.059	36698.46
650.411	37182.74
650.763	37149.29
651.115	37603.52
651.467	37436.06
651.819	37453.92
652.171	37324.88
652.523	37188.61
652.875	37291.66
653.227	37078.11
653.578	37240.81
653.93	37213.24
654.282	37024.32
654.633	37004.89
654.985	37031.78
655.337	37033.81
655.688	37050.99
656.039	37130.08
656.391	36859.81
656.742	36852.8
657.094	36836.08
657.445	37068.39
657.796	36933.25
658.147	36699.81
658.498	36860.94
658.849	36735.52
659.2	36654.16
659.551	36667.95
659.902	36759.02
660.253	36636.54
660.604	36672.02
660.955	36445.13
661.306	36801.5
661.656	36689.87
662.007	36596.09
662.358	36721.73
662.708	36652.36
663.059	36576.2
663.409	36370.1
663.76	36766.25
664.11	36781.39
664.461	36692.13
664.811	36707.5
665.161	36722.86
665.511	36486.26
665.862	36509.99
666.212	36485.81
666.562	36598.57
666.912	36535.07
667.262	36610.1
667.612	36458.24
667.962	36541.85
668.312	36331.23
668.662	36577.78
669.011	36464.56
669.361	36559.7
669.711	36408.52
670.06	36430.89
670.41	36421.63
670.76	36325.81
671.109	36458.69
671.459	36343.89
671.808	36250.33
672.157	36274.51
672.507	35983.22
672.856	36002.88
673.205	36090.11
673.554	36067.74
673.904	36032.26
674.253	36154.74
674.602	35977.12
674.951	35581.88
675.3	35339.85
675.649	36038.81
675.998	35881.08
676.346	35982.99
676.695	36088.53
677.044	35767.41
677.393	35982.54
677.741	35959.49
678.09	35752.94
678.438	35720.18
678.787	35781.87
679.135	35760.4
679.484	35458.49
679.832	35639.95
680.181	35443.12
680.529	35479.05
680.877	35425.95
681.225	35349.11
681.573	35384.82
681.922	35234.31
682.27	35150.93
682.618	35157.71
682.966	35091.04
683.314	35109.35
683.661	34988.9
684.009	34881.33
684.357	34788.68
684.705	34690.37
685.053	34748.45
685.4	34632.52
685.748	34498.51
686.095	34472.98
686.443	34330.38
686.79	34353.21
687.138	34293.77
687.485	34399.53
687.832	34175.36
688.18	34225.3
688.527	34047.68
688.874	34050.62
689.221	33931.07
689.568	33934.46
689.915	33774.24
690.262	33798.65
690.609	33576.05
690.956	33538.09
691.303	33531.08
691.65	33418.32
691.997	33399.56
692.344	33321.82
692.69	33227.59
693.037	33251.77
693.383	33010.42
693.73	33133.35
694.077	32792.57
694.423	32779.01
694.769	32694.49
695.116	32589.86
695.462	32459.47
695.808	32310.32
696.155	32503.31
696.501	32296.99
696.847	32261.74
697.193	32087.5
697.539	32242.98
697.885	31884.8
698.231	31765.48
698.577	31808.64
698.923	31816.1
699.269	31532.26
699.614	31517.58
699.96	31422.44
700.306	31368.65
700.651	31168.43
700.997	31206.85
701.342	31250.46
701.688	31150.35
702.033	30925.73
702.379	30926.18
702.724	30827.88
703.069	30975.89
703.415	30644.6
703.76	30566.19
704.105	30520.54
704.45	30411.62
704.795	30305.18
705.14	30071.74
705.485	30181.79
705.83	29999.88
706.175	30184.05
706.52	30053.43
706.865	29915.58
707.209	29883.04
707.554	29751.97
707.899	29840.11
708.243	29590.39
708.588	29563.95
708.932	29391.53
709.277	29408.48
709.621	29394.47
709.966	29215.71
710.31	29190.86
710.654	28872.45
710.998	29058.2
711.342	29148.6
711.687	29034.02
712.031	28775.95
712.375	28803.97
712.719	28737.76
713.063	28680.59
713.407	28768.27
713.75	28668.84
714.094	28690.76
714.438	28428.39
714.782	28457.54
715.125	28319.24
715.469	28342.29
715.812	28182.52
716.156	27961.28
716.499	28106.59
716.843	28014.39
717.186	28042.64
717.53	27944.56
717.873	27947.5
718.216	27961.74
718.559	27677.22
718.902	27488.3
719.246	27555.19
719.589	27468.87
719.932	27510
720.275	27373.05
720.617	27356.55
720.96	27300.06
721.303	27317.46
721.646	27312.49
721.989	27010.35
722.331	27164.24
722.674	27128.31
723.016	27203.56
723.359	27105.49
723.701	27066.84
724.044	26911.59
724.386	26834.99
724.729	26872.95
725.071	26875.44
725.413	26785.27
725.755	26836.34
726.097	26709.57
726.439	26491.49
726.782	26545.5
727.124	26611.26
727.465	26509.12
727.807	26415.56
728.149	26419.4
728.491	26316.36
728.833	26368.56
729.175	26352.97
729.516	26191.39
729.858	26139.41
730.199	26261.67
730.541	26087.66
730.882	26078.85
731.224	26022.35
731.565	25885.86
731.906	25861.23
732.248	25936.48
732.589	25793.21
732.93	25825.75
733.271	25707.33
733.612	25729.93
733.953	25619.2
734.294	25652.87
734.635	25504.17
734.976	25600.22
735.317	25567
735.658	25368.13
735.999	25460.33
736.339	25402.26
736.68	25401.35
737.021	25327.91
737.361	25288.36
737.702	25378.75
738.042	25154.35
738.383	25061.02
738.723	25156.61
739.063	25078.42
739.404	25145.77
739.744	25041.14
740.084	24892.89
740.424	24922.04
740.764	24896.51
741.104	24922.27
741.444	24845.89
741.784	24845.66
742.124	24906.68
742.464	24785.32
742.804	24632.11
743.143	24540.36
743.483	24592.56
743.823	24440.7
744.162	24406.35
744.502	24402.96
744.841	24414.71
745.181	24530.41
745.52	24348.27
745.86	24357.31
746.199	24384.2
746.538	24215.85
746.877	24298.33
747.216	24301.49
747.556	24194.83
747.895	24213.59
748.234	24136.3
748.573	23922.97
748.911	23991.45
749.25	23948.06
749.589	23903.31
749.928	23799.13
750.267	23806.59
750.605	23824.67
750.944	23690.89
751.283	23544.9
751.621	23608.63
751.96	23578.8
752.298	23499.71
752.636	23525.02
752.975	23339.49
753.313	23271.69
753.651	23335.64
753.989	23170.45
754.327	23218.58
754.666	22947.63
755.004	23108.3
755.342	23031.02
755.679	23045.03
756.017	22853.4
756.355	22984.01
756.693	22767.97
757.031	22862.89
757.368	22752.61
757.706	22669.22
758.044	22624.48
758.381	22618.37
758.719	22397.14
759.056	22543.12
759.394	22450.92
759.731	22228.55
760.068	22250.7
760.405	22162.79
760.743	22077.37
761.08	22087.09
761.417	21983.14
761.754	21882.57
762.091	21925.96
762.428	21879.41
762.765	21677.16
763.102	21838.73
763.438	21553.77
763.775	21542.47
764.112	21434
764.449	21575.92
764.785	21393.77
765.122	21285.08
765.458	21086.66
765.795	21015.03
766.131	21162.82
766.467	21070.17
766.804	20931.64
767.14	20933.22
767.476	20878.98
767.812	20742.27
768.148	20804.64
768.485	20532.78
768.821	20448.04
769.157	20368.26
769.492	20309.28
769.828	20367.13
770.164	20121.72
770.5	20041.04
770.836	20071.55
771.171	19986.35
771.507	19983.42
771.842	19712.46
772.178	19855.28
772.513	19780.48
772.849	19742.07
773.184	19553.37
773.519	19587.95
773.855	19534.16
774.19	19292.81
774.525	19394.28
774.86	19307.5
775.195	19317.44
775.53	19204.23
775.865	19097.79
776.2	18888.08
776.535	18792.03
776.87	18864.8
777.205	18750.68
777.539	18716.1
777.874	18772.15
778.209	18643.11
778.543	18563.79
778.878	18519.95
779.212	18399.73
779.547	18396.79
779.881	18371.93
780.215	18255.1
780.55	18246.29
780.884	18092.17
781.218	18039.29
781.552	18100.53
781.886	17910.25
782.22	17862.34
782.554	17872.74
782.888	17607.43
783.222	17547.55
783.556	17476.14
783.889	17437.27
784.223	17340.77
784.557	17389.81
784.89	17356.37
785.224	17243.83
785.557	17091.97
785.891	17135.35
786.224	17107.33
786.558	17037.96
786.891	16901.46
787.224	16858.07
787.557	16833.89
787.891	16802.71
788.224	16724.97
788.557	16763.16
788.89	16632.54
789.223	16637.51
789.556	16528.14
789.888	16404.53
790.221	16373.34
790.554	16318.43
790.887	16326.56
791.219	16245.21
791.552	16163.4
791.884	16086.34
792.217	15987.81
792.549	16040.92
792.882	15963.86
793.214	15865.33
793.546	15860.36
793.879	15821.72
794.211	15624.66
794.543	15724.54
794.875	15540.14
795.207	15676.64
795.539	15518.45
795.871	15601.61
796.203	15456.53
796.535	15376.53
796.867	15360.03
797.198	15274.39
797.53	15268.06
797.862	15209.53
798.193	15249.08
798.525	15049.76
798.856	15120.94
799.188	14892.93
799.519	14892.93
799.85	14795.53
800.182	14823.55
800.513	14889.09
800.844	14657.91
801.175	14734.29
801.506	14711.24
801.837	14637.57
802.168	14659.94
802.499	14610.22
802.83	14537
803.161	14401.42
803.491	14455.2
803.822	14463.79
804.153	14270.57
804.483	14239.16
804.814	14177.69
805.145	14180.4
805.475	14110.35
805.805	14076.9
806.136	14096.79
806.466	14069.67
806.796	13969.34
807.126	13855.89
807.457	13863.8
807.787	13879.17
808.117	13786.97
808.447	13767.99
808.777	13763.92
809.107	13723.92
809.436	13700.64
809.766	13678.95
810.096	13627.88
810.426	13586.97
810.755	13544.04
811.085	13505.17
811.414	13564.15
811.744	13402.12
812.073	13359.18
812.403	13381.1
812.732	13306.3
813.061	13380.43
813.39	13206.42
813.719	13154.44
814.049	13282.35
814.378	13205.97
814.707	13164.16
815.036	13165.06
815.365	12972.53
815.693	12892.75
816.022	12937.05
816.351	12848.69
816.68	12829.03
817.008	12937.95
817.337	12824.28
817.665	12762.36
817.994	12858.63
818.322	12803.94
818.651	12660.67
818.979	12686.66
819.307	12771.63
819.636	12598.52
819.964	12630.61
820.292	12584.97
820.62	12640.33
820.948	12575.93
821.276	12616.6
821.604	12535.7
821.932	12534.12
822.259	12580.67
822.587	12497.96
822.915	12544.51
823.243	12556.27
823.57	12541.58
823.898	12510.39
824.225	12484.63
824.553	12466.1
824.88	12465.42
825.207	12518.3
825.535	12527.57
825.862	12491.41
826.189	12436.95
826.516	12569.82
826.843	12492.99
827.17	12464.74
827.497	12568.69
827.824	12478.98
828.151	12503.16
828.478	12439.43
828.805	12544.06
829.131	12495.25
829.458	12483.95
829.785	12359.21
830.111	12535.25
830.438	12485.08
830.764	12451.41
831.09	12466.32
831.417	12367.8
831.743	12500.45
832.069	12468.13
832.395	12426.1
832.722	12538.41
833.048	12423.84
833.374	12404.18
833.7	12342.03
834.026	12348.36
834.351	12364.63
834.677	12388.59
835.003	12337.29
835.329	12314.24
835.654	12349.49
835.98	12225.65
836.306	12300
836.631	12231.3
836.956	12261.81
837.282	12297.74
837.607	12165.32
837.932	12108.59
838.258	12103.85
838.583	12131.42
838.908	12061.82
839.233	12020.91
839.558	11973.46
839.883	12060.23
840.208	11955.38
840.533	11983.17
840.858	11981.37
841.182	11921.93
841.507	11983.63
841.832	11857.75
842.156	11903.18
842.481	11797.87
842.805	11802.39
843.13	11803.52
843.454	11727.36
843.778	11749.51
844.103	11746.12
844.427	11677.87
844.751	11656.18
845.075	11654.82
845.399	11589.74
845.723	11590.19
846.047	11552.9
846.371	11446.24
846.695	11425
847.019	11377.54
847.343	11311.78
847.666	11268.62
847.99	11258.67
848.313	11219.58
848.637	11126.92
848.96	11108.17
849.284	11107.26
849.607	10964.22
849.931	10956.76
850.254	10878.12
850.577	10827.72
850.9	10777.1
851.223	10726.03
851.546	10683.32
851.869	10630.44
852.192	10649.2
852.515	10498.24
852.838	10613.49
853.161	10620.05
853.483	10457.79
853.806	10540.5
854.129	10460.73
854.451	10407.62
854.774	10350.9
855.096	10277.23
855.419	10299.83
855.741	10253.05
856.063	10194.52
856.385	10196.1
856.708	10147.97
857.03	10097.8
857.352	10110.91
857.674	10192.71
857.996	10095.77
858.318	10065.48
858.64	10047.86
858.961	9941.65
859.283	9943.68
859.605	9919.95
859.926	9948.42
860.248	9944.36
860.57	9830.91
860.891	9833.63
861.212	9812.38
861.534	9791.37
861.855	9728.32
862.176	9776.9
862.498	9762.67
862.819	9670.01
863.14	9676.12
863.461	9682.67
863.782	9652.84
864.103	9629.56
864.424	9595.44
864.745	9624.59
865.065	9576.46
865.386	9534.88
865.707	9518.61
866.027	9536.01
866.348	9562.45
866.668	9507.53
866.989	9436.57
867.309	9416.46
867.63	9441.09
867.95	9437.03
868.27	9458.27
868.59	9417.82
868.91	9362.9
869.23	9298.95
869.55	9336.92
869.87	9377.37
870.19	9290.59
870.51	9386.86
870.83	9312.28
871.15	9259.4
871.469	9269.35
871.789	9265.05
872.109	9216.69
872.428	9238.61
872.748	9189.57
873.067	9180.99
873.386	9129.24
873.706	9148.45
874.025	9115.68
874.344	9087.2
874.663	9126.98
874.982	9115.68
875.301	9116.36
875.62	9048.11
875.939	9014.44
876.258	9006.08
876.577	8929.02
876.896	8991.84
877.214	8958.17
877.533	8959.98
877.852	8934.89
878.17	8939.86
878.489	8953.42
878.807	8934.21
879.125	8845.18
879.444	8837.27
879.762	8801.56
880.08	8832.75
880.398	8886.08
880.716	8815.12
881.034	8763.37
881.352	8795.23
881.67	8793.2
881.988	8750.49
882.306	8712.75
882.624	8703.26
882.941	8691.73
883.259	8661.45
883.577	8643.15
883.894	8590.04
884.212	8594.11
884.529	8588.46
884.846	8575.58
885.164	8522.93
885.481	8568.12
885.798	8552.76
886.115	8458.29
886.432	8519.99
886.75	8434.79
887.067	8396.38
887.383	8409.26
887.7	8407.45
888.017	8331.74
888.334	8346.43
888.651	8342.14
888.967	8301.46
889.284	8270.73
889.6	8290.84
889.917	8149.83
890.233	8215.14
890.55	8203.61
890.866	8162.48
891.182	8131.3
891.498	8102.37
891.815	8152.54
892.131	8108.93
892.447	8030.06
892.763	8015.82
893.079	7960.45
893.395	7908.7
893.71	7981.24
894.026	7920.68
894.342	7945.09
894.657	7862.6
894.973	7847.01
895.289	7763.85
895.604	7844.98
895.92	7742.16
896.235	7729.73
896.55	7712.1
896.865	7717.07
897.181	7684.76
897.496	7687.47
897.811	7616.51
898.126	7550.3
898.441	7554.59
898.756	7556.85
899.071	7517.3
899.386	7570.41
899.7	7411.99
900.015	7457.64
900.33	7358.66
900.644	7357.31
900.959	7394.14
901.273	7319.79
901.588	7310.3
901.902	7310.98
902.216	7311.88
902.531	7199.8
902.845	7205.67
903.159	7148.95
903.473	7132.45
903.787	7076.64
904.101	7094.71
904.415	7048.61
904.729	7066.69
905.042	6955.96
905.356	6972.01
905.67	6985.56
905.984	6989.63
906.297	6863.99
906.611	6897.21
906.924	6874.83
907.237	6875.06
907.551	6864.89
907.864	6828.96
908.177	6784.44
908.491	6726.59
908.804	6728.4
909.117	6725.91
909.43	6695.63
909.743	6633.48
910.056	6675.29
910.368	6581.06
910.681	6589.87
910.994	6495.18
911.307	6504
911.619	6464.45
911.932	6432.81
912.244	6368.86
912.557	6402.76
912.869	6377.9
913.181	6308.07
913.494	6333.6
913.806	6308.07
914.118	6270.78
914.43	6254.06
914.742	6252.7
915.054	6204.79
915.366	6155.76
915.678	6174.51
915.99	6140.16
916.302	6100.84
916.613	6039.6
916.925	6051.35
917.236	6060.62
917.548	6022.65
917.859	6010
918.171	6003.22
918.482	5958.47
918.794	5937.91
919.105	5904.92
919.416	5825.6
919.727	5813.84
920.038	5819.72
920.349	5767.97
920.66	5726.61
920.971	5730.23
921.282	5706.05
921.593	5671.48
921.903	5681.64
922.214	5669.67
922.525	5584.92
922.835	5566.85
923.146	5561.2
923.456	5552.16
923.767	5503.8
924.077	5435.78
924.387	5428.32
924.697	5460.86
925.008	5404.14
925.318	5363.01
925.628	5389
925.938	5320.3
926.248	5288.43
926.558	5278.27
926.867	5294.99
927.177	5287.3
927.487	5247.31
927.796	5216.12
928.106	5195.33
928.416	5208.44
928.725	5164.82
929.034	5120.53
929.344	5143.13
929.653	5068.33
929.962	5083.24
930.271	4991.72
930.581	5038.72
930.89	5000.31
931.199	4992.4
931.508	4952.62
931.817	4924.15
932.125	4867.43
932.434	4933.64
932.743	4881.89
933.051	4868.11
933.36	4840.99
933.669	4823.81
933.977	4855.23
934.286	4794.66
934.594	4771.61
934.902	4735.91
935.21	4725.29
935.519	4734.55
935.827	4720.99
936.135	4645.06
936.443	4603.93
936.751	4619.75
937.059	4601.45
937.367	4579.07
937.674	4572.3
937.982	4573.2
938.29	4556.93
938.597	4568.23
938.905	4507.66
939.213	4495.69
939.52	4415.01
939.827	4470.6
940.135	4469.92
940.442	4409.14
940.749	4382.92
941.056	4372.53
941.363	4335.47
941.67	4347.44
941.977	4298.4
942.284	4251.63
942.591	4302.7
942.898	4233.32
943.205	4266.54
943.511	4239.42
943.818	4215.24
944.125	4172.98
944.431	4139.54
944.738	4143.38
945.044	4127.33
945.35	4103.38
945.657	4076.71
945.963	4066.09
946.269	4049.6
946.575	4067.22
946.881	4037.39
947.187	4053.21
947.493	4031.52
947.799	3972.54
948.105	3984.97
948.41	3941.8
948.716	3935.7
949.022	3941.35
949.327	3924.4
949.633	3867.91
949.938	3835.82
950.244	3862.94
950.549	3849.83
950.854	3793.78
951.16	3790.62
951.465	3784.29
951.77	3749.49
952.075	3749.04
952.38	3750.17
952.685	3742.49
952.99	3659.1
953.294	3698.42
953.599	3680.57
953.904	3653.22
954.209	3667.23
954.513	3615.94
954.818	3607.57
955.122	3596.05
955.426	3595.6
955.731	3553.11
956.035	3491.65
956.339	3528.48
956.643	3502.94
956.948	3466.11
957.252	3470.63
957.556	3478.31
957.86	3445.77
958.163	3451.19
958.467	3427.69
958.771	3441.25
959.075	3379.56
959.378	3387.69
959.682	3387.47
959.985	3350.18
960.289	3346.79
960.592	3315.15
960.896	3309.28
961.199	3290.29
961.502	3314.25
961.805	3275.61
962.108	3262.72
962.411	3283.74
962.714	3223.86
963.017	3229.96
963.32	3252.33
963.623	3189.28
963.926	3178.21
964.228	3161.71
964.531	3150.64
964.833	3124.42
965.136	3117.64
965.438	3100.02
965.741	3078.1
966.043	3056.85
966.345	3077.42
966.648	3072.45
966.95	3063.63
967.252	2996.52
967.554	3011.66
967.856	3021.83
968.158	3006.46
968.46	2992.68
968.761	2983.41
969.063	2975.95
969.365	2977.76
969.666	2945.67
969.968	2918.1
970.269	2897.31
970.571	2889.18
970.872	2908.61
971.174	2855.73
971.475	2856.86
971.776	2840.36
972.077	2813.92
972.378	2852.57
972.679	2829.52
972.98	2788.16
973.281	2796.97
973.582	2776.41
973.883	2797.2
974.183	2773.92
974.484	2709.75
974.785	2703.64
975.085	2731.21
975.386	2733.47
975.686	2686.69
975.986	2675.17
976.287	2659.58
976.587	2625.45
976.887	2629.52
977.187	2636.75
977.487	2655.74
977.787	2588.39
978.087	2598.56
978.387	2604.21
978.687	2602.63
978.987	2561.95
979.286	2548.62
979.586	2540.03
979.885	2508.85
980.185	2495.51
980.484	2525.57
980.784	2505.68
981.083	2484.21
981.382	2493.48
981.682	2474.72
981.981	2483.31
982.28	2446.7
982.579	2407.15
982.878	2444.89
983.177	2420.04
983.475	2427.04
983.774	2384.78
984.073	2398.11
984.372	2352.47
984.67	2359.92
984.969	2330.32
985.267	2333.26
985.566	2340.26
985.864	2331.22
986.162	2303.43
986.461	2293.48
986.759	2261.85
987.057	2296.87
987.355	2249.42
987.653	2265.69
987.951	2239.48
988.249	2222.98
988.547	2258.91
988.844	2237.44
989.142	2205.8
989.44	2199.25
989.737	2179.36
990.035	2180.72
990.332	2179.82
990.63	2176.43
990.927	2149.53
991.224	2132.36
991.521	2122.87
991.819	2147.05
992.116	2119.93
992.413	2089.42
992.71	2098.46
993.006	2069.76
993.303	2094.17
993.6	2073.38
993.897	2039.03
994.193	2054.4
994.49	2042.42
994.787	2020.05
995.083	2021.18
995.379	2049.88
995.676	1971.46
995.972	2018.92
996.268	1956.77
996.565	2017.79
996.861	1962.42
997.157	1969.88
997.453	1961.52
997.749	1973.27
998.044	1956.32
998.34	1958.13
998.636	1920.16
998.932	1909.54
999.227	1902.99
999.523	1887.39
999.818	1904.34
1000.114	1888.52
1000.409	1858.92
1000.704	1821.41
1001	1834.29
1001.295	1855.76
1001.59	1822.54
1001.885	1830.67
1002.18	1776.44
1002.475	1815.08
1002.77	1792.03
1003.065	1768.75
1003.359	1742.76
1003.654	1781.63
1003.949	1733.95
1004.243	1750
1004.538	1747.28
1004.832	1736.21
1005.127	1701.41
1005.421	1695.99
1005.715	1688.53
1006.009	1680.17
1006.304	1696.89
1006.598	1636.55
1006.892	1693.05
1007.186	1668.42
1007.48	1635.65
1007.773	1610.34
1008.067	1623.67
1008.361	1617.57
1008.655	1587.97
1008.948	1591.58
1009.242	1601.53
1009.535	1558.36
1009.829	1553.84
1010.122	1548.87
1010.415	1565.14
1010.708	1563.33
1011.001	1521.75
1011.295	1530.34
1011.588	1524.69
1011.881	1503
1012.173	1500.29
1012.466	1505.93
1012.759	1522.66
1013.052	1497.8
1013.344	1474.52
1013.637	1465.26
1013.93	1467.07
1014.222	1440.85
1014.514	1417.35
1014.807	1427.29
1015.099	1407.63
1015.391	1421.87
1015.683	1398.14
1015.976	1381.42
1016.268	1370.12
1016.56	1367.86
1016.851	1356.33
1017.143	1379.38
1017.435	1351.36
1017.727	1357.24
1018.018	1319.95
1018.31	1339.84
1018.602	1324.92
1018.893	1304.13
1019.185	1309.56
1019.476	1286.51
1019.767	1306.39
1020.058	1295.77
1020.35	1267.75
1020.641	1263.46
1020.932	1253.29
1021.223	1262.78
1021.514	1254.42
1021.804	1220.74
1022.095	1203.34
1022.386	1211.71
1022.677	1195.66
1022.967	1216.68
1023.258	1192.95
1023.548	1190.24
1023.839	1168.54
1024.129	1159.73
1024.419	1194.3
1024.709	1175.32
1025	1151.37
1025.29	1152.5
1025.58	1147.53
1025.87	1133.97
1026.16	1118.15
1026.449	1130.13
1026.739	1095.32
1027.029	1111.82
1027.319	1085.61
1027.608	1106.4
1027.898	1076.12
1028.187	1075.66
1028.477	1067.3
1028.766	1067.3
1029.055	1044.25
1029.344	1051.94
1029.634	1041.54
1029.923	998.38
1030.212	1010.81
1030.501	1033.41
1030.79	1011.94
1031.078	1001.09
1031.367	991.82
1031.656	987.3
1031.945	975.55
1032.233	994.08
1032.522	987.53
1032.81	976.46
1033.099	962.45
1033.387	959.06
1033.675	945.72
1033.963	949.79
1034.251	958.6
1034.54	953.63
1034.828	953.41
1035.116	917.25
1035.403	928.1
1035.691	934.2
1035.979	928.32
1036.267	915.89
1036.554	913.41
1036.842	898.49
1037.129	905.72
1037.417	888.78
1037.704	881.77
1037.992	858.04
1038.279	877.02
1038.566	857.82
1038.853	857.82
1039.14	857.82
