Data from foam1_polythene_foam_FLMS001491_00065.txt Node
Date: Wed Feb 08 10:55:13 GMT 2017
User: dcchb
Spectrometer: FLMS00149
Trigger mode: 0
Integration Time (sec): 2.000000E-2
Scans to average: 10
Electric dark correction enabled: true
Nonlinearity correction enabled: false
Boxcar width: 0
XAxis mode: Wavelengths
Number of Pixels in Spectrum: 2048
>>>>>Begin Spectral Data<<<<<
341.393	-15.96
341.776	-15.96
342.16	-15.96
342.543	-73.13
342.927	-67.94
343.31	-69.74
343.693	-65.22
344.077	-40.37
344.46	-67.48
344.843	-66.35
345.226	-50.08
345.61	-16.86
345.993	-32.23
346.376	9.58
346.759	20.42
347.142	29.91
347.525	60.42
347.908	36.24
348.291	72.4
348.674	72.4
349.057	106.97
349.44	141.55
349.823	126.18
350.206	164.6
350.588	151.04
350.971	181.1
351.354	203.92
351.737	238.5
352.119	224.03
352.502	222.9
352.884	277.59
353.267	274.2
353.65	252.06
354.032	272.62
354.414	281.43
354.797	280.76
355.179	315.33
355.562	302.68
355.944	320.75
356.326	306.97
356.709	310.13
357.091	288.66
357.473	312.62
357.855	321.88
358.238	325.5
358.62	332.96
359.002	324.14
359.384	299.96
359.766	302.45
360.148	321.21
360.53	317.82
360.912	299.29
361.294	319.4
361.676	309.68
362.057	297.25
362.439	295.22
362.821	292.96
363.203	303.58
363.584	297.7
363.966	299.29
364.348	297.7
364.729	285.5
365.111	298.16
365.493	288.89
365.874	293.18
366.256	280.76
366.637	298.16
367.019	279.85
367.4	292.05
367.781	305.84
368.163	288.66
368.544	281.89
368.925	293.18
369.306	282.56
369.688	304.26
370.069	274.43
370.45	284.15
370.831	277.82
371.212	279.85
371.593	291.15
371.974	300.87
372.355	268.55
372.736	299.29
373.117	281.66
373.498	285.5
373.879	284.15
374.26	295.22
374.641	280.08
375.021	288.66
375.402	284.15
375.783	283.02
376.163	300.19
376.544	317.59
376.925	314.43
377.305	287.99
377.686	285.95
378.066	287.31
378.447	296.35
378.827	295.44
379.208	294.54
379.588	296.57
379.968	294.99
380.349	309.23
380.729	297.03
381.109	289.34
381.489	299.06
381.87	323.47
382.25	296.8
382.63	304.71
383.01	307.87
383.39	292.51
383.77	308.55
384.15	311.71
384.53	302.68
384.91	338.15
385.29	313.52
385.67	337.7
386.049	321.43
386.429	312.39
386.809	305.39
387.189	293.86
387.568	298.38
387.948	312.17
388.328	320.08
388.707	327.53
389.087	323.69
389.466	319.85
389.846	316.69
390.225	309.46
390.605	339.28
390.984	333.41
391.363	323.47
391.743	323.47
392.122	327.08
392.501	308.1
392.881	334.31
393.26	307.2
393.639	319.62
394.018	312.62
394.397	330.92
394.776	332.96
395.155	328.44
395.534	352.17
395.913	322.79
396.292	339.06
396.671	333.18
397.05	335.22
397.429	350.13
397.808	325.73
398.186	336.8
398.565	334.31
398.944	330.92
399.323	342.67
399.701	354.43
400.08	361.21
400.458	352.17
400.837	339.51
401.215	346.74
401.594	350.81
401.972	337.03
402.351	363.92
402.729	351.04
403.107	367.31
403.486	366.63
403.864	352.62
404.242	350.13
404.62	349.23
404.999	335.9
405.377	358.72
405.755	342.9
406.133	346.06
406.511	386.29
406.889	351.71
407.267	356.46
407.645	363.92
408.023	365.05
408.401	384.26
408.779	358.95
409.156	364.37
409.534	368.44
409.912	361.66
410.29	367.31
410.667	366.63
411.045	362.34
411.422	376.12
411.8	381.54
412.178	360.53
412.555	367.98
412.933	394.42
413.31	372.96
413.687	368.89
414.065	375.67
414.442	379.96
414.819	379.28
415.197	382.22
415.574	388.78
415.951	397.59
416.328	399.4
416.705	390.36
417.082	395.55
417.46	385.39
417.837	382
418.214	412.73
418.591	403.01
418.967	406.4
419.344	390.81
419.721	399.85
420.098	382.45
420.475	403.24
420.852	409.57
421.228	420.19
421.605	416.57
421.982	380.19
422.358	408.89
422.735	408.89
423.111	420.86
423.488	415.22
423.864	411.6
424.241	426.97
424.617	431.71
424.994	407.53
425.37	428.77
425.746	428.1
426.123	427.42
426.499	415.89
426.875	433.07
427.251	453.41
427.627	446.85
428.003	452.05
428.379	453.86
428.756	441.43
429.132	458.15
429.507	458.6
429.883	445.5
430.259	430.81
430.635	460.64
431.011	454.31
431.387	468.32
431.763	467.87
432.138	465.16
432.514	492.5
432.89	471.71
433.265	468.77
433.641	478.26
434.016	472.84
434.392	470.13
434.767	500.18
435.143	486.4
435.518	492.95
435.894	491.15
436.269	507.64
436.644	495.89
437.02	526.62
437.395	505.61
437.77	516
438.145	521.65
438.52	532.73
438.895	530.92
439.271	534.53
439.646	521.65
440.021	519.85
440.395	543.35
440.77	540.86
441.145	552.61
441.52	534.31
441.895	546.74
442.27	554.87
442.645	563.69
443.019	563.01
443.394	560.52
443.769	574.31
444.143	550.58
444.518	554.19
444.892	584.25
445.267	575.66
445.641	591.93
446.016	605.94
446.39	603.91
446.764	590.8
447.139	594.87
447.513	628.09
447.887	600.52
448.262	632.61
448.636	637.58
449.01	611.82
449.384	623.12
449.758	632.84
450.132	637.81
450.506	645.49
450.88	643.23
451.254	667.64
451.628	665.6
452.002	660.63
452.376	662.89
452.75	696.56
453.123	660.86
453.497	647.98
453.871	674.19
454.244	682.55
454.618	678.26
454.992	665.6
455.365	680.07
455.739	692.27
456.112	694.53
456.486	705.38
456.859	690.69
457.232	706.05
457.606	700.63
457.979	694.53
458.352	706.28
458.725	698.6
459.099	698.37
459.472	714.19
459.845	722.1
460.218	723.91
460.591	706.28
460.964	735.21
461.337	703.57
461.71	741.76
462.083	719.39
462.456	740.4
462.829	722.78
463.201	729.56
463.574	733.85
463.947	741.76
464.32	765.26
464.692	741.76
465.065	742.89
465.438	772.27
465.81	774.53
466.183	793.51
466.555	771.36
466.928	779.95
467.3	782.21
467.672	798.03
468.045	792.83
468.417	773.62
468.789	794.87
469.161	814.53
469.534	819.95
469.906	835.54
470.278	838.48
470.65	835.54
471.022	853.85
471.394	833.28
471.766	855.88
472.138	846.62
472.51	840.29
472.882	860.85
473.253	879.84
473.625	879.38
473.997	865.37
474.369	925.26
474.74	908.08
475.112	916.67
475.484	907.18
475.855	947.86
476.227	938.59
476.598	954.18
476.97	965.94
477.341	976.33
477.713	988.76
478.084	958.7
478.455	998.02
478.827	1002.32
479.198	1009.1
479.569	1019.94
479.94	1029.21
480.311	1038.7
480.682	1056.55
481.053	1069.44
481.424	1086.38
481.795	1080.06
482.166	1134.07
482.537	1118.47
482.908	1135.65
483.279	1159.15
483.65	1117.34
484.021	1175.65
484.391	1165.93
484.762	1193.73
485.133	1197.34
485.503	1213.39
485.874	1240.05
486.244	1248.87
486.615	1256.1
486.985	1278.24
487.356	1272.14
487.726	1297.9
488.097	1320.05
488.467	1291.12
488.837	1327.96
489.207	1355.98
489.578	1360.27
489.948	1344.23
490.318	1396.66
490.688	1376.32
491.058	1392.59
491.428	1401.86
491.798	1418.13
492.168	1455.64
492.538	1466.26
492.908	1493.83
493.278	1471.23
493.648	1501.51
494.017	1493.15
494.387	1530.89
494.757	1551.46
495.126	1545.13
495.496	1526.15
495.866	1585.35
496.235	1572.25
496.605	1590.1
496.974	1561.4
497.344	1587.61
497.713	1579.7
498.082	1618.57
498.452	1643.88
498.821	1665.8
499.19	1657.89
499.559	1675.75
499.928	1688.4
500.298	1672.58
500.667	1717.33
501.036	1709.19
501.405	1711.9
501.774	1721.17
502.143	1741.73
502.512	1718.46
502.88	1755.29
503.249	1762.75
503.618	1739.93
503.987	1763.2
504.356	1778.12
504.724	1806.36
505.093	1811.56
505.462	1846.36
505.83	1844.1
506.199	1863.76
506.567	1848.85
506.936	1845.23
507.304	1859.02
507.672	1909.87
508.041	1895.63
508.409	1917.55
508.777	1930.88
509.145	1931.79
509.514	1922.75
509.882	1948.73
510.25	1970.65
510.618	1974.95
510.986	1952.35
511.354	1965.91
511.722	2002.97
512.09	1998.45
512.458	2032.12
512.826	2066.92
513.193	2070.54
513.561	2084.1
513.929	2091.1
514.297	2107.37
514.664	2081.16
515.032	2110.09
515.4	2112.35
515.767	2155.06
516.135	2132.68
516.502	2125.45
516.869	2178.78
517.237	2184.89
517.604	2205.9
517.972	2211.78
518.339	2229.18
518.706	2219.91
519.073	2268.95
519.44	2258.33
519.808	2277.99
520.175	2274.38
520.542	2293.58
520.909	2327.03
521.276	2324.32
521.643	2339.91
522.009	2359.57
522.376	2355.5
522.743	2386.69
523.11	2382.85
523.477	2425.33
523.843	2458.1
524.21	2490.87
524.577	2484.09
524.943	2451.32
525.31	2512.34
525.676	2502.17
526.043	2507.14
526.409	2544.65
526.776	2532.45
527.142	2556.18
527.508	2557.53
527.874	2604.08
528.241	2611.99
528.607	2618.77
528.973	2663.29
529.339	2639.34
529.705	2664.2
530.071	2696.96
530.437	2729.96
530.803	2690.86
531.169	2729.73
531.535	2723.85
531.901	2692.9
532.267	2765.66
532.632	2768.37
532.998	2779.22
533.364	2798.43
533.73	2809.5
534.095	2823.29
534.461	2807.02
534.826	2847.92
535.192	2853.12
535.557	2896.05
535.923	2882.04
536.288	2882.95
536.653	2873.91
537.019	2882.72
537.384	2899.67
537.749	2905.09
538.114	2925.88
538.479	2971.08
538.845	2926.56
539.21	2939.44
539.575	2907.8
539.94	2946.22
540.305	2957.52
540.67	2974.7
541.034	2957.3
541.399	3013.56
541.764	2999.78
542.129	3014.02
542.494	3065.31
542.858	3044.52
543.223	3022.83
543.587	3070.74
543.952	3065.09
544.316	3096.5
544.681	3096.95
545.045	3073.22
545.41	3092.43
545.774	3114.13
546.138	3110.74
546.503	3133.56
546.867	3129.27
547.231	3143.05
547.595	3161.13
547.959	3174.01
548.324	3183.73
548.688	3210.4
549.052	3190.74
549.416	3232.54
549.779	3196.16
550.143	3197.06
550.507	3234.58
550.871	3218.08
551.235	3248.59
551.599	3304.86
551.962	3259.43
552.326	3293.11
552.689	3284.97
553.053	3308.92
553.417	3283.61
553.78	3370.84
554.143	3351.41
554.507	3375.82
554.87	3352.09
555.234	3421.24
555.597	3350.51
555.96	3410.62
556.323	3318.87
556.686	3380.79
557.05	3451.29
557.413	3439.54
557.776	3458.75
558.139	3476.15
558.502	3521.57
558.865	3480.45
559.228	3471.63
559.59	3518.86
559.953	3518.86
560.316	3527
560.679	3531.29
561.041	3566.77
561.404	3552.99
561.767	3615.36
562.129	3599.09
562.492	3623.04
562.854	3612.42
563.217	3638.18
563.579	3652.87
563.941	3720.89
564.304	3685.64
564.666	3749.14
565.028	3749.14
565.39	3727.44
565.753	3727.22
566.115	3770.83
566.477	3798.18
566.839	3835.92
567.201	3853.54
567.563	3788.01
567.925	3867.1
568.287	3861.45
568.648	3842.02
569.01	3892.86
569.372	3882.24
569.734	3879.3
570.095	3945.52
570.457	3915.46
570.819	3936.48
571.18	3963.14
571.542	3966.53
571.903	3972.41
572.265	3964.73
572.626	3978.74
572.987	4006.99
573.349	3997.49
573.71	4013.76
574.071	4062.8
574.432	4060.32
574.794	4069.81
575.155	4059.64
575.516	4035.91
575.877	4065.06
576.238	4074.33
576.599	4090.6
576.96	4099.41
577.32	4082.69
577.681	4096.93
578.042	4115.91
578.403	4123.14
578.763	4141.67
579.124	4145.96
579.485	4130.15
579.845	4108.68
580.206	4148
580.566	4157.72
580.927	4164.27
581.287	4176.92
581.648	4146.64
582.008	4177.83
582.368	4143.7
582.728	4178.05
583.089	4155.46
583.449	4153.65
583.809	4185.96
584.169	4175.57
584.529	4183.93
584.889	4196.13
585.249	4186.87
585.609	4169.47
585.969	4165.17
586.329	4183.7
586.688	4164.04
587.048	4158.39
587.408	4209.01
587.768	4185.29
588.127	4168.79
588.487	4169.92
588.846	4199.3
589.206	4197.94
589.565	4151.61
589.925	4177.15
590.284	4136.7
590.643	4195.91
591.003	4223.93
591.362	4233.19
591.721	4178.73
592.08	4177.83
592.44	4180.77
592.799	4195.45
593.158	4125.17
593.517	4196.58
593.876	4218.96
594.235	4149.13
594.593	4215.12
594.952	4216.02
595.311	4187.55
595.67	4243.59
596.029	4209.69
596.387	4202.23
596.746	4214.21
597.104	4162.46
597.463	4224.38
597.822	4189.35
598.18	4177.83
598.538	4171.73
598.897	4197.71
599.255	4169.69
599.613	4270.71
599.972	4177.6
600.33	4251.72
600.688	4190.26
601.046	4256.92
601.404	4213.31
601.762	4229.13
602.12	4243.59
602.478	4204.27
602.836	4233.87
603.194	4185.29
603.552	4248.11
603.91	4202.01
604.268	4269.58
604.625	4172.63
604.983	4223.93
605.341	4175.34
605.698	4240.88
606.056	4239.52
606.413	4205.85
606.771	4222.12
607.128	4217.37
607.485	4220.09
607.843	4223.93
608.2	4223.93
608.557	4271.61
608.914	4220.76
609.272	4243.59
609.629	4259.41
609.986	4264.61
610.343	4225.96
610.7	4250.14
611.057	4215.12
611.414	4252.63
611.771	4226.64
612.127	4265.51
612.484	4240.43
612.841	4302.12
613.198	4270.93
613.554	4246.75
613.911	4289.01
614.267	4272.74
614.624	4271.84
614.98	4298.73
615.337	4284.04
615.693	4305.06
616.05	4281.78
616.406	4284.72
616.762	4285.62
617.118	4261.44
617.475	4279.75
617.831	4330.37
618.187	4266.19
618.543	4263.7
618.899	4291.27
619.255	4281.55
619.611	4254.89
619.967	4302.57
620.323	4307.32
620.678	4274.77
621.034	4262.12
621.39	4261.22
621.746	4291.5
622.101	4251.72
622.457	4246.53
622.812	4282.23
623.168	4300.54
623.523	4278.16
623.879	4284.94
624.234	4281.33
624.589	4264.38
624.945	4243.59
625.3	4254.44
625.655	4231.39
626.01	4232.06
626.365	4273.19
626.72	4206.75
627.075	4233.19
627.43	4209.01
627.785	4200.65
628.14	4218.28
628.495	4251.72
628.85	4221.22
629.205	4238.62
629.559	4192.52
629.914	4231.84
630.269	4180.09
630.623	4190.48
630.978	4207.88
631.332	4181.22
631.687	4196.13
632.041	4144.38
632.396	4172.86
632.75	4192.74
633.104	4172.4
633.459	4144.61
633.813	4113.2
634.167	4127.66
634.521	4129.02
634.875	4120.43
635.229	4125.63
635.583	4091.95
635.937	4103.48
636.291	4087.89
636.645	4095.57
636.999	4059.64
637.352	4117.94
637.706	4023.71
638.06	4044.05
638.413	4067.55
638.767	4028.45
639.121	4043.14
639.474	4050.37
639.828	4056.25
640.181	4003.82
640.534	4026.87
640.888	4011.28
641.241	4001.56
641.594	4026.19
641.947	3998.62
642.301	4003.37
642.654	3953.88
643.007	3959.08
643.36	3977.38
643.713	3937.38
644.066	3934.67
644.419	3933.99
644.771	3926.76
645.124	3831.62
645.477	3809.25
645.83	3829.81
646.182	3833.43
646.535	3795.47
646.888	3815.58
647.24	3816.93
647.593	3891.73
647.945	3812.41
648.298	3824.62
648.65	3806.31
649.002	3778.97
649.355	3774.67
649.707	3760.44
650.059	3796.6
650.411	3769.03
650.763	3799.08
651.115	3846.54
651.467	3837.05
651.819	3810.15
652.171	3825.07
652.523	3861.9
652.875	3797.95
653.227	3800.21
653.578	3796.37
653.93	3793.88
654.282	3768.35
654.633	3773.32
654.985	3801.34
655.337	3786.65
655.688	3776.71
656.039	3778.52
656.391	3733.77
656.742	3802.92
657.094	3739.87
657.445	3768.35
657.796	3717.95
658.147	3707.78
658.498	3745.75
658.849	3754.79
659.2	3731.74
659.551	3732.64
659.902	3730.38
660.253	3730.16
660.604	3705.3
660.955	3692.64
661.306	3653.77
661.656	3691.29
662.007	3725.41
662.358	3726.54
662.708	3659.88
663.059	3695.13
663.409	3654.45
663.76	3670.72
664.11	3698.97
664.461	3702.59
664.811	3708.24
665.161	3684.73
665.511	3672.76
665.862	3661.91
666.212	3697.16
666.562	3659.42
666.912	3679.08
667.262	3690.38
667.612	3710.72
667.962	3652.19
668.312	3619.2
668.662	3634.57
669.011	3651.06
669.361	3637.5
669.711	3659.88
670.06	3610.39
670.41	3604.28
670.76	3592.76
671.109	3667.56
671.459	3661.01
671.808	3634.11
672.157	3621.01
672.507	3609.03
672.856	3612.42
673.205	3606.77
673.554	3574.45
673.904	3559.99
674.253	3591.63
674.602	3573.32
674.951	3519.99
675.3	3470.95
675.649	3557.28
675.998	3533.33
676.346	3574.91
676.695	3574
677.044	3507.11
677.393	3530.84
677.741	3568.35
678.09	3517.51
678.438	3536.94
678.787	3565.41
679.135	3522.48
679.484	3496.26
679.832	3540.78
680.181	3518.18
680.529	3508.24
680.877	3495.81
681.225	3489.03
681.573	3524.51
681.922	3495.81
682.27	3451.07
682.618	3459.65
682.966	3455.36
683.314	3467.34
683.661	3459.2
684.009	3440.9
684.357	3433.67
684.705	3444.06
685.053	3413.55
685.4	3438.41
685.748	3416.94
686.095	3445.64
686.443	3405.42
686.79	3363.16
687.138	3377.17
687.485	3391.86
687.832	3392.31
688.18	3345.76
688.527	3355.7
688.874	3335.36
689.221	3323.84
689.568	3321.13
689.915	3354.12
690.262	3324.52
690.609	3300.11
690.956	3247.46
691.303	3308.47
691.65	3273.67
691.997	3272.99
692.344	3241.36
692.69	3279.32
693.037	3278.87
693.383	3228.47
693.73	3294.91
694.077	3259.66
694.423	3213.11
694.769	3234.12
695.116	3208.59
695.462	3200.68
695.808	3207.91
696.155	3202.26
696.501	3172.43
696.847	3187.57
697.193	3162.26
697.539	3183.05
697.885	3128.82
698.231	3125.65
698.577	3118.19
698.923	3120.68
699.269	3121.13
699.614	3087.69
699.96	3097.63
700.306	3067.35
700.651	3060.8
700.997	3065.54
701.342	3034.81
701.688	3075.03
702.033	3021.47
702.379	3066.9
702.724	3025.54
703.069	3040.23
703.415	2982.61
703.76	2993.9
704.105	2981.93
704.45	2998.88
704.795	2992.77
705.14	2943.96
705.485	2982.61
705.83	2971.76
706.175	2955.26
706.52	2941.48
706.865	2908.93
707.209	2935.37
707.554	2944.64
707.899	2918.43
708.243	2929.05
708.588	2941.02
708.932	2902.16
709.277	2887.92
709.621	2867.13
709.966	2872.78
710.31	2867.58
710.654	2852.21
710.998	2872.1
711.342	2863.74
711.687	2837.98
712.031	2843.4
712.375	2822.38
712.719	2858.31
713.063	2811.76
713.407	2801.14
713.75	2795.04
714.094	2817.19
714.438	2802.72
714.782	2830.74
715.125	2790.97
715.469	2771.09
715.812	2779.67
716.156	2753.46
716.499	2753.01
716.843	2739.45
717.186	2739.67
717.53	2753.46
717.873	2778.77
718.216	2761.59
718.559	2719.79
718.902	2742.39
719.246	2740.13
719.589	2713.01
719.932	2712.56
720.275	2720.01
720.617	2725.44
720.96	2719.11
721.303	2716.85
721.646	2725.44
721.989	2700.8
722.331	2668.04
722.674	2684.76
723.016	2727.7
723.359	2667.59
723.701	2676.17
724.044	2642.28
724.386	2624.65
724.729	2648.38
725.071	2599.34
725.413	2668.94
725.755	2645.66
726.097	2599.56
726.439	2633.91
726.782	2616.74
727.124	2624.2
727.465	2610.19
727.807	2617.19
728.149	2625.78
728.491	2612.67
728.833	2638.66
729.175	2609.73
729.516	2538.1
729.858	2576.29
730.199	2607.02
730.541	2564.76
730.882	2605.67
731.224	2608.38
731.565	2548.72
731.906	2580.36
732.248	2535.84
732.589	2536.52
732.93	2560.92
733.271	2544.65
733.612	2568.83
733.953	2550.75
734.294	2520.7
734.635	2537.19
734.976	2546.68
735.317	2523.41
735.658	2512.79
735.999	2498.78
736.339	2501.94
736.68	2542.16
737.021	2524.76
737.361	2500.81
737.702	2504.43
738.042	2519.79
738.383	2515.27
738.723	2494.48
739.063	2493.8
739.404	2464.2
739.744	2492.9
740.084	2467.82
740.424	2456.07
740.764	2514.14
741.104	2458.1
741.444	2453.58
741.784	2469.17
742.124	2436.63
742.464	2476.86
742.804	2456.52
743.143	2461.94
743.483	2444.31
743.823	2430.08
744.162	2443.86
744.502	2438.21
744.841	2404.32
745.181	2433.24
745.52	2416.29
745.86	2441.15
746.199	2419.91
746.538	2398.89
746.877	2435.73
747.216	2404.77
747.556	2402.96
747.895	2428.95
748.234	2368.84
748.573	2402.51
748.911	2375.84
749.25	2395.28
749.589	2358.21
749.928	2385.78
750.267	2370.19
750.605	2362.96
750.944	2347.59
751.283	2382.62
751.621	2341.72
751.96	2346.92
752.298	2349.85
752.636	2335.62
752.975	2336.07
753.313	2323.41
753.651	2347.37
753.989	2333.36
754.327	2334.03
754.666	2307.59
755.004	2313.7
755.342	2340.36
755.679	2286.35
756.017	2313.7
756.355	2315.73
756.693	2270.08
757.031	2295.62
757.368	2296.07
757.706	2258.33
758.044	2237.54
758.381	2264.66
758.719	2244.32
759.056	2270.76
759.394	2248.39
759.731	2228.95
760.068	2201.83
760.405	2212.46
760.743	2217.2
761.08	2223.3
761.417	2204.77
761.754	2215.39
762.091	2204.32
762.428	2189.18
762.765	2201.16
763.102	2181.72
763.438	2191.21
763.775	2141.72
764.112	2183.08
764.449	2159.12
764.785	2153.47
765.122	2151.89
765.458	2130.42
765.795	2133.59
766.131	2110.76
766.467	2107.37
766.804	2102.63
767.14	2110.31
767.476	2090.65
767.812	2107.83
768.148	2106.24
768.485	2079.35
768.821	2078.22
769.157	2070.54
769.492	2082.29
769.828	2069.41
770.164	2017.88
770.5	2038.45
770.836	2069.86
771.171	2034.16
771.507	2012.69
771.842	2021.27
772.178	2010.88
772.513	1983.31
772.849	2026.47
773.184	1998.22
773.519	2037.55
773.855	1992.8
774.19	2028.73
774.525	1985.12
774.86	1980.6
775.195	1982.63
775.53	1939.92
775.865	1954.38
776.2	1954.16
776.535	1952.12
776.87	1945.57
777.205	1897.66
777.539	1913.03
777.874	1945.8
778.209	1936.76
778.543	1865.35
778.878	1908.28
779.212	1891.33
779.547	1891.33
779.881	1881.17
780.215	1913.03
780.55	1874.39
780.884	1886.59
781.218	1877.32
781.552	1861.5
781.886	1857.21
782.22	1856.76
782.554	1848.17
782.888	1833.26
783.222	1840.04
783.556	1831.45
783.889	1846.82
784.223	1816.31
784.557	1787.61
784.89	1829.42
785.224	1808.62
785.557	1772.02
785.891	1782.86
786.224	1800.26
786.558	1783.77
786.891	1742.64
787.224	1746.93
787.557	1755.52
787.891	1758.46
788.224	1749.19
788.557	1733.37
788.89	1756.65
789.223	1766.82
789.556	1734.95
789.888	1722.75
790.221	1713.94
790.554	1727.95
790.887	1755.52
791.219	1717.55
791.552	1684.33
791.884	1695.41
792.217	1660.83
792.549	1693.6
792.882	1664.45
793.214	1691.34
793.546	1704.67
793.879	1645.69
794.211	1622.19
794.543	1641.62
794.875	1668.97
795.207	1678.68
795.539	1694.05
795.871	1651.11
796.203	1616.31
796.535	1610.89
796.867	1639.14
797.198	1607.27
797.53	1641.17
797.862	1593.04
798.193	1623.77
798.525	1613.15
798.856	1597.1
799.188	1616.77
799.519	1578.57
799.85	1610.21
800.182	1599.82
800.513	1604.79
800.844	1561.4
801.175	1579.93
801.506	1590.55
801.837	1547.84
802.168	1612.02
802.499	1560.27
802.83	1533.15
803.161	1541.06
803.491	1558.46
803.822	1586.94
804.153	1534.28
804.483	1517.33
804.814	1542.64
805.145	1538.58
805.475	1520.72
805.805	1527.73
806.136	1536.77
806.466	1506.26
806.796	1511.23
807.126	1514.17
807.457	1494.51
807.787	1483.44
808.117	1483.89
808.447	1489.76
808.777	1483.66
809.107	1505.58
809.436	1450.44
809.766	1483.44
810.096	1509.42
810.426	1469.88
810.755	1468.52
811.085	1461.29
811.414	1485.7
811.744	1482.08
812.073	1464
812.403	1443.89
812.732	1473.27
813.061	1457.67
813.39	1452.7
813.719	1427.84
814.049	1452.02
814.378	1458.58
814.707	1442.76
815.036	1430.33
815.365	1432.36
815.693	1408.64
816.022	1439.82
816.351	1391.69
816.68	1409.31
817.008	1441.18
817.337	1432.14
817.665	1390.78
817.994	1378.13
818.322	1415.41
818.651	1394.85
818.979	1408.41
819.307	1379.94
819.636	1409.09
819.964	1364.34
820.292	1383.55
820.62	1394.17
820.948	1381.97
821.276	1388.75
821.604	1401.18
821.932	1369.99
822.259	1391.23
822.587	1376.77
822.915	1371.57
823.243	1368.18
823.57	1352.82
823.898	1384.68
824.225	1396.21
824.553	1358.92
824.88	1366.38
825.207	1357.56
825.535	1374.51
825.862	1388.52
826.189	1388.97
826.516	1389.65
826.843	1409.54
827.17	1392.82
827.497	1389.43
827.824	1384.91
828.151	1382.2
828.478	1389.2
828.805	1387.39
829.131	1367.51
829.458	1362.08
829.785	1355.08
830.111	1358.47
830.438	1425.58
830.764	1370.9
831.09	1374.51
831.417	1346.94
831.743	1349.43
832.069	1366.15
832.395	1395.98
832.722	1377.45
833.048	1373.61
833.374	1396.88
833.7	1371.57
834.026	1359.82
834.351	1366.15
834.677	1362.08
835.003	1367.96
835.329	1389.65
835.654	1348.98
835.98	1332.71
836.306	1339.03
836.631	1376.77
836.956	1376.09
837.282	1329.32
837.607	1336.77
837.932	1351.91
838.258	1372.03
838.583	1346.49
838.908	1331.35
839.233	1337.22
839.558	1344.46
839.883	1325.25
840.208	1325.47
840.533	1333.38
840.858	1315.3
841.182	1337.22
841.507	1319.37
841.832	1330.22
842.156	1312.14
842.481	1285.47
842.805	1325.7
843.13	1348.75
843.454	1314.85
843.778	1330.45
844.103	1281.41
844.427	1281.18
844.751	1313.27
845.075	1289.77
845.399	1290.22
845.723	1317.79
846.047	1287.51
846.371	1269.66
846.695	1283.89
847.019	1314.17
847.343	1286.38
847.666	1266.27
847.99	1260.16
848.313	1271.92
848.637	1239.37
848.96	1271.46
849.284	1249.09
849.607	1280.96
849.931	1242.99
850.254	1259.71
850.577	1228.08
850.9	1235.98
851.223	1236.66
851.546	1221.52
851.869	1221.75
852.192	1255.42
852.515	1214.06
852.838	1229.88
853.161	1221.3
853.483	1205.7
853.806	1203.67
854.129	1186.95
854.451	1219.49
854.774	1188.3
855.096	1174.97
855.419	1177
855.741	1194.4
856.063	1180.17
856.385	1165.93
856.708	1177.91
857.03	1174.29
857.352	1201.18
857.674	1176.1
857.996	1177.68
858.318	1151.69
858.64	1139.26
858.961	1155.99
859.283	1144.69
859.605	1146.04
859.926	1177.45
860.248	1182.65
860.57	1152.82
860.891	1125.03
861.212	1155.76
861.534	1146.5
861.855	1142.65
862.176	1125.25
862.498	1101.98
862.819	1143.33
863.14	1118.93
863.461	1127.51
863.782	1104.01
864.103	1137.68
864.424	1110.11
864.745	1131.81
865.065	1102.2
865.386	1108.98
865.707	1132.94
866.027	1109.21
866.348	1099.49
866.668	1119.6
866.989	1114.86
867.309	1130.45
867.63	1108.76
867.95	1108.3
868.27	1108.53
868.59	1119.15
868.91	1100.17
869.23	1117.57
869.55	1101.75
869.87	1110.34
870.19	1115.54
870.51	1103.56
870.83	1099.26
871.15	1089.55
871.469	1113.5
871.789	1109.89
872.109	1103.11
872.428	1082.32
872.748	1108.08
873.067	1080.06
873.386	1088.42
873.706	1101.3
874.025	1079.6
874.344	1071.92
874.663	1063.56
874.982	1072.82
875.301	1053.39
875.62	1078.93
875.939	1066.72
876.258	1092.94
876.577	1065.59
876.896	1062.88
877.214	1055.65
877.533	1076.21
877.852	1053.84
878.17	1051.13
878.489	1053.16
878.807	1051.13
879.125	1090.68
879.444	1072.15
879.762	1075.31
880.08	1045.03
880.398	1042.09
880.716	1066.72
881.034	1045.03
881.352	1059.27
881.67	1060.17
881.988	1063.11
882.306	1075.31
882.624	1049.1
882.941	1041.19
883.259	1062.43
883.577	1041.64
883.894	1073.73
884.212	1056.1
884.529	1042.09
884.846	1040.06
885.164	1030.11
885.481	1039.15
885.798	1012.04
886.115	1032.15
886.432	1035.09
886.75	1017.23
887.067	1007.52
887.383	1028.53
887.7	1018.36
888.017	1011.58
888.334	1024.69
888.651	1010
888.967	991.7
889.284	1004.13
889.6	1013.62
889.917	1024.46
890.233	1008.65
890.55	983.79
890.866	1008.42
891.182	997.57
891.498	980.4
891.815	994.63
892.131	982.88
892.447	975.65
892.763	976.33
893.079	977.91
893.395	991.25
893.71	989.66
894.026	953.05
894.342	1005.03
894.657	982.88
894.973	995.31
895.289	987.4
895.604	1004.13
895.92	937.91
896.235	945.82
896.55	961.42
896.865	979.27
897.181	922.09
897.496	961.42
897.811	948.08
898.126	968.42
898.441	950.79
898.756	940.4
899.071	966.61
899.386	944.47
899.7	912.83
900.015	919.83
900.33	946.73
900.644	944.47
900.959	941.53
901.273	933.62
901.588	925.26
901.902	893.39
902.216	916.22
902.531	899.5
902.845	911.25
903.159	898.59
903.473	919.61
903.787	904.69
904.101	912.83
904.415	905.37
904.729	884.13
905.042	907.86
905.356	905.15
905.67	904.92
905.984	896.33
906.297	882.32
906.611	868.31
906.924	879.84
907.237	877.35
907.551	876.45
907.864	878.71
908.177	877.35
908.491	845.03
908.804	878.03
909.117	853.17
909.43	876.45
909.743	855.88
910.056	859.27
910.368	843.68
910.681	833.74
910.994	871.25
911.307	856.79
911.619	854.07
911.932	863.79
912.244	874.41
912.557	861.53
912.869	853.62
913.181	838.25
913.494	853.85
913.806	826.5
914.118	833.51
914.43	811.81
914.742	840.97
915.054	842.55
915.366	834.19
915.678	834.19
915.99	794.87
916.302	817.46
916.613	821.76
916.925	790.35
917.236	784.02
917.548	830.35
917.859	815.2
918.171	791.93
918.482	824.02
918.794	806.62
919.105	800.97
919.416	807.52
919.727	807.97
920.038	790.57
920.349	796
920.66	777.92
920.971	799.39
921.282	781.08
921.593	763.91
921.903	794.64
922.214	771.36
922.525	797.35
922.835	788.54
923.146	752.16
923.456	782.66
923.767	772.49
924.077	760.74
924.387	752.16
924.697	763.45
925.008	746.05
925.318	768.43
925.628	761.19
925.938	743.57
926.248	738.37
926.558	753.06
926.867	741.31
927.177	741.53
927.487	738.82
927.796	751.93
928.106	742.21
928.416	758.93
928.725	733.4
929.034	751.93
929.344	729.56
929.653	726.17
929.962	717.58
930.271	728.43
930.581	729.78
930.89	716.9
931.199	723.46
931.508	711.03
931.817	723
932.125	714.19
932.434	710.12
932.743	715.32
933.051	700.41
933.36	689.33
933.669	721.42
933.977	692.04
934.286	706.28
934.594	716.68
934.902	680.07
935.21	712.61
935.519	677.58
935.827	700.41
936.135	697.92
936.443	706.05
936.751	709.67
937.059	700.41
937.367	682.1
937.674	665.6
937.982	663.12
938.29	647.53
938.597	673.74
938.905	685.04
939.213	681.65
939.52	668.99
939.827	679.61
940.135	660.86
940.442	665.6
940.749	671.93
941.056	680.97
941.363	671.93
941.67	628.99
941.977	664.47
942.284	670.58
942.591	655.89
942.898	645.72
943.205	646.4
943.511	649.33
943.818	661.54
944.125	662.21
944.431	642.1
944.738	639.39
945.044	652.05
945.35	645.49
945.657	630.8
945.963	627.19
946.269	636.68
946.575	633.29
946.881	654.53
947.187	638.94
947.493	636
947.799	614.53
948.105	630.58
948.41	641.42
948.716	633.97
949.022	618.83
949.327	615.89
949.633	634.42
949.938	604.14
950.244	634.42
950.549	651.37
950.854	608.88
951.16	613.85
951.465	629.67
951.77	624.48
952.075	604.14
952.38	594.87
952.685	605.27
952.99	625.83
953.294	593.74
953.599	580.18
953.904	587.19
954.209	594.42
954.513	599.17
954.818	592.39
955.122	594.42
955.426	605.72
955.731	583.57
956.035	595.1
956.339	576.79
956.643	594.65
956.948	589
957.252	597.81
957.556	610.92
957.86	614.08
958.163	568.66
958.467	551.71
958.771	579.28
959.075	588.54
959.378	599.17
959.682	575.89
959.985	585.15
960.289	557.58
960.592	569.79
960.896	581.54
961.199	598.49
961.502	571.14
961.805	561.43
962.108	581.99
962.411	572.95
962.714	540.41
963.017	557.36
963.32	578.37
963.623	556.68
963.926	576.11
964.228	560.97
964.531	563.91
964.833	560.3
965.136	537.02
965.438	545.16
965.741	535.66
966.043	556.91
966.345	549.9
966.648	523.23
966.95	539.28
967.252	549.45
967.554	538.83
967.856	538.15
968.158	541.54
968.46	527.75
968.761	565.27
969.063	541.54
969.365	534.53
969.666	544.48
969.968	561.88
970.269	533.4
970.571	524.14
970.872	521.43
971.174	540.64
971.475	520.3
971.776	550.58
972.077	519.17
972.378	507.87
972.679	532.05
972.98	514.2
973.281	527.75
973.582	509
973.883	501.77
974.183	520.98
974.484	514.2
974.785	522.33
975.085	520.07
975.386	509.45
975.686	485.95
975.986	529.34
976.287	513.07
976.587	516.23
976.887	503.35
977.187	521.2
977.487	504.7
977.787	499.51
978.087	519.17
978.387	512.84
978.687	489.34
978.987	507.42
979.286	511.26
979.586	514.87
979.885	493.63
980.185	502.67
980.484	497.02
980.784	489.56
981.083	489.34
981.382	508.32
981.682	484.59
981.981	491.6
982.28	501.09
982.579	474.87
982.878	514.42
983.177	483.24
983.475	478.94
983.774	494.08
984.073	489.79
984.372	485.72
984.67	459.06
984.969	483.24
985.267	484.37
985.566	471.03
985.864	467.19
986.162	477.59
986.461	492.95
986.759	484.14
987.057	522.78
987.355	463.35
987.653	496.57
987.951	493.63
988.249	475.1
988.547	485.5
988.844	468.77
989.142	471.71
989.44	480.3
989.737	475.78
990.035	448.43
990.332	476
990.63	477.13
990.927	474.2
991.224	466.29
991.521	452.28
991.819	472.84
992.116	458.15
992.413	460.41
992.71	469.22
993.006	460.41
993.303	469
993.6	460.19
993.897	470.81
994.193	468.1
994.49	464.03
994.787	456.12
995.083	444.14
995.379	472.39
995.676	471.71
995.972	446.85
996.268	457.7
996.565	424.25
996.861	451.82
997.157	442.56
997.453	465.16
997.749	452.73
998.044	477.81
998.34	447.98
998.636	455.21
998.932	438.49
999.227	436.68
999.523	432.62
999.818	438.04
1000.114	439.4
1000.409	478.72
1000.704	445.27
1001	412.5
1001.295	442.33
1001.59	446.63
1001.885	445.95
1002.18	425.61
1002.475	447.98
1002.77	447.3
1003.065	456.12
1003.359	433.97
1003.654	435.55
1003.949	415.67
1004.243	446.63
1004.538	425.38
1004.832	443.01
1005.127	429.68
1005.421	425.38
1005.715	437.59
1006.009	442.56
1006.304	433.97
1006.598	412.73
1006.892	456.12
1007.186	425.38
1007.48	408.44
1007.773	418.83
1008.067	430.36
1008.361	406.4
1008.655	406.85
1008.948	420.86
1009.242	414.99
1009.535	431.94
1009.829	406.4
1010.122	423.58
1010.415	408.44
1010.708	406.85
1011.001	429.68
1011.295	421.54
1011.588	414.76
1011.881	406.4
1012.173	408.66
1012.466	413.86
1012.759	406.85
1013.052	427.64
1013.344	400.98
1013.637	393.29
1013.93	432.39
1014.222	412.5
1014.514	395.1
1014.807	407.98
1015.099	398.49
1015.391	420.41
1015.683	397.36
1015.976	388.55
1016.268	410.02
1016.56	395.1
1016.851	401.43
1017.143	385.16
1017.435	392.62
1017.727	386.97
1018.018	401.66
1018.31	380.41
1018.602	408.89
1018.893	393.29
1019.185	385.61
1019.476	395.55
1019.767	398.04
1020.058	393.75
1020.35	413.41
1020.641	380.87
1020.932	373.86
1021.223	400.98
1021.514	384.26
1021.804	397.81
1022.095	377.25
1022.386	400.53
1022.677	381.09
1022.967	386.06
1023.258	383.58
1023.548	389.23
1023.839	378.15
1024.129	384.71
1024.419	386.74
1024.709	386.97
1025	374.54
1025.29	380.41
1025.58	383.13
1025.87	395.78
1026.16	356.91
1026.449	390.13
1026.739	382.22
1027.029	379.28
1027.319	382.45
1027.608	367.31
1027.898	368.66
1028.187	373.86
1028.477	370.92
1028.766	390.58
1029.055	378.38
1029.344	399.4
1029.634	375.44
1029.923	353.52
1030.212	368.66
1030.501	355.1
1030.79	380.87
1031.078	366.4
1031.367	372.73
1031.656	386.97
1031.945	374.09
1032.233	383.8
1032.522	373.86
1032.81	361.88
1033.099	374.31
1033.387	372.73
1033.675	366.18
1033.963	375.67
1034.251	372.28
1034.54	368.44
1034.828	367.98
1035.116	376.35
1035.403	351.71
1035.691	353.97
1035.979	366.85
1036.267	359.4
1036.554	346.74
1036.842	365.27
1037.129	335.22
1037.417	376.12
1037.704	359.4
1037.992	335.22
1038.279	372.96
1038.566	361.88
1038.853	361.88
1039.14	361.88
