Data from foam1_polythene_foam_FLMS001491_00046.txt Node
Date: Wed Feb 08 10:54:53 GMT 2017
User: dcchb
Spectrometer: FLMS00149
Trigger mode: 0
Integration Time (sec): 2.000000E-2
Scans to average: 10
Electric dark correction enabled: true
Nonlinearity correction enabled: false
Boxcar width: 0
XAxis mode: Wavelengths
Number of Pixels in Spectrum: 2048
>>>>>Begin Spectral Data<<<<<
341.393	-7.09
341.776	-7.09
342.16	-7.09
342.543	-61.55
342.927	-70.59
343.31	-85.96
343.693	-84.38
344.077	-76.69
344.46	-54.09
344.843	-48.45
345.226	-44.83
345.61	-13.87
345.993	-18.39
346.376	2.85
346.759	5.34
347.142	25.68
347.525	58.67
347.908	66.58
348.291	79.01
348.674	80.82
349.057	107.71
349.44	110.19
349.823	131.89
350.206	154.94
350.588	166.69
350.971	199.46
351.354	184.77
351.737	218.67
352.119	228.84
352.502	250.98
352.884	250.98
353.267	246.91
353.65	259.12
354.032	298.66
354.414	290.76
354.797	301.6
355.179	304.31
355.562	304.31
355.944	312.9
356.326	298.89
356.709	309.96
357.091	291.88
357.473	312.22
357.855	313.13
358.238	313.58
358.62	315.61
359.002	322.62
359.384	311.09
359.766	314.03
360.148	295.95
360.53	325.78
360.912	309.74
361.294	308.38
361.676	310.42
362.057	312.68
362.439	320.13
362.821	323.52
363.203	323.97
363.584	316.52
363.966	283.3
364.348	310.42
364.729	290.08
365.111	320.13
365.493	323.3
365.874	315.16
366.256	281.49
366.637	285.56
367.019	286.69
367.4	304.09
367.781	293.92
368.163	275.39
368.544	291.43
368.925	302.96
369.306	297.08
369.688	279.91
370.069	307.25
370.45	282.17
370.831	300.47
371.212	290.53
371.593	299.12
371.974	311.77
372.355	289.17
372.736	293.69
373.117	311.09
373.498	319.68
373.879	285.33
374.26	282.62
374.641	301.15
375.021	304.77
375.402	314.03
375.783	313.58
376.163	316.52
376.544	315.39
376.925	304.99
377.305	332.56
377.686	315.84
378.066	312
378.447	303.86
378.827	321.71
379.208	307.48
379.588	315.39
379.968	318.32
380.349	309.96
380.729	326.69
381.109	329.4
381.489	302.05
381.87	322.84
382.25	326.46
382.63	334.37
383.01	324.88
383.39	337.99
383.77	328.72
384.15	320.58
384.53	314.03
384.91	341.15
385.29	335.27
385.67	329.62
386.049	342.96
386.429	319.68
386.809	335.95
387.189	337.99
387.568	337.53
387.948	321.04
388.328	353.13
388.707	349.06
389.087	347.93
389.466	355.84
389.846	370.75
390.225	352.22
390.605	356.74
390.984	365.78
391.363	356.29
391.743	359
392.122	366.69
392.501	352.22
392.881	380.02
393.26	357.65
393.639	359
394.018	372.56
394.397	361.49
394.776	369.4
395.155	369.17
395.534	387.25
395.913	388.38
396.292	391.32
396.671	359.45
397.05	398.32
397.429	381.15
397.808	400.81
398.186	381.37
398.565	388.38
398.944	401.26
399.323	388.15
399.701	384.09
400.08	378.66
400.458	416.18
400.837	404.42
401.215	384.31
401.594	403.97
401.972	414.82
402.351	403.29
402.729	395.61
403.107	397.64
403.486	415.05
403.864	425.21
404.242	424.76
404.62	418.89
404.999	410.07
405.377	427.93
405.755	433.58
406.133	419.57
406.511	421.37
406.889	425.67
407.267	443.29
407.645	448.72
408.023	439
408.401	455.04
408.779	459.56
409.156	444.2
409.534	471.09
409.912	464.08
410.29	472.22
410.667	461.82
411.045	471.99
411.422	478.09
411.8	475.38
412.178	477.87
412.555	493.46
412.933	489.62
413.31	507.25
413.687	507.02
414.065	488.72
414.442	490.75
414.819	523.52
415.197	519.9
415.574	514.48
415.951	514.93
416.328	542.5
416.705	531.88
417.082	538.66
417.46	528.94
417.837	525.33
418.214	549.05
418.591	537.3
418.967	547.92
419.344	553.8
419.721	555.83
420.098	544.53
420.475	560.8
420.852	565.78
421.228	589.96
421.605	581.59
421.982	591.09
422.358	596.96
422.735	596.28
423.111	594.48
423.488	601.03
423.864	595.83
424.241	622.72
424.617	620.01
424.994	612.55
425.37	639.67
425.746	594.7
426.123	629.73
426.499	623.63
426.875	642.84
427.251	660.24
427.627	643.74
428.003	669.73
428.379	682.16
428.756	662.72
429.132	677.41
429.507	690.29
429.883	688.26
430.259	681.03
430.635	719.67
431.011	730.52
431.387	722.83
431.763	717.18
432.138	747.92
432.514	749.95
432.89	761.48
433.265	735.72
433.641	759.9
434.016	780.01
434.392	793.57
434.767	780.69
435.143	782.95
435.518	796.96
435.894	797.86
436.269	846.22
436.644	824.53
437.02	846.9
437.395	856.39
437.77	869.5
438.145	872.43
438.52	879.44
438.895	895.26
439.271	890.06
439.646	914.02
440.021	903.17
440.395	904.98
440.77	913.79
441.145	904.75
441.52	954.01
441.895	930.96
442.27	978.87
442.645	984.75
443.019	964.41
443.394	966.9
443.769	984.07
444.143	960.79
444.518	1006.44
444.892	994.24
445.267	1011.64
445.641	1024.75
446.016	1021.58
446.39	1037.4
446.764	1035.37
447.139	1048.02
447.513	1069.27
447.887	1091.19
448.262	1070.85
448.636	1090.06
449.01	1080.79
449.384	1085.76
449.758	1110.62
450.132	1107.68
450.506	1120.79
450.88	1144.29
451.254	1127.57
451.628	1164.4
452.002	1167.12
452.376	1165.08
452.75	1149.94
453.123	1208.25
453.497	1227.23
453.871	1240.33
454.244	1216.38
454.618	1261.8
454.992	1249.83
455.365	1255.25
455.739	1273.33
456.112	1310.84
456.486	1303.61
456.859	1283.95
457.232	1330.5
457.606	1315.59
457.979	1352.87
458.352	1360.56
458.725	1396.26
459.099	1370.05
459.472	1398.75
459.845	1405.75
460.218	1432.42
460.591	1452.98
460.964	1446.66
461.337	1441.23
461.71	1473.1
462.083	1490.95
462.456	1493.21
462.829	1496.15
463.201	1516.26
463.574	1544.73
463.947	1558.52
464.32	1593.55
464.692	1608.01
465.065	1604.62
465.438	1648.01
465.81	1626.77
466.183	1659.31
466.555	1688.68
466.928	1684.62
467.3	1671.74
467.672	1731.17
468.045	1760.32
468.417	1738.17
468.789	1768.91
469.161	1774.11
469.534	1818.4
469.906	1861.79
470.278	1840.77
470.65	1856.14
471.022	1894.55
471.394	1929.36
471.766	1974.1
472.138	1992.63
472.51	2015.23
472.882	2039.18
473.253	2029.69
473.625	2108.56
473.997	2108.56
474.369	2147.2
474.74	2149.01
475.112	2196.92
475.484	2259.06
475.855	2266.52
476.227	2297.48
476.598	2326.63
476.97	2337.25
477.341	2377.48
477.713	2422.22
478.084	2455.67
478.455	2487.31
478.827	2504.48
479.198	2576.8
479.569	2579.73
479.94	2644.82
480.311	2676.46
480.682	2730.69
481.053	2798.94
481.424	2861.31
481.795	2871.03
482.166	2893.17
482.537	2960.29
482.908	3005.71
483.279	3032.38
483.65	3078.48
484.021	3118.48
484.391	3220.4
484.762	3157.57
485.133	3231.24
485.503	3295.2
485.874	3334.74
486.244	3360.73
486.615	3455.19
486.985	3475.98
487.356	3547.84
487.726	3557.56
488.097	3678.24
488.467	3666.03
488.837	3673.49
489.207	3781.06
489.578	3808.18
489.948	3879.36
490.318	3911.45
490.688	3932.92
491.058	3996.19
491.428	4028.28
491.798	4097.21
492.168	4149.18
492.538	4146.7
492.908	4229.86
493.278	4268.05
493.648	4288.39
494.017	4365
494.387	4414.94
494.757	4421.95
495.126	4506.24
495.496	4494.71
495.866	4534.26
496.235	4563.19
496.605	4659
496.974	4628.72
497.344	4718.66
497.713	4750.75
498.082	4751.2
498.452	4818.09
498.821	4865.78
499.19	4808.15
499.559	4937.86
499.928	4971.76
500.298	4936.06
500.667	5055.6
501.036	5064.41
501.405	5068.71
501.774	5152.1
502.143	5197.52
502.512	5180.8
502.88	5243.85
503.249	5248.82
503.618	5275.93
503.987	5343.73
504.356	5396.38
504.724	5402.49
505.093	5456.95
505.462	5460.11
505.83	5494.01
506.199	5504.86
506.567	5631.86
506.936	5628.92
507.304	5687.45
507.672	5684.29
508.041	5733.78
508.409	5794.57
508.777	5842.25
509.145	5940.1
509.514	5919.08
509.882	5925.86
510.25	6003.15
510.618	6046.31
510.986	6087.44
511.354	6072.3
511.722	6224.16
512.09	6280.43
512.458	6212.86
512.826	6265.06
513.193	6305.51
513.561	6336.47
513.929	6416.24
514.297	6461.67
514.664	6486.98
515.032	6563.58
515.4	6626.18
515.767	6652.4
516.135	6698.5
516.502	6686.75
516.869	6798.61
517.237	6810.36
517.604	6837.93
517.972	6967.42
518.339	7011.93
518.706	7031.37
519.073	7054.42
519.44	7097.13
519.808	7215.32
520.175	7185.26
520.542	7316.33
520.909	7384.81
521.276	7337.35
521.643	7478.81
522.009	7532.15
522.376	7535.76
522.743	7587.96
523.11	7716.77
523.477	7747.51
523.843	7811.69
524.21	7858.47
524.577	7889.43
524.943	7942.08
525.31	8059.14
525.676	8135.07
526.043	8177.55
526.409	8263.2
526.776	8306.59
527.142	8326.25
527.508	8410.77
527.874	8465.23
528.241	8547.26
528.607	8553.81
528.973	8596.3
529.339	8625
529.705	8784.99
530.071	8786.58
530.437	8888.27
530.803	8885.33
531.169	8976.63
531.535	8945.89
531.901	8984.99
532.267	9086.91
532.632	9140.92
532.998	9128.49
533.364	9144.53
533.73	9258.2
534.095	9300.46
534.461	9370.29
534.826	9422.27
535.192	9428.37
535.557	9497.74
535.923	9501.59
536.288	9566.67
536.653	9613.9
537.019	9645.31
537.384	9674.69
537.749	9772.09
538.114	9765.08
538.479	9815.93
538.845	9842.37
539.21	9870.16
539.575	9852.99
539.94	9849.83
540.305	9936.38
540.67	9939.31
541.034	9998.07
541.399	10050.5
541.764	10064.96
542.129	10065.41
542.494	10180.66
542.858	10137.95
543.223	10189.93
543.587	10250.95
543.952	10267.89
544.316	10335.46
544.681	10411.39
545.045	10407.33
545.41	10433.99
545.774	10476.93
546.138	10497.27
546.503	10518.28
546.867	10578.85
547.231	10649.35
547.595	10657.26
547.959	10793.53
548.324	10707.2
548.688	10653.65
549.052	10815.45
549.416	10825.62
549.779	10827.2
550.143	10873.75
550.507	10947.88
550.871	10974.77
551.235	11003.24
551.599	11183.58
551.962	11098.15
552.326	11143.13
552.689	11192.39
553.053	11118.94
553.417	11162.11
553.78	11367.75
554.143	11309.45
554.507	11406.85
554.87	11449.78
555.234	11466.96
555.597	11437.13
555.96	11557.58
556.323	11615.88
556.686	11559.84
557.05	11705.6
557.413	11741.98
557.776	11762.77
558.139	11825.14
558.502	11862.88
558.865	11951.92
559.228	12034.18
559.59	12015.19
559.953	12094.06
560.316	12190.1
560.679	12226.71
561.041	12342.19
561.404	12349.87
561.767	12389.19
562.129	12350.55
562.492	12535.86
562.854	12461.73
563.217	12476.65
563.579	12578.12
563.941	12769.52
564.304	12735.17
564.666	12805.68
565.028	12851.33
565.39	12904.89
565.753	12840.71
566.115	12916.41
566.477	13047.48
566.839	13027.6
567.201	13190.75
567.563	13200.92
567.925	13249.51
568.287	13210.87
568.648	13337.42
569.01	13374.03
569.372	13478.66
569.734	13391.43
570.095	13583.51
570.457	13566.34
570.819	13582.61
571.18	13606.34
571.542	13711.42
571.903	13739.22
572.265	13796.16
572.626	13865.54
572.987	13903.73
573.349	13837.52
573.71	13990.28
574.071	14014.01
574.432	14008.81
574.794	14100.11
575.155	14082.71
575.516	14061.24
575.877	14150.05
576.238	14237.06
576.599	14299.65
576.96	14239.77
577.32	14307.56
577.681	14329.71
578.042	14247.9
578.403	14327.67
578.763	14312.76
579.124	14314.34
579.485	14412.64
579.845	14489.7
580.206	14432.08
580.566	14442.47
580.927	14423.04
581.287	14505.97
581.648	14467.33
582.008	14596.59
582.368	14532.41
582.728	14634.56
583.089	14462.81
583.449	14567.22
583.809	14527.22
584.169	14651.51
584.529	14608.57
584.889	14722.47
585.249	14558.63
585.609	14545.75
585.969	14760.66
586.329	14664.16
586.688	14627.1
587.048	14721.34
587.408	14620.55
587.768	14628.46
588.127	14651.06
588.487	14519.76
588.846	14716.59
589.206	14554.33
589.565	14585.75
589.925	14783.71
590.284	14625.75
590.643	14680.66
591.003	14716.82
591.362	14681.11
591.721	14665.52
592.08	14676.82
592.44	14760.88
592.799	14698.74
593.158	14793.88
593.517	14748.45
593.876	14780.77
594.235	14746.42
594.593	14705.52
594.952	14832.52
595.311	14712.07
595.67	14776.48
596.029	14886.53
596.387	14911.16
596.746	14943.25
597.104	14903.93
597.463	14811.28
597.822	14887.43
598.18	14802.69
598.538	14759.3
598.897	14916.59
599.255	14789.36
599.613	15084.94
599.972	14963.36
600.33	14999.52
600.688	14861.22
601.046	14928.34
601.404	14989.13
601.762	14958.84
602.12	14949.58
602.478	15019.63
602.836	15084.94
603.194	14959.97
603.552	15007.88
603.91	14998.16
604.268	14962.46
604.625	15001.1
604.983	14993.65
605.341	15002.46
605.698	15115.22
606.056	15127.65
606.413	15183.7
606.771	15249.01
607.128	15220.53
607.485	15143.7
607.843	15119.29
608.2	15223.92
608.557	15220.31
608.914	15166.3
609.272	15249.23
609.629	15304.82
609.986	15354.99
610.343	15387.76
610.7	15438.15
611.057	15391.15
611.414	15451.71
611.771	15337.37
612.127	15420.75
612.484	15444.03
612.841	15409.68
613.198	15366.06
613.554	15479.51
613.911	15609.22
614.267	15540.75
614.624	15491.03
614.98	15531.48
615.337	15572.61
615.693	15562.44
616.05	15620.97
616.406	15622.78
616.762	15562.44
617.118	15595.89
617.475	15571.94
617.831	15670.69
618.187	15735.32
618.543	15651.03
618.899	15745.49
619.255	15694.64
619.611	15650.13
619.967	15648.09
620.323	15782.1
620.678	15765.38
621.034	15706.17
621.39	15738.03
621.746	15710.01
622.101	15854.64
622.457	15702.78
622.812	15733.29
623.168	15760.18
623.523	15767.64
623.879	15800.63
624.234	15660.97
624.589	15730.12
624.945	15783.68
625.3	15793.17
625.655	15626.4
626.01	15764.25
626.365	15747.75
626.72	15627.3
627.075	15641.54
627.43	15773.51
627.785	15620.52
628.14	15733.06
628.495	15734.64
628.85	15805.83
629.205	15648.54
629.559	15706.85
629.914	15707.3
630.269	15700.75
630.623	15623.23
630.978	15641.99
631.332	15685.6
631.687	15703.91
632.041	15675.66
632.396	15600.41
632.75	15543.69
633.104	15564.93
633.459	15573.97
633.813	15552.5
634.167	15505.27
634.521	15413.75
634.875	15462.33
635.229	15538.49
635.583	15316.12
635.937	15263.02
636.291	15293.52
636.645	15430.02
636.999	15273.64
637.352	15491.71
637.706	15253.3
638.06	15369.23
638.413	15309.34
638.767	15190.7
639.121	15282
639.474	15246.29
639.828	15159.06
640.181	15296.91
640.534	15206.52
640.888	15090.59
641.241	15054.21
641.594	15127.43
641.947	15129.91
642.301	15078.61
642.654	15104.83
643.007	15164.94
643.36	15086.98
643.713	15038.16
644.066	15081.1
644.419	15065.73
644.771	14993.19
645.124	14893.76
645.477	14939.18
645.83	14764.95
646.182	14589.14
646.535	14482.47
646.888	14548.23
647.24	14439.08
647.593	14456.48
647.945	14370.16
648.298	14315.02
648.65	14262.37
649.002	14271.18
649.355	14359.31
649.707	14353.44
650.059	14454.68
650.411	14511.17
650.763	14648.34
651.115	14660.55
651.467	14608.12
651.819	14635.24
652.171	14622.36
652.523	14693.54
652.875	14524.96
653.227	14540.55
653.578	14693.31
653.93	14674.33
654.282	14528.57
654.633	14446.32
654.985	14520.21
655.337	14489.25
655.688	14472.76
656.039	14577.84
656.391	14422.81
656.742	14466.88
657.094	14498.52
657.445	14530.83
657.796	14456.03
658.147	14428.01
658.498	14427.78
658.849	14485.64
659.2	14407.9
659.551	14321.8
659.902	14458.52
660.253	14423.49
660.604	14349.37
660.955	14273.44
661.306	14397.5
661.656	14347.33
662.007	14300.78
662.358	14267.79
662.708	14218.75
663.059	14299.2
663.409	14211.29
663.76	14317.96
664.11	14283.83
664.461	14296.94
664.811	14251.07
665.161	14279.31
665.511	14160.45
665.862	14287
666.212	14283.83
666.562	14258.3
666.912	14156.15
667.262	14299.43
667.612	14180.79
667.962	14256.94
668.312	14184.85
668.662	14243.38
669.011	14211.29
669.361	14152.54
669.711	14155.25
670.06	14192.08
670.41	14192.76
670.76	14132.65
671.109	14135.59
671.459	14208.58
671.808	14138.3
672.157	14172.42
672.507	14069.6
672.856	13989.6
673.205	14057.85
673.554	14060.34
673.904	14011.3
674.253	14063.05
674.602	14055.36
674.951	13816.73
675.3	13810.85
675.649	14006.78
675.998	14020.11
676.346	14062.6
676.695	14027.57
677.044	13962.71
677.393	13980.56
677.741	14012.43
678.09	13948.48
678.438	13905.09
678.787	13937.18
679.135	13905.09
679.484	13779.21
679.832	13909.83
680.181	13809.95
680.529	13914.13
680.877	13782.38
681.225	13784.19
681.573	13854.01
681.922	13803.17
682.27	13656.96
682.618	13753
682.966	13662.38
683.314	13678.88
683.661	13669.61
684.009	13563.85
684.357	13532.67
684.705	13544.87
685.053	13576.28
685.4	13564.53
685.748	13510.75
686.095	13458.54
686.443	13432.56
686.79	13404.76
687.138	13409.05
687.485	13469.62
687.832	13330.86
688.18	13418.09
688.527	13270.07
688.874	13270.98
689.221	13244.31
689.568	13164.31
689.915	13158.21
690.262	13212.45
690.609	13189.85
690.956	13119.8
691.303	13061.04
691.65	12943.76
691.997	13052.91
692.344	12963.19
692.69	12893.81
693.037	12894.27
693.383	12829.63
693.73	12854.49
694.077	12768.39
694.423	12806.13
694.769	12707.15
695.116	12639.13
695.462	12652.01
695.808	12676.64
696.155	12609.08
696.501	12543.09
696.847	12510.09
697.193	12464.67
697.539	12563.43
697.885	12454.95
698.231	12482.07
698.577	12418.12
698.923	12419.93
699.269	12295.41
699.614	12311.91
699.96	12227.62
700.306	12224
700.651	12211.57
700.997	12222.64
701.342	12189.88
701.688	12144.91
702.033	12067.39
702.379	12078.24
702.724	12043.44
703.069	12024.91
703.415	11822.66
703.76	11900.39
704.105	11940.39
704.45	11882.31
704.795	11836.67
705.14	11807.51
705.485	11817.46
705.83	11706.05
706.175	11721.87
706.52	11752.6
706.865	11599.16
707.209	11608.65
707.554	11556.9
707.899	11621.3
708.243	11460.86
708.588	11483.46
708.932	11436.22
709.277	11512.15
709.621	11414.08
709.966	11411.14
710.31	11358.94
710.654	11302.67
710.998	11321.43
711.342	11390.58
711.687	11261.09
712.031	11176.57
712.375	11275.55
712.719	11305.83
713.063	11193.07
713.407	11206.85
713.75	11153.75
714.094	11164.14
714.438	11151.03
714.782	11107.65
715.125	11037.82
715.469	11117.82
715.812	11021.09
716.156	10962.56
716.499	11003.69
716.843	10966.18
717.186	10859.06
717.53	10986.07
717.873	10981.77
718.216	10992.85
718.559	10878.95
718.902	10801.89
719.246	10803.25
719.589	10789.01
719.932	10737.94
720.275	10673.08
720.617	10792.17
720.96	10647.77
721.303	10705.4
721.646	10693.87
721.989	10565.29
722.331	10612.07
722.674	10634.89
723.016	10575.23
723.359	10663.36
723.701	10566.19
724.044	10473.54
724.386	10455.01
724.729	10512.18
725.071	10529.36
725.413	10489.81
725.755	10442.13
726.097	10448
726.439	10455.69
726.782	10361.45
727.124	10399.19
727.465	10356.03
727.807	10322.81
728.149	10266.76
728.491	10337.04
728.833	10310.38
729.175	10277.39
729.516	10240.32
729.858	10287.78
730.199	10227.67
730.541	10228.35
730.882	10266.54
731.224	10242.81
731.565	10137.5
731.906	10208.01
732.248	10280.1
732.589	10198.29
732.93	10096.37
733.271	10066.09
733.612	10096.37
733.953	10112.42
734.294	10094.79
734.635	10015.92
734.976	10083.94
735.317	9978.18
735.658	10038.52
735.999	9995.13
736.339	9972.31
736.68	9975.47
737.021	9938.64
737.361	9865.42
737.702	9944.96
738.042	9870.62
738.383	9838.3
738.723	9918.52
739.063	9935.93
739.404	9825.87
739.744	9774.8
740.084	9817.28
740.424	9807.57
740.764	9745.87
741.104	9821.35
741.444	9736.38
741.784	9701.58
742.124	9794.46
742.464	9719.43
742.804	9677.85
743.143	9665.2
743.483	9631.07
743.823	9562.15
744.162	9623.39
744.502	9555.37
744.841	9545.65
745.181	9578.65
745.52	9531.19
745.86	9577.97
746.199	9551.08
746.538	9514.47
746.877	9553.34
747.216	9529.16
747.556	9547.91
747.895	9499.55
748.234	9476.28
748.573	9422.94
748.911	9500.46
749.25	9484.41
749.589	9426.33
749.928	9453.45
750.267	9438.99
750.605	9401.7
750.944	9375.71
751.283	9356.51
751.621	9350.4
751.96	9304.76
752.298	9232.89
752.636	9348.37
752.975	9276.28
753.313	9255.94
753.651	9260.69
753.989	9218.66
754.327	9189.96
754.666	9124.42
755.004	9169.84
755.342	9163.06
755.679	9136.85
756.017	9045.33
756.355	9079
756.693	9010.3
757.031	8996.97
757.368	8912.22
757.706	8973.92
758.044	8915.16
758.381	8908.16
758.719	8895.73
759.056	8874.94
759.394	8818.67
759.731	8799.46
760.068	8750.65
760.405	8740.02
760.743	8707.93
761.08	8733.7
761.417	8582.06
761.754	8603.53
762.091	8540.03
762.428	8611.67
762.765	8535.06
763.102	8572.12
763.438	8526.02
763.775	8511.33
764.112	8523.08
764.449	8507.26
764.785	8509.52
765.122	8407.6
765.458	8434.04
765.795	8331
766.131	8364.89
766.467	8335.06
766.804	8317.89
767.14	8321.05
767.476	8287.15
767.812	8229.76
768.148	8262.52
768.485	8190.21
768.821	8171.23
769.157	8179.59
769.492	8125.58
769.828	8060.04
770.164	8085.35
770.5	8048.07
770.836	8072.7
771.171	7993.15
771.507	8002.64
771.842	7883.78
772.178	7940.05
772.513	7869.76
772.849	7858.69
773.184	7866.83
773.519	7812.37
773.855	7717.23
774.19	7708.19
774.525	7625.48
774.86	7667.06
775.195	7687.85
775.53	7693.05
775.865	7543.9
776.2	7558.81
776.535	7475.2
776.87	7483.11
777.205	7466.39
777.539	7385.71
777.874	7466.16
778.209	7336.67
778.543	7273.4
778.878	7239.27
779.212	7308.2
779.547	7222.55
779.881	7284.7
780.215	7153.4
780.55	7227.3
780.884	7112.95
781.218	7144.13
781.552	7122.89
781.886	7068.88
782.22	7121.99
782.554	7037.47
782.888	7000.64
783.222	7044.93
783.556	6958.15
783.889	6924.93
784.223	6874.99
784.557	6880.86
784.89	6889.23
785.224	6802.22
785.557	6870.24
785.891	6806.74
786.224	6769.45
786.558	6792.96
786.891	6738.5
787.224	6727.65
787.557	6716.35
787.891	6691.94
788.224	6644.71
788.557	6663.47
788.89	6676.8
789.223	6631.83
789.556	6550.7
789.888	6558.39
790.221	6514.55
790.554	6524.72
790.887	6508.9
791.219	6465.51
791.552	6416.47
791.884	6488.78
792.217	6407.43
792.549	6373.98
792.882	6364.72
793.214	6249.92
793.546	6312.29
793.879	6272.29
794.211	6279.98
794.543	6271.61
794.875	6253.08
795.207	6242.01
795.539	6207.44
795.871	6181.9
796.203	6217.38
796.535	6136.48
796.867	6098.96
797.198	6105.07
797.53	6117.95
797.862	6041.11
798.193	6042.92
798.525	6061.9
798.856	6021.68
799.188	5936.71
799.519	5869.37
799.85	5908.46
800.182	5943.94
800.513	5955.24
800.844	5947.56
801.175	5874.34
801.506	5872.08
801.837	5869.14
802.168	5856.71
802.499	5785.53
802.83	5773.32
803.161	5722.48
803.491	5721.57
803.822	5773.32
804.153	5706.21
804.483	5664.17
804.814	5633.67
805.145	5624.17
805.475	5640.22
805.805	5618.3
806.136	5632.31
806.466	5626.43
806.796	5592.08
807.126	5571.07
807.457	5533.78
807.787	5561.35
808.117	5557.96
808.447	5526.1
808.777	5533.33
809.107	5484.74
809.436	5474.57
809.766	5455.82
810.096	5469.6
810.426	5399.1
810.755	5408.36
811.085	5405.42
811.414	5369.27
811.744	5392.77
812.073	5371.98
812.403	5334.69
812.732	5339.89
813.061	5376.5
813.39	5343.05
813.719	5305.76
814.049	5347.12
814.378	5302.6
814.707	5317.29
815.036	5277.06
815.365	5256.27
815.693	5191.64
816.022	5179.44
816.351	5211.53
816.68	5157.75
817.008	5157.52
817.337	5129.95
817.665	5122.49
817.994	5141.02
818.322	5155.49
818.651	5069.16
818.979	5129.5
819.307	5095.83
819.636	5104.19
819.964	5052.44
820.292	5070.97
820.62	5115.94
820.948	5050.4
821.276	5123.4
821.604	5106
821.932	5103.74
822.259	5022.16
822.587	5009.73
822.915	5028.03
823.243	4984.64
823.57	5052.89
823.898	5047.01
824.225	4999.33
824.553	4980.8
824.88	5057.41
825.207	5018.77
825.535	4976.28
825.862	5047.92
826.189	4989.84
826.516	5009.05
826.843	5042.72
827.17	5089.27
827.497	5004.08
827.824	5033
828.151	5061.25
828.478	5051.08
828.805	5026.68
829.131	5031.2
829.458	5014.02
829.785	4985.55
830.111	5025.09
830.438	5080.01
830.764	5001.59
831.09	5028.48
831.417	5026.45
831.743	4998.88
832.069	5006.34
832.395	5042.49
832.722	5004.08
833.048	5023.06
833.374	4994.59
833.7	4970.41
834.026	4996.62
834.351	5040.69
834.677	5001.37
835.003	4972.67
835.329	5007.69
835.654	4953.46
835.98	4995.04
836.306	4946.45
836.631	4928.6
836.956	4963.4
837.282	4984.42
837.607	4950.75
837.932	4948.26
838.258	4978.99
838.583	4876.4
838.908	4904.19
839.233	4930.86
839.558	4886.34
839.883	4882.72
840.208	4866.68
840.533	4821.03
840.858	4866.45
841.182	4849.73
841.507	4814.7
841.832	4790.07
842.156	4810.18
842.481	4808.38
842.805	4792.56
843.13	4779.22
843.454	4734.93
843.778	4751.88
844.103	4770.41
844.427	4680.92
844.751	4752.78
845.075	4727.25
845.399	4695.84
845.723	4679.34
846.047	4658.1
846.371	4609.74
846.695	4608.16
847.019	4595.27
847.343	4594.14
847.666	4562.28
847.99	4537.65
848.313	4521.15
848.637	4560.25
848.96	4487.03
849.284	4505.79
849.607	4448.61
849.931	4455.62
850.254	4442.96
850.577	4365.22
850.9	4368.61
851.223	4365.68
851.546	4336.75
851.869	4304.89
852.192	4332.68
852.515	4301.72
852.838	4273.02
853.161	4294.49
853.483	4265.79
853.806	4264.44
854.129	4268.28
854.451	4281.16
854.774	4245.91
855.096	4223.76
855.419	4200.71
855.741	4208.84
856.063	4146.25
856.385	4156.64
856.708	4111.9
857.03	4114.84
857.352	4125.46
857.674	4114.38
857.996	4074.61
858.318	4078.45
858.64	4052.24
858.961	4032.8
859.283	4056.76
859.605	4056.98
859.926	4001.39
860.248	4027.15
860.57	4012.24
860.891	4016.53
861.212	4012.92
861.534	3969.08
861.855	3952.35
862.176	4017.66
862.498	4016.98
862.819	4003.88
863.14	4001.39
863.461	3949.87
863.782	3938.12
864.103	3989.64
864.424	3913.03
864.745	3952.13
865.065	3930.66
865.386	3919.36
865.707	3901.96
866.027	3882.98
866.348	3892.69
866.668	3892.02
866.989	3906.93
867.309	3887.04
867.63	3891.34
867.95	3892.47
868.27	3867.61
868.59	3819.25
868.91	3904.9
869.23	3876.65
869.55	3855.18
869.87	3867.38
870.19	3872.36
870.51	3880.72
870.83	3844.56
871.15	3809.08
871.469	3789.42
871.789	3834.84
872.109	3812.02
872.428	3781.06
872.748	3815.41
873.067	3794.84
873.386	3791
873.706	3806.82
874.025	3772.02
874.344	3750.55
874.663	3773.6
874.982	3723.66
875.301	3752.58
875.62	3753.71
875.939	3721.17
876.258	3701.06
876.577	3693.15
876.896	3717.78
877.214	3720.72
877.533	3714.39
877.852	3688.63
878.17	3717.33
878.489	3723.66
878.807	3707.61
879.125	3666.49
879.444	3647.5
879.762	3626.03
880.08	3608.41
880.398	3625.58
880.716	3646.83
881.034	3590.56
881.352	3628.97
881.67	3586.49
881.988	3602.08
882.306	3636.2
882.624	3608.41
882.941	3540.39
883.259	3532.48
883.577	3542.87
883.894	3583.78
884.212	3559.37
884.529	3554.62
884.846	3549.43
885.164	3526.83
885.481	3562.08
885.798	3540.61
886.115	3567.05
886.432	3553.49
886.75	3534.06
887.067	3553.95
887.383	3494.74
887.7	3489.54
888.017	3514.63
888.334	3482.99
888.651	3534.51
888.967	3466.72
889.284	3475.08
889.6	3421.07
889.917	3466.26
890.233	3401.18
890.55	3405.93
890.866	3414.51
891.182	3410.22
891.498	3395.08
891.815	3436.21
892.131	3421.75
892.447	3368.19
892.763	3339.26
893.079	3377.45
893.395	3325.48
893.71	3351.47
894.026	3331.81
894.342	3311.47
894.657	3347.85
894.973	3285.7
895.289	3275.31
895.604	3268.76
895.92	3255.42
896.235	3241.19
896.55	3245.48
896.865	3236.89
897.181	3233.05
897.496	3242.99
897.811	3195.54
898.126	3231.92
898.441	3182.66
898.756	3137.46
899.071	3151.24
899.386	3177.46
899.7	3134.07
900.015	3147.86
900.33	3120.96
900.644	3118.48
900.959	3100.4
901.273	3101.3
901.588	3074.64
901.902	3069.67
902.216	3099.49
902.531	3047.97
902.845	3033.96
903.159	2998.93
903.473	3025.15
903.787	3026.28
904.101	2986.05
904.415	2974.07
904.729	2967.29
905.042	2886.84
905.356	2996.22
905.67	2965.94
905.984	2958.26
906.297	2959.61
906.611	2937.47
906.924	2936.56
907.237	2928.2
907.551	2906.28
907.864	2879.39
908.177	2940.18
908.491	2870.35
908.804	2868.54
909.117	2862.21
909.43	2818.82
909.743	2856.34
910.056	2864.25
910.368	2796.45
910.681	2792.61
910.994	2800.07
911.307	2781.31
911.619	2745.83
911.932	2790.12
912.244	2777.7
912.557	2753.29
912.869	2726.17
913.181	2733.85
913.494	2733.85
913.806	2708.09
914.118	2668.09
914.43	2661.99
914.742	2669
915.054	2688.43
915.366	2688.43
915.678	2652.95
915.99	2644.59
916.302	2682.33
916.613	2638.94
916.925	2624.25
917.236	2616.12
917.548	2583.35
917.859	2588.32
918.171	2585.38
918.482	2541.09
918.794	2559.85
919.105	2517.36
919.416	2529.79
919.727	2512.62
920.038	2491.6
920.349	2531.83
920.66	2485.27
920.971	2488.66
921.282	2480.75
921.593	2443.47
921.903	2396.69
922.214	2423.58
922.525	2417.25
922.835	2438.72
923.146	2389.23
923.456	2415.22
923.767	2394.43
924.077	2396.46
924.387	2409.34
924.697	2383.81
925.008	2379.06
925.318	2345.39
925.628	2384.03
925.938	2344.94
926.248	2326.18
926.558	2302.91
926.867	2343.36
927.177	2295.22
927.487	2326.41
927.796	2287.54
928.106	2295.45
928.416	2269.01
928.725	2253.19
929.034	2239.18
929.344	2244.38
929.653	2267.43
929.962	2243.02
930.271	2208.44
930.581	2211.38
930.89	2216.81
931.199	2181.55
931.508	2178.16
931.817	2173.64
932.125	2178.62
932.434	2148.79
932.743	2134.77
933.051	2159.63
933.36	2133.87
933.669	2152.4
933.977	2161.89
934.286	2136.81
934.594	2117.6
934.902	2084.61
935.21	2108.33
935.519	2097.04
935.827	2081.44
936.135	2061.1
936.443	2061.56
936.751	2062.01
937.059	2005.06
937.367	2039.64
937.674	2024.72
937.982	2050.26
938.29	2023.59
938.597	2028.11
938.905	1974.78
939.213	1986.76
939.52	2019.75
939.827	1989.47
940.135	1989.02
940.442	1970.03
940.749	1974.1
941.056	1964.84
941.363	1941.11
941.67	1942.01
941.977	1952.86
942.284	1888.91
942.591	1899.53
942.898	1902.92
943.205	1908.79
943.511	1890.94
943.818	1892.29
944.125	1882.13
944.431	1858.62
944.738	1864.27
945.044	1879.41
945.35	1847.78
945.657	1851.62
945.963	1832.86
946.269	1823.37
946.575	1823.82
946.881	1802.81
947.187	1803.26
947.493	1831.28
947.799	1793.54
948.105	1806.87
948.41	1766.65
948.716	1775.01
949.022	1763.26
949.327	1778.85
949.633	1720.32
949.938	1774.33
950.244	1751.28
950.549	1752.41
950.854	1754.9
951.16	1740.21
951.465	1717.84
951.77	1739.53
952.075	1736.82
952.38	1692.07
952.685	1683.94
952.99	1708.34
953.294	1677.39
953.599	1658.85
953.904	1660.21
954.209	1650.27
954.513	1685.97
954.818	1664.05
955.122	1641.45
955.426	1670.83
955.731	1616.82
956.035	1621.12
956.339	1628.35
956.643	1626.77
956.948	1631.51
957.252	1580.44
957.556	1622.47
957.86	1627.22
958.163	1578.86
958.467	1594.9
958.771	1561.23
959.075	1590.38
959.378	1563.72
959.682	1576.37
959.985	1565.75
960.289	1538.18
960.592	1528.24
960.896	1518.07
961.199	1504.06
961.502	1537.73
961.805	1498.86
962.108	1488.46
962.411	1491.63
962.714	1474.68
963.017	1498.18
963.32	1478.29
963.623	1474.23
963.926	1509.03
964.228	1452.76
964.531	1464.06
964.833	1463.61
965.136	1444.4
965.438	1452.98
965.741	1440.1
966.043	1435.36
966.345	1415.25
966.648	1422.02
966.95	1427.9
967.252	1420.22
967.554	1417.96
967.856	1419.31
968.158	1394.23
968.46	1407.56
968.761	1414.79
969.063	1414.12
969.365	1375.02
969.666	1397.62
969.968	1350.61
970.269	1380.22
970.571	1339.99
970.872	1347.9
971.174	1345.19
971.475	1341.12
971.776	1344.29
972.077	1347.45
972.378	1336.83
972.679	1338.64
972.98	1348.81
973.281	1321.01
973.582	1313.55
973.883	1315.13
974.183	1288.92
974.484	1312.88
974.785	1311.29
975.085	1312.42
975.386	1300.22
975.686	1289.82
975.986	1307.45
976.287	1286.21
976.587	1301.8
976.887	1267
977.187	1284.18
977.487	1289.82
977.787	1254.35
978.087	1248.47
978.387	1254.57
978.687	1248.24
978.987	1229.49
979.286	1252.99
979.586	1254.57
979.885	1225.19
980.185	1241.69
980.484	1227.68
980.784	1238.3
981.083	1218.64
981.382	1200.11
981.682	1204.86
981.981	1210.28
982.28	1217.28
982.579	1198.98
982.878	1191.75
983.177	1188.36
983.475	1197.85
983.774	1187
984.073	1161.24
984.372	1142.03
984.67	1168.7
984.969	1190.84
985.267	1141.35
985.566	1152.88
985.864	1142.71
986.162	1129.38
986.461	1154.91
986.759	1132.99
987.057	1108.36
987.355	1114.91
987.653	1106.33
987.951	1095.03
988.249	1105.87
988.547	1097.97
988.844	1089.15
989.142	1087.34
989.44	1095.93
989.737	1089.6
990.035	1083.05
990.332	1061.81
990.63	1081.47
990.927	1071.3
991.224	1060.45
991.521	1069.49
991.819	1072.2
992.116	1051.64
992.413	1057.29
992.71	1048.7
993.006	1032.88
993.303	1033.33
993.6	1034.24
993.897	1034.69
994.193	1020.45
994.49	1031.07
994.787	1011.87
995.083	999.44
995.379	1027.68
995.676	1004.63
995.972	1009.38
996.268	1038.98
996.565	1020.23
996.861	982.71
997.157	988.82
997.453	1013.67
997.749	982.94
998.044	940.23
998.34	998.76
998.636	981.36
998.932	949.49
999.227	948.59
999.523	937.52
999.818	956.27
1000.114	951.3
1000.409	960.34
1000.704	953.79
1001	963.96
1001.295	964.18
1001.59	930.74
1001.885	938.42
1002.18	930.96
1002.475	935.03
1002.77	944.98
1003.065	904.52
1003.359	921.02
1003.654	907.46
1003.949	900.91
1004.243	912.21
1004.538	882.38
1004.832	892.1
1005.127	901.36
1005.421	897.74
1005.715	904.3
1006.009	869.95
1006.304	869.95
1006.598	868.14
1006.892	872.89
1007.186	836.28
1007.48	900.68
1007.773	862.04
1008.067	851.42
1008.361	828.14
1008.655	865.66
1008.948	854.36
1009.242	836.28
1009.535	842.6
1009.829	857.29
1010.122	814.36
1010.415	815.71
1010.708	833.11
1011.001	823.17
1011.295	809.61
1011.588	816.62
1011.881	798.09
1012.173	806.22
1012.466	808.71
1012.759	802.83
1013.052	799.44
1013.344	797.86
1013.637	818.2
1013.93	800.35
1014.222	778.65
1014.514	768.93
1014.807	751.31
1015.099	771.42
1015.391	783.4
1015.683	758.31
1015.976	792.21
1016.268	747.24
1016.56	780.23
1016.851	738.2
1017.143	749.5
1017.435	751.76
1017.727	731.87
1018.018	699.33
1018.31	712.44
1018.602	728.71
1018.893	719.22
1019.185	726.45
1019.476	732.55
1019.767	733
1020.058	697.75
1020.35	693.68
1020.641	713.34
1020.932	707.24
1021.223	689.39
1021.514	682.38
1021.804	688.26
1022.095	704.3
1022.386	702.72
1022.677	683.74
1022.967	676.73
1023.258	654.59
1023.548	670.63
1023.839	690.97
1024.129	670.18
1024.419	648.94
1024.709	679.22
1025	665.66
1025.29	673.8
1025.58	655.72
1025.87	648.71
1026.16	676.28
1026.449	624.76
1026.739	628.15
1027.029	632.44
1027.319	634.47
1027.608	630.63
1027.898	636.96
1028.187	638.99
1028.477	617.75
1028.766	638.54
1029.055	629.05
1029.344	610.07
1029.634	626.11
1029.923	628.15
1030.212	606.68
1030.501	606.68
1030.79	609.62
1031.078	614.14
1031.367	620.46
1031.656	601.93
1031.945	583.85
1032.233	592.67
1032.522	593.57
1032.81	590.86
1033.099	586.34
1033.387	587.92
1033.675	595.38
1033.963	576.85
1034.251	584.76
1034.54	593.35
1034.828	559.67
1035.116	569.62
1035.403	564.87
1035.691	573.91
1035.979	549.28
1036.267	575.27
1036.554	575.95
1036.842	565.32
1037.129	550.41
1037.417	541.14
1037.704	578.21
1037.992	554.02
1038.279	543.63
1038.566	538.43
1038.853	538.43
1039.14	538.43
