Data from foam2_polystyrene_foam_FLMS001491_00041.txt Node
Date: Wed Feb 08 10:58:00 GMT 2017
User: dcchb
Spectrometer: FLMS00149
Trigger mode: 0
Integration Time (sec): 2.000000E-2
Scans to average: 10
Electric dark correction enabled: true
Nonlinearity correction enabled: false
Boxcar width: 0
XAxis mode: Wavelengths
Number of Pixels in Spectrum: 2048
>>>>>Begin Spectral Data<<<<<
341.393	-26.86
341.776	-26.86
342.16	-26.86
342.543	-58.73
342.927	-68.9
343.31	-57.82
343.693	-79.29
344.077	-49.01
344.46	-51.5
344.843	-60.99
345.226	-41.33
345.61	-9.01
345.993	-26.41
346.376	7.94
346.759	3.64
347.142	30.76
347.525	22.85
347.908	51.33
348.291	69.4
348.674	84.32
349.057	105.11
349.44	123.41
349.823	140.36
350.206	177.65
350.588	204.99
350.971	219.68
351.354	247.03
351.737	237.76
352.119	268.95
352.502	261.04
352.884	285.44
353.267	293.81
353.65	322.05
354.032	301.26
354.414	317.31
354.797	332.9
355.179	324.31
355.562	341.26
355.944	336.97
356.326	327.7
356.709	347.59
357.091	347.82
357.473	349.17
357.855	359.79
358.238	369.06
358.62	382.39
359.002	353.47
359.384	360.7
359.766	363.86
360.148	364.31
360.53	355.5
360.912	346.01
361.294	343.07
361.676	343.3
362.057	338.32
362.439	362.28
362.821	356.86
363.203	364.09
363.584	360.47
363.966	365.89
364.348	351.43
364.729	345.33
365.111	356.86
365.493	346.01
365.874	365.22
366.256	349.62
366.637	359.57
367.019	356.63
367.4	359.11
367.781	343.52
368.163	355.05
368.544	357.76
368.925	349.85
369.306	366.57
369.688	354.14
370.069	366.35
370.45	347.36
370.831	359.34
371.212	360.02
371.593	376.29
371.974	374.03
372.355	333.35
372.736	362.28
373.117	381.49
373.498	374.93
373.879	386.68
374.26	364.54
374.641	364.54
375.021	357.76
375.402	367.7
375.783	389.85
376.163	398.21
376.544	403.63
376.925	389.85
377.305	393.01
377.686	385.55
378.066	402.05
378.447	400.47
378.827	401.37
379.208	416.29
379.588	401.6
379.968	416.06
380.349	400.47
380.729	438.66
381.109	397.53
381.489	426.23
381.87	425.1
382.25	433.24
382.63	433.01
383.01	418.32
383.39	459.9
383.77	453.58
384.15	445.89
384.53	447.02
384.91	464.65
385.29	451.32
385.67	453.35
386.049	461.26
386.429	487.02
386.809	500.35
387.189	477.98
387.568	486.34
387.948	476.85
388.328	491.31
388.707	498.32
389.087	479.79
389.466	525.89
389.846	518.21
390.225	514.59
390.605	532.22
390.984	529.05
391.363	510.98
391.743	520.47
392.122	537.42
392.501	559.34
392.881	541.03
393.26	559.56
393.639	550.75
394.018	548.94
394.397	546.45
394.776	572.44
395.155	561.6
395.534	557.08
395.913	583.52
396.292	579.22
396.671	587.13
397.05	608.37
397.429	608.37
397.808	612.44
398.186	617.64
398.565	621.71
398.944	616.74
399.323	617.64
399.701	634.81
400.08	618.09
400.458	630.07
400.837	637.07
401.215	678.88
401.594	654.25
401.972	690.86
402.351	661.71
402.729	680.01
403.107	695.38
403.486	670.52
403.864	687.92
404.242	698.31
404.62	691.31
404.999	712.78
405.377	738.77
405.755	723.17
406.133	730.63
406.511	730.86
406.889	753.91
407.267	756.62
407.645	774.92
408.023	783.96
408.401	793.91
408.779	804.98
409.156	809.72
409.534	844.75
409.912	840.23
410.29	852.66
410.667	854.92
411.045	871.19
411.422	869.38
411.8	879.1
412.178	901.25
412.555	909.83
412.933	917.74
413.31	912.32
413.687	925.65
414.065	944.64
414.442	964.07
414.819	953.22
415.197	976.05
415.574	984.86
415.951	1013.79
416.328	995.71
416.705	1003.39
417.082	1005.65
417.46	1010.85
417.837	1042.26
418.214	1052.88
418.591	1060.57
418.967	1078.42
419.344	1082.94
419.721	1096.27
420.098	1099.66
420.475	1117.74
420.852	1132.65
421.228	1137.17
421.605	1152.54
421.982	1194.35
422.358	1188.7
422.735	1190.05
423.111	1212.43
423.488	1223.5
423.864	1218.3
424.241	1257.62
424.617	1235.7
424.994	1245.42
425.37	1262.14
425.746	1292.2
426.123	1272.99
426.499	1312.08
426.875	1329.48
427.251	1346.66
427.627	1396.6
428.003	1367
428.379	1365.19
428.756	1432.53
429.132	1464.4
429.507	1448.8
429.883	1490.38
430.259	1491.06
430.635	1506.2
431.011	1500.33
431.387	1549.14
431.763	1564.51
432.138	1581
432.514	1607.9
432.89	1628.23
433.265	1665.75
433.641	1682.02
434.016	1708.23
434.392	1725.41
434.767	1733.77
435.143	1747.78
435.518	1781.45
435.894	1767.89
436.269	1811.28
436.644	1846.99
437.02	1854.44
437.395	1840.43
437.77	1881.33
438.145	1911.62
438.52	1950.49
438.895	1958.62
439.271	1964.04
439.646	1999.07
440.021	2017.83
440.395	2039.3
440.77	2023.25
441.145	2022.8
441.52	2131.95
441.895	2098.28
442.27	2120.88
442.645	2153.87
443.019	2164.49
443.394	2176.69
443.769	2199.97
444.143	2211.95
444.518	2256.24
444.892	2237.94
445.267	2266.64
445.641	2295.56
446.016	2313.41
446.39	2322.68
446.764	2339.4
447.139	2332.85
447.513	2380.76
447.887	2372.4
448.262	2384.37
448.636	2419.4
449.01	2479.96
449.384	2469.34
449.758	2521.32
450.132	2577.81
450.506	2537.14
450.88	2535.1
451.254	2554.54
451.628	2603.8
452.002	2652.84
452.376	2621.65
452.75	2691.71
453.123	2695.32
453.497	2751.82
453.871	2796.11
454.244	2844.93
454.618	2835.89
454.992	2871.14
455.365	2887.41
455.739	2975.32
456.112	2961.08
456.486	2996.33
456.859	3024.13
457.232	3062.77
457.606	3090.34
457.979	3158.36
458.352	3195.42
458.725	3203.79
459.099	3253.28
459.472	3317.91
459.845	3330.11
460.218	3353.16
460.591	3423.22
460.964	3441.75
461.337	3482.65
461.71	3558.58
462.083	3593.83
462.456	3621.4
462.829	3619.14
463.201	3714.96
463.574	3695.52
463.947	3735.52
464.32	3826.59
464.692	3888.06
465.065	3902.07
465.438	3935.07
465.81	4001.05
466.183	4030.43
466.555	4147.72
466.928	4105.01
467.3	4162.86
467.672	4181.84
468.045	4342.51
468.417	4376.64
468.789	4419.57
469.161	4462.06
469.534	4552.22
469.906	4611.43
470.278	4657.08
470.65	4757.64
471.022	4843.06
471.394	4921.25
471.766	4965.55
472.138	5011.87
472.51	5084.87
472.882	5164.41
473.253	5229.72
473.625	5307.69
473.997	5395.37
474.369	5453.22
474.74	5512.2
475.112	5632.65
475.484	5667
475.855	5789.25
476.227	5806.88
476.598	5973.43
476.97	6057.95
477.341	6184.72
477.713	6260.65
478.084	6295
478.455	6463.14
478.827	6558.5
479.198	6744.71
479.569	6753.75
479.94	6972.27
480.311	6991.93
480.682	7197.81
481.053	7308.99
481.424	7458.14
481.795	7524.58
482.166	7644.35
482.537	7701.52
482.908	7922.08
483.279	8002.76
483.65	8147.38
484.021	8311.9
484.391	8437.77
484.762	8500.82
485.133	8532.23
485.503	8771.1
485.874	8940.36
486.244	8939
486.615	9167.02
486.985	9247.47
487.356	9337.41
487.726	9540.79
488.097	9711.86
488.467	9741.92
488.837	9949.6
489.207	10047.45
489.578	10209.93
489.948	10235.47
490.318	10470.49
490.688	10492.41
491.058	10643.36
491.428	10810.37
491.798	10904.15
492.168	11157.25
492.538	11209.68
492.908	11307.53
493.278	11558.14
493.648	11545.94
494.017	11592.94
494.387	11800.62
494.757	11957
495.126	12085.59
495.496	12176.43
495.866	12204.23
496.235	12341.85
496.605	12410.78
496.974	12569.19
497.344	12696.19
497.713	12813.25
498.082	12759.01
498.452	12996.97
498.821	13019.12
499.19	13046.92
499.559	13274.93
499.928	13337.76
500.298	13455.27
500.667	13622.27
501.036	13554.93
501.405	13750.4
501.774	13845.77
502.143	13983.39
502.512	13930.51
502.88	14072.43
503.249	14095.7
503.618	14189.03
503.987	14278.3
504.356	14442.36
504.724	14612.53
505.093	14600.32
505.462	14700.43
505.83	14782.01
506.199	14950.82
506.567	15211.38
506.936	15172.51
507.304	15331.83
507.672	15468.77
508.041	15504.03
508.409	15588.77
508.777	15825.6
509.145	15968.87
509.514	15981.75
509.882	16084.58
510.25	16118.25
510.618	16259.94
510.986	16306.94
511.354	16477.34
511.722	16718.46
512.09	16823.09
512.458	16880.26
512.826	17024.89
513.193	17173.81
513.561	17171.78
513.929	17378.78
514.297	17539
514.664	17613.12
515.032	17734.03
515.4	17930.18
515.767	17990.06
516.135	18094.47
516.502	18042.04
516.869	18380.11
517.237	18528.81
517.604	18472.31
517.972	18738.74
518.339	18801.79
518.706	18865.07
519.073	18938.06
519.44	19097.38
519.808	19441.78
520.175	19369.69
520.542	19616.69
520.909	19818.94
521.276	19819.85
521.643	20064.81
522.009	20164.7
522.376	20300.74
522.743	20443.78
523.11	20686.72
523.477	20927.84
523.843	21102.07
524.21	21327.83
524.577	21454.38
524.943	21578.44
525.31	21767.82
525.676	21946.8
526.043	22105.66
526.409	22216.62
526.776	22421.36
527.142	22477.86
527.508	22658.19
527.874	22764.4
528.241	22983.6
528.607	23081.68
528.973	23255.46
529.339	23307.21
529.705	23551.05
530.071	23718.5
530.437	23911.94
530.803	24135.44
531.169	24260.86
531.535	24189.67
531.901	24252.5
532.267	24448.2
532.632	24551.47
532.998	24754.41
533.364	24828.75
533.73	25038.47
534.095	25209.76
534.461	25267.39
534.826	25386.25
535.192	25515.29
535.557	25692.23
535.923	25685.91
536.288	25739.69
536.653	25896.07
537.019	25895.84
537.384	26018.55
537.749	26180.13
538.114	26194.14
538.479	26308.72
538.845	26443.4
539.21	26527.92
539.575	26609.95
539.94	26706.9
540.305	26920.45
540.67	26956.61
541.034	27035.25
541.399	27131.74
541.764	27312.3
542.129	27433.88
542.494	27495.8
542.858	27604.27
543.223	27610.83
543.587	27864.38
543.952	27930.37
544.316	28003.81
544.681	27919.97
545.045	28113.19
545.41	28244.03
545.774	28333.29
546.138	28385.5
546.503	28570.8
546.867	28405.61
547.231	28758.59
547.595	28841.3
547.959	28970.79
548.324	29039.26
548.688	29100.51
549.052	29223.21
549.416	29212.82
549.779	29261.86
550.143	29331.91
550.507	29595.18
550.871	29627.05
551.235	29700.49
551.599	29945.91
551.962	29945.91
552.326	30058.45
552.689	30212.34
553.053	30076.98
553.417	30334.6
553.78	30592.67
554.143	30436.29
554.507	30741.59
554.87	30819.78
555.234	31089.38
555.597	30951.53
555.96	31240.34
556.323	31287.57
556.686	31387.23
557.05	31624.51
557.413	31831.28
557.776	31804.16
558.139	31988.34
558.502	32101.56
558.865	32126.87
559.228	32361.21
559.59	32478.5
559.953	32610.7
560.316	32971.59
560.679	32928.43
561.041	33198.03
561.404	33215.65
561.767	33532.25
562.129	33369.77
562.492	33729.31
562.854	33911.9
563.217	33967.27
563.579	34124.78
563.941	34512.12
564.304	34555.5
564.666	34672.34
565.028	34618.55
565.39	34752.79
565.753	34814.93
566.115	34989.62
566.477	35202.49
566.839	35349.38
567.201	35548.25
567.563	35632.31
567.925	35872.98
568.287	35757.28
568.648	36000.89
569.01	36149.59
569.372	36416.02
569.734	36251.5
570.095	36610.37
570.457	36825.73
570.819	36776.24
571.18	36801.09
571.542	37015.78
571.903	37087.64
572.265	37303.45
572.626	37439.5
572.987	37395.2
573.349	37586.38
573.71	37662.77
574.071	37795.87
574.432	37994.74
574.794	38187.95
575.155	38245.12
575.516	38061.63
575.877	38302.3
576.238	38373.71
576.599	38414.84
576.96	38505.46
577.32	38418.45
577.681	38643.98
578.042	38802.17
578.403	38743.87
578.763	38709.29
579.124	38817.76
579.485	38935.95
579.845	39065.44
580.206	38892.11
580.566	39070.19
580.927	38959.91
581.287	39304.08
581.648	39175.72
582.008	39282.16
582.368	39264.08
582.728	39321.71
583.089	39246.23
583.449	39189.73
583.809	39338.88
584.169	39398.77
584.529	39274.48
584.889	39575.03
585.249	39316.73
585.609	39331.65
585.969	39548.82
586.329	39408.48
586.688	39513.11
587.048	39467.47
587.408	39503.4
587.768	39431.53
588.127	39444.87
588.487	39484.41
588.846	39784.29
589.206	39455.71
589.565	39491.87
589.925	39683.28
590.284	39527.58
590.643	39589.72
591.003	39593.56
591.362	39799.66
591.721	39738.87
592.08	39597.18
592.44	39821.81
592.799	39640.57
593.158	39727.35
593.517	39795.59
593.876	39820.68
594.235	39631.3
594.593	39838.53
594.952	39962.59
595.311	39762.82
595.67	39804.18
596.029	39918.3
596.387	39931.41
596.746	39990.84
597.104	39729.83
597.463	39771.64
597.822	39942.03
598.18	39868.58
598.538	39949.71
598.897	39984.97
599.255	39665.65
599.613	40407.33
599.972	39947.68
600.33	40188.58
600.688	39970.5
601.046	40259.99
601.404	40357.61
601.762	40302.7
602.12	40462.24
602.478	40423.15
602.836	40471.96
603.194	40311.96
603.552	40431.28
603.91	40240.55
604.268	40437.16
604.625	40294.34
604.983	40562.35
605.341	40462.24
605.698	40613.88
606.056	40681.22
606.413	40482.81
606.771	40730.48
607.128	40827.2
607.485	40623.14
607.843	40766.41
608.2	41063.58
608.557	41077.37
608.914	41018.38
609.272	41186.97
609.629	41132.73
609.986	41268.55
610.343	41097.48
610.7	41474.19
611.057	41316.46
611.414	41284.59
611.771	41419.28
612.127	41568.43
612.484	41460.41
612.841	41632.15
613.198	41502.67
613.554	41454.98
613.911	41641.65
614.267	41594.87
614.624	41570.69
614.98	41583.79
615.337	41844.35
615.693	41871.02
616.05	41709.89
616.406	41948.98
616.762	41935.2
617.118	41947.17
617.475	41935.2
617.831	42084.8
618.187	41998.7
618.543	41979.94
618.899	42223.78
619.255	42115.31
619.611	42209.54
619.967	42336.54
620.323	42437.1
620.678	42172.25
621.034	42063.1
621.39	42193.95
621.746	42069.2
622.101	42653.6
622.457	42187.62
622.812	42238.24
623.168	42378.35
623.523	42231.69
623.879	42459.25
624.234	42172.93
624.589	42320.95
624.945	42319.59
625.3	42419.25
625.655	42375.64
626.01	42454.73
626.365	42395.52
626.72	42265.58
627.075	42163.21
627.43	42269.43
627.785	42183.33
628.14	42381.06
628.495	42238.47
628.85	42243.21
629.205	42075.53
629.559	42315.07
629.914	42259.26
630.269	42168.64
630.623	42055.65
630.978	42008.64
631.332	42117.79
631.687	42029.88
632.041	41850.23
632.396	42144
632.75	41884.8
633.104	41973.39
633.459	41869.89
633.813	41929.55
634.167	42019.71
634.521	41776.1
634.875	41682.77
635.229	41809.78
635.583	41572.95
635.937	41435.55
636.291	41465.15
636.645	41316.91
636.999	41368.21
637.352	41428.54
637.706	41202.11
638.06	41455.89
638.413	41321.65
638.767	41313.74
639.121	41321.88
639.474	41007.99
639.828	41044.82
640.181	40937.48
640.534	40886.41
640.888	40881.21
641.241	40683.25
641.594	40712.4
641.947	40848.67
642.301	40703.59
642.654	40768
643.007	40774.55
643.36	40651.61
643.713	40541.11
644.066	40701.78
644.419	40454.11
644.771	40166.43
645.124	39863.16
645.477	39776.84
645.83	39437.41
646.182	39333.68
646.535	39146.34
646.888	39186.79
647.24	39041.49
647.593	39253.91
647.945	39169.17
648.298	38929.4
648.65	38815.05
649.002	38794.04
649.355	38748.16
649.707	38682.63
650.059	38761.72
650.411	39357.41
650.763	39430.18
651.115	39875.82
651.467	39760.11
651.819	39700.45
652.171	39675.6
652.523	39611.42
652.875	39571.42
653.227	39239.22
653.578	39561.25
653.93	39409.16
654.282	39348.37
654.633	39078.77
654.985	39134.37
655.337	39147.25
655.688	39111.54
656.039	39129.17
656.391	38852.57
656.742	39045.1
657.094	39111.99
657.445	39112.45
657.796	39022.28
658.147	39006.23
658.498	38948.38
658.849	39069.06
659.2	38968.72
659.551	38747.26
659.902	38984.54
660.253	38999
660.604	38901.15
660.955	38804.43
661.306	38955.16
661.656	38890.53
662.007	38884.88
662.358	38760.59
662.708	38796.97
663.059	38802.4
663.409	38521.05
663.76	38802.17
664.11	38655.96
664.461	38642.85
664.811	38632.46
665.161	38626.13
665.511	38541.39
665.862	38482.41
666.212	38603.08
666.562	38653.02
666.912	38700.25
667.262	38403.76
667.612	38425.01
667.962	38553.82
668.312	38437.44
668.662	38601.95
669.011	38437.66
669.361	38438.34
669.711	38371.67
670.06	38221.4
670.41	38352.24
670.76	38156.77
671.109	38410.54
671.459	38328.96
671.808	38325.57
672.157	38484.89
672.507	38178.01
672.856	38127.16
673.205	38313.6
673.554	38335.07
673.904	38218.91
674.253	38328.74
674.602	38221.62
674.951	37633.16
675.3	37442.66
675.649	37944.57
675.998	38087.16
676.346	37961.97
676.695	38136.65
677.044	38015.07
677.393	38048.75
677.741	37911.35
678.09	37920.84
678.438	37740.05
678.787	37768.98
679.135	37734.63
679.484	37494.18
679.832	37676.78
680.181	37425.71
680.529	37660.73
680.877	37333.96
681.225	37400.63
681.573	37724.46
681.922	37506.39
682.27	37300.06
682.618	37446.95
682.966	37219.84
683.314	37220.97
683.661	37118.15
684.009	37010.35
684.357	36954.31
684.705	36982.11
685.053	36840.42
685.4	36759.74
685.748	36535.11
686.095	36638.84
686.443	36496.02
686.79	36482.46
687.138	36384.38
687.485	36430.03
687.832	36179.87
688.18	36133.32
688.527	36159.08
688.874	36187.1
689.221	35982.58
689.568	35816.04
689.915	35650.62
690.262	35835.7
690.609	35704.63
690.956	35522.03
691.303	35541.69
691.65	35237.97
691.997	35448.36
692.344	35112.55
692.69	35055.6
693.037	35210.85
693.383	34962.05
693.73	35067.35
694.077	34772
694.423	34909.39
694.769	34611.77
695.116	34500.59
695.462	34482.74
695.808	34277.09
696.155	34451.55
696.501	34237.09
696.847	34067.38
697.193	33775.19
697.539	34106.93
697.885	33813.15
698.231	33614.06
698.577	33769.54
698.923	33764.56
699.269	33593.72
699.614	33474.18
699.96	33355.54
700.306	33306.27
700.651	33221.75
700.997	33096.33
701.342	33118.48
701.688	33045.71
702.033	32955.09
702.379	32884.81
702.724	32749.45
703.069	32846.85
703.415	32515.33
703.76	32610.24
704.105	32523.47
704.45	32523.69
704.795	32296.58
705.14	32261.55
705.485	32200.31
705.83	31973.42
706.175	31907.44
706.52	31944.5
706.865	31749.48
707.209	31754.67
707.554	31498.18
707.899	31753.54
708.243	31411.18
708.588	31359.66
708.932	31163.5
709.277	31093
709.621	31220
709.966	31005.09
710.31	31073.11
710.654	30834.02
710.998	30920.8
711.342	30936.39
711.687	30931.19
712.031	30649.17
712.375	30560.81
712.719	30606.68
713.063	30537.53
713.407	30688.26
713.75	30445.78
714.094	30422.05
714.438	30390.19
714.782	30323.52
715.125	30114.49
715.469	30097.09
715.812	30000.82
716.156	29789.53
716.499	29878.56
716.843	29896.87
717.186	29705.69
717.53	29739.81
717.873	29809.64
718.216	29688.97
718.559	29478.58
718.902	29328.97
719.246	29514.96
719.589	29467.95
719.932	29195.42
720.275	29296.21
720.617	29180.96
720.96	29196.32
721.303	29051.24
721.646	29115.65
721.989	28913.62
722.331	28998.59
722.674	28834.07
723.016	28878.82
723.359	28868.65
723.701	28768.31
724.044	28604.47
724.386	28569.45
724.729	28814.64
725.071	28589.33
725.413	28465.95
725.755	28554.08
726.097	28388.66
726.439	28071.15
726.782	28244.94
727.124	28295.33
727.465	28203.13
727.807	28230.47
728.149	27942.57
728.491	28116.13
728.833	28176.24
729.175	27926.07
729.516	27915.68
729.858	27846.98
730.199	27859.41
730.541	27652.86
730.882	27708.68
731.224	27771.5
731.565	27564.28
731.906	27606.31
732.248	27656.25
732.589	27548.23
732.93	27518.17
733.271	27352.08
733.612	27441.34
733.953	27408.12
734.294	27406.99
734.635	27115.25
734.976	27373.09
735.317	27170.61
735.658	27145.98
735.999	27113.89
736.339	27047.68
736.68	26985.08
737.021	26944.86
737.361	26907.8
737.702	26888.81
738.042	26726.11
738.383	26701.02
738.723	26713.45
739.063	26627.35
739.404	26730.17
739.744	26700.57
740.084	26446.34
740.424	26514.36
740.764	26508.48
741.104	26615.83
741.444	26353.23
741.784	26280.92
742.124	26331.09
742.464	26301.71
742.804	26325.89
743.143	26259.9
743.483	26233.01
743.823	26157.31
744.162	26121.15
744.502	26146.91
744.841	25968.61
745.181	26127.02
745.52	25952.11
745.86	26015.62
746.199	25953.92
746.538	25833.47
746.877	25827.6
747.216	25800.03
747.556	25673.93
747.895	25785.11
748.234	25685.45
748.573	25601.39
748.911	25584.89
749.25	25482.75
749.589	25337.89
749.928	25459.47
750.267	25475.52
750.605	25270.32
750.944	25335.63
751.283	25214.96
751.621	25209.99
751.96	25082.31
752.298	25037.11
752.636	25020.61
752.975	24920.28
753.313	24839.83
753.651	24875.08
753.989	24842.31
754.327	24686.61
754.666	24552.6
755.004	24522.55
755.342	24595.77
755.679	24680.51
756.017	24427.86
756.355	24438.93
756.693	24373.62
757.031	24328.2
757.368	24246.17
757.706	24010.47
758.044	24065.84
758.381	23994.65
758.719	23894.09
759.056	24059.51
759.394	23847.54
759.731	23799.63
760.068	23732.96
760.405	23650.03
760.743	23638.28
761.08	23615.45
761.417	23433.54
761.754	23444.16
762.091	23358.06
762.428	23254.56
762.765	23121.45
763.102	23193.32
763.438	23071.51
763.775	22974.11
764.112	22950.61
764.449	22942.25
764.785	22853.21
765.122	22626.33
765.458	22620
765.795	22599.66
766.131	22559.44
766.467	22438.08
766.804	22423.85
767.14	22180.01
767.476	22248.03
767.812	22164.19
768.148	22172.33
768.485	22052.56
768.821	21931.88
769.157	21907.7
769.492	21744.09
769.828	21828.38
770.164	21737.99
770.5	21594.94
770.836	21519.69
771.171	21315.4
771.507	21327.15
771.842	21211.45
772.178	21293.03
772.513	21215.29
772.849	21080.83
773.184	20983.21
773.519	20947.95
773.855	20853.72
774.19	20817.79
774.525	20626.83
774.86	20607.4
775.195	20648.52
775.53	20529.43
775.865	20428.42
776.2	20289.44
776.535	20163.11
776.87	20174.41
777.205	20081.99
777.539	19975.1
777.874	20060.74
778.209	19787.3
778.543	19761.09
778.878	19710.7
779.212	19716.8
779.547	19658.27
779.881	19549.34
780.215	19595.67
780.55	19594.54
780.884	19467.09
781.218	19355.45
781.552	19368.33
781.886	19250.6
782.22	19216.02
782.554	19130.37
782.888	18900.77
783.222	18877.5
783.556	18803.15
783.889	18772.87
784.223	18523.16
784.557	18600.44
784.89	18615.81
785.224	18469.6
785.557	18417.4
785.891	18343.5
786.224	18381.47
786.558	18339.21
786.891	18273.45
787.224	18031.87
787.557	18049.5
787.891	17967.24
788.224	18065.32
788.557	17875.72
788.89	17813.8
789.223	17804.08
789.556	17698.09
789.888	17649.28
790.221	17650.41
790.554	17463.3
790.887	17553.24
791.219	17368.39
791.552	17261.27
791.884	17121.84
792.217	17198.67
792.549	17120.93
792.882	17024.89
793.214	16980.82
793.546	16948.96
793.879	16851.34
794.211	16793.03
794.543	16809.53
794.875	16760.04
795.207	16718.23
795.539	16652.92
795.871	16652.25
796.203	16486.83
796.535	16445.92
796.867	16346.49
797.198	16395.76
797.53	16361.41
797.862	16141.07
798.193	16336.77
798.525	16100.17
798.856	16057.23
799.188	16000.96
799.519	15970.23
799.85	15906.5
800.182	15965.26
800.513	15872.83
800.844	15846.84
801.175	15853.85
801.506	15791.25
801.837	15665.61
802.168	15673.97
802.499	15565.27
802.83	15479.4
803.161	15510.13
803.491	15394.65
803.822	15341.32
804.153	15315.78
804.483	15193.3
804.814	15128.9
805.145	15176.58
805.475	15171.61
805.805	15082.34
806.136	15010.71
806.466	15017.71
806.796	14965.96
807.126	14850.71
807.457	14851.84
807.787	14844.38
808.117	14719.87
808.447	14638.74
808.777	14805.06
809.107	14658.4
809.436	14619.53
809.766	14609.59
810.096	14582.02
810.426	14434.9
810.755	14603.03
811.085	14538.4
811.414	14535.01
811.744	14285.3
812.073	14375.92
812.403	14283.72
812.732	14254.79
813.061	14225.87
813.39	14136.83
813.719	14141.58
814.049	14189.49
814.378	14171.18
814.707	14100.67
815.036	14113.33
815.365	13997.4
815.693	13843.28
816.022	13895.03
816.351	13860.68
816.68	13849.16
817.008	13846.9
817.337	13680.35
817.665	13739.78
817.994	13683.28
818.322	13653.45
818.651	13642.16
818.979	13569.61
819.307	13594.7
819.636	13539.33
819.964	13498.88
820.292	13495.04
820.62	13548.82
820.948	13435.61
821.276	13506.11
821.604	13419.56
821.932	13556.73
822.259	13415.27
822.587	13421.6
822.915	13332.11
823.243	13419.56
823.57	13395.83
823.898	13443.97
824.225	13347.02
824.553	13387.02
824.88	13349.51
825.207	13383.41
825.535	13292.33
825.862	13411.88
826.189	13359.68
826.516	13484.65
826.843	13437.42
827.17	13515.15
827.497	13503.4
827.824	13373.01
828.151	13478.32
828.478	13423.4
828.805	13449.84
829.131	13443.97
829.458	13396.96
829.785	13337.98
830.111	13305.67
830.438	13428.38
830.764	13361.26
831.09	13294.59
831.417	13246.23
831.743	13295.5
832.069	13267.7
832.395	13198.33
832.722	13354.71
833.048	13236.52
833.374	13271.09
833.7	13234.03
834.026	13183.41
834.351	13287.14
834.677	13174.37
835.003	13248.95
835.329	13195.61
835.654	13211.21
835.98	13142.06
836.306	13148.38
836.631	13073.13
836.956	13117.88
837.282	13135.28
837.607	13076.75
837.932	12909.97
838.258	12977.77
838.583	12940.93
838.908	12900.03
839.233	12871.1
839.558	12886.24
839.883	12874.04
840.208	12850.09
840.533	12765.12
840.858	12804.89
841.182	12750.88
841.507	12747.26
841.832	12680.15
842.156	12714.5
842.481	12698
842.805	12702.52
843.13	12625.23
843.454	12632.92
843.778	12489.64
844.103	12583.65
844.427	12478.12
844.751	12496.65
845.075	12455.97
845.399	12375.75
845.723	12319.25
846.047	12406.26
846.371	12339.82
846.695	12312.25
847.019	12139.37
847.343	12081.52
847.666	12020.28
847.99	12043.78
848.313	12004.23
848.637	11811.7
848.96	11928.53
849.284	11874.07
849.607	11749.55
849.931	11701.87
850.254	11705.03
850.577	11569.67
850.9	11501.87
851.223	11505.94
851.546	11485.83
851.869	11397.69
852.192	11391.37
852.515	11268.88
852.838	11316.34
853.161	11233.41
853.483	11130.13
853.806	11122
854.129	11136.01
854.451	11072.28
854.774	11111.37
855.096	11011.26
855.419	10959.97
855.741	10923.58
856.063	10904.83
856.385	10853.75
856.708	10781.67
857.03	10789.35
857.352	10772.85
857.674	10777.82
857.996	10670.03
858.318	10681.33
858.64	10731.5
858.961	10609.01
859.283	10547.1
859.605	10486.31
859.926	10707.32
860.248	10607.21
860.57	10461
860.891	10520.66
861.212	10472.97
861.534	10358.85
861.855	10397.95
862.176	10447.89
862.498	10380.77
862.819	10400.66
863.14	10334.67
863.461	10305.97
863.782	10246.31
864.103	10277.72
864.424	10253.09
864.745	10288.12
865.065	10294.67
865.386	10244.73
865.707	10232.98
866.027	10204.73
866.348	10091.74
866.668	10159.76
866.989	10116.82
867.309	10087.22
867.63	10220.1
867.95	10177.16
868.27	10131.97
868.59	10120.21
868.91	10058.97
869.23	9994.34
869.55	9943.72
869.87	10034.79
870.19	10045.87
870.51	9974.46
870.83	10001.57
871.15	9912.76
871.469	9964.74
871.789	9958.18
872.109	9925.19
872.428	9817.62
872.748	9832.76
873.067	9856.27
873.386	9880.9
873.706	9739.66
874.025	9765.2
874.344	9822.82
874.663	9729.49
874.982	9716.38
875.301	9787.57
875.62	9714.35
875.939	9707.8
876.258	9710.51
876.577	9662.6
876.896	9654.46
877.214	9609.95
877.533	9589.15
877.852	9637.74
878.17	9623.73
878.489	9621.02
878.807	9606.33
879.125	9517.07
879.444	9528.82
879.762	9462.83
880.08	9481.81
880.398	9474.81
880.716	9474.36
881.034	9406.79
881.352	9408.14
881.67	9356.62
881.988	9378.09
882.306	9342.83
882.624	9356.17
882.941	9289.95
883.259	9383.28
883.577	9247.69
883.894	9233.46
884.212	9310.52
884.529	9269.39
884.846	9228.49
885.164	9146.91
885.481	9087.25
885.798	9178.54
886.115	9077.98
886.432	9144.42
886.75	9095.38
887.067	9056.29
887.383	9077.3
887.7	9020.36
888.017	9004.76
888.334	8914.14
888.651	8965.22
888.967	8886.12
889.284	8864.88
889.6	8836.18
889.917	8696.52
890.233	8791.21
890.55	8715.05
890.866	8783.75
891.182	8763.41
891.498	8749.85
891.815	8690.65
892.131	8605.68
892.447	8634.6
892.763	8563.87
893.079	8602.74
893.395	8574.27
893.71	8541.05
894.026	8510.76
894.342	8474.83
894.657	8368.4
894.973	8418.56
895.289	8444.78
895.604	8378.34
895.92	8309.87
896.235	8306.48
896.55	8313.93
896.865	8296.76
897.181	8275.29
897.496	8231.9
897.811	8132.02
898.126	8252.01
898.441	8125.24
898.756	8152.81
899.071	8066.03
899.386	8046.14
899.7	8005.24
900.015	7885.92
900.33	7942.42
900.644	7935.19
900.959	7959.59
901.273	7906.04
901.588	7798.92
901.902	7768.19
902.216	7789.65
902.531	7796.66
902.845	7732.71
903.159	7702.65
903.473	7689.77
903.787	7652.48
904.101	7648.87
904.415	7640.05
904.729	7562.77
905.042	7534.75
905.356	7519.15
905.67	7523.22
905.984	7482.32
906.297	7473.05
906.611	7382.88
906.924	7371.59
907.237	7322.77
907.551	7310.8
907.864	7323.45
908.177	7304.69
908.491	7210.23
908.804	7239.16
909.117	7152.83
909.43	7101.99
909.743	7112.16
910.056	7115.32
910.368	7065.15
910.681	7032.16
910.994	7012.95
911.307	6943.8
911.619	6905.16
911.932	6903.8
912.244	6889.79
912.557	6861.32
912.869	6800.98
913.181	6857.02
913.494	6774.09
913.806	6739.06
914.118	6723.92
914.43	6678.27
914.742	6678.72
915.054	6615.22
915.366	6626.75
915.678	6569.35
915.99	6515.79
916.302	6494.77
916.613	6493.19
916.925	6471.04
917.236	6387.2
917.548	6372.06
917.859	6359.64
918.171	6389.01
918.482	6332.29
918.794	6304.95
919.105	6254.33
919.416	6238.28
919.727	6201.45
920.038	6154.44
920.349	6150.15
920.66	6172.3
920.971	6114.22
921.282	6121.68
921.593	6070.83
921.903	6027.44
922.214	6019.08
922.525	6011.4
922.835	5973.88
923.146	5959.87
923.456	5932.98
923.767	5865.86
924.077	5852.3
924.387	5885.75
924.697	5748.13
925.008	5843.72
925.318	5774.57
925.628	5795.36
925.938	5664.29
926.248	5686.88
926.558	5650.73
926.867	5659.31
927.177	5606.89
927.487	5574.57
927.796	5558.53
928.106	5561.24
928.416	5586.77
928.725	5486.66
929.034	5443.27
929.344	5550.62
929.653	5429.04
929.962	5450.96
930.271	5424.07
930.581	5386.78
930.89	5359.66
931.199	5325.09
931.508	5321.47
931.817	5288.7
932.125	5277.86
932.434	5276.27
932.743	5227.69
933.051	5205.99
933.36	5195.15
933.669	5177.52
933.977	5168.03
934.286	5165.54
934.594	5144.53
934.902	5101.14
935.21	5060.91
935.519	5017.52
935.827	5008.48
936.135	4999.9
936.443	5006.9
936.751	4936.62
937.059	4961.03
937.367	4908.37
937.674	4897.75
937.982	4848.94
938.29	4860.92
938.597	4886.91
938.905	4841.93
939.213	4784.31
939.52	4760.81
939.827	4782.95
940.135	4733.46
940.442	4731.43
940.749	4754.93
941.056	4739.34
941.363	4656.4
941.67	4647.36
941.977	4591.55
942.284	4579.57
942.591	4566.91
942.898	4568.72
943.205	4585.22
943.511	4536.63
943.818	4513.13
944.125	4504.99
944.431	4519.01
944.738	4488.27
945.044	4439.91
945.35	4392.91
945.657	4400.82
945.963	4334.38
946.269	4355.39
946.575	4353.36
946.881	4301.38
947.187	4305.68
947.493	4266.36
947.799	4271.78
948.105	4246.92
948.41	4246.92
948.716	4210.76
949.022	4208.51
949.327	4154.72
949.633	4118.79
949.938	4157.66
950.244	4131.67
950.549	4107.26
950.854	4107.49
951.16	4086.02
951.465	4064.78
951.77	4034.95
952.075	4014.61
952.38	4037.44
952.685	4003.99
952.99	3962.18
953.294	3978.45
953.599	3953.14
953.904	3923.31
954.209	3886.48
954.513	3875.63
954.818	3883.54
955.122	3904.78
955.426	3820.72
955.731	3814.84
956.035	3782.75
956.339	3772.13
956.643	3799.7
956.948	3761.96
957.252	3726.03
957.556	3724.45
957.86	3672.93
958.163	3675.19
958.467	3665.47
958.771	3639.93
959.075	3652.81
959.378	3599.48
959.682	3644.9
959.985	3585.92
960.289	3603.55
960.592	3542.31
960.896	3571.46
961.199	3518.58
961.502	3537.79
961.805	3484.68
962.108	3443.1
962.411	3457.34
962.714	3446.04
963.017	3424.12
963.32	3463.89
963.623	3419.37
963.926	3428.86
964.228	3427.73
964.531	3371.92
964.833	3372.14
965.136	3342.77
965.438	3297.79
965.741	3320.17
966.043	3300.05
966.345	3254.86
966.648	3236.33
966.95	3230.9
967.252	3207.4
967.554	3244.46
967.856	3206.05
968.158	3158.14
968.46	3157.23
968.761	3153.62
969.063	3135.99
969.365	3139.38
969.666	3125.14
969.968	3137.12
970.269	3104.35
970.571	3055.77
970.872	3063.22
971.174	3035.2
971.475	3052.6
971.776	3049.67
972.077	3011.25
972.378	3023
972.679	3004.7
972.98	3011.25
973.281	2987.07
973.582	2942.55
973.883	2955.66
974.183	2961.98
974.484	2882.89
974.785	2928.09
975.085	2919.95
975.386	2914.08
975.686	2867.07
975.986	2881.31
976.287	2853.96
976.587	2808.99
976.887	2800.86
977.187	2798.15
977.487	2783.68
977.787	2813.74
978.087	2755.89
978.387	2778.03
978.687	2764.93
978.987	2721.76
979.286	2712.27
979.586	2720.18
979.885	2734.42
980.185	2678.38
980.484	2680.86
980.784	2712.27
981.083	2651.48
981.382	2672.27
981.682	2660.98
981.981	2641.09
982.28	2616.23
982.579	2589.34
982.878	2620.75
983.177	2582.56
983.475	2556.12
983.774	2554.99
984.073	2532.62
984.372	2535.55
984.67	2514.76
984.969	2482.22
985.267	2529
985.566	2499.85
985.864	2484.93
986.162	2449.46
986.461	2473.41
986.759	2457.59
987.057	2405.16
987.355	2406.07
987.653	2405.84
987.951	2401.1
988.249	2379.63
988.547	2396.58
988.844	2370.36
989.142	2338.95
989.44	2354.54
989.737	2331.72
990.035	2304.15
990.332	2313.64
990.63	2287.88
990.927	2257.6
991.224	2273.19
991.521	2293.75
991.819	2230.93
992.116	2247.43
992.413	2223.02
992.71	2214.89
993.006	2205.17
993.303	2218.28
993.6	2206.75
993.897	2190.03
994.193	2191.61
994.49	2164.27
994.787	2164.04
995.083	2145.96
995.379	2116.36
995.676	2151.16
995.972	2098.28
996.268	2094.44
996.565	2099.18
996.861	2098.96
997.157	2060.31
997.453	2017.83
997.749	2048.79
998.044	2023.25
998.34	1996.13
998.636	2014.66
998.932	1976.02
999.227	1991.84
999.523	2004.5
999.818	1985.06
1000.114	1945.97
1000.409	1946.19
1000.704	1926.53
1001	1940.99
1001.295	1943.48
1001.59	1910.71
1001.885	1903.48
1002.18	1891.96
1002.475	1892.86
1002.77	1877.94
1003.065	1846.08
1003.359	1853.09
1003.654	1861.67
1003.949	1846.99
1004.243	1824.39
1004.538	1837.49
1004.832	1799.98
1005.127	1792.07
1005.421	1762.69
1005.715	1776.25
1006.009	1779.87
1006.304	1770.6
1006.598	1755.46
1006.892	1709.59
1007.186	1745.07
1007.48	1731.73
1007.773	1708.23
1008.067	1691.96
1008.361	1691.51
1008.655	1668.91
1008.948	1652.87
1009.242	1689.93
1009.535	1651.51
1009.829	1654
1010.122	1643.6
1010.415	1630.04
1010.708	1635.69
1011.001	1623.49
1011.295	1588.46
1011.588	1586.88
1011.881	1591.85
1012.173	1536.26
1012.466	1578.07
1012.759	1562.02
1013.052	1554.56
1013.344	1534
1013.637	1521.34
1013.93	1545.75
1014.222	1537.39
1014.514	1516.37
1014.807	1502.59
1015.099	1485.86
1015.391	1507.79
1015.683	1500.55
1015.976	1465.75
1016.268	1430.95
1016.56	1427.34
1016.851	1433.66
1017.143	1425.98
1017.435	1407.9
1017.727	1436.15
1018.018	1422.14
1018.31	1387.34
1018.602	1394.79
1018.893	1393.44
1019.185	1384.62
1019.476	1338.3
1019.767	1382.14
1020.058	1351.63
1020.35	1353.21
1020.641	1298.07
1020.932	1337.17
1021.223	1303.95
1021.514	1321.35
1021.804	1303.27
1022.095	1288.13
1022.386	1260.56
1022.677	1246.32
1022.967	1250.39
1023.258	1213.33
1023.548	1241.35
1023.839	1211.97
1024.129	1242.48
1024.419	1251.97
1024.709	1230.73
1025	1215.36
1025.29	1182.82
1025.58	1182.6
1025.87	1172.65
1026.16	1154.12
1026.449	1183.5
1026.739	1162.26
1027.029	1144.18
1027.319	1131.98
1027.608	1147.79
1027.898	1118.19
1028.187	1125.65
1028.477	1119.77
1028.766	1087.46
1029.055	1078.64
1029.344	1114.12
1029.634	1082.03
1029.923	1079.1
1030.212	1096.72
1030.501	1074.35
1030.79	1078.42
1031.078	1053.56
1031.367	1047.01
1031.656	1040.68
1031.945	1039.55
1032.233	1054.92
1032.522	1035.93
1032.81	1006.78
1033.099	995.48
1033.387	1024.41
1033.675	1014.01
1033.963	1000.91
1034.251	978.08
1034.54	971.08
1034.828	974.24
1035.116	991.87
1035.403	968.36
1035.691	969.95
1035.979	970.62
1036.267	958.87
1036.554	945.54
1036.842	926.78
1037.129	927.91
1037.417	904.41
1037.704	947.8
1037.992	937.4
1038.279	925.88
1038.566	899.89
1038.853	899.89
1039.14	899.89
