Data from foam2_polystyrene_foam_FLMS001491_00018.txt Node
Date: Wed Feb 08 10:57:35 GMT 2017
User: dcchb
Spectrometer: FLMS00149
Trigger mode: 0
Integration Time (sec): 2.000000E-2
Scans to average: 10
Electric dark correction enabled: true
Nonlinearity correction enabled: false
Boxcar width: 0
XAxis mode: Wavelengths
Number of Pixels in Spectrum: 2048
>>>>>Begin Spectral Data<<<<<
341.393	-15.68
341.776	-15.68
342.16	-15.68
342.543	-67.88
342.927	-75.79
343.31	-68.78
343.693	-75.11
344.077	-52.51
344.46	-72.17
344.843	-55.9
345.226	-48.67
345.61	-24.49
345.993	-5.06
346.376	-11.84
346.759	9.63
347.142	18.67
347.525	40.37
347.908	43.76
348.291	75.62
348.674	100.03
349.057	126.47
349.44	137.31
349.823	144.32
350.206	174.83
350.588	216.63
350.971	222.73
351.354	243.75
351.737	249.4
352.119	251.43
352.502	265.67
352.884	286.91
353.267	269.29
353.65	323.07
354.032	293.24
354.414	322.17
354.797	322.17
355.179	337.08
355.562	320.36
355.944	357.87
356.326	354.71
356.709	339.12
357.091	331.88
357.473	353.58
357.855	342.96
358.238	360.81
358.62	333.69
359.002	334.37
359.384	351.09
359.766	375.95
360.148	361.94
360.53	370.98
360.912	366.01
361.294	363.97
361.676	348.83
362.057	363.52
362.439	353.58
362.821	336.4
363.203	356.74
363.584	366.69
363.966	359
364.348	339.57
364.729	348.15
365.111	357.42
365.493	348.83
365.874	345.22
366.256	342.51
366.637	372.56
367.019	345.44
367.4	351.32
367.781	363.3
368.163	352.9
368.544	355.39
368.925	355.39
369.306	364.88
369.688	336.18
370.069	334.14
370.45	335.73
370.831	361.71
371.212	353.35
371.593	367.59
371.974	339.57
372.355	359
372.736	364.88
373.117	359.91
373.498	357.42
373.879	349.28
374.26	345.22
374.641	358.55
375.021	356.52
375.402	366.01
375.783	373.69
376.163	382.28
376.544	403.07
376.925	392.9
377.305	359.23
377.686	374.14
378.066	361.94
378.447	380.7
378.827	388.61
379.208	387.25
379.588	381.83
379.968	380.47
380.349	406.91
380.729	408.94
381.109	411.43
381.489	409.17
381.87	434.25
382.25	416.63
382.63	412.56
383.01	397.19
383.39	420.47
383.77	431.32
384.15	420.7
384.53	438.1
384.91	428.6
385.29	442.84
385.67	447.59
386.049	446.68
386.429	468.6
386.809	453.69
387.189	472.45
387.568	449.85
387.948	461.82
388.328	456.17
388.707	462.28
389.087	489.17
389.466	467.7
389.846	498.21
390.225	487.81
390.605	509.28
390.984	510.18
391.363	499.11
391.743	513.35
392.122	530.52
392.501	514.93
392.881	503.63
393.26	524.42
393.639	548.38
394.018	514.93
394.397	537.08
394.776	541.6
395.155	545.89
395.534	563.29
395.913	521.94
396.292	559.67
396.671	571.43
397.05	572.56
397.429	568.49
397.808	568.04
398.186	575.27
398.565	580.92
398.944	570.97
399.323	582.95
399.701	602.61
400.08	594.48
400.458	582.72
400.837	629.28
401.215	621.82
401.594	615.04
401.972	641.93
402.351	626.11
402.729	629.28
403.107	639.22
403.486	629.05
403.864	658.2
404.242	647.13
404.62	676.51
404.999	666.79
405.377	670.86
405.755	698.65
406.133	715.83
406.511	690.29
406.889	698.65
407.267	725.77
407.645	735.94
408.023	748.6
408.401	736.85
408.779	758.77
409.156	766.22
409.534	785.88
409.912	770.52
410.29	803.28
410.667	799.89
411.045	805.77
411.422	799.67
411.8	820.23
412.178	841.25
412.555	860.46
412.933	835.37
413.31	851.64
413.687	886.22
414.065	875.15
414.442	875.82
414.819	888.25
415.197	896.39
415.574	918.08
415.951	884.64
416.328	921.02
416.705	932.32
417.082	933.22
417.46	952.43
417.837	974.35
418.214	986.78
418.591	956.05
418.967	972.32
419.344	1017.06
419.721	1011.19
420.098	1029.27
420.475	1024.52
420.852	1016.84
421.228	1070.17
421.605	1063.16
421.982	1059.55
422.358	1084.86
422.735	1072.43
423.111	1079.66
423.488	1120.11
423.864	1118.08
424.241	1169.38
424.617	1150.17
424.994	1166.44
425.37	1161.92
425.746	1173.67
426.123	1178.87
426.499	1200.34
426.875	1219.09
427.251	1212.99
427.627	1241.69
428.003	1276.49
428.379	1301.35
428.756	1275.81
429.132	1314.68
429.507	1356.26
429.883	1358.07
430.259	1378.86
430.635	1420.89
431.011	1380.67
431.387	1417.28
431.763	1455.02
432.138	1468.58
432.514	1481.91
432.89	1478.29
433.265	1509.71
433.641	1542.02
434.016	1541.34
434.392	1579.08
434.767	1617.27
435.143	1608.91
435.518	1628.8
435.894	1617.5
436.269	1630.83
436.644	1689.36
437.02	1681.68
437.395	1736.82
437.77	1740.43
438.145	1744.73
438.52	1770.94
438.895	1759.64
439.271	1797.16
439.646	1828.34
440.021	1842.58
440.395	1895.91
440.77	1862.69
441.145	1875.57
441.52	1908.34
441.895	1938.62
442.27	1923.48
442.645	1936.59
443.019	1955.57
443.394	1973.2
443.769	2010.48
444.143	2007.09
444.518	2023.82
444.892	1997.83
445.267	2066.08
445.641	2081.67
446.016	2097.71
446.39	2102.46
446.764	2135.45
447.139	2120.99
447.513	2153.3
447.887	2146.98
448.262	2170.71
448.636	2188.33
449.01	2209.8
449.384	2234.21
449.758	2283.7
450.132	2268.56
450.506	2286.63
450.88	2332.96
451.254	2329.35
451.628	2363.92
452.002	2399.85
452.376	2404.15
452.75	2443.47
453.123	2465.16
453.497	2514.2
453.871	2521.2
454.244	2595.78
454.618	2553.52
454.992	2619.73
455.365	2597.36
455.739	2678.26
456.112	2698.6
456.486	2706.96
456.859	2743.35
457.232	2803.23
457.606	2760.07
457.979	2832.16
458.352	2887.3
458.725	2914.41
459.099	2918.03
459.472	2953.51
459.845	3020.63
460.218	3041.87
460.591	3028.08
460.964	3083
461.337	3163.67
461.71	3192.15
462.083	3216.33
462.456	3227.63
462.829	3228.53
463.201	3311.69
463.574	3339.49
463.947	3420.16
464.32	3477.79
464.692	3493.61
465.065	3485.25
465.438	3539.71
465.81	3623.32
466.183	3629.2
466.555	3707.61
466.928	3713.72
467.3	3709.87
467.672	3800.95
468.045	3941.73
468.417	3891.11
468.789	3976.53
469.161	3989.64
469.534	4080.26
469.906	4131.56
470.278	4172.69
470.65	4250.65
471.022	4275.96
471.394	4364.32
471.766	4411.55
472.138	4443.41
472.51	4559.8
472.882	4611.55
473.253	4651.77
473.625	4738.1
473.997	4849.28
474.369	4865.78
474.74	4917.75
475.112	5021.03
475.484	5115.26
475.855	5144.19
476.227	5220.57
476.598	5380.34
476.97	5347.12
477.341	5519.54
477.713	5598.86
478.084	5676.38
478.455	5839.99
478.827	5890.61
479.198	5992.53
479.569	5989.59
479.94	6192.97
480.311	6199.07
480.682	6378.96
481.053	6533.98
481.424	6654.43
481.795	6654.2
482.166	6759.29
482.537	6879.28
482.908	6957.47
483.279	7047.64
483.65	7229.33
484.021	7382.55
484.391	7471.81
484.762	7507.06
485.133	7605.36
485.503	7740.73
485.874	7924.23
486.244	7951.34
486.615	8102.08
486.985	8202.19
487.356	8373.03
487.726	8430.2
488.097	8603.3
488.467	8611.44
488.837	8771.21
489.207	8914.48
489.578	9039.23
489.948	9088.72
490.318	9257.98
490.688	9302.27
491.058	9412.78
491.428	9579.1
491.798	9686.44
492.168	9837.85
492.538	9859.09
492.908	10034
493.278	10145.41
493.648	10168.01
494.017	10328.91
494.387	10428.12
494.757	10476.02
495.126	10701.33
495.496	10673.76
495.866	10732.97
496.235	10866.97
496.605	10964.15
496.974	11041.88
497.344	11130.92
497.713	11262.44
498.082	11286.85
498.452	11384.7
498.821	11467.41
499.19	11591.25
499.559	11678.7
499.928	11811.81
500.298	11806.16
500.667	11952.6
501.036	11957.34
501.405	12167.28
501.774	12135.64
502.143	12241.4
502.512	12281.63
502.88	12423.09
503.249	12459.93
503.618	12587.61
503.987	12642.29
504.356	12741.28
504.724	12819.92
505.093	12816.3
505.462	12967.03
505.83	12997.31
506.199	13211.09
506.567	13297.64
506.936	13332.9
507.304	13471.65
507.672	13529.5
508.041	13633.68
508.409	13750.51
508.777	13872.32
509.145	13987.57
509.514	13958.64
509.882	14087.45
510.25	14226.89
510.618	14422.36
510.986	14383.49
511.354	14516.6
511.722	14672.3
512.09	14831.84
512.458	14819.41
512.826	14993.65
513.193	15013.08
513.561	15025.51
513.929	15278.16
514.297	15350.92
514.664	15580.97
515.032	15458.49
515.4	15728.32
515.767	15799.5
516.135	15872.04
516.502	15812.15
516.869	16029.78
517.237	16160.17
517.604	16179.83
517.972	16410.11
518.339	16505.7
518.706	16504.57
519.073	16730.1
519.44	16790.66
519.808	16994.04
520.175	16965.12
520.542	17238.11
520.909	17352
521.276	17356.97
521.643	17537.76
522.009	17659.11
522.376	17910.86
522.743	17974.36
523.11	18194.01
523.477	18252.32
523.843	18346.1
524.21	18550.61
524.577	18687.33
524.943	18755.13
525.31	18955.8
525.676	19149.24
526.043	19236.92
526.409	19371.16
526.776	19574.99
527.142	19623.13
527.508	19799.17
527.874	19957.13
528.241	20083.68
528.607	20105.38
528.973	20386.95
529.339	20306.95
529.705	20657.23
530.071	20735.19
530.437	20877.11
530.803	21063.09
531.169	21155.07
531.535	21141.51
531.901	21243.2
532.267	21374.49
532.632	21532.46
532.998	21560.7
533.364	21757.54
533.73	21824.65
534.095	21993.69
534.461	21982.39
534.826	22207.92
535.192	22280.01
535.557	22395.94
535.923	22483.84
536.288	22533.33
536.653	22583.28
537.019	22641.35
537.384	22765.19
537.749	22808.58
538.114	22964.74
538.479	23014
538.845	23216.71
539.21	23229.81
539.575	23322.92
539.94	23278.85
540.305	23600.65
540.67	23439.98
541.034	23636.81
541.399	23795
541.764	23799.52
542.129	23917.7
542.494	24026.4
542.858	24075.89
543.223	24162.9
543.587	24324.47
543.952	24356.79
544.316	24346.85
544.681	24439.05
545.045	24594.07
545.41	24779.6
545.774	24745.93
546.138	24835.87
546.503	24822.77
546.867	24982.08
547.231	25258.91
547.595	25313.6
547.959	25284.22
548.324	25365.12
548.688	25424.56
549.052	25693.48
549.416	25641.05
549.779	25645.79
550.143	25761.95
550.507	26006.24
550.871	26057.54
551.235	26184.09
551.599	26269.06
551.962	26354.48
552.326	26452.33
552.689	26649.16
553.053	26582.95
553.417	26706.11
553.78	27076.94
554.143	26875.82
554.507	26912.2
554.87	27083.04
555.234	27395.58
555.597	27162.82
555.96	27399.42
556.323	27491.4
556.686	27540.89
557.05	27854.1
557.413	27846.41
557.776	27926.41
558.139	28289.79
558.502	28219.51
558.865	28298.61
559.228	28539.96
559.59	28664.92
559.953	28680.07
560.316	29059.04
560.679	29026.27
561.041	29122.77
561.404	29311.23
561.767	29529.53
562.129	29400.5
562.492	29791.45
562.854	29647.5
563.217	29758.91
563.579	29853.14
563.941	30207.71
564.304	30251.1
564.666	30401.38
565.028	30651.99
565.39	30706.9
565.753	30837.3
566.115	30833.68
566.477	30971.3
566.839	31168.81
567.201	31491.06
567.563	31339.2
567.925	31554.57
568.287	31633.43
568.648	31637.05
569.01	31686.77
569.372	32030.03
569.734	31819.19
570.095	32056.93
570.457	32225.06
570.819	32252.4
571.18	32314.77
571.542	32528.78
571.903	32602
572.265	32704.82
572.626	32849.45
572.987	32742.78
573.349	32990.69
573.71	33061.19
574.071	33142.32
574.432	33176.22
574.794	33594.51
575.155	33584.12
575.516	33410.34
575.877	33520.84
576.238	33672.93
576.599	33797.22
576.96	33826.37
577.32	33772.13
577.681	33993.37
578.042	34121.28
578.403	34018
578.763	34040.6
579.124	34210.99
579.485	34334.61
579.845	34286.47
580.206	34373.02
580.566	34412.57
580.927	34414.83
581.287	34676.52
581.648	34414.83
582.008	34466.58
582.368	34491.66
582.728	34641.04
583.089	34706.8
583.449	34679.46
583.809	34621.15
584.169	34879.45
584.529	34607.59
584.889	34951.54
585.249	34588.38
585.609	34659.57
585.969	34835.16
586.329	34804.65
586.688	34738.44
587.048	34888.94
587.408	34896.17
587.768	34834.48
588.127	34878.09
588.487	34651.21
588.846	35163.51
589.206	34971.65
589.565	34880.13
589.925	34916.96
590.284	34905.89
590.643	35018.2
591.003	35094.13
591.362	35103.63
591.721	35092.55
592.08	35149.05
592.44	35008.94
592.799	35054.13
593.158	35036.51
593.517	34928.49
593.876	35142.95
594.235	34974.36
594.593	35131.19
594.952	35153.12
595.311	35092.78
595.67	35151.53
596.029	35323.96
596.387	35359.21
596.746	35431.98
597.104	35246.22
597.463	35239.21
597.822	35318.76
598.18	35382.49
598.538	35208.03
598.897	35486.21
599.255	35204.41
599.613	35744.96
599.972	35530.28
600.33	35631.52
600.688	35541.81
601.046	35695.47
601.404	35769.6
601.762	35673.1
602.12	35877.39
602.478	35822.25
602.836	35871.51
603.194	35838.75
603.552	35831.97
603.91	35648.92
604.268	35956.48
604.625	35803.72
604.983	35891.17
605.341	35790.61
605.698	35853.89
606.056	36128.23
606.413	35912.42
606.771	36141.34
607.128	36111.28
607.485	35940.44
607.843	36024.28
608.2	36304.72
608.557	36337.94
608.914	36201.45
609.272	36288.68
609.629	36375.46
609.986	36582
610.343	36387.66
610.7	36607.09
611.057	36596.47
611.414	36625.84
611.771	36671.04
612.127	36631.72
612.484	36800.76
612.841	36858.83
613.198	36620.2
613.554	36648.67
613.911	37023.12
614.267	36960.3
614.624	36872.84
614.98	37047.08
615.337	37021.09
615.693	37047.3
616.05	36987.64
616.406	37239.61
616.762	37022.9
617.118	37029.9
617.475	37199.62
617.831	37223.12
618.187	37191.48
618.543	37368.88
618.899	37487.07
619.255	37372.27
619.611	37278.94
619.967	37400.74
620.323	37439.16
620.678	37418.14
621.034	37258.6
621.39	37388.76
621.746	37225.15
622.101	37695.65
622.457	37427.86
622.812	37533.62
623.168	37425.37
623.523	37441.87
623.879	37575.42
624.234	37225.6
624.589	37464.01
624.945	37462.89
625.3	37508.99
625.655	37340.18
626.01	37540.62
626.365	37363.9
626.72	37359.16
627.075	37362.77
627.43	37424.69
627.785	37234.42
628.14	37367.75
628.495	37277.35
628.85	37339.95
629.205	37157.81
629.559	37398.03
629.914	37142.67
630.269	37231.48
630.623	37220.63
630.978	37026.06
631.332	37274.19
631.687	37048.88
632.041	37037.81
632.396	37067.64
632.75	36875.1
633.104	36959.17
633.459	36791.49
633.813	36745.39
634.167	36686.18
634.521	36627.43
634.875	36881.21
635.229	36646.18
635.583	36424.04
635.937	36449.35
636.291	36415.45
636.645	36485.74
636.999	36238.96
637.352	36375.23
637.706	36106.99
638.06	36230.6
638.413	36141.79
638.767	36082.81
639.121	36179.75
639.474	35777.28
639.828	35904.73
640.181	35963.94
640.534	35863.83
640.888	35749.71
641.241	35581.13
641.594	35626.32
641.947	35756.04
642.301	35615.93
642.654	35585.42
643.007	35506.78
643.36	35496.16
643.713	35435.82
644.066	35526.66
644.419	35071.99
644.771	35042.61
645.124	34767.14
645.477	34726.91
645.83	34362.4
646.182	34165.8
646.535	34066.36
646.888	34119.7
647.24	33859.82
647.593	34096.42
647.945	34041.96
648.298	33849.87
648.65	33720.38
649.002	33611.46
649.355	33787.95
649.707	33802.64
650.059	33884
650.411	34271.56
650.763	34367.37
651.115	34611.21
651.467	34463.42
651.819	34457.54
652.171	34438.78
652.523	34241.5
652.875	34333.02
653.227	34173.48
653.578	34301.61
653.93	34242.18
654.282	34025.69
654.633	33935.52
654.985	34043.09
655.337	34165.8
655.688	34112.24
656.039	34176.87
656.391	33877.22
656.742	34008.06
657.094	33978
657.445	33945.46
657.796	33874.5
658.147	33832.47
658.498	33675.41
658.849	33723.55
659.2	33814.62
659.551	33587.73
659.902	33627.05
660.253	33681.52
660.604	33708.41
660.955	33483.1
661.306	33461.86
661.656	33630.9
662.007	33536.43
662.358	33500.28
662.708	33495.98
663.059	33450.56
663.409	33280.17
663.76	33519.26
664.11	33434.06
664.461	33461.18
664.811	33365.14
665.161	33395.42
665.511	33177.8
665.862	33341.64
666.212	33345.03
666.562	33366.04
666.912	33213.05
667.262	33194.75
667.612	33164.69
667.962	33249.66
668.312	33201.53
668.662	33281.75
669.011	33095.77
669.361	33125.37
669.711	33077.24
670.06	32978.26
670.41	32976.22
670.76	32721.99
671.109	32999.05
671.459	32928.77
671.808	32831.59
672.157	32839.73
672.507	32697.59
672.856	32667.98
673.205	32719.73
673.554	32863.91
673.904	32594.31
674.253	32969.9
674.602	32742.11
674.951	32305.96
675.3	32110.26
675.649	32520.42
675.998	32589.57
676.346	32569.23
676.695	32582.11
677.044	32411.27
677.393	32520.64
677.741	32467.99
678.09	32347.31
678.438	32212.63
678.787	32337.82
679.135	32201.33
679.484	32070.48
679.832	32253.08
680.181	32159.97
680.529	32260.99
680.877	32049.24
681.225	31948.68
681.573	32017.83
681.922	31930.38
682.27	31890.6
682.618	31838.85
682.966	31869.13
683.314	31879.75
683.661	31719.31
684.009	31547.56
684.357	31431.41
684.705	31465.3
685.053	31522.7
685.4	31417.39
685.748	31249.72
686.095	31214.46
686.443	30914.13
686.79	30968.37
687.138	30922.04
687.485	30930.18
687.832	30807.69
688.18	30930.18
688.527	30585.1
688.874	30711.88
689.221	30550.75
689.568	30447.7
689.915	30304.66
690.262	30397.99
690.609	30241.83
690.956	30141.72
691.303	30055.17
691.65	30001.84
691.997	30066.7
692.344	29814.95
692.69	29837.55
693.037	29739.02
693.383	29651.79
693.73	29806.36
694.077	29505.13
694.423	29533.15
694.769	29504.9
695.116	29462.19
695.462	29298.58
695.808	29132.93
696.155	29263.33
696.501	28903.34
696.847	28946.05
697.193	28735.2
697.539	28932.26
697.885	28672.38
698.231	28688.43
698.577	28698.82
698.923	28541.54
699.269	28387.64
699.614	28260.64
699.96	28287.53
700.306	28273.07
700.651	28139.06
700.997	28009.8
701.342	27912.63
701.688	27856.36
702.033	27838.28
702.379	27871.05
702.724	27764.38
703.069	27824.04
703.415	27522.58
703.76	27512.64
704.105	27475.8
704.45	27381.79
704.795	27285.53
705.14	27222.93
705.485	27177.05
705.83	27226.32
706.175	27135.02
706.52	27097.06
706.865	27009.37
707.209	26808.25
707.554	26803.05
707.899	26926.66
708.243	26730.74
708.588	26616.62
708.932	26506.34
709.277	26408.71
709.621	26412.33
709.966	26347.47
710.31	26403.29
710.654	26179.11
710.998	26229.51
711.342	26211.43
711.687	26146.12
712.031	26049.4
712.375	25862.29
712.719	26000.59
713.063	25934.83
713.407	25966.46
713.75	25804.89
714.094	25804.21
714.438	25615.74
714.782	25688.51
715.125	25464.56
715.469	25599.47
715.812	25366.93
716.156	25374.16
716.499	25296.65
716.843	25388.63
717.186	25207.61
717.53	25339.81
717.873	25330.55
718.216	25293.49
718.559	25050.33
718.902	24971.46
719.246	25048.07
719.589	25020.73
719.932	24955.19
720.275	24855.53
720.617	24848.08
720.96	24871.13
721.303	24891.24
721.646	24770.56
721.989	24515.2
722.331	24712.49
722.674	24541.19
723.016	24634.52
723.359	24562.89
723.701	24546.39
724.044	24486.28
724.386	24305.94
724.729	24427.75
725.071	24312.95
725.413	24283.57
725.755	24355.66
726.097	24078.83
726.439	24062.56
726.782	24085.38
727.124	24110.92
727.465	24041.54
727.807	23905.5
728.149	23895.11
728.491	23879.74
728.833	23955.67
729.175	23679.74
729.516	23874.54
729.858	23603.81
730.199	23743.47
730.541	23754.54
730.882	23607.66
731.224	23635
731.565	23565.62
731.906	23521.56
732.248	23531.95
732.589	23443.82
732.93	23300.09
733.271	23397.72
733.612	23433.2
733.953	23382.13
734.294	23378.06
734.635	23253.77
734.976	23283.82
735.317	23064.85
735.658	23169.93
735.999	23208.57
736.339	23024.62
736.68	23087.22
737.021	23067.33
737.361	22990.05
737.702	23012.42
738.042	22961.12
738.383	22858.07
738.723	22890.84
739.063	22759.77
739.404	22802.93
739.744	22817.17
740.084	22768.58
740.424	22708.7
740.764	22640.9
741.104	22737.85
741.444	22618.53
741.784	22473
742.124	22482.26
742.464	22538.98
742.804	22563.16
743.143	22425.99
743.483	22393.9
743.823	22323.17
744.162	22336.28
744.502	22315.26
744.841	22218.54
745.181	22334.24
745.52	22201.14
745.86	22193.46
746.199	22062.39
746.538	22061.71
746.877	22095.83
747.216	22083.18
747.556	22011.54
747.895	21975.83
748.234	21840.02
748.573	21931.32
748.911	21774.71
749.25	21753.92
749.589	21612.45
749.928	21685.9
750.267	21688.38
750.605	21523.87
750.944	21544.43
751.283	21425.11
751.621	21526.13
751.96	21463.08
752.298	21510.31
752.636	21445.23
752.975	21258.57
753.313	21174.05
753.651	21297.43
753.989	21187.15
754.327	21049.98
754.666	21033.71
755.004	21122.3
755.342	21052.92
755.679	21029.19
756.017	20794.85
756.355	20955.97
756.693	20736.09
757.031	20716.21
757.368	20670.11
757.706	20575.87
758.044	20421.3
758.381	20545.59
758.719	20469.43
759.056	20490
759.394	20401.86
759.731	20159.39
760.068	20224.69
760.405	20158.48
760.743	20092.72
761.08	20113.96
761.417	20069.67
761.754	20017.47
762.091	19871.48
762.428	19828.55
762.765	19711.49
763.102	19876.23
763.438	19727.31
763.775	19584.94
764.112	19607.99
764.449	19568.44
764.785	19429.46
765.122	19271.27
765.458	19133.88
765.795	19205.74
766.131	19250.03
766.467	19091.16
766.804	19102.92
767.14	19026.08
767.476	18953.32
767.812	18876.26
768.148	18855.46
768.485	18708.35
768.821	18639.43
769.157	18637.17
769.492	18546.32
769.828	18547.68
770.164	18332.31
770.5	18285.08
770.836	18289.38
771.171	18081.93
771.507	18091.19
771.842	18050.51
772.178	18050.29
772.513	17946.34
772.849	17872.89
773.184	17822.95
773.519	17879.9
773.855	17716.96
774.19	17592.67
774.525	17501.38
774.86	17505.22
775.195	17409.63
775.53	17366.69
775.865	17346.58
776.2	17201.04
776.535	17154.04
776.87	17222.06
777.205	16983.65
777.539	16918.79
777.874	16976.87
778.209	16809.87
778.543	16794.28
778.878	16689.42
779.212	16741.62
779.547	16544.79
779.881	16639.03
780.215	16513.15
780.55	16571
780.884	16440.39
781.218	16434.51
781.552	16418.47
781.886	16242.65
782.22	16208.3
782.554	16208.53
782.888	15933.73
783.222	15967.63
783.556	15871.14
783.889	15844.92
784.223	15732.83
784.557	15718.6
784.89	15737.81
785.224	15584.14
785.557	15476.12
785.891	15470.24
786.224	15446.06
786.558	15413.52
786.891	15318.61
787.224	15275.9
787.557	15219.85
787.891	15188.89
788.224	15138.95
788.557	15152.29
788.89	15041.33
789.223	15052.17
789.556	14960.43
789.888	14912.97
790.221	14793.65
790.554	14752.52
790.887	14784.16
791.219	14609.25
791.552	14578.06
791.884	14541
792.217	14422.36
792.549	14405.64
792.882	14344.4
793.214	14351.85
793.546	14325.41
793.879	14227.79
794.211	14175.81
794.543	14181.69
794.875	14141.46
795.207	14052.2
795.539	14077.96
795.871	14060.56
796.203	13922.71
796.535	13844.75
796.867	13870.74
797.198	13850.62
797.53	13772.89
797.862	13668.03
798.193	13668.03
798.525	13618.77
798.856	13614.25
799.188	13520.69
799.519	13464.42
799.85	13376.74
800.182	13488.6
800.513	13429.84
800.844	13260.58
801.175	13277.98
801.506	13273.69
801.837	13212
802.168	13174.48
802.499	13150.76
802.83	13065.33
803.161	13090.42
803.491	12989.86
803.822	13028.5
804.153	12928.61
804.483	12859.69
804.814	12732.91
805.145	12757.09
805.475	12831.44
805.805	12746.02
806.136	12760.94
806.466	12705.8
806.796	12693.82
807.126	12610.21
807.457	12517.78
807.787	12558.23
808.117	12501.96
808.447	12433.26
808.777	12435.75
809.107	12406.37
809.436	12367.73
809.766	12354.17
810.096	12329.08
810.426	12244.79
810.755	12229.42
811.085	12167.73
811.414	12154.4
811.744	12089.77
812.073	12000.28
812.403	12033.5
812.732	11977.45
813.061	12040.95
813.39	11887.96
813.719	11921.64
814.049	11945.82
814.378	11952.14
814.707	11777.01
815.036	11817.23
815.365	11725.26
815.693	11650.91
816.022	11644.13
816.351	11628.54
816.68	11643.22
817.008	11574.75
817.337	11474.19
817.665	11483.68
817.994	11541.08
818.322	11501.31
818.651	11451.14
818.979	11421.76
819.307	11464.47
819.636	11415.66
819.964	11296.34
820.292	11391.93
820.62	11278.04
820.948	11290.47
821.276	11395.32
821.604	11267.19
821.932	11264.03
822.259	11279.17
822.587	11306.51
822.915	11154.65
823.243	11284.36
823.57	11289.79
823.898	11252.73
824.225	11247.98
824.553	11272.39
824.88	11238.26
825.207	11294.99
825.535	11297.47
825.862	11310.58
826.189	11289.79
826.516	11318.94
826.843	11411.14
827.17	11262.44
827.497	11294.99
827.824	11298.6
828.151	11337.7
828.478	11271.03
828.805	11261.31
829.131	11230.81
829.458	11270.81
829.785	11228.32
830.111	11160.53
830.438	11213.18
830.764	11216.12
831.09	11215.67
831.417	11124.14
831.743	11211.37
832.069	11168.21
832.395	11116.69
832.722	11202.33
833.048	11158.27
833.374	11215.44
833.7	11103.8
834.026	11089.34
834.351	11080.3
834.677	11090.92
835.003	11090.47
835.329	11037.37
835.654	11072.39
835.98	11006.63
836.306	11043.24
836.631	10933.87
836.956	11022.22
837.282	10990.36
837.607	10947.42
837.932	10953.98
838.258	10906.07
838.583	10900.65
838.908	10871.95
839.233	10859.06
839.558	10830.36
839.883	10786.3
840.208	10723.02
840.533	10776.13
840.858	10800.76
841.182	10780.65
841.507	10695
841.832	10612.52
842.156	10605.74
842.481	10665.62
842.805	10583.82
843.13	10543.37
843.454	10615.46
843.778	10513.99
844.103	10547.43
844.427	10453.2
844.751	10519.19
845.075	10440.09
845.399	10423.14
845.723	10373.43
846.047	10395.12
846.371	10259.76
846.695	10307.89
847.019	10246.43
847.343	10227.67
847.666	10155.35
847.99	10116.03
848.313	10061.12
848.637	10041.23
848.96	9933.67
849.284	9938.86
849.607	9921.24
849.931	9862.71
850.254	9857.06
850.577	9772.09
850.9	9653.45
851.223	9712.43
851.546	9673.56
851.869	9586.1
852.192	9639.89
852.515	9568.48
852.838	9455.03
853.161	9553.11
853.483	9456.39
853.806	9418.2
854.129	9399.67
854.451	9412.78
854.774	9317.64
855.096	9286.9
855.419	9243.06
855.741	9300.46
856.063	9221.82
856.385	9159.9
856.708	9113.35
857.03	9104.99
857.352	9136.62
857.674	9060.69
857.996	9062.95
858.318	9012.33
858.64	9008.27
858.961	9035.84
859.283	8888.27
859.605	8862.51
859.926	8881.72
860.248	8852.79
860.57	8856.86
860.891	8880.59
861.212	8749.52
861.534	8827.25
861.855	8765.79
862.176	8759.91
862.498	8778.44
862.819	8759.68
863.14	8736.18
863.461	8724.43
863.782	8683.3
864.103	8617.99
864.424	8707.03
864.745	8674.94
865.065	8655.73
865.386	8594.72
865.707	8629.52
866.027	8574.83
866.348	8595.85
866.668	8625.23
866.989	8548.17
867.309	8569.63
867.63	8512.23
867.95	8554.72
868.27	8453.03
868.59	8460.26
868.91	8462.29
869.23	8445.12
869.55	8452.8
869.87	8416.42
870.19	8336.87
870.51	8385.68
870.83	8371.9
871.15	8309.75
871.469	8344.55
871.789	8411.45
872.109	8335.06
872.428	8227.95
872.748	8279.92
873.067	8336.19
873.386	8238.79
873.706	8228.4
874.025	8211.9
874.344	8219.59
874.663	8179.81
874.982	8179.14
875.301	8170.77
875.62	8192.47
875.939	8124.45
876.258	8105.92
876.577	8095.97
876.896	8125.8
877.214	8083.77
877.533	8114.5
877.852	8048.97
878.17	8121.51
878.489	8144.11
878.807	7993.38
879.125	8013.04
879.444	8051.45
879.762	7985.47
880.08	8005.58
880.398	7970.1
880.716	8022.53
881.034	7878.8
881.352	7967.16
881.67	7935.53
881.988	7909.31
882.306	7919.48
882.624	7923.1
882.941	7856.66
883.259	7799.48
883.577	7817.11
883.894	7783.44
884.212	7779.82
884.529	7768.98
884.846	7759.94
885.164	7729.43
885.481	7743.89
885.798	7723.33
886.115	7589.55
886.432	7647.4
886.75	7646.27
887.067	7674.29
887.383	7652.37
887.7	7641.07
888.017	7614.18
888.334	7559.04
888.651	7546.38
888.967	7548.19
889.284	7488.53
889.6	7443.79
889.917	7464.13
890.233	7442.43
890.55	7357.01
890.866	7411.92
891.182	7383.22
891.498	7366.05
891.815	7317.46
892.131	7263.91
892.447	7318.14
892.763	7261.87
893.079	7282.89
893.395	7234.53
893.71	7247.18
894.026	7183
894.342	7147.52
894.657	7120.18
894.973	7057.58
895.289	7077.24
895.604	7134.64
895.92	7084.7
896.235	7005.15
896.55	7012.84
896.865	7007.87
897.181	6995.66
897.496	6968.09
897.811	6964.25
898.126	6851.03
898.441	6889
898.756	6824.82
899.071	6851.49
899.386	6809
899.7	6733.07
900.015	6735.78
900.33	6675.67
900.644	6698.95
900.959	6733.52
901.273	6686.29
901.588	6600.65
901.902	6666.86
902.216	6595.9
902.531	6569.91
902.845	6533.3
903.159	6529.46
903.473	6541.66
903.787	6503.93
904.101	6454.66
904.415	6445.62
904.729	6448.56
905.042	6410.82
905.356	6405.4
905.67	6363.14
905.984	6352.97
906.297	6277.04
906.611	6276.13
906.924	6255.8
907.237	6243.59
907.551	6243.82
907.864	6227.32
908.177	6169.7
908.491	6147.55
908.804	6102.35
909.117	6092.18
909.43	6050.6
909.743	6055.35
910.056	6032.07
910.368	6047.21
910.681	5982.36
910.994	5977.16
911.307	5920.66
911.619	5859.65
911.932	5905.07
912.244	5867.11
912.557	5932.64
912.869	5825.07
913.181	5791.63
913.494	5780.55
913.806	5670.95
914.118	5722.93
914.43	5699.2
914.742	5704.85
915.054	5690.16
915.366	5658.75
915.678	5619.2
915.99	5616.49
916.302	5548.7
916.613	5534.01
916.925	5534.91
917.236	5521.58
917.548	5505.31
917.859	5481.81
918.171	5481.58
918.482	5450.17
918.794	5405.42
919.105	5376.95
919.416	5337.18
919.727	5338.31
920.038	5325.65
920.349	5269.38
920.66	5233.9
920.971	5252.43
921.282	5203.17
921.593	5215.82
921.903	5159.55
922.214	5143.73
922.525	5089.95
922.835	5118.65
923.146	5038.43
923.456	5084.98
923.767	5051.08
924.077	5045.88
924.387	4983.29
924.697	5000.91
925.008	4925.89
925.318	4984.87
925.628	4920.69
925.938	4891.09
926.248	4827.58
926.558	4802.95
926.867	4871.65
927.177	4795.04
927.487	4819.45
927.796	4788.26
928.106	4736.06
928.416	4743.52
928.725	4747.81
929.034	4713.46
929.344	4728.83
929.653	4697.64
929.962	4655.84
930.271	4630.53
930.581	4592.79
930.89	4581.49
931.199	4584.88
931.508	4564.99
931.817	4485.67
932.125	4489.29
932.434	4499.23
932.743	4464.2
933.051	4477.31
933.36	4427.37
933.669	4377.43
933.977	4367.94
934.286	4340.59
934.594	4341.04
934.902	4314.83
935.21	4331.78
935.519	4294.94
935.827	4258.56
936.135	4271.44
936.443	4206.13
936.751	4231.22
937.059	4201.84
937.367	4197.09
937.674	4205.91
937.982	4200.26
938.29	4168.85
938.597	4135.63
938.905	4092.91
939.213	4078.45
939.52	4080.26
939.827	4048.62
940.135	4045.68
940.442	4056.98
940.749	3988.28
941.056	4020.37
941.363	3942.41
941.67	3939.25
941.977	3945.57
942.284	3885.69
942.591	3871
942.898	3867.84
943.205	3877.78
943.511	3869.64
943.818	3843.2
944.125	3808.4
944.431	3800.72
944.738	3785.13
945.044	3752.58
945.35	3722.3
945.657	3743.09
945.963	3723.43
946.269	3664.45
946.575	3687.28
946.881	3676.2
947.187	3678.46
947.493	3602.53
947.799	3632.14
948.105	3590.78
948.41	3607.05
948.716	3576.77
949.022	3547.84
949.327	3601.85
949.633	3539.94
949.938	3536.09
950.244	3511.46
950.549	3471.91
950.854	3469.65
951.16	3472.37
951.465	3457
951.77	3425.36
952.075	3440.73
952.38	3393.95
952.685	3373.39
952.99	3401.63
953.294	3350.79
953.599	3338.58
953.904	3327.06
954.209	3264.91
954.513	3306.95
954.818	3310.34
955.122	3260.17
955.426	3276.21
955.731	3228.08
956.035	3237.34
956.339	3212.94
956.643	3203.22
956.948	3186.95
957.252	3173.17
957.556	3181.53
957.86	3157.8
958.163	3164.35
958.467	3108.76
958.771	3138.14
959.075	3135.2
959.378	3053.62
959.682	3048.42
959.985	3086.84
960.289	3073.51
960.592	2954.64
960.896	3049.1
961.199	3055.88
961.502	2985.83
961.805	2976.56
962.108	2964.13
962.411	2970.46
962.714	2948.09
963.017	2902.66
963.32	2935.21
963.623	2941.31
963.926	2911.7
964.228	2941.08
964.531	2913.28
964.833	2901.99
965.136	2862.44
965.438	2840.07
965.741	2834.19
966.043	2843.91
966.345	2798.49
966.648	2772.05
966.95	2793.74
967.252	2766.85
967.554	2741.54
967.856	2742.22
968.158	2761.65
968.46	2754.65
968.761	2719.62
969.063	2682.1
969.365	2702.44
969.666	2697.92
969.968	2641.43
970.269	2662.67
970.571	2638.72
970.872	2615.21
971.174	2643.24
971.475	2640.75
971.776	2616.57
972.077	2616.57
972.378	2589
972.679	2564.59
972.98	2585.84
973.281	2544.03
973.582	2556.01
973.883	2474.65
974.183	2506.97
974.484	2513.97
974.785	2507.87
975.085	2494.54
975.386	2497.7
975.686	2468.32
975.986	2450.47
976.287	2443.01
976.587	2447.53
976.887	2406.41
977.187	2399.63
977.487	2414.54
977.787	2370.7
978.087	2390.36
978.387	2379.74
978.687	2366.18
978.987	2360.53
979.286	2362.11
979.586	2316.92
979.885	2351.04
980.185	2363.92
980.484	2300.65
980.784	2274.88
981.083	2279.4
981.382	2263.81
981.682	2275.56
981.981	2254.55
982.28	2252.96
982.579	2239.4
982.878	2227.43
983.177	2185.39
983.475	2196.92
983.774	2197.15
984.073	2210.7
984.372	2201.21
984.67	2167.09
984.969	2175.9
985.267	2155.11
985.566	2156.02
985.864	2161.89
986.162	2115.79
986.461	2129.8
986.759	2094.1
987.057	2086.87
987.355	2107.88
987.653	2086.87
987.951	2093.42
988.249	2057.71
988.547	2055.68
988.844	2029.47
989.142	2016.36
989.44	2032.18
989.737	2001.22
990.035	1994.21
990.332	1995.57
990.63	1988.34
990.927	1983.59
991.224	2001.22
991.521	1954.44
991.819	1968.9
992.116	1975.91
992.413	1957.6
992.71	1931.39
993.006	1918.28
993.303	1916.93
993.6	1900.66
993.897	1899.07
994.193	1897.49
994.49	1885.97
994.787	1851.84
995.083	1850.04
995.379	1825.86
995.676	1851.17
995.972	1829.25
996.268	1835.35
996.565	1803.48
996.861	1787.66
997.157	1815.46
997.453	1803.26
997.749	1788.79
998.044	1755.12
998.34	1777.04
998.636	1739.3
998.932	1749.7
999.227	1769.13
999.523	1755.35
999.818	1740.21
1000.114	1738.85
1000.409	1697.05
1000.704	1699.98
1001	1686.2
1001.295	1703.83
1001.59	1705.86
1001.885	1676.93
1002.18	1630.15
1002.475	1654.34
1002.77	1634.9
1003.065	1637.84
1003.359	1611.4
1003.654	1592.87
1003.949	1611.17
1004.243	1622.92
1004.538	1588.57
1004.832	1596.03
1005.127	1562.36
1005.421	1569.37
1005.715	1570.5
1006.009	1567.33
1006.304	1559.87
1006.598	1519.65
1006.892	1519.65
1007.186	1555.81
1007.48	1535.24
1007.773	1516.49
1008.067	1512.87
1008.361	1490.05
1008.655	1514.68
1008.948	1478.52
1009.242	1482.59
1009.535	1470.84
1009.829	1450.5
1010.122	1447.33
1010.415	1443.27
1010.708	1431.29
1011.001	1430.84
1011.295	1419.09
1011.588	1391.74
1011.881	1391.07
1012.173	1387.9
1012.466	1353.78
1012.759	1373.66
1013.052	1368.92
1013.344	1368.01
1013.637	1356.49
1013.93	1344.96
1014.222	1332.99
1014.514	1324.4
1014.807	1331.18
1015.099	1312.2
1015.391	1316.72
1015.683	1268.13
1015.976	1299.99
1016.268	1276.04
1016.56	1287.34
1016.851	1283.72
1017.143	1250.5
1017.435	1287.57
1017.727	1274.01
1018.018	1236.94
1018.31	1223.61
1018.602	1244.85
1018.893	1208.25
1019.185	1221.13
1019.476	1191.52
1019.767	1193.1
1020.058	1200.11
1020.35	1191.97
1020.641	1193.56
1020.932	1156.27
1021.223	1175.93
1021.514	1174.8
1021.804	1116.5
1022.095	1128.47
1022.386	1148.13
1022.677	1120.11
1022.967	1120.34
1023.258	1133.22
1023.548	1096.38
1023.839	1104.07
1024.129	1100.45
1024.419	1084.41
1024.709	1078.3
1025	1089.6
1025.29	1090.51
1025.58	1053.45
1025.87	1064.97
1026.16	1051.64
1026.449	1052.54
1026.739	1029.72
1027.029	1025.2
1027.319	1017.06
1027.608	1009.15
1027.898	1020.45
1028.187	1004.86
1028.477	1008.48
1028.766	1003.96
1029.055	994.92
1029.344	977.74
1029.634	980.91
1029.923	966.67
1030.212	959.66
1030.501	958.53
1030.79	949.95
1031.078	964.64
1031.367	941.13
1031.656	949.04
1031.945	937.07
1032.233	954.92
1032.522	923.96
1032.81	921.25
1033.099	904.07
1033.387	893.9
1033.675	900.68
1033.963	920.12
1034.251	902.04
1034.54	895.48
1034.828	881.7
1035.116	884.41
1035.403	858.88
1035.691	876.95
1035.979	861.14
1036.267	863.17
1036.554	871.53
1036.842	860.01
1037.129	830.85
1037.417	805.54
1037.704	812.1
1037.992	813.68
1038.279	824.98
1038.566	832.44
1038.853	832.44
1039.14	832.44
