Data from foam_black_FLMS001491_00093.txt Node
Date: Wed Feb 08 10:45:05 GMT 2017
User: dcchb
Spectrometer: FLMS00149
Trigger mode: 0
Integration Time (sec): 2.000000E-2
Scans to average: 10
Electric dark correction enabled: true
Nonlinearity correction enabled: false
Boxcar width: 0
XAxis mode: Wavelengths
Number of Pixels in Spectrum: 2048
>>>>>Begin Spectral Data<<<<<
341.393	-7.63
341.776	-7.63
342.16	-7.63
342.543	-60.51
342.927	-66.16
343.31	-49.66
343.693	-55.31
344.077	-63.9
344.46	-61.64
344.843	-36.1
345.226	-46.27
345.61	-33.61
345.993	-38.13
346.376	-17.57
346.759	-3.11
347.142	29.43
347.525	52.26
347.908	34.86
348.291	76.44
348.674	97.46
349.057	114.86
349.44	113.5
349.823	131.35
350.206	146.04
350.588	183.1
350.971	171.35
351.354	200.96
351.737	208.64
352.119	236.66
352.502	228.75
352.884	247.96
353.267	253.38
353.65	269.43
354.032	266.26
354.414	274.63
354.797	277.79
355.179	264.68
355.562	299.03
355.944	295.42
356.326	287.51
356.709	313.72
357.091	296.55
357.473	304.68
357.855	312.36
358.238	333.61
358.62	315.53
359.002	306.94
359.384	314.85
359.766	318.92
360.148	323.44
360.53	314.4
360.912	318.01
361.294	310.1
361.676	288.41
362.057	298.81
362.439	291.8
362.821	290.22
363.203	313.95
363.584	293.16
363.966	284.34
364.348	299.26
364.729	302.65
365.111	310.33
365.493	284.57
365.874	288.41
366.256	287.51
366.637	289.31
367.019	295.19
367.4	284.34
367.781	279.6
368.163	281.86
368.544	280.05
368.925	295.19
369.306	288.41
369.688	272.82
370.069	280.5
370.45	277.79
370.831	265.13
371.212	280.73
371.593	271.46
371.974	278.02
372.355	292.48
372.736	271.46
373.117	292.03
373.498	305.36
373.879	275.98
374.26	295.87
374.641	268.3
375.021	291.35
375.402	262.2
375.783	282.99
376.163	282.76
376.544	297.22
376.925	316.66
377.305	285.92
377.686	305.36
378.066	286.15
378.447	288.18
378.827	273.72
379.208	292.03
379.588	270.56
379.968	294.29
380.349	296.32
380.729	291.57
381.109	304.23
381.489	280.28
381.87	299.48
382.25	300.61
382.63	296.77
383.01	308.3
383.39	284.34
383.77	313.95
384.15	310.33
384.53	308.3
384.91	323.89
385.29	298.13
385.67	287.51
386.049	315.53
386.429	293.16
386.809	286.15
387.189	296.09
387.568	304.23
387.948	289.77
388.328	321.18
388.707	309.43
389.087	306.26
389.466	316.43
389.846	294.51
390.225	291.8
390.605	309.2
390.984	300.39
391.363	287.28
391.743	299.71
392.122	313.72
392.501	299.03
392.881	316.88
393.26	301.52
393.639	299.71
394.018	324.12
394.397	318.01
394.776	327.28
395.155	311.01
395.534	319.6
395.913	313.49
396.292	301.52
396.671	299.48
397.05	300.84
397.429	328.86
397.808	313.49
398.186	296.09
398.565	322.76
398.944	320.05
399.323	327.73
399.701	341.29
400.08	332.7
400.458	320.73
400.837	330.9
401.215	328.18
401.594	319.14
401.972	335.19
402.351	333.61
402.729	337.45
403.107	336.32
403.486	319.14
403.864	337
404.242	321.63
404.62	325.47
404.999	330.67
405.377	320.5
405.755	307.17
406.133	317.34
406.511	329.31
406.889	321.63
407.267	331.12
407.645	324.57
408.023	340.39
408.401	337.22
408.779	330.22
409.156	343.1
409.534	328.64
409.912	334.28
410.29	356.43
410.667	357.56
411.045	326.15
411.422	340.61
411.8	358.47
412.178	339.93
412.555	344.68
412.933	340.84
413.31	358.47
413.687	330.22
414.065	333.38
414.442	351.91
414.819	332.93
415.197	333.61
415.574	349.65
415.951	340.16
416.328	364.11
416.705	355.08
417.082	397.56
417.46	367.96
417.837	360.27
418.214	351.69
418.591	349.65
418.967	372.02
419.344	352.59
419.721	372.48
420.098	367.05
420.475	378.13
420.852	368.86
421.228	363.44
421.605	381.52
421.982	382.87
422.358	364.57
422.735	383.55
423.111	375.19
423.488	384.91
423.864	380.61
424.241	369.76
424.617	379.93
424.994	396.88
425.37	375.64
425.746	373.61
426.123	382.65
426.499	403.44
426.875	382.65
427.251	377
427.627	377
428.003	403.44
428.379	387.39
428.756	407.05
429.132	394.62
429.507	398.69
429.883	386.71
430.259	403.66
430.635	418.35
431.011	398.46
431.387	403.66
431.763	419.48
432.138	426.49
432.514	406.37
432.89	411.35
433.265	398.24
433.641	410.44
434.016	423.55
434.392	412.48
434.767	422.42
435.143	419.48
435.518	412.02
435.894	421.97
436.269	402.76
436.644	420.84
437.02	426.94
437.395	425.13
437.77	434.4
438.145	431.68
438.52	437.56
438.895	425.58
439.271	413.6
439.646	433.04
440.021	430.55
440.395	456.09
440.77	428.52
441.145	429.42
441.52	456.32
441.895	446.15
442.27	435.3
442.645	453.6
443.019	437.33
443.394	452.93
443.769	452.02
444.143	448.86
444.518	485.47
444.892	459.48
445.267	450.21
445.641	457.22
446.016	457.45
446.39	456.32
446.764	462.19
447.139	469.87
447.513	455.64
447.887	447.5
448.262	459.71
448.636	464.68
449.01	476.43
449.384	454.06
449.758	469.87
450.132	452.02
450.506	476.88
450.88	471.46
451.254	459.03
451.628	489.54
452.002	475.75
452.376	475.75
452.75	490.44
453.123	492.02
453.497	491.79
453.871	488.41
454.244	501.06
454.618	494.28
454.992	504.9
455.365	520.04
455.739	518.23
456.112	513.26
456.486	504.68
456.859	520.72
457.232	497.67
457.606	506.48
457.979	511.91
458.352	496.77
458.725	523.21
459.099	515.52
459.472	523.21
459.845	537.44
460.218	536.31
460.591	535.64
460.964	518.46
461.337	559.14
461.71	546.71
462.083	543.09
462.456	588.06
462.829	542.19
463.201	548.06
463.574	568.18
463.947	557.78
464.32	564.34
464.692	555.52
465.065	579.25
465.438	559.82
465.81	581.28
466.183	591
466.555	577.67
466.928	616.09
467.3	572.24
467.672	593.71
468.045	598.68
468.417	597.55
468.789	604.11
469.161	595.3
469.534	629.87
469.906	617.22
470.278	605.46
470.65	622.41
471.022	658.57
471.394	630.55
471.766	614.73
472.138	651.56
472.51	674.84
472.882	636.88
473.253	670.1
473.625	676.2
473.997	669.42
474.369	677.55
474.74	682.3
475.112	693.82
475.484	687.72
475.855	703.09
476.227	702.64
476.598	706.93
476.97	723.65
477.341	724.33
477.713	734.73
478.084	727.72
478.455	749.19
478.827	739.7
479.198	754.61
479.569	743.31
479.94	763.43
480.311	769.08
480.682	791.9
481.053	792.8
481.424	799.58
481.795	816.31
482.166	789.64
482.537	820.6
482.908	855.85
483.279	836.64
483.65	828.74
484.021	844.78
484.391	863.99
484.762	870.77
485.133	845.01
485.503	870.09
485.874	901.95
486.244	903.08
486.615	904.44
486.985	934.27
487.356	950.31
487.726	952.8
488.097	922.74
488.467	961.39
488.837	967.49
489.207	998.45
489.578	995.96
489.948	1000.26
490.318	1001.16
490.688	985.12
491.058	997.32
491.428	1029.63
491.798	1021.95
492.168	1031.67
492.538	1048.84
492.908	1060.37
493.278	1044.77
493.648	1056.07
494.017	1086.13
494.387	1063.76
494.757	1106.47
495.126	1095.39
495.496	1121.61
495.866	1117.32
496.235	1100.37
496.605	1131.55
496.974	1135.62
497.344	1124.32
497.713	1150.08
498.082	1132.46
498.452	1157.09
498.821	1149.4
499.19	1178.56
499.559	1145.79
499.928	1164.09
500.298	1195.51
500.667	1162.29
501.036	1198.22
501.405	1185.56
501.774	1165.68
502.143	1207.71
502.512	1197.77
502.88	1197.99
503.249	1226.46
503.618	1197.31
503.987	1224.43
504.356	1235.73
504.724	1213.13
505.093	1230.08
505.462	1208.61
505.83	1206.35
506.199	1279.12
506.567	1257.2
506.936	1289.29
507.304	1256.97
507.672	1286.8
508.041	1305.11
508.409	1294.71
508.777	1269.85
509.145	1301.94
509.514	1317.99
509.882	1290.64
510.25	1350.53
510.618	1342.39
510.986	1362.51
511.354	1372
511.722	1354.15
512.09	1344.88
512.458	1404.54
512.826	1356.41
513.193	1402.28
513.561	1393.47
513.929	1389.4
514.297	1398.66
514.664	1453.35
515.032	1448.83
515.4	1477.08
515.767	1478.21
516.135	1468.49
516.502	1470.07
516.869	1492.22
517.237	1491.54
517.604	1517.53
517.972	1510.53
518.339	1540.58
518.706	1510.53
519.073	1552.56
519.44	1564.54
519.808	1551.65
520.175	1551.2
520.542	1591.43
520.909	1570.18
521.276	1586
521.643	1559.11
522.009	1596.85
522.376	1627.58
522.743	1645.44
523.11	1629.17
523.477	1623.29
523.843	1647.47
524.21	1638.21
524.577	1642.73
524.943	1661.48
525.31	1672.78
525.676	1695.38
526.043	1686.11
526.409	1687.02
526.776	1684.31
527.142	1708.03
527.508	1683.18
527.874	1694.02
528.241	1730.18
528.607	1724.08
528.973	1724.3
529.339	1757.3
529.705	1748.94
530.071	1733.34
530.437	1737.41
530.803	1776.28
531.169	1749.84
531.535	1754.81
531.901	1780.12
532.267	1783.51
532.632	1806.56
532.998	1791.65
533.364	1851.08
533.73	1828.48
534.095	1824.87
534.461	1839.33
534.826	1863.28
535.192	1886.79
535.557	1877.75
535.923	1867.35
536.288	1898.76
536.653	1880.46
537.019	1895.15
537.384	1888.37
537.749	1944.86
538.114	1915.03
538.479	1957.07
538.845	1951.42
539.21	1942.83
539.575	1954.13
539.94	1970.4
540.305	1988.93
540.67	1999.78
541.034	1985.77
541.399	2011.98
541.764	1997.97
542.129	1986.22
542.494	2075.48
542.858	2045.65
543.223	2044.3
543.587	2077.29
543.952	2101.24
544.316	2100.57
544.681	2104.41
545.045	2113.22
545.41	2092.2
545.774	2129.04
546.138	2125.2
546.503	2105.31
546.867	2127.68
547.231	2145.76
547.595	2155.25
547.959	2168.14
548.324	2149.15
548.688	2157.74
549.052	2169.49
549.416	2168.14
549.779	2145.08
550.143	2192.09
550.507	2213.11
550.871	2200.45
551.235	2188.7
551.599	2206.55
551.962	2239.55
552.326	2202.26
552.689	2198.42
553.053	2218.98
553.417	2197.29
553.78	2243.84
554.143	2224.86
554.507	2209.26
554.87	2212.88
555.234	2246.1
555.597	2247
555.96	2252.88
556.323	2252.88
556.686	2241.58
557.05	2284.74
557.413	2252.65
557.776	2326.77
558.139	2306.89
558.502	2262.82
558.865	2277.74
559.228	2283.61
559.59	2289.94
559.953	2320.22
560.316	2356.15
560.679	2350.28
561.041	2372.65
561.404	2367.45
561.767	2378.07
562.129	2362.93
562.492	2369.03
562.854	2365.42
563.217	2385.53
563.579	2411.97
563.941	2417.85
564.304	2446.09
564.666	2424.85
565.028	2461.23
565.39	2456.72
565.753	2454
566.115	2467.79
566.477	2506.43
566.839	2548.01
567.201	2539.88
567.563	2548.24
567.925	2569.03
568.287	2563.83
568.648	2548.92
569.01	2578.97
569.372	2603.38
569.734	2601.8
570.095	2668.69
570.457	2683.15
570.819	2658.97
571.18	2670.72
571.542	2675.24
571.903	2689.7
572.265	2729.93
572.626	2697.16
572.987	2729.48
573.349	2709.82
573.71	2757.27
574.071	2723.37
574.432	2755.69
574.794	2816.71
575.155	2783.03
575.516	2773.09
575.877	2794.79
576.238	2807.21
576.599	2812.41
576.96	2786.42
577.32	2842.24
577.681	2845.18
578.042	2865.74
578.403	2864.39
578.763	2859.42
579.124	2873.88
579.485	2857.61
579.845	2833.88
580.206	2816.25
580.566	2898.74
580.927	2870.04
581.287	2865.29
581.648	2847.89
582.008	2869.36
582.368	2833.65
582.728	2860.77
583.089	2854.22
583.449	2882.92
583.809	2834.56
584.169	2869.36
584.529	2841.56
584.889	2827.78
585.249	2835.91
585.609	2798.85
585.969	2829.13
586.329	2839.3
586.688	2838.17
587.048	2859.64
587.408	2829.81
587.768	2839.98
588.127	2821.9
588.487	2797.27
588.846	2820.77
589.206	2806.54
589.565	2816.93
589.925	2806.99
590.284	2790.04
590.643	2830.04
591.003	2843.15
591.362	2806.31
591.721	2802.69
592.08	2813.77
592.44	2785.29
592.799	2790.04
593.158	2787.33
593.517	2792.53
593.876	2858.74
594.235	2802.92
594.593	2785.52
594.952	2845.86
595.311	2796.82
595.67	2812.19
596.029	2833.2
596.387	2840.66
596.746	2839.98
597.104	2813.99
597.463	2803.37
597.822	2809.25
598.18	2789.81
598.538	2837.5
598.897	2831.17
599.255	2865.97
599.613	2889.7
599.972	2852.41
600.33	2869.36
600.688	2862.35
601.046	2880.66
601.404	2877.72
601.762	2870.04
602.12	2919.08
602.478	2928.57
602.836	2894.67
603.194	2896.03
603.552	2913.88
603.91	2917.49
604.268	2905.74
604.625	2888.34
604.983	2929.02
605.341	2905.97
605.698	2936.02
606.056	2947.1
606.413	2953.43
606.771	2956.14
607.128	2942.13
607.485	2943.93
607.843	2965.4
608.2	2971.96
608.557	3020.32
608.914	2971.05
609.272	2970.6
609.629	3011.05
609.986	2994.78
610.343	2994.55
610.7	2986.87
611.057	3023.25
611.414	2976.02
611.771	3032.07
612.127	3068.68
612.484	3039.75
612.841	3053.31
613.198	3036.59
613.554	3044.27
613.911	3024.16
614.267	3072.52
614.624	3062.35
614.98	3046.3
615.337	3082.46
615.693	3085.4
616.05	3090.6
616.406	3070.71
616.762	3053.31
617.118	3063.03
617.475	3032.97
617.831	3075.46
618.187	3075.23
618.543	3072.74
618.899	3076.13
619.255	3073.42
619.611	3063.93
619.967	3036.59
620.323	3076.13
620.678	3071.61
621.034	3033.2
621.39	3049.47
621.746	3082.24
622.101	3073.2
622.457	3043.14
622.812	3015.12
623.168	3044.5
623.523	3015.57
623.879	3033.2
624.234	3050.37
624.589	3036.36
624.945	3029.13
625.3	3049.69
625.655	3040.88
626.01	3063.03
626.365	2997.94
626.72	2991.84
627.075	3011.5
627.43	3016.7
627.785	2985.51
628.14	3024.16
628.495	3015.12
628.85	3038.39
629.205	2984.84
629.559	3004.5
629.914	2961.56
630.269	2998.85
630.623	2970.6
630.978	2982.35
631.332	2977.15
631.687	2969.47
632.041	2951.39
632.396	2978.51
632.75	2955.91
633.104	2958.4
633.459	2950.94
633.813	2939.64
634.167	2928.57
634.521	2978.74
634.875	2957.27
635.229	2970.6
635.583	2974.44
635.937	2948.68
636.291	2955.68
636.645	2924.27
636.999	2954.56
637.352	2957.94
637.706	2936.02
638.06	2915.23
638.413	2907.1
638.767	2920.21
639.121	2905.74
639.474	2923.6
639.828	2938.96
640.181	2872.3
640.534	2919.3
640.888	2938.06
641.241	2917.04
641.594	2908
641.947	2956.81
642.301	2914.1
642.654	2936.02
643.007	2888.12
643.36	2938.96
643.713	2944.16
644.066	2913.43
644.419	2956.81
644.771	2901.68
645.124	2873.65
645.477	2866.42
645.83	2860.55
646.182	2809.25
646.535	2859.64
646.888	2862.81
647.24	2867.1
647.593	2861.22
647.945	2843.82
648.298	2844.5
648.65	2879.98
649.002	2829.81
649.355	2835.24
649.707	2853.09
650.059	2811.06
650.411	2883.14
650.763	2854.22
651.115	2898.51
651.467	2924.27
651.819	2938.74
652.171	2974.22
652.523	2897.61
652.875	2878.62
653.227	2916.59
653.578	2873.2
653.93	2907.32
654.282	2846.99
654.633	2879.98
654.985	2856.48
655.337	2895.12
655.688	2875.46
656.039	2890.83
656.391	2908.23
656.742	2888.12
657.094	2903.71
657.445	2868.91
657.796	2839.98
658.147	2868.23
658.498	2865.29
658.849	2886.08
659.2	2848.8
659.551	2872.75
659.902	2856.25
660.253	2838.4
660.604	2841.56
660.955	2821.9
661.306	2841.11
661.656	2835.46
662.007	2853.31
662.358	2848.34
662.708	2814.22
663.059	2832.3
663.409	2820.32
663.76	2826.65
664.11	2864.16
664.461	2846.54
664.811	2827.33
665.161	2815.8
665.511	2796.59
665.862	2801.56
666.212	2823.94
666.562	2789.59
666.912	2804.05
667.262	2772.19
667.612	2798.63
667.962	2784.16
668.312	2828.46
668.662	2777.84
669.011	2788.23
669.361	2788.01
669.711	2796.14
670.06	2785.07
670.41	2782.81
670.76	2741.91
671.109	2794.56
671.459	2751.4
671.808	2749.59
672.157	2771.96
672.507	2727.89
672.856	2738.97
673.205	2791.17
673.554	2763.83
673.904	2743.04
674.253	2755.01
674.602	2722.92
674.951	2715.69
675.3	2649.03
675.649	2708.69
675.998	2733.32
676.346	2729.48
676.695	2785.07
677.044	2739.65
677.393	2741
677.741	2769.25
678.09	2741.91
678.438	2694.22
678.787	2726.76
679.135	2715.69
679.484	2715.47
679.832	2742.13
680.181	2754.79
680.529	2696.71
680.877	2694
681.225	2695.8
681.573	2724.05
681.922	2698.74
682.27	2703.94
682.618	2673.66
682.966	2679.99
683.314	2698.52
683.661	2721.34
684.009	2684.73
684.357	2722.7
684.705	2692.87
685.053	2710.72
685.4	2703.71
685.748	2654
686.095	2655.58
686.443	2677.05
686.79	2632.3
687.138	2663.04
687.485	2633.66
687.832	2657.84
688.18	2619.42
688.527	2643.38
688.874	2643.83
689.221	2632.08
689.568	2640.67
689.915	2638.63
690.262	2619.87
690.609	2635.69
690.956	2583.49
691.303	2632.08
691.65	2564.73
691.997	2607.67
692.344	2600.21
692.69	2571.06
693.037	2573.55
693.383	2556.83
693.73	2573.1
694.077	2548.24
694.423	2541.46
694.769	2522.7
695.116	2533.32
695.462	2509.14
695.808	2534.45
696.155	2546.2
696.501	2527.45
696.847	2541.01
697.193	2494.45
697.539	2530.84
697.885	2454.68
698.231	2464.62
698.577	2507.56
698.923	2456.04
699.269	2478.18
699.614	2476.15
699.96	2502.36
700.306	2463.27
700.651	2472.08
700.997	2428.47
701.342	2442.25
701.688	2457.39
702.033	2438.86
702.379	2462.14
702.724	2433.44
703.069	2427.79
703.415	2410.84
703.76	2392.54
704.105	2431.4
704.45	2385.3
704.795	2388.02
705.14	2395.7
705.485	2381.91
705.83	2413.1
706.175	2377.17
706.52	2382.82
706.865	2371.07
707.209	2357.28
707.554	2351.86
707.899	2344.85
708.243	2372.88
708.588	2357.28
708.932	2346.44
709.277	2352.31
709.621	2337.17
709.966	2310.96
710.31	2309.15
710.654	2307.57
710.998	2305.31
711.342	2343.27
711.687	2301.92
712.031	2308.47
712.375	2286.1
712.719	2284.74
713.063	2268.7
713.407	2291.75
713.75	2285.65
714.094	2281.13
714.438	2279.32
714.782	2261.69
715.125	2275.48
715.469	2249.04
715.812	2212.65
716.156	2235.03
716.499	2225.76
716.843	2234.35
717.186	2217.17
717.53	2239.77
717.873	2247.46
718.216	2230.28
718.559	2200
718.902	2188.7
719.246	2171.98
719.589	2187.12
719.932	2228.92
720.275	2186.21
720.617	2187.57
720.96	2225.31
721.303	2187.57
721.646	2193.67
721.989	2182.82
722.331	2185.31
722.674	2162.49
723.016	2205.65
723.359	2181.92
723.701	2174.24
724.044	2145.31
724.386	2160
724.729	2167.46
725.071	2174.46
725.413	2183.5
725.755	2160
726.097	2146.89
726.439	2106.22
726.782	2155.03
727.124	2133.11
727.465	2136.5
727.807	2130.85
728.149	2143.73
728.491	2125.65
728.833	2126.55
729.175	2124.97
729.516	2108.02
729.858	2115.26
730.199	2098.53
730.541	2112.77
730.882	2105.09
731.224	2134.24
731.565	2076.61
731.906	2116.39
732.248	2095.37
732.589	2102.37
732.93	2068.25
733.271	2106.89
733.612	2116.61
733.953	2089.04
734.294	2068.7
734.635	2078.87
734.976	2069.61
735.317	2087.91
735.658	2077.06
735.999	2078.19
736.339	2075.71
736.68	2036.84
737.021	2040.68
737.361	2070.51
737.702	2053.11
738.042	2082.04
738.383	2036.39
738.723	2056.95
739.063	2061.92
739.404	2070.06
739.744	2051.53
740.084	2033
740.424	2048.14
740.764	2007.01
741.104	2066.67
741.444	2050.62
741.784	2036.39
742.124	2024.64
742.464	2033.45
742.804	2007.01
743.143	2053.34
743.483	2016.27
743.823	2012.21
744.162	2064.18
744.502	2022.6
744.841	1997.97
745.181	2007.69
745.52	1997.97
745.86	2014.24
746.199	2033.22
746.538	1997.07
746.877	2008.37
747.216	1981.02
747.556	1983.28
747.895	1968.59
748.234	2021.02
748.573	1986.67
748.911	1979.89
749.25	1983.28
749.589	1998.65
749.928	1967.01
750.267	1958.42
750.605	1961.36
750.944	1971.53
751.283	1945.99
751.621	1966.56
751.96	1943.96
752.298	1933.34
752.636	1910.97
752.975	1933.79
753.313	1906.45
753.651	1955.94
753.989	1928.59
754.327	1927.69
754.666	1905.77
755.004	1939.21
755.342	1944.41
755.679	1890.4
756.017	1913
756.355	1931.31
756.693	1899.89
757.031	1908.03
757.368	1876.84
757.706	1878.88
758.044	1902.15
758.381	1910.06
758.719	1886.33
759.056	1891.76
759.394	1901.48
759.731	1842.72
760.068	1857.18
760.405	1857.41
760.743	1846.56
761.08	1860.57
761.417	1822.61
761.754	1858.09
762.091	1835.49
762.428	1829.39
762.765	1790.29
763.102	1825.55
763.438	1837.75
763.775	1813.79
764.112	1788.94
764.449	1785.32
764.785	1784.19
765.122	1764.3
765.458	1771.31
765.795	1774.25
766.131	1781.03
766.467	1787.13
766.804	1764.08
767.14	1757.98
767.476	1771.99
767.812	1754.36
768.148	1759.33
768.485	1733.12
768.821	1736.06
769.157	1767.02
769.492	1729.95
769.828	1713.91
770.164	1717.98
770.5	1705.32
770.836	1720.46
771.171	1704.87
771.507	1715.27
771.842	1710.29
772.178	1692.89
772.513	1708.71
772.849	1702.61
773.184	1686.79
773.519	1676.4
773.855	1673.23
774.19	1657.64
774.525	1627.13
774.86	1671.2
775.195	1643.18
775.53	1648.83
775.865	1637.53
776.2	1636.4
776.535	1626.68
776.87	1646.11
777.205	1624.42
777.539	1595.27
777.874	1630.07
778.209	1592.11
778.543	1589.17
778.878	1591.88
779.212	1573.57
779.547	1566.34
779.881	1592.56
780.215	1551.2
780.55	1581.71
780.884	1586.23
781.218	1577.42
781.552	1543.29
781.886	1558.43
782.22	1537.42
782.554	1549.39
782.888	1531.77
783.222	1552.78
783.556	1517.76
783.889	1517.76
784.223	1502.39
784.557	1510.3
784.89	1503.07
785.224	1499.9
785.557	1512.11
785.891	1479.11
786.224	1513.91
786.558	1535.84
786.891	1501.71
787.224	1506.68
787.557	1479.57
787.891	1510.53
788.224	1463.07
788.557	1492.9
788.89	1471.2
789.223	1459.68
789.556	1467.36
789.888	1474.59
790.221	1451.77
790.554	1443.63
790.887	1467.14
791.219	1461.26
791.552	1448.83
791.884	1446.12
792.217	1462.84
792.549	1412.67
792.882	1428.72
793.214	1431.88
793.546	1444.09
793.879	1429.85
794.211	1377.65
794.543	1417.87
794.875	1430.3
795.207	1398.21
795.539	1411.32
795.871	1410.87
796.203	1396.63
796.535	1400.02
796.867	1416.29
797.198	1397.76
797.53	1421.26
797.862	1398.21
798.193	1395.05
798.525	1400.25
798.856	1378.78
799.188	1369.74
799.519	1375.61
799.85	1369.06
800.182	1370.64
800.513	1369.74
800.844	1377.42
801.175	1357.08
801.506	1368.61
801.837	1360.02
802.168	1350.98
802.499	1322.73
802.83	1336.74
803.161	1349.63
803.491	1340.81
803.822	1330.64
804.153	1338.78
804.483	1325.9
804.814	1314.82
805.145	1308.95
805.475	1312.11
805.805	1319.12
806.136	1325.22
806.466	1334.71
806.796	1324.54
807.126	1309.63
807.457	1273.24
807.787	1308.04
808.117	1286.58
808.447	1298.1
808.777	1311.89
809.107	1330.87
809.436	1306.46
809.766	1294.26
810.096	1330.42
810.426	1310.3
810.755	1322.06
811.085	1306.46
811.414	1301.72
811.744	1280.47
812.073	1292.23
812.403	1280.47
812.732	1262.17
813.061	1287.48
813.39	1243.87
813.719	1247.93
814.049	1255.62
814.378	1273.92
814.707	1275.5
815.036	1263.53
815.365	1305.78
815.693	1259.23
816.022	1254.49
816.351	1247.93
816.68	1227.37
817.008	1214.94
817.337	1240.7
817.665	1235.05
817.994	1207.93
818.322	1215.84
818.651	1230.31
818.979	1240.25
819.307	1247.26
819.636	1247.48
819.964	1188.05
820.292	1209.29
820.62	1244.77
820.948	1212
821.276	1201.61
821.604	1216.97
821.932	1223.98
822.259	1214.26
822.587	1202.96
822.915	1205
823.243	1190.99
823.57	1209.06
823.898	1207.93
824.225	1200.7
824.553	1192.34
824.88	1207.26
825.207	1202.06
825.535	1205
825.862	1189.4
826.189	1188.95
826.516	1207.03
826.843	1172.91
827.17	1164.09
827.497	1170.65
827.824	1202.74
828.151	1203.64
828.478	1178.33
828.805	1206.58
829.131	1186.69
829.458	1191.89
829.785	1189.18
830.111	1181.95
830.438	1179.46
830.764	1167.26
831.09	1188.5
831.417	1197.54
831.743	1167.94
832.069	1184.88
832.395	1163.87
832.722	1170.65
833.048	1194.83
833.374	1184.21
833.7	1170.42
834.026	1177.65
834.351	1178.78
834.677	1200.25
835.003	1173.36
835.329	1166.81
835.654	1159.35
835.98	1169.07
836.306	1179.01
836.631	1169.74
836.956	1168.16
837.282	1188.95
837.607	1158.22
837.932	1161.83
838.258	1159.12
838.583	1148.05
838.908	1114.83
839.233	1134.04
839.558	1179.46
839.883	1167.94
840.208	1140.37
840.533	1148.05
840.858	1146.92
841.182	1143.08
841.507	1162.06
841.832	1133.13
842.156	1130.2
842.481	1174.04
842.805	1145.11
843.13	1130.2
843.454	1124.09
843.778	1107.37
844.103	1126.81
844.427	1116.86
844.751	1130.65
845.075	1106.92
845.399	1115.06
845.723	1127.03
846.047	1098.78
846.371	1109.86
846.695	1098.56
847.019	1103.53
847.343	1061.27
847.666	1067.37
847.99	1115.73
848.313	1089.29
848.637	1106.02
848.96	1108.5
849.284	1108.05
849.607	1113.02
849.931	1087.71
850.254	1092.91
850.577	1076.41
850.9	1087.71
851.223	1060.14
851.546	1052.68
851.869	1065.57
852.192	1056.3
852.515	1060.82
852.838	1038.67
853.161	1055.4
853.483	1029.86
853.806	1056.75
854.129	1080.48
854.451	1036.19
854.774	1046.36
855.096	1015.62
855.419	1056.75
855.741	1047.94
856.063	1044.55
856.385	1042.06
856.708	1024.89
857.03	1036.87
857.352	1042.51
857.674	1029.63
857.996	1017.88
858.318	1029.41
858.64	1036.19
858.961	1026.92
859.283	1027.6
859.605	1025.57
859.926	1030.31
860.248	1045.45
860.57	995.96
860.891	1006.13
861.212	990.09
861.534	1014.72
861.855	1029.63
862.176	1028.5
862.498	1024.89
862.819	1023.08
863.14	1027.83
863.461	1015.4
863.782	1017.43
864.103	1017.43
864.424	995.74
864.745	990.09
865.065	984.89
865.386	1024.21
865.707	1008.62
866.027	1009.3
866.348	1011.56
866.668	1020.37
866.989	998.67
867.309	998.67
867.63	1035.28
867.95	1004.1
868.27	999.58
868.59	996.87
868.91	1007.04
869.23	987.15
869.55	1001.39
869.87	990.54
870.19	999.13
870.51	996.19
870.83	1004.55
871.15	996.19
871.469	999.13
871.789	960.26
872.109	1015.62
872.428	973.59
872.748	1001.16
873.067	996.19
873.386	988.51
873.706	1013.36
874.025	969.3
874.344	1004.55
874.663	1017.88
874.982	978.11
875.301	984.89
875.62	970.43
875.939	981.95
876.258	992.35
876.577	985.79
876.896	989.18
877.214	975.62
877.533	977.43
877.852	974.95
878.17	966.13
878.489	969.75
878.807	996.64
879.125	987.6
879.444	990.99
879.762	984.21
880.08	983.53
880.398	983.99
880.716	970.43
881.034	988.28
881.352	940.37
881.67	975.85
881.988	975.62
882.306	969.75
882.624	960.48
882.941	987.38
883.259	958.45
883.577	965.45
883.894	960.48
884.212	950.09
884.529	960.26
884.846	949.41
885.164	955.06
885.481	953.25
885.798	951.9
886.115	952.57
886.432	953.25
886.75	929.07
887.067	951.44
887.383	928.62
887.7	938.56
888.017	922.74
888.334	938.11
888.651	947.83
888.967	933.82
889.284	927.04
889.6	908.51
889.917	918.9
890.233	918
890.55	927.49
890.866	916.42
891.182	908.73
891.498	911.9
891.815	912.8
892.131	914.38
892.447	918.22
892.763	898.79
893.079	876.19
893.395	889.98
893.71	897.89
894.026	866.7
894.342	900.15
894.657	866.02
894.973	879.36
895.289	878.68
895.604	884.33
895.92	895.17
896.235	874.38
896.55	893.14
896.865	873.71
897.181	864.67
897.496	860.6
897.811	873.48
898.126	883.88
898.441	880.26
898.756	884.1
899.071	848.62
899.386	847.04
899.7	845.68
900.015	854.05
900.33	856.76
900.644	843.88
900.959	840.26
901.273	840.49
901.588	831.9
901.902	804.56
902.216	812.92
902.531	816.08
902.845	826.25
903.159	809.75
903.473	833.25
903.787	820.6
904.101	813.37
904.415	807.72
904.729	788.96
905.042	804.33
905.356	806.14
905.67	774.5
905.984	782.41
906.297	826.93
906.611	810.43
906.924	793.71
907.237	794.84
907.551	771.11
907.864	777.21
908.177	801.84
908.491	784.44
908.804	750.77
909.117	764.78
909.43	777.89
909.743	762.07
910.056	776.53
910.368	779.7
910.681	771.34
910.994	751.22
911.307	752.35
911.619	785.57
911.932	772.92
912.244	741.05
912.557	758.45
912.869	771.79
913.181	753.48
913.494	749.64
913.806	725.91
914.118	735.4
914.43	732.69
914.742	729.75
915.054	731.11
915.366	714.84
915.678	738.34
915.99	758.45
916.302	721.62
916.613	725.01
916.925	734.5
917.236	729.53
917.548	728.85
917.859	704.67
918.171	713.48
918.482	705.35
918.794	712.81
919.105	715.52
919.416	716.42
919.727	713.48
920.038	701.28
920.349	709.87
920.66	718
920.971	715.52
921.282	680.94
921.593	682.3
921.903	727.95
922.214	689.53
922.525	678
922.835	694.95
923.146	668.51
923.456	683.65
923.767	681.62
924.077	686.82
924.387	682.75
924.697	677.1
925.008	667.84
925.318	663.99
925.628	669.42
925.938	673.26
926.248	662.41
926.558	668.29
926.867	669.64
927.177	684.56
927.487	658.57
927.796	665.12
928.106	668.97
928.416	668.97
928.725	648.4
929.034	660.83
929.344	664.22
929.653	678.46
929.962	659.7
930.271	661.96
930.581	655.63
930.89	625.8
931.199	668.06
931.508	638.68
931.817	647.27
932.125	657.89
932.434	645.92
932.743	644.11
933.051	663.77
933.36	652.02
933.669	622.41
933.977	633.26
934.286	633.49
934.594	661.73
934.902	634.39
935.21	635.07
935.519	650.89
935.827	648.18
936.135	637.55
936.443	633.49
936.751	607.72
937.059	627.84
937.367	614.5
937.674	628.29
937.982	628.06
938.29	625.35
938.597	649.76
938.905	632.58
939.213	600.27
939.52	615.18
939.827	626.48
940.135	630.77
940.442	619.7
940.749	615.86
941.056	621.51
941.363	601.62
941.67	611.34
941.977	603.66
942.284	595.75
942.591	611.79
942.898	617.22
943.205	596.42
943.511	634.39
943.818	590.1
944.125	630.1
944.431	611.34
944.738	594.17
945.044	603.88
945.35	616.76
945.657	604.33
945.963	614.05
946.269	605.01
946.575	601.85
946.881	609.08
947.187	599.81
947.493	580.15
947.799	588.74
948.105	586.26
948.41	612.02
948.716	593.71
949.022	595.3
949.327	598.01
949.633	600.27
949.938	603.66
950.244	607.5
950.549	583.54
950.854	586.03
951.16	573.15
951.465	556.88
951.77	583.54
952.075	588.97
952.38	595.52
952.685	567.05
952.99	556.88
953.294	573.37
953.599	580.38
953.904	571.57
954.209	567.27
954.513	584.9
954.818	560.95
955.122	587.84
955.426	564.56
955.731	599.81
956.035	573.15
956.339	567.05
956.643	567.5
956.948	571.34
957.252	567.73
957.556	577.22
957.86	568.63
958.163	548.29
958.467	572.92
958.771	559.14
959.075	559.82
959.378	552.58
959.682	556.88
959.985	533.83
960.289	554.84
960.592	535.86
960.896	570.21
961.199	532.47
961.502	567.05
961.805	552.58
962.108	567.27
962.411	547.39
962.714	535.86
963.017	550.32
963.32	521.85
963.623	555.07
963.926	522.3
964.228	550.78
964.531	551.91
964.833	542.42
965.136	543.55
965.438	550.1
965.741	520.49
966.043	527.05
966.345	518.46
966.648	563.88
966.95	554.17
967.252	518.69
967.554	531.79
967.856	515.52
968.158	519.82
968.46	541.06
968.761	528.4
969.063	523.21
969.365	539.7
969.666	516.43
969.968	511.46
970.269	544.9
970.571	520.27
970.872	531.12
971.174	530.21
971.475	520.04
971.776	527.05
972.077	532.02
972.378	512.36
972.679	498.8
972.98	530.66
973.281	529.31
973.582	510.33
973.883	519.59
974.183	502.64
974.484	499.7
974.785	506.48
975.085	503.77
975.386	496.99
975.686	491.12
975.986	482.76
976.287	503.77
976.587	508.52
976.887	498.8
977.187	484.79
977.487	482.08
977.787	511.46
978.087	496.99
978.387	508.97
978.687	493.6
978.987	479.59
979.286	463.1
979.586	467.84
979.885	499.25
980.185	472.59
980.484	491.12
980.784	475.98
981.083	496.09
981.382	485.02
981.682	485.69
981.981	456.54
982.28	462.87
982.579	495.64
982.878	455.19
983.177	467.16
983.475	467.16
983.774	466.94
984.073	469.87
984.372	480.5
984.67	487.73
984.969	458.12
985.267	467.61
985.566	450.44
985.864	450.89
986.162	481.85
986.461	456.32
986.759	461.06
987.057	461.74
987.355	468.52
987.653	447.5
987.951	480.72
988.249	467.16
988.547	472.13
988.844	454.73
989.142	432.14
989.44	445.24
989.737	425.13
990.035	448.41
990.332	461.51
990.63	443.43
990.927	463.1
991.224	455.19
991.521	438.92
991.819	452.7
992.116	430.55
992.413	441.63
992.71	445.02
993.006	459.71
993.303	441.4
993.6	437.79
993.897	440.27
994.193	423.1
994.49	436.2
994.787	430.78
995.083	427.39
995.379	431.91
995.676	417.9
995.972	431.46
996.268	450.89
996.565	418.58
996.861	427.16
997.157	427.39
997.453	429.2
997.749	422.64
998.044	453.38
998.34	422.64
998.636	431.91
998.932	436.2
999.227	428.07
999.523	411.12
999.818	432.81
1000.114	418.12
1000.409	425.36
1000.704	429.2
1001	421.51
1001.295	413.6
1001.59	422.42
1001.885	421.06
1002.18	438.69
1002.475	433.49
1002.77	434.85
1003.065	424.23
1003.359	409.76
1003.654	428.07
1003.949	434.17
1004.243	433.49
1004.538	404.34
1004.832	416.09
1005.127	431.01
1005.421	396.88
1005.715	393.72
1006.009	405.02
1006.304	417.9
1006.598	421.29
1006.892	421.51
1007.186	412.7
1007.48	406.15
1007.773	386.49
1008.067	409.99
1008.361	423.1
1008.655	412.02
1008.948	414.73
1009.242	413.38
1009.535	395.53
1009.829	398.46
1010.122	408.18
1010.415	373.38
1010.708	401.63
1011.001	400.72
1011.295	392.81
1011.588	398.46
1011.881	411.12
1012.173	398.46
1012.466	387.62
1012.759	391.68
1013.052	390.55
1013.344	389.42
1013.637	370.44
1013.93	397.11
1014.222	362.76
1014.514	382.87
1014.807	387.16
1015.099	379.93
1015.391	416.09
1015.683	371.8
1015.976	392.59
1016.268	397.33
1016.56	411.57
1016.851	379.71
1017.143	383.78
1017.435	381.29
1017.727	380.61
1018.018	373.38
1018.31	377.45
1018.602	387.16
1018.893	382.42
1019.185	379.71
1019.476	379.48
1019.767	387.39
1020.058	362.53
1020.35	371.35
1020.641	390.1
1020.932	374.06
1021.223	378.8
1021.514	389.2
1021.804	379.03
1022.095	358.01
1022.386	372.48
1022.677	367.28
1022.967	376.54
1023.258	355.98
1023.548	378.8
1023.839	371.57
1024.129	351.69
1024.419	362.98
1024.709	358.24
1025	365.47
1025.29	395.07
1025.58	370.22
1025.87	385.58
1026.16	371.12
1026.449	391.01
1026.739	369.76
1027.029	392.36
1027.319	368.63
1027.608	360.95
1027.898	385.58
1028.187	367.96
1028.477	375.19
1028.766	377.45
1029.055	373.83
1029.344	363.44
1029.634	373.61
1029.923	355.53
1030.212	362.08
1030.501	376.32
1030.79	366.15
1031.078	360.05
1031.367	349.65
1031.656	372.48
1031.945	353.72
1032.233	366.37
1032.522	356.21
1032.81	354.85
1033.099	362.98
1033.387	352.59
1033.675	339.71
1033.963	354.17
1034.251	352.59
1034.54	342.42
1034.828	347.39
1035.116	339.93
1035.403	354.4
1035.691	338.13
1035.979	343.78
1036.267	362.76
1036.554	356.21
1036.842	358.47
1037.129	353.27
1037.417	372.25
1037.704	342.19
1037.992	375.64
1038.279	352.14
1038.566	340.39
1038.853	340.39
1039.14	340.39
