Data from foam2_polystyrene_foam_FLMS001491_00015.txt Node
Date: Wed Feb 08 10:57:35 GMT 2017
User: dcchb
Spectrometer: FLMS00149
Trigger mode: 0
Integration Time (sec): 2.000000E-2
Scans to average: 10
Electric dark correction enabled: true
Nonlinearity correction enabled: false
Boxcar width: 0
XAxis mode: Wavelengths
Number of Pixels in Spectrum: 2048
>>>>>Begin Spectral Data<<<<<
341.393	-18.3
341.776	-18.3
342.16	-18.3
342.543	-72.09
342.927	-75.03
343.31	-68.92
343.693	-58.53
344.077	-92.65
344.46	-36.61
344.843	-48.81
345.226	-42.71
345.61	-21.24
345.993	-31.41
346.376	-12.88
346.759	7.01
347.142	36.38
347.525	23.73
347.908	75.93
348.291	75.7
348.674	85.2
349.057	109.83
349.44	111.86
349.823	150.73
350.206	160
350.588	182.37
350.971	236.15
351.354	229.6
351.737	235.02
352.119	244.29
352.502	258.75
352.884	270.73
353.267	284.74
353.65	327.22
354.032	313.89
354.414	308.24
354.797	309.82
355.179	329.03
355.562	309.82
355.944	325.19
356.326	342.59
356.709	345.53
357.091	335.58
357.473	348.24
357.855	356.37
358.238	370.84
358.62	348.24
359.002	341.46
359.384	368.58
359.766	315.7
360.148	371.06
360.53	351.86
360.912	334.45
361.294	341.91
361.676	331.29
362.057	352.53
362.439	354.79
362.821	338.3
363.203	356.15
363.584	351.18
363.966	355.24
364.348	341.01
364.729	355.47
365.111	356.37
365.493	351.86
365.874	343.95
366.256	340.1
366.637	351.86
367.019	367.22
367.4	336.49
367.781	358.18
368.163	345.98
368.544	362.48
368.925	356.37
369.306	356.15
369.688	334
370.069	363.83
370.45	379.43
370.831	359.31
371.212	334.91
371.593	340.56
371.974	360.89
372.355	350.27
372.736	363.83
373.117	342.59
373.498	353.89
373.879	341.91
374.26	379.65
374.641	343.72
375.021	367.67
375.402	358.86
375.783	377.17
376.163	385.75
376.544	401.57
376.925	380.1
377.305	369.93
377.686	371.97
378.066	380.33
378.447	371.97
378.827	408.58
379.208	374.91
379.588	394.79
379.968	392.98
380.349	401.8
380.729	420.55
381.109	424.4
381.489	417.16
381.87	440.44
382.25	425.75
382.63	406.99
383.01	412.19
383.39	436.37
383.77	426.43
384.15	431.85
384.53	458.52
384.91	432.98
385.29	451.97
385.67	447.67
386.049	461.91
386.429	462.36
386.809	457.39
387.189	481.57
387.568	459.87
387.948	460.1
388.328	451.51
388.707	483.6
389.087	478.41
389.466	496.26
389.846	502.36
390.225	460.78
390.605	479.31
390.984	517.5
391.363	516.6
391.743	504.39
392.122	512.3
392.501	537.39
392.881	523.6
393.26	509.82
393.639	526.09
394.018	524.96
394.397	523.15
394.776	533.55
395.155	531.51
395.534	527.9
395.913	514.79
396.292	566.54
396.671	572.19
397.05	574
397.429	540.55
397.808	574.67
398.186	561.79
398.565	586.43
398.944	574.45
399.323	572.19
399.701	607.89
400.08	592.53
400.458	602.92
400.837	611.28
401.215	613.77
401.594	633.66
401.972	634.79
402.351	641.11
402.729	645.41
403.107	639.53
403.486	651.28
403.864	665.29
404.242	669.81
404.62	650.38
404.999	661.9
405.377	688.57
405.755	681.56
406.133	686.99
406.511	701.68
406.889	701
407.267	717.27
407.645	722.47
408.023	722.24
408.401	769.92
408.779	759.98
409.156	757.49
409.534	773.54
409.912	773.99
410.29	784.39
410.667	810.83
411.045	805.18
411.422	819.87
411.8	826.64
412.178	824.16
412.555	854.89
412.933	848.11
413.31	838.4
413.687	865.97
414.065	882.46
414.442	906.64
414.819	903.25
415.197	886.98
415.574	925.85
415.951	913.65
416.328	903.25
416.705	947.32
417.082	931.27
417.46	953.42
417.837	974.21
418.214	977.83
418.591	1003.82
418.967	962.23
419.344	999.07
419.721	1017.83
420.098	995
420.475	1052.4
420.852	1040.42
421.228	1025.96
421.605	1041.33
421.982	1078.84
422.358	1065.96
422.735	1104.38
423.111	1110.03
423.488	1125.17
423.864	1119.52
424.241	1150.93
424.617	1132.85
424.994	1151.61
425.37	1180.76
425.746	1173.98
426.123	1194.54
426.499	1187.54
426.875	1218.05
427.251	1223.47
427.627	1258.5
428.003	1266.63
428.379	1287.65
428.756	1311.83
429.132	1324.48
429.507	1329.23
429.883	1372.62
430.259	1387.31
430.635	1363.58
431.011	1380.3
431.387	1407.65
431.763	1440.19
432.138	1440.87
432.514	1489.23
432.89	1481.32
433.265	1491.71
433.641	1540.07
434.016	1536
434.392	1552.28
434.767	1594.76
435.143	1563.8
435.518	1631.37
435.894	1632.27
436.269	1661.88
436.644	1675.21
437.02	1709.56
437.395	1705.94
437.77	1703.23
438.145	1739.16
438.52	1750.69
438.895	1772.38
439.271	1805.38
439.646	1869.1
440.021	1869.33
440.395	1862.32
440.77	1842.21
441.145	1872.27
441.52	1925.37
441.895	1912.27
442.27	1947.29
442.645	1943.23
443.019	1973.06
443.394	1974.19
443.769	2014.18
444.143	1975.77
444.518	2022.32
444.892	2047.63
445.267	2066.61
445.641	2065.93
446.016	2104.58
446.39	2110.23
446.764	2147.97
447.139	2154.75
447.513	2138.7
447.887	2153.39
448.262	2178.93
448.636	2189.09
449.01	2230.9
449.384	2234.97
449.758	2267.96
450.132	2289.88
450.506	2291.24
450.88	2308.19
451.254	2310.45
451.628	2349.77
452.002	2390.22
452.376	2385.7
452.75	2436.55
453.123	2438.13
453.497	2507.73
453.871	2511.12
454.244	2550.67
454.618	2568.52
454.992	2622.76
455.365	2589.08
455.739	2643.32
456.112	2698.91
456.486	2704.56
456.859	2736.2
457.232	2795.41
457.606	2761.28
457.979	2825.69
458.352	2846.48
458.725	2879.92
459.099	2961.96
459.472	2965.8
459.845	3025.46
460.218	3024.55
460.591	3046.25
460.964	3054.16
461.337	3192.01
461.71	3204.21
462.083	3260.71
462.456	3182.06
462.829	3262.29
463.201	3314.49
463.574	3329.4
463.947	3355.84
464.32	3441.27
464.692	3484.2
465.065	3502.28
465.438	3554.26
465.81	3615.72
466.183	3639
466.555	3715.38
466.928	3684.87
467.3	3761.71
467.672	3778.66
468.045	3872.67
468.417	3868.82
468.789	3928.26
469.161	4008.93
469.534	4067.69
469.906	4117.86
470.278	4150.17
470.65	4209.38
471.022	4270.17
471.394	4373.9
471.766	4402.82
472.138	4468.36
472.51	4541.8
472.882	4641.23
473.253	4644.62
473.625	4708.35
473.997	4848.91
474.369	4820.21
474.74	4927.33
475.112	4996.25
475.484	5095.46
475.855	5208.22
476.227	5194.44
476.598	5341.55
476.97	5366.86
477.341	5515.34
477.713	5574.32
478.084	5632.85
478.455	5821.77
478.827	5880.07
479.198	6016.79
479.569	6060.18
479.94	6192.15
480.311	6265.15
480.682	6360.06
481.053	6502.88
481.424	6603.89
481.795	6646.15
482.166	6735.64
482.537	6878.01
482.908	7019.02
483.279	7120.49
483.65	7240.26
484.021	7381.05
484.391	7428.05
484.762	7487.71
485.133	7576.07
485.503	7723.86
485.874	7909.17
486.244	7925.22
486.615	8041.6
486.985	8191.88
487.356	8351.87
487.726	8353.68
488.097	8571.07
488.467	8600.45
488.837	8820.11
489.207	8837.73
489.578	9056.49
489.948	9102.81
490.318	9256.03
490.688	9265.29
491.058	9430.03
491.428	9513.87
491.798	9609.24
492.168	9715.68
492.538	9863.24
492.908	10022.79
493.278	10138.94
493.648	10207.19
494.017	10329.67
494.387	10374.42
494.757	10493.06
495.126	10648.76
495.496	10620.06
495.866	10712.94
496.235	10869.09
496.605	10986.15
496.974	11059.37
497.344	11151.12
497.713	11157.45
498.082	11281.96
498.452	11390.43
498.821	11458.46
499.19	11542.07
499.559	11662.97
499.928	11671.33
500.298	11806.02
500.667	11980.48
501.036	11974.15
501.405	12095.5
501.774	12119.68
502.143	12201.04
502.512	12354.25
502.88	12429.5
503.249	12463.18
503.618	12533.46
503.987	12598.99
504.356	12724.64
504.724	12776.39
505.093	12866.1
505.462	12925.54
505.83	13050.28
506.199	13286.43
506.567	13365.98
506.936	13357.61
507.304	13511.51
507.672	13585.41
508.041	13669.02
508.409	13779.3
508.777	13955.79
509.145	14060.42
509.514	13970.25
509.882	14179.29
510.25	14218.61
510.618	14330.92
510.986	14365.72
511.354	14510.58
511.722	14610.69
512.09	14805.26
512.458	14748.54
512.826	14902.21
513.193	15002.32
513.561	15085.25
513.929	15308.75
514.297	15502.64
514.664	15477.11
515.032	15581.29
515.4	15707.38
515.767	15813.37
516.135	15875.97
516.502	15778.57
516.869	16031.22
517.237	16099.69
517.604	16140.14
517.972	16354.37
518.339	16537.19
518.706	16464.88
519.073	16637.3
519.44	16724.31
519.808	17046.56
520.175	17069.38
520.542	17243.39
520.909	17385.53
521.276	17435.25
521.643	17643.6
522.009	17667.78
522.376	17820.32
522.743	17908
523.11	18168.34
523.477	18303.93
523.843	18353.64
524.21	18715.21
524.577	18719.51
524.943	18743.69
525.31	18915.89
525.676	19152.26
526.043	19249.44
526.409	19312.71
526.776	19588.19
527.142	19646.72
527.508	19774.17
527.874	19877.67
528.241	20000.15
528.607	20101.62
528.973	20339.13
529.339	20423.87
529.705	20644.88
530.071	20761.49
530.437	20830.86
530.803	21031.54
531.169	21142.49
531.535	21050.52
531.901	21198.76
532.267	21337.97
532.632	21585.87
532.998	21643.5
533.364	21749.71
533.73	21789.71
534.095	22000.1
534.461	22126.65
534.826	22100.21
535.192	22272.63
535.557	22506.75
535.923	22432.4
536.288	22508.56
536.653	22585.17
537.019	22649.12
537.384	22654.32
537.749	22897.25
538.114	22869
538.479	23084.14
538.845	23187.19
539.21	23139.05
539.575	23332.95
539.94	23428.76
540.305	23540.62
540.67	23433.51
541.034	23671.92
541.399	23761.41
541.764	23887.06
542.129	24010.44
542.494	24009.99
542.858	24054.28
543.223	24100.84
543.587	24233.26
543.952	24286.59
544.316	24300.6
544.681	24421.05
545.045	24648.39
545.41	24750.54
545.774	24774.49
546.138	24727.94
546.503	24866.01
546.867	24902.85
547.231	25182.61
547.595	25174.93
547.959	25323.63
548.324	25318.66
548.688	25414.92
549.052	25502.83
549.416	25588.48
549.779	25732.66
550.143	25854.91
550.507	25937.17
550.871	26146.88
551.235	26043.38
551.599	26319.53
551.962	26417.16
552.326	26383.71
552.689	26587.32
553.053	26511.39
553.417	26722.46
553.78	26946.86
554.143	26977.14
554.507	27070.02
554.87	27111.83
555.234	27293.07
555.597	27142.34
555.96	27385.27
556.323	27564.7
556.686	27461.2
557.05	27885.37
557.413	27875.65
557.776	27881.53
558.139	28084.91
558.502	28156.1
558.865	28334.62
559.228	28463.66
559.59	28551.34
559.953	28626.37
560.316	28954.49
560.679	29044.21
561.041	29167.14
561.404	29210.53
561.767	29356.06
562.129	29431.99
562.492	29870.18
562.854	29744.98
563.217	29774.81
563.579	29882.38
563.941	30274.23
564.304	30305.42
564.666	30535.24
565.028	30444.85
565.39	30538.18
565.753	30741.56
566.115	30929.36
566.477	31036.02
566.839	31131.84
567.201	31235.56
567.563	31252.06
567.925	31597.81
568.287	31627.42
568.648	31670.58
569.01	31749.22
569.372	31996.45
569.734	31840.29
570.095	32104.69
570.457	32298.36
570.819	32336.78
571.18	32385.59
571.542	32514.17
571.903	32581.06
572.265	32741.06
572.626	32792.36
572.987	32894.05
573.349	32972.47
573.71	33149.86
574.071	33198
574.432	33350.54
574.794	33532.68
575.155	33427.82
575.516	33476.86
575.877	33561.38
576.238	33664.88
576.599	33799.11
576.96	33729.06
577.32	33863.97
577.681	34025.77
578.042	34086.79
578.403	34175.15
578.763	34189.38
579.124	34141.93
579.485	34178.99
579.845	34249.95
580.206	34325.88
580.566	34432.09
580.927	34414.46
581.287	34567.9
581.648	34354.12
582.008	34598.41
582.368	34599.32
582.728	34584.18
583.089	34630.95
583.449	34668.47
583.809	34602.93
584.169	34716.38
584.529	34557.96
584.889	34808.35
585.249	34619.2
585.609	34613.78
585.969	34814
586.329	34692.42
586.688	34797.05
587.048	34665.53
587.408	34784.17
587.768	34803.38
588.127	34750.95
588.487	34866.2
588.846	35000.44
589.206	34739.43
589.565	34841.57
589.925	34919.53
590.284	34857.39
590.643	34973.77
591.003	34963.37
591.362	35216.93
591.721	34969.93
592.08	34968.8
592.44	35164.27
592.799	35162.47
593.158	34919.08
593.517	35028.23
593.876	35086.54
594.235	34929.48
594.593	35037.72
594.952	35058.51
595.311	35065.52
595.67	35160.88
596.029	35339.41
596.387	35402.46
596.746	35453.31
597.104	35113.65
597.463	35380.76
597.822	35479.07
598.18	35303.25
598.538	35355.45
598.897	35621.44
599.255	35198.17
599.613	35703.02
599.972	35478.62
600.33	35662.79
600.688	35362.01
601.046	35589.8
601.404	35695.11
601.762	35666.18
602.12	35807.19
602.478	35940.07
602.836	35806.29
603.194	35683.81
603.552	35792.96
603.91	35765.39
604.268	35940.3
604.625	35844.26
604.983	35821.88
605.341	35760.64
605.698	35918.38
606.056	36064.59
606.413	36030.47
606.771	36132.16
607.128	36038.83
607.485	36004.25
607.843	36039.5
608.2	36245.15
608.557	36320.85
608.914	36171.03
609.272	36395.88
609.629	36375.31
609.986	36433.62
610.343	36379.38
610.7	36622.09
611.057	36655.53
611.414	36629.55
611.771	36502.54
612.127	36681.07
612.484	36624.57
612.841	36723.78
613.198	36747.51
613.554	36693.95
613.911	36875.64
614.267	36896.43
614.624	36782.99
614.98	36911.8
615.337	37195.63
615.693	37140.94
616.05	37008.74
616.406	37245.57
616.762	37165.35
617.118	37231.11
617.475	36999.25
617.831	37300.94
618.187	37323.31
618.543	37278.34
618.899	37489.41
619.255	37325.57
619.611	37396.08
619.967	37419.58
620.323	37488.51
620.678	37331.9
621.034	37263.43
621.39	37274.95
621.746	37192.47
622.101	37599.92
622.457	37291
622.812	37463.65
623.168	37382.75
623.523	37523.31
623.879	37586.81
624.234	37351.79
624.589	37504.78
624.945	37419.81
625.3	37325.35
625.655	37357.89
626.01	37459.13
626.365	37289.41
626.72	37451.9
627.075	37326.25
627.43	37405.57
627.785	37272.24
628.14	37384.78
628.495	37480.37
628.85	37375.29
629.205	37222.98
629.559	37359.02
629.914	37176.88
630.269	37325.12
630.623	37112.47
630.978	36921.52
631.332	37175.75
631.687	37197.21
632.041	36949.54
632.396	37088.97
632.75	36958.12
633.104	36975.75
633.459	36719.26
633.813	36855.3
634.167	36644.46
634.521	36613.95
634.875	36653.73
635.229	36707.06
635.583	36347.52
635.937	36328.54
636.291	36382.77
636.645	36334.19
636.999	36339.61
637.352	36318.14
637.706	36168.77
638.06	36305.26
638.413	36105.72
638.767	36039.05
639.121	36178.03
639.474	35866.63
639.828	35757.93
640.181	35926.51
640.534	35867.76
640.888	35757.93
641.241	35583.92
641.594	35636.58
641.947	35715.45
642.301	35539.18
642.654	35496.24
643.007	35543.02
643.36	35452.18
643.713	35388.45
644.066	35495.11
644.419	35136.7
644.771	35037.27
645.124	34761.35
645.477	34607.68
645.83	34322.94
646.182	34324.75
646.535	34200.46
646.888	34151.42
647.24	33944.64
647.593	34203.17
647.945	33996.85
648.298	33819.68
648.65	33765.67
649.002	33766.12
649.355	33801.15
649.707	33725.44
650.059	33952.33
650.411	34150.51
650.763	34346.67
651.115	34642.25
651.467	34572.65
651.819	34499.66
652.171	34376.72
652.523	34349.15
652.875	34351.19
653.227	34020.35
653.578	34314.58
653.93	34180.57
654.282	34206.33
654.633	34082.27
654.985	34129.95
655.337	33973.57
655.688	34050.86
656.039	34182.15
656.391	33848.38
656.742	33822.84
657.094	33895.83
657.445	34040.01
657.796	33855.61
658.147	33859.67
658.498	33635.27
658.849	33867.58
659.2	33536.52
659.551	33543.52
659.902	33645.22
660.253	33617.65
660.604	33504.2
660.955	33500.14
661.306	33656.06
661.656	33449.97
662.007	33473.92
662.358	33568.16
662.708	33606.12
663.059	33455.17
663.409	33293.59
663.76	33404.32
664.11	33420.82
664.461	33435.05
664.811	33374.04
665.161	33258.11
665.511	33313.93
665.862	33400.93
666.212	33238.45
666.562	33424.21
666.912	33244.55
667.262	33298.79
667.612	33145.57
667.962	33208.17
668.312	32960.72
668.662	33262.18
669.011	33216.08
669.361	33030.32
669.711	33011.79
670.06	32977.66
670.41	32871.9
670.76	32962.3
671.109	33079.81
671.459	32915.74
671.808	32741.96
672.157	32907.38
672.507	32655.64
672.856	32792.58
673.205	32774.96
673.554	32812.7
673.904	32652.7
674.253	32847.72
674.602	32701.29
674.951	32213.84
675.3	32048.87
675.649	32480.5
675.998	32608.63
676.346	32586.94
676.695	32634.62
677.044	32457.23
677.393	32471.69
677.741	32385.59
678.09	32414.51
678.438	32245.03
678.787	32322.99
679.135	32306.72
679.484	32064.69
679.832	32255.42
680.181	31997.35
680.529	32138.14
680.877	32086.16
681.225	32028.08
681.573	32174.52
681.922	31871.93
682.27	31831.93
682.618	31848.43
682.966	31799.84
683.314	31829.22
683.661	31666.96
684.009	31496.57
684.357	31461.55
684.705	31478.27
685.053	31617.02
685.4	31312.4
685.748	31221.33
686.095	31144.04
686.443	30963.25
686.79	30998.51
687.138	31105.4
687.485	30955.57
687.832	30752.19
688.18	30808.23
688.527	30644.62
688.874	30571.63
689.221	30497.28
689.568	30472.19
689.915	30310.39
690.262	30179.09
690.609	30175.48
690.956	30186.55
691.303	30090.51
691.65	29998.99
691.997	30068.36
692.344	29830.18
692.69	29709.95
693.037	29847.58
693.383	29653.01
693.73	29746.56
694.077	29577.53
694.423	29476.97
694.769	29380.47
695.116	29450.3
695.462	29286.24
695.808	29117.43
696.155	29116.75
696.501	28995.4
696.847	28999.69
697.193	28661.85
697.539	28768.28
697.885	28582.53
698.231	28639.7
698.577	28530.1
698.923	28553.6
699.269	28277.67
699.614	28286.71
699.96	28230.9
700.306	28242.42
700.651	28063.89
700.997	28066.38
701.342	28071.8
701.688	27983.44
702.033	27901.64
702.379	27818.7
702.724	27686.5
703.069	27769.89
703.415	27485.6
703.76	27608.54
704.105	27441.99
704.45	27460.52
704.795	27257.59
705.14	27187.08
705.485	27184.14
705.83	26981.66
706.175	27240.19
706.52	27062.11
706.865	26933.76
707.209	26987.76
707.554	26838.84
707.899	26868.22
708.243	26569.02
708.588	26635.01
708.932	26518.62
709.277	26472.3
709.621	26469.81
709.966	26362.92
710.31	26362.92
710.654	26040.45
710.998	26174
711.342	26204.96
711.687	26071.18
712.031	26085.19
712.375	26023.27
712.719	25988.7
713.063	25865.99
713.407	25862.82
713.75	25767.91
714.094	25817.4
714.438	25507.8
714.782	25734.46
715.125	25569.27
715.469	25655.14
715.812	25449.73
716.156	25227.13
716.499	25294.7
716.843	25439.56
717.186	25235.95
717.53	25306.45
717.873	25246.57
718.216	25197.3
718.559	25034.6
718.902	24858.1
719.246	25089.28
719.589	24966.12
719.932	24901.72
720.275	24942.62
720.617	24803.19
720.96	24799.12
721.303	24747.82
721.646	24755.51
721.989	24610.43
722.331	24715.06
722.674	24538.34
723.016	24537.43
723.359	24515.74
723.701	24591.67
724.044	24411.56
724.386	24338.34
724.729	24310.32
725.071	24280.27
725.413	24237.78
725.755	24182.87
726.097	24181.96
726.439	23985.36
726.782	24015.87
727.124	24249.76
727.465	24035.98
727.807	23993.04
728.149	23838.02
728.491	23831.46
728.833	23913.72
729.175	23936.09
729.516	23726.38
729.858	23849.32
730.199	23771.58
730.541	23654.52
730.882	23680.51
731.224	23630.34
731.565	23584.92
731.906	23572.71
732.248	23580.4
732.589	23478.25
732.93	23386.96
733.271	23416.56
733.612	23448.87
733.953	23438.03
734.294	23329.1
734.635	23221.31
734.976	23276.9
735.317	23173.18
735.658	23129.56
735.999	23214.3
736.339	23001.43
736.68	23105.16
737.021	23092.27
737.361	22920.53
737.702	23063.12
738.042	22941.09
738.383	22930.92
738.723	22842.34
739.063	22727.76
739.404	22873.97
739.744	22814.32
740.084	22737.71
740.424	22741.77
740.764	22692.74
741.104	22713.3
741.444	22547.43
741.784	22486.64
742.124	22630.82
742.464	22521.89
742.804	22385.17
743.143	22314.67
743.483	22350.6
743.823	22273.09
744.162	22362.58
744.502	22347.66
744.841	22207.1
745.181	22263.14
745.52	22178.85
745.86	22127.1
746.199	22180.21
746.538	22090.04
746.877	21953.1
747.216	22061.57
747.556	22001.46
747.895	22024.73
748.234	21811.63
748.573	21844.17
748.911	21794.91
749.25	21773.66
749.589	21689.37
749.928	21757.17
750.267	21609.38
750.605	21547
750.944	21608.25
751.283	21584.29
751.621	21521.92
751.96	21400.57
752.298	21450.06
752.636	21333
752.975	21255.49
753.313	21231.31
753.651	21324.64
753.989	21161.93
754.327	21061.82
754.666	20981.6
755.004	20946.12
755.342	21054.81
755.679	20961.93
756.017	20914.48
756.355	21011.42
756.693	20740.02
757.031	20834.71
757.368	20637.65
757.706	20655.73
758.044	20542.51
758.381	20571.21
758.719	20441.04
759.056	20500.25
759.394	20362.4
759.731	20248.28
760.068	20213.93
760.405	20216.64
760.743	20027.27
761.08	20095.29
761.417	19984.33
761.754	20029.98
762.091	19925.58
762.428	19719.71
762.765	19681.29
763.102	19775.3
763.438	19619.15
763.775	19542.76
764.112	19572.59
764.449	19529.43
764.785	19479.94
765.122	19239.72
765.458	19248.76
765.795	19225.94
766.131	19198.37
766.467	19087.41
766.804	19067.3
767.14	18971.7
767.476	18945.49
767.812	18855.55
768.148	18864.36
768.485	18813.52
768.821	18592.28
769.157	18559.74
769.492	18557.7
769.828	18476.8
770.164	18333.98
770.5	18256.24
770.836	18305.96
771.171	18128.34
771.507	18142.35
771.842	18013.99
772.178	18008.79
772.513	17946.19
772.849	17979.87
773.184	17721.79
773.519	17881.56
773.855	17693.32
774.19	17618.75
774.525	17551.63
774.86	17447
775.195	17458.98
775.53	17401.58
775.865	17373.33
776.2	17271.86
776.535	17134.24
776.87	17080.45
777.205	17018.76
777.539	16980.34
777.874	17097.18
778.209	16727.02
778.543	16782.16
778.878	16680.01
779.212	16591.88
779.547	16608.38
779.881	16616.74
780.215	16514.37
780.55	16497.87
780.884	16485.67
781.218	16371.77
781.552	16360.93
781.886	16258.78
782.22	16153.02
782.554	16163.19
782.888	16030.54
783.222	15941.5
783.556	15890.88
783.889	15838.23
784.223	15660.83
784.557	15679.36
784.89	15735.18
785.224	15692.02
785.557	15611.34
785.891	15539.93
786.224	15499.03
786.558	15466.94
786.891	15314.4
787.224	15307.85
787.557	15239.83
787.891	15270.56
788.224	15085.93
788.557	15085.71
788.89	15017.68
789.223	15090
789.556	14901.53
789.888	14903.11
790.221	14878.48
790.554	14779.5
790.887	14707.86
791.219	14698.82
791.552	14695.43
791.884	14470.35
792.217	14562.1
792.549	14434.2
792.882	14362.11
793.214	14313.07
793.546	14386.74
793.879	14199.85
794.211	14104.71
794.543	14214.09
794.875	14097.71
795.207	14186.52
795.539	14039.18
795.871	14048.22
796.203	13900.65
796.535	13868.79
796.867	13799.41
797.198	13802.57
797.53	13777.94
797.862	13730.03
798.193	13810.48
798.525	13612.75
798.856	13662.69
799.188	13484.39
799.519	13471.74
799.85	13332.3
800.182	13387.67
800.513	13449.82
800.844	13208.92
801.175	13338.63
801.506	13304.73
801.837	13192.65
802.168	13204.85
802.499	13080.56
802.83	13047.11
803.161	13049.15
803.491	13058.64
803.822	12995.14
804.153	12965.99
804.483	12857.29
804.814	12755.6
805.145	12843.5
805.475	12762.6
805.805	12800.12
806.136	12739.33
806.466	12728.25
806.796	12689.61
807.126	12545.43
807.457	12563.51
807.787	12578.65
808.117	12454.59
808.447	12457.53
808.777	12519.67
809.107	12358.32
809.436	12323.07
809.766	12304.99
810.096	12243.07
810.426	12218.44
810.755	12260.02
811.085	12176.63
811.414	12243.52
811.744	12070.19
812.073	12065.9
812.403	12130.98
812.732	11967.14
813.061	12034.94
813.39	11886.69
813.719	11860.25
814.049	11953.58
814.378	11854.83
814.707	11772.8
815.036	11857.32
815.365	11748.62
815.693	11661.61
816.022	11648.96
816.351	11583.65
816.68	11564.89
817.008	11619.36
817.337	11540.71
817.665	11516.08
817.994	11480.38
818.322	11535.29
818.651	11448.74
818.979	11415.97
819.307	11403.32
819.636	11361.28
819.964	11316.09
820.292	11270.66
820.62	11308.18
820.948	11335.3
821.276	11301.17
821.604	11330.78
821.932	11298.23
822.259	11329.65
822.587	11288.06
822.915	11208.97
823.243	11376.2
823.57	11286.26
823.898	11270.89
824.225	11213.72
824.553	11260.95
824.88	11257.33
825.207	11272.92
825.535	11180.95
825.862	11271.79
826.189	11329.42
826.516	11282.64
826.843	11335.75
827.17	11313.83
827.497	11267.95
827.824	11257.11
828.151	11276.09
828.478	11289.19
828.805	11250.55
829.131	11213.94
829.458	11248.74
829.785	11160.38
830.111	11195.19
830.438	11177.79
830.764	11196.77
831.09	11205.81
831.417	11227.73
831.743	11141.63
832.069	11180.05
832.395	11186.82
832.722	11166.03
833.048	11129.88
833.374	11168.29
833.7	11063.44
834.026	11096.21
834.351	11003.1
834.677	11058.69
835.003	11067.05
835.329	11069.54
835.654	11076.54
835.98	10971.91
836.306	10992.71
836.631	11019.37
836.956	11037.45
837.282	11032.93
837.607	10906.61
837.932	10938.02
838.258	10895.08
838.583	10908.19
838.908	10874.52
839.233	10851.01
839.558	10758.59
839.883	10754.29
840.208	10716.78
840.533	10721.3
840.858	10771.92
841.182	10778.02
841.507	10733.28
841.832	10660.96
842.156	10627.07
842.481	10657.12
842.805	10611.7
843.13	10652.38
843.454	10534.19
843.778	10588.65
844.103	10499.84
844.427	10460.06
844.751	10500.51
845.075	10401.31
845.399	10400.4
845.723	10372.16
846.047	10292.61
846.371	10300.29
846.695	10281.99
847.019	10258.94
847.343	10193.4
847.666	10200.86
847.99	10114.31
848.313	10105.5
848.637	9993.86
848.96	9978.49
849.284	9969.68
849.607	9917.48
849.931	9880.64
850.254	9810.14
850.577	9737.37
850.9	9750.48
851.223	9705.96
851.546	9676.81
851.869	9614.44
852.192	9662.8
852.515	9487.43
852.838	9492.41
853.161	9520.2
853.483	9433.88
853.806	9384.16
854.129	9424.38
854.451	9353.43
854.774	9359.75
855.096	9289.02
855.419	9275.69
855.741	9260.1
856.063	9166.76
856.385	9152.3
856.708	9088.8
857.03	9134.22
857.352	9086.99
857.674	9108.46
857.996	9016.49
858.318	8989.59
858.64	8981.68
858.961	8978.07
859.283	8918.18
859.605	8891.74
859.926	8910.73
860.248	8888.81
860.57	8831.41
860.891	8840.9
861.212	8804.06
861.534	8823.5
861.855	8818.53
862.176	8790.73
862.498	8819.88
862.819	8721.13
863.14	8629.83
863.461	8682.94
863.782	8637.74
864.103	8721.8
864.424	8666.44
864.745	8636.61
865.065	8628.02
865.386	8615.82
865.707	8582.37
866.027	8591.19
866.348	8557.74
866.668	8590.73
866.989	8550.06
867.309	8449.27
867.63	8518.65
867.95	8543.5
868.27	8482.49
868.59	8460.34
868.91	8454.01
869.23	8416.95
869.55	8409.04
869.87	8449.95
870.19	8364.75
870.51	8433.9
870.83	8365.88
871.15	8329.72
871.469	8347.8
871.789	8306.22
872.109	8317.52
872.428	8243.17
872.748	8348.48
873.067	8269.16
873.386	8298.99
873.706	8270.07
874.025	8230.97
874.344	8198.43
874.663	8227.58
874.982	8200.46
875.301	8143.51
875.62	8179.45
875.939	8130.63
876.258	8107.58
876.577	8121.37
876.896	8092.22
877.214	8129.05
877.533	8103.06
877.852	8048.83
878.17	8107.36
878.489	8115.04
878.807	8035.27
879.125	7998.21
879.444	8073.46
879.762	8023.74
880.08	7995.95
880.398	7969.51
880.716	7933.35
881.034	7911.66
881.352	7907.14
881.67	7902.84
881.988	7966.34
882.306	7941.94
882.624	7855.16
882.941	7826.69
883.259	7848.83
883.577	7777.42
883.894	7776.74
884.212	7793.24
884.529	7746.69
884.846	7732.9
885.164	7714.83
885.481	7671.21
885.798	7718.44
886.115	7615.62
886.432	7632.12
886.75	7647.26
887.067	7679.12
887.383	7669.63
887.7	7568.84
888.017	7572.68
888.334	7598.22
888.651	7569.07
888.967	7572
889.284	7490.2
889.6	7470.99
889.917	7363.2
890.233	7403.87
890.55	7412.91
890.866	7360.71
891.182	7436.87
891.498	7328.39
891.815	7303.99
892.131	7306.02
892.447	7265.57
892.763	7273.71
893.079	7172.24
893.395	7216.99
893.71	7184.44
894.026	7170.88
894.342	7074.39
894.657	7063.77
894.973	7090.89
895.289	7119.13
895.604	7066.93
895.92	7034.84
896.235	7046.37
896.55	6995.3
896.865	7021.06
897.181	6914.85
897.496	6934.96
897.811	6935.86
898.126	6910.78
898.441	6872.36
898.756	6854.06
899.071	6769.99
899.386	6768.41
899.7	6781.52
900.015	6737.22
900.33	6694.51
900.644	6671.01
900.959	6648.64
901.273	6715.76
901.588	6621.97
901.902	6616.1
902.216	6603.44
902.531	6568.19
902.845	6523.44
903.159	6499.94
903.473	6509.66
903.787	6533.61
904.101	6440.73
904.415	6433.28
904.729	6374.52
905.042	6390.11
905.356	6377.69
905.67	6340.4
905.984	6347.4
906.297	6319.61
906.611	6332.04
906.924	6265.6
907.237	6251.14
907.551	6202.77
907.864	6158.71
908.177	6212.94
908.491	6160.74
908.804	6166.84
909.117	6071.7
909.43	6063.8
909.743	6052.04
910.056	6024.02
910.368	6023.8
910.681	5997.13
910.994	5933.18
911.307	5920.97
911.619	5909.22
911.932	5924.59
912.244	5837.36
912.557	5859.28
912.869	5806.4
913.181	5793.29
913.494	5866.06
913.806	5741.09
914.118	5697.93
914.43	5698.16
914.742	5716.91
915.054	5631.04
915.366	5667.42
915.678	5605.05
915.99	5574.09
916.302	5569.57
916.613	5528.67
916.925	5566.86
917.236	5495.45
917.548	5449.8
917.859	5440.99
918.171	5421.78
918.482	5400.99
918.794	5380.88
919.105	5379.97
919.416	5336.36
919.727	5330.93
920.038	5314.66
920.349	5313.53
920.66	5233.31
920.971	5243.03
921.282	5208.45
921.593	5210.26
921.903	5145.85
922.214	5153.99
922.525	5120.77
922.835	5110.15
923.146	5051.17
923.456	5047.78
923.767	5039.19
924.077	5073.54
924.387	4981.56
924.697	4951.28
925.008	4932.53
925.318	4893.66
925.628	4930.72
925.938	4891.17
926.248	4863.37
926.558	4853.66
926.867	4817.5
927.177	4817.05
927.487	4796.94
927.796	4745.64
928.106	4778.63
928.416	4723.72
928.725	4762.13
929.034	4674.68
929.344	4673.55
929.653	4693.89
929.962	4624.51
930.271	4597.39
930.581	4624.29
930.89	4563.95
931.199	4523.72
931.508	4545.42
931.817	4523.95
932.125	4568.02
932.434	4458.19
932.743	4454.57
933.051	4441.24
933.36	4396.27
933.669	4405.53
933.977	4360.11
934.286	4406.66
934.594	4317.85
934.902	4328.7
935.21	4284.86
935.519	4302.26
935.827	4307.91
936.135	4281.7
936.443	4219.32
936.751	4209.83
937.059	4229.95
937.367	4168.7
937.674	4200.34
937.982	4182.26
938.29	4135.94
938.597	4138.65
938.905	4101.36
939.213	4114.47
939.52	4070.4
939.827	4066.79
940.135	4071.98
940.442	4013.91
940.749	3987.24
941.056	3971.65
941.363	3996.96
941.67	3930.74
941.977	3907.69
942.284	3872.89
942.591	3874.02
942.898	3890.75
943.205	3901.82
943.511	3904.3
943.818	3820.01
944.125	3791.76
944.431	3829.28
944.738	3764.87
945.044	3725.55
945.35	3728.72
945.657	3740.69
945.963	3720.58
946.269	3712.22
946.575	3712.44
946.881	3681.94
947.187	3675.61
947.493	3614.59
947.799	3589.28
948.105	3630.64
948.41	3553.58
948.716	3573.69
949.022	3589.96
949.327	3524.88
949.633	3526.23
949.938	3550.87
950.244	3517.87
950.549	3462.51
950.854	3474.26
951.16	3500.25
951.465	3466.35
951.77	3436.75
952.075	3416.86
952.38	3434.03
952.685	3403.53
952.99	3309.29
953.294	3379.35
953.599	3359.46
953.904	3336.18
954.209	3320.59
954.513	3310.42
954.818	3286.69
955.122	3275.62
955.426	3281.27
955.731	3206.47
956.035	3250.08
956.339	3211.44
956.643	3231.1
956.948	3180.93
957.252	3191.1
957.556	3183.19
957.86	3171.22
958.163	3137.09
958.467	3139.58
958.771	3126.25
959.075	3109.97
959.378	3105
959.682	3115.62
959.985	3055.51
960.289	3053.48
960.592	3053.48
960.896	3060.03
961.199	3029.52
961.502	3015.06
961.805	2995.63
962.108	2967.15
962.411	2949.98
962.714	2980.26
963.017	2924.67
963.32	2922.41
963.623	2972.35
963.926	2912.24
964.228	2875.18
964.531	2887.16
964.833	2874.5
965.136	2879.02
965.438	2829.3
965.741	2839.93
966.043	2816.2
966.345	2820.72
966.648	2761.96
966.95	2801.51
967.252	2762.87
967.554	2767.16
967.856	2723.32
968.158	2737.33
968.46	2721.28
968.761	2715.18
969.063	2694.84
969.365	2706.6
969.666	2639.7
969.968	2655.98
970.269	2659.37
970.571	2640.83
970.872	2620.5
971.174	2632.7
971.475	2631.34
971.776	2624.11
972.077	2625.69
972.378	2586.6
972.679	2588.63
972.98	2582.76
973.281	2533.72
973.582	2554.96
973.883	2535.3
974.183	2510.67
974.484	2539.37
974.785	2485.81
975.085	2508.86
975.386	2477.9
975.686	2462.53
975.986	2444.23
976.287	2416.43
976.587	2395.64
976.887	2417.11
977.187	2448.75
977.487	2424.34
977.787	2379.37
978.087	2382.54
978.387	2345.48
978.687	2361.07
978.987	2368.98
979.286	2372.37
979.586	2327.4
979.885	2331.46
980.185	2286.49
980.484	2310.22
980.784	2286.27
981.083	2287.85
981.382	2260.73
981.682	2272.26
981.981	2282.65
982.28	2256.21
982.579	2220.28
982.878	2241.52
983.177	2225.7
983.475	2226.16
983.774	2188.87
984.073	2182.99
984.372	2187.51
984.67	2167.63
984.969	2191.13
985.267	2154.07
985.566	2127.18
985.864	2144.12
986.162	2131.47
986.461	2123.56
986.759	2110.9
987.057	2063.9
987.355	2088.76
987.653	2078.82
987.951	2081.3
988.249	2064.8
988.547	2024.81
988.844	2069.78
989.142	2043.56
989.44	2020.06
989.737	1994.07
990.035	2001.08
990.332	1977.35
990.63	2023
990.927	2027.97
991.224	1964.02
991.521	1944.13
991.819	1967.18
992.116	1981.42
992.413	1947.75
992.71	1919.27
993.006	1932.38
993.303	1902.77
993.6	1873.4
993.897	1906.16
994.193	1885.83
994.49	1851.25
994.787	1865.49
995.083	1880.63
995.379	1852.15
995.676	1851.93
995.972	1873.85
996.268	1819.61
996.565	1824.81
996.861	1818.26
997.157	1825.71
997.453	1771.25
997.749	1812.83
998.044	1746.85
998.34	1803.79
998.636	1775.32
998.932	1751.14
999.227	1758.82
999.523	1727.86
999.818	1729.67
1000.114	1697.58
1000.409	1714.98
1000.704	1687.64
1001	1688.77
1001.295	1653.52
1001.59	1654.65
1001.885	1682.89
1002.18	1655.32
1002.475	1644.02
1002.77	1663.01
1003.065	1625.95
1003.359	1624.59
1003.654	1611.26
1003.949	1609.45
1004.243	1594.31
1004.538	1601.31
1004.832	1578.49
1005.127	1552.28
1005.421	1520.86
1005.715	1560.18
1006.009	1569.9
1006.304	1527.19
1006.598	1531.26
1006.892	1532.62
1007.186	1490.81
1007.48	1505.5
1007.773	1486.29
1008.067	1487.64
1008.361	1510.24
1008.655	1484.03
1008.948	1463.01
1009.242	1455.1
1009.535	1457.36
1009.829	1437.02
1010.122	1451.26
1010.415	1433.63
1010.708	1399.96
1011.001	1368.78
1011.295	1422.34
1011.588	1427.53
1011.881	1401.32
1012.173	1372.17
1012.466	1382.34
1012.759	1367.42
1013.052	1370.59
1013.344	1366.74
1013.637	1355.9
1013.93	1329.46
1014.222	1370.36
1014.514	1338.04
1014.807	1324.26
1015.099	1285.16
1015.391	1297.59
1015.683	1305.5
1015.976	1278.38
1016.268	1306.63
1016.56	1264.15
1016.851	1270.02
1017.143	1265.73
1017.435	1267.31
1017.727	1250.36
1018.018	1224.6
1018.31	1238.16
1018.602	1243.13
1018.893	1216.47
1019.185	1242.23
1019.476	1183.7
1019.767	1196.35
1020.058	1186.86
1020.35	1171.72
1020.641	1167.2
1020.932	1158.84
1021.223	1168.33
1021.514	1162.46
1021.804	1145.28
1022.095	1116.81
1022.386	1160.42
1022.677	1127.88
1022.967	1125.39
1023.258	1081.1
1023.548	1118.16
1023.839	1115.22
1024.129	1103.7
1024.419	1090.82
1024.709	1094.66
1025	1079.52
1025.29	1079.52
1025.58	1060.99
1025.87	1067.54
1026.16	1042.23
1026.449	1064.38
1026.739	1061.67
1027.029	1035.45
1027.319	1021.22
1027.608	1017.83
1027.898	1025.06
1028.187	1001.78
1028.477	982.8
1028.766	997.49
1029.055	963.14
1029.344	994.1
1029.634	971.73
1029.923	952.74
1030.212	960.43
1030.501	952.97
1030.79	959.07
1031.078	975.79
1031.367	949.13
1031.656	906.42
1031.945	940.09
1032.233	931.95
1032.522	907.09
1032.81	893.54
1033.099	902.35
1033.387	902.35
1033.675	908
1033.963	894.67
1034.251	904.61
1034.54	877.94
1034.828	891.73
1035.116	869.81
1035.403	880.88
1035.691	855.8
1035.979	890.15
1036.267	854.44
1036.554	860.99
1036.842	833.88
1037.129	842.69
1037.417	832.75
1037.704	808.57
1037.992	832.52
1038.279	819.64
1038.566	812.41
1038.853	812.41
1039.14	812.41
