Data from foam2_polystyrene_foam_FLMS001491_00088.txt Node
Date: Wed Feb 08 10:58:38 GMT 2017
User: dcchb
Spectrometer: FLMS00149
Trigger mode: 0
Integration Time (sec): 2.000000E-2
Scans to average: 10
Electric dark correction enabled: true
Nonlinearity correction enabled: false
Boxcar width: 0
XAxis mode: Wavelengths
Number of Pixels in Spectrum: 2048
>>>>>Begin Spectral Data<<<<<
341.393	-11.64
341.776	-11.64
342.16	-11.64
342.543	-58.87
342.927	-83.5
343.31	-84.86
343.693	-56.83
344.077	-62.71
344.46	-43.05
344.843	-59.55
345.226	-54.12
345.61	-25.88
345.993	-15.48
346.376	9.38
346.759	8.02
347.142	17.74
347.525	56.38
347.908	46.44
348.291	52.99
348.674	95.25
349.057	116.27
349.44	105.42
349.823	146.32
350.206	181.58
350.588	220.45
350.971	217.96
351.354	234.46
351.737	255.93
352.119	272.65
352.502	273.78
352.884	272.65
353.267	301.35
353.65	298.64
354.032	318.52
354.414	325.53
354.797	339.99
355.179	319.43
355.562	333.66
355.944	334.79
356.326	358.3
356.709	358.3
357.091	338.41
357.473	359.88
357.855	355.58
358.238	343.83
358.62	356.71
359.002	360.78
359.384	383.38
359.766	375.02
360.148	369.82
360.53	370.95
360.912	359.2
361.294	359.65
361.676	345.87
362.057	374.57
362.439	369.82
362.821	354.91
363.203	354.91
363.584	361.01
363.966	353.78
364.348	353.1
364.729	345.64
365.111	344.51
365.493	369.14
365.874	368.46
366.256	367.33
366.637	343.38
367.019	362.82
367.4	361.69
367.781	358.07
368.163	375.24
368.544	364.62
368.925	328.69
369.306	384.06
369.688	354.91
370.069	336.38
370.45	378.63
370.831	359.88
371.212	379.99
371.593	360.78
371.974	365.75
372.355	344.06
372.736	367.79
373.117	368.24
373.498	365.75
373.879	369.82
374.26	384.28
374.641	364.4
375.021	380.44
375.402	405.07
375.783	397.39
376.163	418.18
376.544	396.49
376.925	388.35
377.305	404.85
377.686	395.58
378.066	405.07
378.447	402.14
378.827	400.78
379.208	398.07
379.588	399.65
379.968	414.11
380.349	423.83
380.729	405.07
381.109	413.21
381.489	425.86
381.87	441.01
382.25	426.77
382.63	430.84
383.01	437.84
383.39	424.51
383.77	435.58
384.15	429.71
384.53	429.03
384.91	440.55
385.29	464.96
385.67	450.72
386.049	452.76
386.429	461.34
386.809	472.64
387.189	465.64
387.568	481.46
387.948	485.07
388.328	475.58
388.707	472.64
389.087	490.72
389.466	497.05
389.846	485.07
390.225	508.12
390.605	529.14
390.984	521
391.363	545.86
391.743	536.82
392.122	513.09
392.501	521.46
392.881	529.59
393.26	525.97
393.639	535.47
394.018	546.31
394.397	565.3
394.776	568.46
395.155	595.8
395.534	556.03
395.913	561.45
396.292	579.98
396.671	589.25
397.05	584.96
397.429	583.6
397.808	553.32
398.186	590.38
398.565	610.72
398.944	603.71
399.323	619.31
399.701	596.26
400.08	607.78
400.458	617.95
400.837	651.62
401.215	634.9
401.594	634.67
401.972	633.99
402.351	666.08
402.729	631.73
403.107	655.69
403.486	638.29
403.864	673.54
404.242	677.61
404.62	701.34
404.999	706.54
405.377	704.05
405.755	695.46
406.133	722.81
406.511	739.3
406.889	729.81
407.267	737.27
407.645	735.23
408.023	755.12
408.401	759.19
408.779	778.62
409.156	776.59
409.534	789.92
409.912	785.86
410.29	812.52
410.667	811.62
411.045	813.65
411.422	837.38
411.8	850.71
412.178	845.74
412.555	871.95
412.933	866.53
413.31	888.9
413.687	899.52
414.065	878.51
414.442	893.42
414.819	928.22
415.197	938.17
415.574	950.82
415.951	937.72
416.328	951.73
416.705	976.36
417.082	966.19
417.46	987.66
417.837	979.3
418.214	993.31
418.591	1014.78
418.967	1017.71
419.344	1004.83
419.721	1036.7
420.098	1061.33
420.475	1065.17
420.852	1067.2
421.228	1072.4
421.605	1080.31
421.982	1082.34
422.358	1117.82
422.735	1150.14
423.111	1120.08
423.488	1155.56
423.864	1165.51
424.241	1163.7
424.617	1184.04
424.994	1172.51
425.37	1184.04
425.746	1190.59
426.123	1213.19
426.499	1217.48
426.875	1238.27
427.251	1285.73
427.627	1284.15
428.003	1261.1
428.379	1327.99
428.756	1336.58
429.132	1350.59
429.507	1367.76
429.883	1366.4
430.259	1396.23
430.635	1401.66
431.011	1420.64
431.387	1449.57
431.763	1470.81
432.138	1440.75
432.514	1503.8
432.89	1511.71
433.265	1541.32
433.641	1556
434.016	1558.04
434.392	1601.2
434.767	1634.65
435.143	1606.4
435.518	1653.4
435.894	1685.49
436.269	1676
436.644	1715.77
437.02	1716
437.395	1728.66
437.77	1747.64
438.145	1766.17
438.52	1788.77
438.895	1811.82
439.271	1821.31
439.646	1846.17
440.021	1867.41
440.395	1877.58
440.77	1859.27
441.145	1904.24
441.52	1926.39
441.895	1935.88
442.27	1978.37
442.645	1964.81
443.019	1963.68
443.394	2013.39
443.769	2013.62
444.143	2026.27
444.518	2061.75
444.892	2008.87
445.267	2060.17
445.641	2090.45
446.016	2131.58
446.39	2115.54
446.764	2107.4
447.139	2137.23
447.513	2192.82
447.887	2171.13
448.262	2181.98
448.636	2190.34
449.01	2213.16
449.384	2237.79
449.758	2293.16
450.132	2315.98
450.506	2296.32
450.88	2337.45
451.254	2339.49
451.628	2354.4
452.002	2411.12
452.376	2417.22
452.75	2429.65
453.123	2455.19
453.497	2494.28
453.871	2531.57
454.244	2598.01
454.618	2580.38
454.992	2595.75
455.365	2639.14
455.739	2648.86
456.112	2703.09
456.486	2716.2
456.859	2750.78
457.232	2812.92
457.606	2781.06
457.979	2824.45
458.352	2911.67
458.725	2897.21
459.099	2904.67
459.472	2990.09
459.845	3028.28
460.218	3064.21
460.591	3054.27
460.964	3076.19
461.337	3141.27
461.71	3212.68
462.083	3247.94
462.456	3255.85
462.829	3266.92
463.201	3299.69
463.574	3329.07
463.947	3380.36
464.32	3410.64
464.692	3466.69
465.065	3483.86
465.438	3556.86
465.81	3625.78
466.183	3607.93
466.555	3722.95
466.928	3719.56
467.3	3733.8
467.672	3801.59
468.045	3874.59
468.417	3875.94
468.789	3926.11
469.161	4018.76
469.534	4039.78
469.906	4103.96
470.278	4133.11
470.65	4254.92
471.022	4284.07
471.394	4338.53
471.766	4354.12
472.138	4440.45
472.51	4506.66
472.882	4632.76
473.253	4671.4
473.625	4675.7
473.997	4821
474.369	4847.44
474.74	4874.11
475.112	5008.34
475.484	5071.17
475.855	5155.01
476.227	5181.22
476.598	5395.68
476.97	5345.51
477.341	5431.16
477.713	5550.7
478.084	5571.04
478.455	5746.63
478.827	5802.67
479.198	5980.07
479.569	5947.98
479.94	6122.89
480.311	6180.52
480.682	6385.71
481.053	6506.61
481.424	6567.85
481.795	6697.56
482.166	6722.2
482.537	6836.09
482.908	6950.66
483.279	7025.46
483.65	7119.7
484.021	7277.66
484.391	7386.13
484.762	7442.86
485.133	7478.33
485.503	7639.01
485.874	7745.22
486.244	7809.85
486.615	8030.86
486.985	8080.35
487.356	8285.77
487.726	8300.46
488.097	8489.83
488.467	8567.12
488.837	8740.67
489.207	8873.33
489.578	8945.64
489.948	9050.95
490.318	9242.13
490.688	9190.83
491.058	9347.89
491.428	9495.23
491.798	9589.47
492.168	9720.08
492.538	9753.75
492.908	9880.31
493.278	9977.48
493.648	10036.46
494.017	10176.34
494.387	10309.45
494.757	10308.32
495.126	10469.44
495.496	10518.03
495.866	10545.82
496.235	10742.2
496.605	10732.94
496.974	10896.78
497.344	11015.87
497.713	11066.49
498.082	11123.44
498.452	11202.3
498.821	11382.86
499.19	11452.69
499.559	11537.66
499.928	11570.2
500.298	11618.34
500.667	11883.87
501.036	11805
501.405	11891.33
501.774	11905.34
502.143	11987.37
502.512	12104.65
502.88	12170.64
503.249	12276.85
503.618	12316.17
503.987	12453.57
504.356	12600.91
504.724	12567.47
505.093	12615.83
505.462	12662.83
505.83	12813.11
506.199	12943.95
506.567	13072.76
506.936	13079.32
507.304	13212.87
507.672	13351.4
508.041	13360.67
508.409	13535.12
508.777	13602.69
509.145	13668.91
509.514	13739.64
509.882	13857.38
510.25	13890.82
510.618	14052.85
510.986	14105.28
511.354	14263.69
511.722	14366.06
512.09	14455.1
512.458	14487.19
512.826	14681.99
513.193	14629.56
513.561	14802.66
513.929	14884.69
514.297	15045.37
514.664	15176.89
515.032	15206.72
515.4	15400.16
515.767	15416.66
516.135	15548.63
516.502	15487.84
516.869	15771.68
517.237	15785.23
517.604	15792.24
517.972	16040.37
518.339	16150.87
518.706	16183.87
519.073	16268.61
519.44	16469.06
519.808	16611.43
520.175	16601.03
520.542	16828.15
520.909	16982.94
521.276	17074.24
521.643	17300.22
522.009	17414.34
522.376	17564.62
522.743	17625.19
523.11	17765.97
523.477	18009.36
523.843	18152.86
524.21	18282.12
524.577	18385.39
524.943	18574.09
525.31	18589
525.676	18811.82
526.043	18923.01
526.409	19034.41
526.776	19275.09
527.142	19276.67
527.508	19437.57
527.874	19554.63
528.241	19755.98
528.607	19822.87
528.973	20056.76
529.339	20045.01
529.705	20255.85
530.071	20405.9
530.437	20437.77
530.803	20621.27
531.169	20678.21
531.535	20675.95
531.901	20835.72
532.267	20921.82
532.632	21085.89
532.998	21196.62
533.364	21303.28
533.73	21424.63
534.095	21654.91
534.461	21693.1
534.826	21772.42
535.192	21833.21
535.557	22012.42
535.923	21945.3
536.288	22033.88
536.653	22183.03
537.019	22284.5
537.384	22328.11
537.749	22424.16
538.114	22414.89
538.479	22590.93
538.845	22602.46
539.21	22639.07
539.575	22823.69
539.94	22874.09
540.305	23123.35
540.67	23040.64
541.034	23207.64
541.399	23259.39
541.764	23383
542.129	23368.76
542.494	23564.69
542.858	23708.87
543.223	23646.04
543.587	23844.91
543.952	23792.93
544.316	23868.19
544.681	23941.63
545.045	24138.69
545.41	24243.32
545.774	24295.97
546.138	24354.73
546.503	24476.31
546.867	24450.54
547.231	24740.48
547.595	24622.52
547.959	24870.19
548.324	24853.24
548.688	24924.88
549.052	25007.14
549.416	25059.12
549.779	25160.58
550.143	25191.32
550.507	25348.15
550.871	25443.29
551.235	25415.04
551.599	25677.4
551.962	25701.36
552.326	25746.33
552.689	25940
553.053	25873.56
553.417	25899.32
553.78	26413.66
554.143	26269.03
554.507	26337.5
554.87	26484.61
555.234	26819.29
555.597	26661.56
555.96	26876.69
556.323	26940.87
556.686	26949.69
557.05	27167.08
557.413	27266.74
557.776	27319.62
558.139	27436.68
558.502	27599.39
558.865	27648.2
559.228	27990.56
559.59	27966.38
559.953	28048.87
560.316	28342.64
560.679	28306.94
561.041	28486.37
561.404	28657.44
561.767	28846.13
562.129	28767.04
562.492	28977.88
562.854	29056.3
563.217	29123.42
563.579	29302.62
563.941	29489.51
564.304	29504.65
564.666	29814.02
565.028	29867.8
565.39	29924.52
565.753	30075.71
566.115	30353.67
566.477	30303.72
566.839	30296.49
567.201	30596.82
567.563	30498.97
567.925	30825.07
568.287	30914.33
568.648	30839.98
569.01	31080.65
569.372	31291.95
569.734	31162.46
570.095	31343.7
570.457	31656.91
570.819	31538.94
571.18	31597.02
571.542	31874.53
571.903	31710.47
572.265	31920.18
572.626	32063.9
572.987	32102.55
573.349	32146.84
573.71	32463.21
574.071	32347.06
574.432	32507.51
574.794	32658.24
575.155	32604.23
575.516	32605.58
575.877	32754.96
576.238	32956.53
576.599	32907.27
576.96	33080.37
577.32	32951.11
577.681	33094.84
578.042	33144.78
578.403	33233.59
578.763	33203.99
579.124	33386.81
579.485	33523.75
579.845	33529.17
580.206	33537.08
580.566	33461.61
580.927	33544.09
581.287	33700.02
581.648	33630.42
582.008	33788.83
582.368	33731.88
582.728	33813.91
583.089	33631.55
583.449	33577.31
583.809	33586.8
584.169	33735.72
584.529	33660.7
584.889	33789.28
585.249	33548.38
585.609	33593.13
585.969	33818.88
586.329	33691.66
586.688	33798.55
587.048	33763.74
587.408	33647.36
587.768	33621.83
588.127	33710.41
588.487	33612.34
588.846	33815.5
589.206	33712.67
589.565	33605.11
589.925	33701.37
590.284	33764.2
590.643	33743.18
591.003	33878.32
591.362	33926.68
591.721	33958.54
592.08	33882.16
592.44	33850.07
592.799	33839.9
593.158	34008.26
593.517	33982.5
593.876	34096.39
594.235	33880.13
594.593	33954.02
594.952	34037.86
595.311	33878.32
595.67	33904.08
596.029	34008.94
596.387	34145.2
596.746	34054.81
597.104	33998.99
597.463	34018.43
597.822	34143.4
598.18	34142.27
598.538	34090.52
598.897	34285.31
599.255	33830.64
599.613	34498.64
599.972	34209.38
600.33	34429.49
600.688	34184.52
601.046	34369.15
601.404	34464.52
601.762	34383.84
602.12	34668.13
602.478	34577.51
602.836	34659.54
603.194	34558.98
603.552	34544.74
603.91	34495.25
604.268	34763.49
604.625	34604.85
604.983	34665.64
605.341	34558.75
605.698	34817.05
606.056	34897.05
606.413	34670.39
606.771	34949.48
607.128	34914.45
607.485	34710.84
607.843	34696.38
608.2	34980.66
608.557	34994.22
608.914	34909.03
609.272	34969.14
609.629	35078.29
609.986	35300.88
610.343	35005.07
610.7	35373.87
611.057	35195.12
611.414	35181.56
611.771	35293.65
612.127	35432.4
612.484	35438.5
612.841	35429.46
613.198	35471.95
613.554	35461.33
613.911	35608.89
614.267	35531.16
614.624	35565.51
614.98	35706.74
615.337	35886.63
615.693	35725.5
616.05	35682.34
616.406	35911.26
616.762	35755.11
617.118	35776.35
617.475	35879.17
617.831	35899.51
618.187	35915.1
618.543	36096.11
618.899	36132.72
619.255	36167.3
619.611	36109.45
619.967	36228.99
620.323	36356.22
620.678	36052.95
621.034	36108.54
621.39	36066.51
621.746	36064.48
622.101	36553.95
622.457	36239.16
622.812	36377.46
623.168	36402.77
623.523	36352.38
623.879	36503.79
624.234	36243.23
624.589	36406.84
624.945	36444.13
625.3	36351.02
625.655	36393.28
626.01	36327.97
626.365	36424.69
626.72	36301.76
627.075	36228.99
627.43	36284.36
627.785	36212.72
628.14	36442.77
628.495	36172.5
628.85	36340.4
629.205	36111.93
629.559	36304.24
629.914	36025.83
630.269	36205.04
630.623	36085.49
630.978	36033.52
631.332	36133.85
631.687	36113.06
632.041	36155.77
632.396	36006.85
632.75	35797.36
633.104	36101.76
633.459	35734.09
633.813	35674.43
634.167	35662.23
634.521	35586.97
634.875	35796.46
635.229	35705.39
635.583	35441.67
635.937	35655.9
636.291	35455.9
636.645	35450.48
636.999	35549.69
637.352	35556.24
637.706	35196.25
638.06	35397.83
638.413	35257.72
638.767	35209.36
639.121	35276.47
639.474	35040.32
639.828	35059.53
640.181	35128
640.534	35102.47
640.888	34911.29
641.241	34888.24
641.594	34919.19
641.947	34856.15
642.301	34776.6
642.654	34754.68
643.007	34891.4
643.36	34616.15
643.713	34597.4
644.066	34820.21
644.419	34536.15
644.771	34362.37
645.124	34188.82
645.477	33913.35
645.83	33702.96
646.182	33479.46
646.535	33454.37
646.888	33590.19
647.24	33392.91
647.593	33549.51
647.945	33494.83
648.298	33266.13
648.65	33081.5
649.002	33067.72
649.355	33244.44
649.707	33114.04
650.059	33306.13
650.411	33559.23
650.763	33605.33
651.115	34098.88
651.467	33913.57
651.819	33815.27
652.171	33733.24
652.523	33710.64
652.875	33705.22
653.227	33645.56
653.578	33872.89
653.93	33678.32
654.282	33497.09
654.633	33469.52
654.985	33546.8
655.337	33492.57
655.688	33564.2
656.039	33530.98
656.391	33356.52
656.742	33390.65
657.094	33429.97
657.445	33461.15
657.796	33380.03
658.147	33345.22
658.498	33289.41
658.849	33256.87
659.2	33222.06
659.551	33190.65
659.902	33399.69
660.253	33156.53
660.604	33149.52
660.955	32907.5
661.306	33131.67
661.656	32994.05
662.007	33021.17
662.358	32925.35
662.708	33017.78
663.059	33032.69
663.409	32735.98
663.76	32914.73
664.11	32973.94
664.461	32945.01
664.811	32810.1
665.161	32867.95
665.511	32776.65
665.862	32739.14
666.212	32804.9
666.562	32826.82
666.912	32751.34
667.262	32699.82
667.612	32736.2
667.962	32691.46
668.312	32697.78
668.662	32760.16
669.011	32635.87
669.361	32607.84
669.711	32640.61
670.06	32519.48
670.41	32389.77
670.76	32384.8
671.109	32599.71
671.459	32500.73
671.808	32388.19
672.157	32561.52
672.507	32241.07
672.856	32342.77
673.205	32322.43
673.554	32290.56
673.904	32359.94
674.253	32347.96
674.602	32128.31
674.951	31921.08
675.3	31567.19
675.649	32159.72
675.998	32142.54
676.346	31947.07
676.695	32090.79
677.044	31914.98
677.393	32068.42
677.741	31919.73
678.09	31888.09
678.438	31797.02
678.787	31856.9
679.135	31823.01
679.484	31681.99
679.832	31800.86
680.181	31647.64
680.529	31641.77
680.877	31522.22
681.225	31508.89
681.573	31722.89
681.922	31426.18
682.27	31422.34
682.618	31286.3
682.966	31361.1
683.314	31342.11
683.661	31277.26
684.009	31016.7
684.357	31059.18
684.705	31022.57
685.053	30950.71
685.4	30946.19
685.748	30726.99
686.095	30720.21
686.443	30606.09
686.79	30603.38
687.138	30698.97
687.485	30480.89
687.832	30442.93
688.18	30381.46
688.527	30220.34
688.874	30214.23
689.221	30264.63
689.568	30123.16
689.915	29960.91
690.262	29907.35
690.609	29999.55
690.956	29854.24
691.303	29771.76
691.65	29650.63
691.997	29802.04
692.344	29434.82
692.69	29419.68
693.037	29406.57
693.383	29288.61
693.73	29397.08
694.077	29102.62
694.423	29109.4
694.769	29061.72
695.116	28988.05
695.462	28795.06
695.808	28820.15
696.155	28687.27
696.501	28570.44
696.847	28639.36
697.193	28346.71
697.539	28458.12
697.885	28261.52
698.231	28196.89
698.577	28048.87
698.923	28104.91
699.269	27970.23
699.614	27870.11
699.96	27768.87
700.306	27754.19
700.651	27665.15
700.997	27732.27
701.342	27675.09
701.688	27486.4
702.033	27438.04
702.379	27486.17
702.724	27390.58
703.069	27480.97
703.415	27084.6
703.76	27193.07
704.105	27128.67
704.45	27045.96
704.795	26949.91
705.14	26856.81
705.485	26872.4
705.83	26732.97
706.175	26737.94
706.52	26636.25
706.865	26436.48
707.209	26489.36
707.554	26332.08
707.899	26491.85
708.243	26349.7
708.588	26313.32
708.932	26094.12
709.277	26024.74
709.621	26210.72
709.966	25938.19
710.31	25867.23
710.654	25742.04
710.998	25790.62
711.342	25845.54
711.687	25820.45
712.031	25582.72
712.375	25495.71
712.719	25492.32
713.063	25507.46
713.407	25557.18
713.75	25466.34
714.094	25472.89
714.438	25328.03
714.782	25277.41
715.125	25285.1
715.469	25324.19
715.812	25140.47
716.156	24873.58
716.499	25030.19
716.843	24997.65
717.186	24747.71
717.53	24985.9
717.873	24926.92
718.216	24831.32
718.559	24707.26
718.902	24635.17
719.246	24522.86
719.589	24551.11
719.932	24420.04
720.275	24390.21
720.617	24373.26
720.96	24401.51
721.303	24389.08
721.646	24345.24
721.989	24138.91
722.331	24211.23
722.674	24068.63
723.016	24248.51
723.359	24177.33
723.701	24197.44
724.044	23982.76
724.386	23957.22
724.729	24034.74
725.071	23943.66
725.413	23901.86
725.755	23948.18
726.097	23723.33
726.439	23627.97
726.782	23749.55
727.124	23831.35
727.465	23584.35
727.807	23597.23
728.149	23457.12
728.491	23442.89
728.833	23510
729.175	23369.67
729.516	23425.26
729.858	23286.73
730.199	23331.25
730.541	23264.13
730.882	23272.04
731.224	23334.41
731.565	23162.22
731.906	23229.11
732.248	23117.02
732.589	23071.14
732.93	23070.24
733.271	23031.82
733.612	23088.77
733.953	23008.1
734.294	22912.96
734.635	22963.35
734.976	22881.32
735.317	22774.43
735.658	22817.37
735.999	22757.25
736.339	22836.35
736.68	22845.16
737.021	22606.75
737.361	22565.17
737.702	22646.98
738.042	22555
738.383	22572.17
738.723	22485.17
739.063	22597.48
739.404	22505.96
739.744	22469.35
740.084	22268
740.424	22394.1
740.764	22275.23
741.104	22352.29
741.444	22214.22
741.784	22137.61
742.124	22193.88
742.464	22067.78
742.804	22108.91
743.143	21946.88
743.483	22004.96
743.823	21947.33
744.162	21893.77
744.502	21901.68
744.841	21822.59
745.181	21967.44
745.52	21727
745.86	21777.62
746.199	21795.92
746.538	21688.81
746.877	21747.34
747.216	21666.66
747.556	21622.37
747.895	21691.75
748.234	21428.7
748.573	21499.21
748.911	21555.03
749.25	21461.24
749.589	21326.56
749.928	21441.58
750.267	21389.38
750.605	21264.64
750.944	21290.17
751.283	21269.16
751.621	21289.5
751.96	21167.92
752.298	21124.3
752.636	21160.91
752.975	21052.67
753.313	21058.99
753.651	20996.17
753.989	20871.43
754.327	20855.38
754.666	20792.56
755.004	20836.4
755.342	20743.75
755.679	20692
756.017	20544.66
756.355	20786.46
756.693	20521.38
757.031	20565.22
757.368	20451.78
757.706	20266.02
758.044	20406.13
758.381	20322.06
758.719	20199.13
759.056	20333.36
759.394	20222.41
759.731	19996.42
760.068	20099.47
760.405	19921.17
760.743	19857.67
761.08	19887.5
761.417	19795.07
761.754	19767.28
762.091	19642.08
762.428	19704
762.765	19509.43
763.102	19573.38
763.438	19483.44
763.775	19350.11
764.112	19360.51
764.449	19389.43
764.785	19290.91
765.122	19190.79
765.458	19130.23
765.795	18992.38
766.131	18948.54
766.467	18904.25
766.804	18893.18
767.14	18687.98
767.476	18864.7
767.812	18710.13
768.148	18765.95
768.485	18632.17
768.821	18552.17
769.157	18556.69
769.492	18447.76
769.828	18386.07
770.164	18289.8
770.5	18138.62
770.836	18131.39
771.171	18123.48
771.507	18021.11
771.842	17796.03
772.178	17938.4
772.513	17906.99
772.849	17863.6
773.184	17744.28
773.519	17700.21
773.855	17661.8
774.19	17533.66
774.525	17519.65
774.86	17432.87
775.195	17377.51
775.53	17350.17
775.865	17258.42
776.2	17112.88
776.535	16973.45
776.87	17035.37
777.205	16990.4
777.539	16846.68
777.874	16842.83
778.209	16684.87
778.543	16793.57
778.878	16634.48
779.212	16626.34
779.547	16533.46
779.881	16541.15
780.215	16427.25
780.55	16454.37
780.884	16306.12
781.218	16236.52
781.552	16291.44
781.886	16183.64
782.22	16089.18
782.554	16044.44
782.888	15866.59
783.222	15811
783.556	15793.6
783.889	15757.44
784.223	15675.18
784.557	15609.42
784.89	15594.28
785.224	15530.78
785.557	15481.51
785.891	15386.38
786.224	15429.99
786.558	15373.72
786.891	15172.14
787.224	15108.87
787.557	15126.49
787.891	15069.32
788.224	15084.69
788.557	15042.2
788.89	14958.82
789.223	14926.05
789.556	14830.68
789.888	14783.91
790.221	14724.7
790.554	14570.58
790.887	14599.28
791.219	14572.84
791.552	14519.05
791.884	14434.54
792.217	14461.88
792.549	14414.2
792.882	14244.03
793.214	14222.34
793.546	14216.91
793.879	14096.01
794.211	14044.72
794.543	14074.77
794.875	14010.82
795.207	14038.61
795.539	13945.51
795.871	13985.73
796.203	13871.39
796.535	13798.85
796.867	13704.84
797.198	13752.75
797.53	13751.16
797.862	13575.8
798.193	13528.8
798.525	13407.9
798.856	13504.62
799.188	13411.29
799.519	13295.13
799.85	13223.04
800.182	13254.45
800.513	13284.96
800.844	13117.06
801.175	13224.62
801.506	13171.97
801.837	13093.1
802.168	13037.06
802.499	12987.79
802.83	12890.85
803.161	12905.99
803.491	12867.35
803.822	12804.75
804.153	12775.37
804.483	12649.72
804.814	12641.59
805.145	12585.54
805.475	12585.54
805.805	12596.39
806.136	12564.75
806.466	12511.2
806.796	12487.02
807.126	12421.26
807.457	12263.07
807.787	12411.99
808.117	12285.89
808.447	12263.97
808.777	12271.65
809.107	12210.19
809.436	12193.92
809.766	12160.25
810.096	12108.27
810.426	12097.2
810.755	11996.18
811.085	12095.61
811.414	12113.47
811.744	11927.48
812.073	11940.82
812.403	11925
812.732	11856.3
813.061	11873.02
813.39	11769.07
813.719	11753.48
814.049	11738.79
814.378	11762.06
814.707	11732.46
815.036	11741.05
815.365	11631.9
815.693	11515.97
816.022	11493.14
816.351	11528.4
816.68	11385.8
817.008	11426.71
817.337	11311.91
817.665	11307.61
817.994	11322.08
818.322	11298.12
818.651	11287.27
818.979	11200.95
819.307	11217.9
819.636	11172.02
819.964	11118.46
820.292	11191.91
820.62	11129.09
820.948	11050.67
821.276	11191.91
821.604	11123.89
821.932	11058.35
822.259	11115.98
822.587	11141.74
822.915	11065.81
823.243	11138.35
823.57	11171.12
823.898	11106.49
824.225	11094.74
824.553	11123.66
824.88	11083.44
825.207	11179.48
825.535	11065.13
825.862	11055.42
826.189	11151.68
826.516	11083.21
826.843	11097
827.17	11073.72
827.497	11086.83
827.824	11092.02
828.151	11179.71
828.478	11178.8
828.805	11171.34
829.131	11086.15
829.458	11144.9
829.785	11062.87
830.111	11085.92
830.438	11136.54
830.764	11058.13
831.09	11146.26
831.417	11100.84
831.743	11165.7
832.069	11089.31
832.395	11050.22
832.722	11026.72
833.048	11043.66
833.374	11070.1
833.7	10952.82
834.026	11025.13
834.351	10999.15
834.677	10902.65
835.003	11002.54
835.329	10936.77
835.654	10853.16
835.98	10875.76
836.306	10932.03
836.631	10880.5
836.956	10946.94
837.282	10930.45
837.607	10823.78
837.932	10759.6
838.258	10715.76
838.583	10835.31
838.908	10684.35
839.233	10668.99
839.558	10683.9
839.883	10699.94
840.208	10665.82
840.533	10693.39
840.858	10593.73
841.182	10666.73
841.507	10579.04
841.832	10551.47
842.156	10524.81
842.481	10485.49
842.805	10513.73
843.13	10533.62
843.454	10422.89
843.778	10360.07
844.103	10361.87
844.427	10334.76
844.751	10355.09
845.075	10314.42
845.399	10230.58
845.723	10155.78
846.047	10266.51
846.371	10059.51
846.695	10144.71
847.019	10050.92
847.343	9993.3
847.666	9942.22
847.99	9934.54
848.313	9826.52
848.637	9803.47
848.96	9759.4
849.284	9866.75
849.607	9707.2
849.931	9686.19
850.254	9666.3
850.577	9597.6
850.9	9489.81
851.223	9530.48
851.546	9459.53
851.869	9464.95
852.192	9494.78
852.515	9364.84
852.838	9356.93
853.161	9285.97
853.483	9316.03
853.806	9257.72
854.129	9264.73
854.451	9258.17
854.774	9209.14
855.096	9161
855.419	9193.77
855.741	9189.25
856.063	9066.54
856.385	9039.2
856.708	9078.07
857.03	8961.01
857.352	9047.11
857.674	9001.01
857.996	9009.59
858.318	8863.16
858.64	8907
858.961	8885.08
859.283	8840.33
859.605	8850.95
859.926	8796.94
860.248	8826.77
860.57	8794.23
860.891	8694.12
861.212	8723.73
861.534	8684.4
861.855	8709.94
862.176	8641.24
862.498	8679.66
862.819	8687.57
863.14	8641.47
863.461	8568.7
863.782	8612.09
864.103	8555.82
864.424	8549.04
864.745	8544.52
865.065	8488.03
865.386	8506.33
865.707	8436.28
866.027	8463.62
866.348	8468.14
866.668	8463.39
866.989	8402.38
867.309	8416.39
867.63	8429.72
867.95	8370.06
868.27	8328.26
868.59	8348.14
868.91	8295.71
869.23	8337.52
869.55	8263.4
869.87	8290.97
870.19	8232.66
870.51	8293.23
870.83	8265.43
871.15	8220.91
871.469	8196.51
871.789	8249.39
872.109	8217.98
872.428	8191.08
872.748	8127.81
873.067	8160.12
873.386	8154.93
873.706	8132.55
874.025	8081.26
874.344	8078.54
874.663	8016.17
874.982	8074.02
875.301	8080.13
875.62	8039.22
875.939	8045.55
876.258	8046.46
876.577	7968.27
876.896	7980.92
877.214	7961.26
877.533	7939.11
877.852	7940.7
878.17	7952.67
878.489	7960.81
878.807	7980.47
879.125	7933.92
879.444	7883.52
879.762	7892.56
880.08	7845.56
880.398	7831.55
880.716	7922.62
881.034	7809.17
881.352	7761.94
881.67	7821.83
881.988	7774.6
882.306	7802.85
882.624	7741.6
882.941	7730.76
883.259	7650.53
883.577	7737.99
883.894	7678.78
884.212	7681.72
884.529	7620.7
884.846	7653.47
885.164	7658.44
885.481	7605.56
885.798	7597.88
886.115	7601.27
886.432	7568.05
886.75	7560.14
887.067	7526.24
887.383	7523.76
887.7	7471.1
888.017	7478.79
888.334	7413.48
888.651	7449.63
888.967	7404.21
889.284	7366.25
889.6	7326.02
889.917	7286.48
890.233	7293.25
890.55	7277.44
890.866	7252.58
891.182	7276.08
891.498	7235.18
891.815	7228.62
892.131	7203.99
892.447	7155.63
892.763	7185.69
893.079	7195.86
893.395	7089.42
893.71	7037.22
894.026	7106.59
894.342	7064.11
894.657	7057.33
894.973	7001.74
895.289	7007.16
895.604	7073.83
895.92	6898.69
896.235	6941.85
896.55	6930.55
896.865	6868.63
897.181	6876.32
897.496	6886.26
897.811	6778.92
898.126	6825.92
898.441	6706.83
898.756	6759.48
899.071	6706.38
899.386	6734.63
899.7	6635.64
900.015	6672.25
900.33	6633.61
900.644	6613.72
900.959	6652.59
901.273	6556.1
901.588	6596.1
901.902	6507.74
902.216	6494.18
902.531	6462.32
902.845	6459.38
903.159	6405.37
903.473	6381.19
903.787	6390.45
904.101	6350.45
904.415	6360.85
904.729	6315.43
905.042	6270.23
905.356	6232.49
905.67	6260.51
905.984	6193.85
906.297	6236.79
906.611	6146.62
906.924	6176.67
907.237	6089.44
907.551	6145.49
907.864	6054.19
908.177	6106.62
908.491	6079.28
908.804	6034.3
909.117	6020.97
909.43	5972.61
909.743	5929.22
910.056	5906.85
910.368	5932.61
910.681	5892.84
910.994	5837.25
911.307	5839.73
911.619	5825.72
911.932	5787.98
912.244	5770.13
912.557	5804.71
912.869	5724.48
913.181	5717.93
913.494	5683.35
913.806	5707.31
914.118	5668.89
914.43	5604.49
914.742	5614.65
915.054	5577.14
915.366	5551.61
915.678	5511.15
915.99	5528.1
916.302	5486.3
916.613	5437.26
916.925	5484.26
917.236	5427.77
917.548	5378.95
917.859	5399.52
918.171	5338.73
918.482	5301.22
918.794	5302.8
919.105	5305.51
919.416	5262.35
919.727	5214.44
920.038	5204.95
920.349	5176.93
920.66	5152.75
920.971	5112.29
921.282	5135.8
921.593	5086.76
921.903	5082.24
922.214	5066.87
922.525	5022.13
922.835	5027.78
923.146	5014.22
923.456	4887.67
923.767	4961.56
924.077	4948.23
924.387	4917.27
924.697	4854.67
925.008	4901.45
925.318	4893.32
925.628	4856.71
925.938	4816.26
926.248	4809.25
926.558	4790.04
926.867	4780.1
927.177	4750.04
927.487	4720.89
927.796	4696.71
928.106	4641.57
928.416	4642.02
928.725	4667.11
929.034	4679.31
929.344	4628.01
929.653	4628.69
929.962	4559.09
930.271	4562.7
930.581	4490.84
930.89	4515.47
931.199	4442.03
931.508	4456.04
931.817	4433.89
932.125	4453.1
932.434	4464.18
932.743	4430.73
933.051	4392.09
933.36	4358.42
933.669	4352.31
933.977	4336.04
934.286	4296.72
934.594	4289.27
934.902	4231.64
935.21	4253.11
935.519	4286.55
935.827	4242.26
936.135	4184.64
936.443	4164.3
936.751	4132.66
937.059	4122.49
937.367	4143.51
937.674	4113.9
937.982	4085.2
938.29	4045.88
938.597	4089.95
938.905	4052.44
939.213	4025.54
939.52	4004.75
939.827	4028.71
940.135	3995.26
940.442	3980.57
940.749	3953.68
941.056	3996.84
941.363	3929.5
941.67	3962.27
941.977	3929.5
942.284	3905.32
942.591	3894.25
942.898	3843.63
943.205	3804.31
943.511	3807.47
943.818	3804.31
944.125	3786
944.431	3765.89
944.738	3776.28
945.044	3729.51
945.35	3748.04
945.657	3688.15
945.963	3708.72
946.269	3635.27
946.575	3702.61
946.881	3637.31
947.187	3644.31
947.493	3606.12
947.799	3576.06
948.105	3615.61
948.41	3574.03
948.716	3579
949.022	3551.21
949.327	3543.52
949.633	3525.67
949.938	3476.63
950.244	3479.12
950.549	3475.95
950.854	3459.46
951.16	3419.01
951.465	3423.07
951.77	3405.9
952.075	3390.31
952.38	3392.79
952.685	3354.83
952.99	3317.09
953.294	3334.49
953.599	3346.24
953.904	3297.88
954.209	3295.85
954.513	3296.75
954.818	3275.96
955.122	3230.54
955.426	3223.08
955.731	3219.46
956.035	3210.88
956.339	3175.4
956.643	3168.17
956.948	3172.46
957.252	3172.68
957.556	3111.22
957.86	3160.93
958.163	3123.87
958.467	3073.93
958.771	3083.87
959.075	3102.18
959.378	3060.6
959.682	3045.23
959.985	3040.26
960.289	3056.98
960.592	2982.18
960.896	3026.47
961.199	2945.57
961.502	3015.17
961.805	2982.18
962.108	2907.83
962.411	2951.67
962.714	2935.18
963.017	2918.45
963.32	2882.75
963.623	2878.91
963.926	2850.43
964.228	2881.62
964.531	2842.52
964.833	2833.71
965.136	2792.81
965.438	2828.97
965.741	2794.39
966.043	2754.39
966.345	2763.43
966.648	2745.13
966.95	2753.71
967.252	2704.22
967.554	2743.54
967.856	2709.19
968.158	2677.78
968.46	2713.04
968.761	2682.53
969.063	2647.28
969.365	2629.42
969.666	2641.85
969.968	2629.2
970.269	2618.8
970.571	2597.56
970.872	2601.63
971.174	2602.98
971.475	2555.75
971.776	2577.67
972.077	2540.84
972.378	2566.6
972.679	2571.57
972.98	2543.55
973.281	2528.18
973.582	2541.52
973.883	2518.24
974.183	2488.18
974.484	2471.46
974.785	2478.69
975.085	2471.91
975.386	2499.71
975.686	2432.14
975.986	2448.18
976.287	2423.78
976.587	2424.68
976.887	2422.65
977.187	2359.15
977.487	2367.73
977.787	2364.57
978.087	2376.1
978.387	2385.36
978.687	2324.57
978.987	2339.26
979.286	2320.96
979.586	2340.62
979.885	2326.15
980.185	2285.7
980.484	2286.38
980.784	2274.4
981.083	2274.18
981.382	2266.72
981.682	2261.07
981.981	2239.15
982.28	2224.91
982.579	2200.73
982.878	2235.76
983.177	2207.51
983.475	2169.55
983.774	2157.12
984.073	2185.59
984.372	2155.99
984.67	2137.91
984.969	2150.79
985.267	2145.14
985.566	2117.12
985.864	2103.11
986.162	2114.41
986.461	2058.14
986.759	2063.11
987.057	2095.65
987.355	2046.16
987.653	2078.7
987.951	2044.8
988.249	2062.43
988.547	2046.61
988.844	2018.59
989.142	2026.73
989.44	1986.95
989.737	1997.8
990.035	1990.8
990.332	2017.01
990.63	2006.39
990.927	1945.15
991.224	1940.4
991.521	1968.65
991.819	1915.77
992.116	1928.88
992.413	1907.86
992.71	1921.64
993.006	1912.83
993.303	1881.19
993.6	1878.48
993.897	1864.92
994.193	1884.81
994.49	1867.63
994.787	1837.58
995.083	1858.37
995.379	1840.29
995.676	1827.64
995.972	1819.05
996.268	1817.24
996.565	1797.58
996.861	1784.02
997.157	1783.34
997.453	1779.73
997.749	1774.08
998.044	1753.74
998.34	1758.03
998.636	1705.83
998.932	1735.21
999.227	1709.22
999.523	1721.2
999.818	1706.51
1000.114	1728.88
1000.409	1692.95
1000.704	1675.32
1001	1628.77
1001.295	1650.69
1001.59	1661.54
1001.885	1624.93
1002.18	1638.26
1002.475	1667.64
1002.77	1650.47
1003.065	1628.09
1003.359	1612.27
1003.654	1611.6
1003.949	1600.07
1004.243	1584.03
1004.538	1545.38
1004.832	1554.65
1005.127	1555.1
1005.421	1544.71
1005.715	1553.29
1006.009	1532.05
1006.304	1496.12
1006.598	1511.49
1006.892	1519.62
1007.186	1489.57
1007.48	1503.8
1007.773	1486.18
1008.067	1465.84
1008.361	1454.99
1008.655	1473.52
1008.948	1482.11
1009.242	1459.96
1009.535	1425.61
1009.829	1441.88
1010.122	1439.85
1010.415	1423.13
1010.708	1388.55
1011.001	1430.13
1011.295	1388.55
1011.588	1400.53
1011.881	1370.47
1012.173	1389.23
1012.466	1360.3
1012.759	1344.71
1013.052	1364.6
1013.344	1332.96
1013.637	1327.54
1013.93	1330.47
1014.222	1314.2
1014.514	1328.89
1014.807	1322.79
1015.099	1327.31
1015.391	1280.31
1015.683	1281.21
1015.976	1295.67
1016.268	1244.6
1016.56	1250.25
1016.851	1243.92
1017.143	1258.16
1017.435	1256.13
1017.727	1223.13
1018.018	1240.76
1018.31	1212.96
1018.602	1198.27
1018.893	1217.48
1019.185	1205.73
1019.476	1182.45
1019.767	1180.65
1020.058	1177.26
1020.35	1159.86
1020.641	1165.73
1020.932	1175
1021.223	1172.29
1021.514	1165.05
1021.804	1122.34
1022.095	1125.28
1022.386	1099.97
1022.677	1111.72
1022.967	1124.6
1023.258	1096.58
1023.548	1073.31
1023.839	1088.67
1024.129	1113.98
1024.419	1105.62
1024.709	1073.98
1025	1047.09
1025.29	1059.97
1025.58	1041.67
1025.87	1034.44
1026.16	1048.67
1026.449	1048.45
1026.739	1034.89
1027.029	999.18
1027.319	1032.18
1027.608	1034.66
1027.898	1022.91
1028.187	999.86
1028.477	1001.44
1028.766	980.2
1029.055	976.81
1029.344	970.48
1029.634	921.67
1029.923	963.03
1030.212	938.85
1030.501	933.42
1030.79	939.75
1031.078	932.52
1031.367	941.78
1031.656	930.03
1031.945	921.22
1032.233	938.62
1032.522	897.94
1032.81	912.41
1033.099	910.6
1033.387	882.8
1033.675	913.31
1033.963	912.63
1034.251	885.51
1034.54	852.97
1034.828	851.16
1035.116	849.81
1035.403	860.88
1035.691	876.47
1035.979	855.68
1036.267	821.33
1036.554	855.91
1036.842	841.9
1037.129	840.32
1037.417	827.44
1037.704	813.2
1037.992	819.98
1038.279	824.27
1038.566	812.97
1038.853	812.97
1039.14	812.97
