Data from foam1_polythene_foam_FLMS001491_00094.txt Node
Date: Wed Feb 08 10:55:39 GMT 2017
User: dcchb
Spectrometer: FLMS00149
Trigger mode: 0
Integration Time (sec): 2.000000E-2
Scans to average: 10
Electric dark correction enabled: true
Nonlinearity correction enabled: false
Boxcar width: 0
XAxis mode: Wavelengths
Number of Pixels in Spectrum: 2048
>>>>>Begin Spectral Data<<<<<
341.393	-4.68
341.776	-4.68
342.16	-4.68
342.543	-65.46
342.927	-60.04
343.31	-63.2
343.693	-53.26
344.077	-67.05
344.46	-62.07
344.843	-67.27
345.226	-36.54
345.61	-28.4
345.993	-9.87
346.376	-7.61
346.759	2.33
347.142	9.34
347.525	31.71
347.908	48.43
348.291	89.33
348.674	93.4
349.057	120.75
349.44	138.82
349.823	148.54
350.206	147.86
350.588	179.5
350.971	221.76
351.354	199.16
351.737	235.32
352.119	239.16
352.502	274.19
352.884	256.56
353.267	249.1
353.65	271.93
354.032	279.61
354.414	290.23
354.797	292.94
355.179	315.54
355.562	275.09
355.944	304.24
356.326	327.75
356.709	339.95
357.091	319.38
357.473	325.03
357.855	317.58
358.238	315.54
358.62	339.95
359.002	331.81
359.384	336.33
359.766	324.36
360.148	316.67
360.53	328.88
360.912	312.38
361.294	329.1
361.676	302.89
362.057	306.05
362.439	330.46
362.821	331.81
363.203	313.06
363.584	317.12
363.966	305.83
364.348	320.06
364.729	303.79
365.111	309.89
365.493	312.15
365.874	320.51
366.256	302.21
366.637	299.95
367.019	311.02
367.4	300.4
367.781	320.51
368.163	284.58
368.544	290.01
368.925	294.07
369.306	305.83
369.688	301.31
370.069	291.36
370.45	294.75
370.831	301.08
371.212	315.99
371.593	299.05
371.974	315.77
372.355	323.9
372.736	315.32
373.117	300.4
373.498	306.96
373.879	313.51
374.26	304.24
374.641	304.7
375.021	302.44
375.402	315.54
375.783	302.44
376.163	313.06
376.544	321.19
376.925	314.19
377.305	305.37
377.686	287.52
378.066	325.94
378.447	316.45
378.827	317.58
379.208	318.48
379.588	294.53
379.968	315.32
380.349	310.8
380.729	312.15
381.109	311.47
381.489	331.81
381.87	336.11
382.25	315.54
382.63	329.78
383.01	339.5
383.39	328.42
383.77	325.49
384.15	343.56
384.53	333.85
384.91	329.78
385.29	321.42
385.67	344.92
386.049	346.5
386.429	340.85
386.809	343.79
387.189	342.43
387.568	351.02
387.948	340.17
388.328	331.36
388.707	354.41
389.087	348.54
389.466	364.13
389.846	358.71
390.225	375.2
390.605	372.04
390.984	364.13
391.363	370
391.743	355.54
392.122	344.24
392.501	353.96
392.881	350.34
393.26	363.22
393.639	367.97
394.018	351.47
394.397	368.87
394.776	387.41
395.155	379.95
395.534	371.13
395.913	370
396.292	369.33
396.671	374.07
397.05	374.98
397.429	384.47
397.808	393.51
398.186	395.31
398.565	384.69
398.944	385.82
399.323	392.83
399.701	396.22
400.08	391.7
400.458	381.53
400.837	380.4
401.215	397.12
401.594	384.69
401.972	384.24
402.351	393.05
402.729	379.95
403.107	416.78
403.486	415.88
403.864	417.23
404.242	415.65
404.62	430.12
404.999	432.38
405.377	413.17
405.755	420.17
406.133	407.74
406.511	424.47
406.889	426.95
407.267	418.14
407.645	413.85
408.023	421.08
408.401	433.05
408.779	424.01
409.156	429.89
409.534	450.68
409.912	435.31
410.29	438.7
410.667	440.74
411.045	468.98
411.422	462.88
411.8	470.79
412.178	466.73
412.555	491.13
412.933	475.31
413.31	476.22
413.687	479.38
414.065	481.41
414.442	480.28
414.819	454.75
415.197	485.03
415.574	494.52
415.951	487.97
416.328	499.04
416.705	482.77
417.082	497.46
417.46	514.63
417.837	496.33
418.214	522.54
418.591	509.21
418.967	518.93
419.344	510.57
419.721	532.71
420.098	510.57
420.475	528.42
420.852	523.67
421.228	527.97
421.605	524.35
421.982	549.21
422.358	538.59
422.735	530.23
423.111	548.53
423.488	564.12
423.864	573.84
424.241	564.8
424.617	570
424.994	564.58
425.37	553.73
425.746	575.65
426.123	578.59
426.499	565.71
426.875	577.68
427.251	593.05
427.627	601.41
428.003	619.72
428.379	592.37
428.756	593.28
429.132	603.44
429.507	620.85
429.883	605.7
430.259	631.24
430.635	638.92
431.011	657.23
431.387	663.78
431.763	652.48
432.138	657
432.514	669.88
432.89	696.55
433.265	678.7
433.641	676.44
434.016	689.09
434.392	710.11
434.767	702.2
435.143	714.85
435.518	741.29
435.894	730.45
436.269	731.35
436.644	735.64
437.02	734.06
437.395	762.08
437.77	767.06
438.145	759.6
438.52	761.86
438.895	784.23
439.271	772.03
439.646	797.34
440.021	803.67
440.395	809.77
440.77	783.1
441.145	807.96
441.52	837.11
441.895	839.14
442.27	830.11
442.645	839.6
443.019	839.37
443.394	856.09
443.769	867.39
444.143	863.55
444.518	875.3
444.892	859.94
445.267	879.6
445.641	872.36
446.016	913.27
446.39	904.68
446.764	927.28
447.139	919.37
447.513	915.53
447.887	931.35
448.262	932.48
448.636	927.28
449.01	937.22
449.384	943.55
449.758	937.22
450.132	979.03
450.506	959.59
450.88	969.76
451.254	996.43
451.628	1009.54
452.002	1006.37
452.376	1019.48
452.75	998.24
453.123	1022.64
453.497	1047.5
453.871	1069.65
454.244	1058.12
454.618	1065.13
454.992	1047.05
455.365	1066.48
455.739	1092.02
456.112	1118.23
456.486	1111
456.859	1119.14
457.232	1118.23
457.606	1105.8
457.979	1135.41
458.352	1132.02
458.725	1153.26
459.099	1168.4
459.472	1168.18
459.845	1175.41
460.218	1162.98
460.591	1187.84
460.964	1197.78
461.337	1217.67
461.71	1225.8
462.083	1237.1
462.456	1228.29
462.829	1238
463.201	1271.9
463.574	1243.65
463.947	1266.7
464.32	1294.73
464.692	1271.68
465.065	1312.13
465.438	1312.13
465.81	1336.76
466.183	1357.78
466.555	1372.01
466.928	1380.83
467.3	1395.29
467.672	1404.78
468.045	1430.54
468.417	1425.57
468.789	1423.08
469.161	1469.64
469.534	1493.36
469.906	1480.26
470.278	1481.61
470.65	1519.35
471.022	1540.37
471.394	1556.64
471.766	1574.72
472.138	1583.98
472.51	1590.76
472.882	1637.09
473.253	1647.26
473.625	1666.24
473.997	1682.29
474.369	1712.12
474.74	1727.71
475.112	1753.02
475.484	1807.93
475.855	1781.04
476.227	1808.84
476.598	1822.85
476.97	1841.15
477.341	1903.98
477.713	1906.46
478.084	1919.79
478.455	1962.73
478.827	1959.12
479.198	2018.1
479.569	2017.64
479.94	2076.63
480.311	2099.22
480.682	2116.4
481.053	2175.83
481.424	2215.61
481.795	2221.03
482.166	2263.97
482.537	2284.98
482.908	2309.16
483.279	2376.28
483.65	2369.27
484.021	2424.87
484.391	2450.85
484.762	2487.69
485.133	2476.39
485.503	2549.38
485.874	2592.09
486.244	2613.79
486.615	2650.4
486.985	2672.77
487.356	2667.8
487.726	2702.15
488.097	2752.99
488.467	2823.27
488.837	2834.12
489.207	2868.92
489.578	2903.72
489.948	2964.74
490.318	2999.77
490.688	2971.07
491.058	3058.97
491.428	3079.99
491.798	3155.02
492.168	3157.05
492.538	3188.24
492.908	3210.38
493.278	3216.26
493.648	3284.96
494.017	3318.4
494.387	3327.89
494.757	3324.05
495.126	3369.7
495.496	3415.8
495.866	3447.44
496.235	3474.1
496.605	3494.22
496.974	3521.79
497.344	3570.82
497.713	3566.53
498.082	3622.57
498.452	3666.19
498.821	3644.72
499.19	3683.82
499.559	3672.97
499.928	3744.15
500.298	3756.36
500.667	3790.48
501.036	3804.49
501.405	3819.18
501.774	3851.27
502.143	3904.6
502.512	3863.47
502.88	3907.99
503.249	3954.99
503.618	3964.94
503.987	3968.33
504.356	4023.02
504.724	4034.09
505.093	4091.49
505.462	4076.35
505.83	4168.1
506.199	4174.42
506.567	4228.21
506.936	4181.2
507.304	4291.71
507.672	4302.33
508.041	4327.19
508.409	4316.12
508.777	4400.41
509.145	4447.64
509.514	4446.06
509.882	4440.86
510.25	4473.85
510.618	4526.96
510.986	4545.71
511.354	4544.36
511.722	4624.81
512.09	4624.81
512.458	4633.4
512.826	4721.3
513.193	4688.99
513.561	4720.85
513.929	4797.46
514.297	4807.85
514.664	4869.55
515.032	4881.75
515.4	4823.22
515.767	4917
516.135	4950
516.502	5011.92
516.869	5039.03
517.237	5087.17
517.604	5047.4
517.972	5091.24
518.339	5180.05
518.706	5162.87
519.073	5197.22
519.44	5250.1
519.808	5287.39
520.175	5302.08
520.542	5396.99
520.909	5415.75
521.276	5428.63
521.643	5461.85
522.009	5492.13
522.376	5563.31
522.743	5579.13
523.11	5623.2
523.477	5707.94
523.843	5779.81
524.21	5756.76
524.577	5842.85
524.943	5866.13
525.31	5897.54
525.676	5890.31
526.043	6005.56
526.409	6018.67
526.776	6115.39
527.142	6092.34
527.508	6199.68
527.874	6237.87
528.241	6217.31
528.607	6289.62
528.973	6298.66
529.339	6306.8
529.705	6399.22
530.071	6439.68
530.437	6465.44
530.803	6492.33
531.169	6596.06
531.535	6492.1
531.901	6597.41
532.267	6664.98
532.632	6713.34
532.998	6723.96
533.364	6717.41
533.73	6747.46
534.095	6800.12
534.461	6820.23
534.826	6824.3
535.192	6869.95
535.557	6917.63
535.923	6964.86
536.288	6984.07
536.653	7015.03
537.019	7018.87
537.384	7023.16
537.749	7055.48
538.114	7083.27
538.479	7113.56
538.845	7110.84
539.21	7148.36
539.575	7208.47
539.94	7177.96
540.305	7216.83
540.67	7301.35
541.034	7246.89
541.399	7308.35
541.764	7383.61
542.129	7359.2
542.494	7367.79
542.858	7436.26
543.223	7458.63
543.587	7481.68
543.952	7523.04
544.316	7502.92
544.681	7505.64
545.045	7565.3
545.41	7732.07
545.774	7671.96
546.138	7619.08
546.503	7683.03
546.867	7655.24
547.231	7719.64
547.595	7827.66
547.959	7857.72
548.324	7823.82
548.688	7860.88
549.052	7879.86
549.416	7917.38
549.779	7876.93
550.143	7855.01
550.507	7975.68
550.871	8001.89
551.235	8023.36
551.599	8118.28
551.962	8123.25
552.326	8164.38
552.689	8109.69
553.053	8119.41
553.417	8196.92
553.78	8288.21
554.143	8302.68
554.507	8380.64
554.87	8388.1
555.234	8479.17
555.597	8448.66
555.96	8488.43
556.323	8490.92
556.686	8476.46
557.05	8594.65
557.413	8577.47
557.776	8672.61
558.139	8686.85
558.502	8717.58
558.865	8666.28
559.228	8717.81
559.59	8769.33
559.953	8810.91
560.316	8997.8
560.679	8896.11
561.041	8932.04
561.404	8996.9
561.767	8980.17
562.129	9036.9
562.492	9093.84
562.854	9122.99
563.217	9120.06
563.579	9201.86
563.941	9284.8
564.304	9327.73
564.666	9328.86
565.028	9342.2
565.39	9282.31
565.753	9455.19
566.115	9478.24
566.477	9502.19
566.839	9597.56
567.201	9666.94
567.563	9641.63
567.925	9679.36
568.287	9683.66
568.648	9727.05
569.01	9762.98
569.372	9821.28
569.734	9833.03
570.095	9934.27
570.457	9932.24
570.819	9941.5
571.18	9920.26
571.542	10071.67
571.903	9980.83
572.265	10006.81
572.626	10051.78
572.987	10120.03
573.349	10161.84
573.71	10222.4
574.071	10281.83
574.432	10256.3
574.794	10311.21
575.155	10282.51
575.516	10234.6
575.877	10357.76
576.238	10327.93
576.599	10396.18
576.96	10435.05
577.32	10448.38
577.681	10496.29
578.042	10465.78
578.403	10485.44
578.763	10506.91
579.124	10442.73
579.485	10461.04
579.845	10529.96
580.206	10544.65
580.566	10554.37
580.927	10563.41
581.287	10626.23
581.648	10625.1
582.008	10672.33
582.368	10570.64
582.728	10618.77
583.089	10679.34
583.449	10643.41
583.809	10654.25
584.169	10668.04
584.529	10664.42
584.889	10713.91
585.249	10611.99
585.609	10584.43
585.969	10663.29
586.329	10676.4
586.688	10724.08
587.048	10647.02
587.408	10639.34
587.768	10642.05
588.127	10748.94
588.487	10663.97
588.846	10694.93
589.206	10621.03
589.565	10637.76
589.925	10693.57
590.284	10700.35
590.643	10739.68
591.003	10819.45
591.362	10750.07
591.721	10709.17
592.08	10715.72
592.44	10706.91
592.799	10778.54
593.158	10709.85
593.517	10759.56
593.876	10750.07
594.235	10754.36
594.593	10739.68
594.952	10779.9
595.311	10799.33
595.67	10739
596.029	10817.19
596.387	10841.59
596.746	10833.23
597.104	10856.73
597.463	10764.08
597.822	10851.76
598.18	10790.07
598.538	10792.78
598.897	10896.28
599.255	10769.96
599.613	10911.65
599.972	10865.1
600.33	10842.5
600.688	10805.44
601.046	10888.37
601.404	10875.49
601.762	10923.63
602.12	10957.3
602.478	10928.6
602.836	10930.4
603.194	10859.67
603.552	10931.08
603.91	10908.94
604.268	10911.65
604.625	10935.6
604.983	10937.86
605.341	10900.8
605.698	11013.57
606.056	11047.69
606.413	10946.45
606.771	11045.88
607.128	10949.16
607.485	10960.23
607.843	10995.04
608.2	11042.27
608.557	11028.93
608.914	11116.39
609.272	11180.34
609.629	11161.13
609.986	11151.64
610.343	11119.1
610.7	11162.26
611.057	11163.62
611.414	11102.38
611.771	11137.18
612.127	11192.54
612.484	11139.66
612.841	11280.68
613.198	11230.51
613.554	11250.17
613.911	11237.74
614.267	11220.57
614.624	11267.8
614.98	11249.94
615.337	11330.62
615.693	11216.27
616.05	11208.82
616.406	11319.55
616.762	11293.56
617.118	11306.67
617.475	11328.81
617.831	11313.67
618.187	11316.16
618.543	11241.13
618.899	11330.62
619.255	11384.18
619.611	11404.29
619.967	11372.88
620.323	11324.29
620.678	11309.38
621.034	11364.74
621.39	11315.71
621.746	11427.57
622.101	11396.83
622.457	11332.65
622.812	11391.86
623.168	11348.7
623.523	11383.27
623.879	11345.31
624.234	11282.26
624.589	11391.41
624.945	11395.25
625.3	11468.92
625.655	11395.7
626.01	11447.91
626.365	11352.09
626.72	11308.02
627.075	11295.82
627.43	11351.18
627.785	11342.37
628.14	11375.36
628.495	11429.37
628.85	11332.65
629.205	11368.36
629.559	11342.37
629.914	11320
630.269	11330.17
630.623	11253.11
630.978	11204.52
631.332	11297.85
631.687	11289.27
632.041	11196.16
632.396	11261.7
632.75	11190.96
633.104	11269.83
633.459	11136.73
633.813	11222.6
634.167	11081.14
634.521	11182.15
634.875	11172.88
635.229	11117.07
635.583	11126.56
635.937	11114.81
636.291	11196.61
636.645	11146.22
636.999	11127.24
637.352	11191.41
637.706	11022.15
638.06	11082.49
638.413	10985.77
638.767	10861.03
639.121	10972.21
639.474	10901.03
639.828	10883.63
640.181	10943.06
640.534	10893.12
640.888	10862.61
641.241	10845.66
641.594	10831.42
641.947	10943.29
642.301	10896.28
642.654	10764.53
643.007	10893.12
643.36	10857.19
643.713	10749.39
644.066	10746
644.419	10852.44
644.771	10655.38
645.124	10689.28
645.477	10646.8
645.83	10532.68
646.182	10473.92
646.535	10421.72
646.888	10440.02
647.24	10334.49
647.593	10463.98
647.945	10386.46
648.298	10287.94
648.65	10301.95
649.002	10277.09
649.355	10363.41
649.707	10277.99
650.059	10386.69
650.411	10516.4
650.763	10481.15
651.115	10520.7
651.467	10522.05
651.819	10515.73
652.171	10470.98
652.523	10446.35
652.875	10423.98
653.227	10443.19
653.578	10482.73
653.93	10499
654.282	10431.89
654.633	10348.73
654.985	10435.28
655.337	10452.45
655.688	10400.48
656.039	10349.63
656.391	10294.72
656.742	10326.58
657.094	10367.71
657.445	10368.61
657.796	10392.34
658.147	10329.97
658.498	10349.4
658.849	10345.79
659.2	10346.69
659.551	10321.38
659.902	10272.79
660.253	10263.53
660.604	10295.39
660.955	10207.94
661.306	10234.15
661.656	10262.4
662.007	10279.57
662.358	10318.67
662.708	10319.35
663.059	10276.64
663.409	10202.97
663.76	10212.91
664.11	10191.89
664.461	10209.75
664.811	10239.8
665.161	10197.09
665.511	10160.93
665.862	10139.69
666.212	10163.19
666.562	10271.89
666.912	10223.08
667.262	10162.52
667.612	10203.42
667.962	10132.69
668.312	10201.16
668.662	10168.62
669.011	10153.02
669.361	10121.39
669.711	10129.75
670.06	10134.04
670.41	10081.61
670.76	10056.98
671.109	10038.22
671.459	10031.67
671.808	10099.01
672.157	10039.58
672.507	10070.09
672.856	10013.14
673.205	10095.62
673.554	10067.38
673.904	9996.64
674.253	10101.73
674.602	10044.78
674.951	9869.42
675.3	9803.88
675.649	10004.78
675.998	9960.26
676.346	9982.63
676.695	9965.01
677.044	9958
677.393	9902.18
677.741	9956.87
678.09	9952.35
678.438	9909.87
678.787	9919.36
679.135	9942.18
679.484	9863.77
679.832	9855.18
680.181	9802.3
680.529	9843.88
680.877	9840.72
681.225	9789.64
681.573	9819.7
681.922	9824.22
682.27	9828.96
682.618	9859.92
682.966	9749.87
683.314	9762.75
683.661	9690.66
684.009	9675.97
684.357	9654.51
684.705	9653.6
685.053	9671.68
685.4	9657.22
685.748	9621.74
686.095	9574.06
686.443	9546.94
686.79	9591.91
687.138	9591.68
687.485	9608.41
687.832	9493.38
688.18	9536.99
688.527	9461.52
688.874	9400.5
689.221	9454.51
689.568	9417.9
689.915	9317.79
690.262	9329.54
690.609	9305.81
690.956	9312.14
691.303	9264.23
691.65	9296.32
691.997	9224.46
692.344	9221.07
692.69	9252.93
693.037	9219.72
693.383	9144.01
693.73	9171.81
694.077	9048.42
694.423	9056.56
694.769	9027.18
695.116	9036.67
695.462	9064.24
695.808	8915.09
696.155	9073.28
696.501	9035.09
696.847	8915.32
697.193	8906.28
697.539	8941.76
697.885	8879.16
698.231	8797.58
698.577	8750.8
698.923	8715.1
699.269	8744.7
699.614	8680.52
699.96	8710.12
700.306	8683.68
700.651	8625.61
700.997	8710.12
701.342	8630.58
701.688	8652.5
702.033	8581.31
702.379	8598.26
702.724	8542.67
703.069	8531.37
703.415	8443.24
703.76	8437.36
704.105	8459.74
704.45	8478.27
704.795	8367.08
705.14	8349.46
705.485	8390.81
705.83	8351.72
706.175	8404.6
706.52	8398.95
706.865	8336.57
707.209	8297.93
707.554	8248.89
707.899	8294.99
708.243	8206.63
708.588	8185.62
708.932	8122.57
709.277	8145.17
709.621	8175.22
709.966	8079.63
710.31	8069.91
710.654	8075.56
710.998	7977.26
711.342	8054.1
711.687	8071.04
712.031	8041.22
712.375	7940.43
712.719	7982.23
713.063	7988.79
713.407	8020.65
713.75	7941.56
714.094	7800.09
714.438	7858.62
714.782	7812.29
715.125	7743.14
715.469	7863.82
715.812	7838.51
716.156	7755.8
716.499	7806.65
716.843	7856.14
717.186	7786.53
717.53	7832.63
717.873	7804.39
718.216	7800.77
718.559	7716.25
718.902	7676.7
719.246	7732.75
719.589	7605.07
719.932	7640.77
720.275	7598.74
720.617	7594.9
720.96	7615.92
721.303	7639.19
721.646	7633.99
721.989	7608.68
722.331	7574.56
722.674	7564.62
723.016	7602.36
723.359	7582.24
723.701	7594
724.044	7534.11
724.386	7462.02
724.729	7525.75
725.071	7493.88
725.413	7497.05
725.755	7463.6
726.097	7336.6
726.439	7361.01
726.782	7345.64
727.124	7455.24
727.465	7373.21
727.807	7341.12
728.149	7314.91
728.491	7374.79
728.833	7320.33
729.175	7295.47
729.516	7277.17
729.858	7283.95
730.199	7237.62
730.541	7281.24
730.882	7227
731.224	7180.9
731.565	7221.12
731.906	7235.13
732.248	7270.84
732.589	7139.77
732.93	7177.51
733.271	7159.88
733.612	7179.99
733.953	7223.84
734.294	7194.01
734.635	7155.36
734.976	7154.23
735.317	7132.99
735.658	7141.35
735.999	7099.77
736.339	7009.6
736.68	7132.99
737.021	7050.73
737.361	7043.73
737.702	7051.64
738.042	6981.58
738.383	7058.87
738.723	6981.36
739.063	6961.24
739.404	7018.19
739.744	7057.06
740.084	6971.19
740.424	6979.1
740.764	6933
741.104	6908.82
741.444	6885.54
741.784	6939.32
742.124	6938.87
742.464	6863.17
742.804	6841.47
743.143	6842.38
743.483	6827.24
743.823	6825.65
744.162	6801.02
744.502	6843.05
744.841	6799.21
745.181	6819.33
745.52	6802.15
745.86	6838.08
746.199	6774.36
746.538	6742.94
746.877	6789.5
747.216	6763.51
747.556	6709.95
747.895	6711.53
748.234	6731.87
748.573	6692.78
748.911	6638.99
749.25	6654.81
749.589	6655.94
749.928	6650.52
750.267	6655.04
750.605	6636.05
750.944	6567.81
751.283	6589.28
751.621	6603.96
751.96	6604.64
752.298	6596.73
752.636	6619.78
752.975	6584.53
753.313	6494.36
753.651	6563.29
753.989	6491.65
754.327	6465.21
754.666	6464.53
755.004	6484.42
755.342	6389.73
755.679	6441.48
756.017	6352.9
756.355	6401.94
756.693	6411.88
757.031	6359.9
757.368	6317.42
757.706	6337.31
758.044	6365.1
758.381	6330.3
758.719	6317.42
759.056	6277.42
759.394	6260.92
759.731	6263.63
760.068	6242.62
760.405	6235.16
760.743	6193.58
761.08	6155.84
761.417	6112.23
761.754	6131.21
762.091	6147.03
762.428	6107.93
762.765	6078.1
763.102	6087.14
763.438	6039.69
763.775	6073.13
764.112	6040.36
764.449	6134.82
764.785	6003.98
765.122	6014.83
765.458	5973.92
765.795	5941.38
766.131	5950.65
766.467	5936.64
766.804	5857.32
767.14	5792.91
767.476	5843.08
767.812	5795.17
768.148	5811.9
768.485	5770.77
768.821	5760.82
769.157	5745.91
769.492	5758.79
769.828	5766.47
770.164	5715.4
770.5	5728.96
770.836	5776.64
771.171	5656.42
771.507	5649.87
771.842	5607.83
772.178	5556.99
772.513	5618.23
772.849	5590.88
773.184	5537.33
773.519	5512.69
773.855	5458.23
774.19	5438.12
774.525	5411.45
774.86	5434.05
775.195	5394.05
775.53	5359.93
775.865	5420.95
776.2	5339.59
776.535	5363.09
776.87	5332.59
777.205	5383.66
777.539	5270.67
777.874	5301.63
778.209	5224.57
778.543	5289.65
778.878	5229.76
779.212	5203.78
779.547	5157.9
779.881	5184.57
780.215	5106.15
780.55	5158.58
780.884	5112.93
781.218	5083.55
781.552	5128.3
781.886	5082.87
782.22	5057.34
782.554	5101.18
782.888	5087.85
783.222	5001.97
783.556	4979.6
783.889	5014.18
784.223	4996.32
784.557	4951.58
784.89	4957
785.224	4890.56
785.557	4861.41
785.891	4873.16
786.224	4852.82
786.558	4801.3
786.891	4801.07
787.224	4747.06
787.557	4750.23
787.891	4749.55
788.224	4788.42
788.557	4776.44
788.89	4759.72
789.223	4749.55
789.556	4770.57
789.888	4724.47
790.221	4689.21
790.554	4645.15
790.887	4679.27
791.219	4601.98
791.552	4604.92
791.884	4573.51
792.217	4565.6
792.549	4557.24
792.882	4493.29
793.214	4479.73
793.546	4488.31
793.879	4474.98
794.211	4462.1
794.543	4503.46
794.875	4443.34
795.207	4511.59
795.539	4477.92
795.871	4427.52
796.203	4455.32
796.535	4412.61
796.867	4415.77
797.198	4341.65
797.53	4397.92
797.862	4343.69
798.193	4365.61
798.525	4320.86
798.856	4326.74
799.188	4284.7
799.519	4253.74
799.85	4217.59
800.182	4230.69
800.513	4248.09
800.844	4205.38
801.175	4187.76
801.506	4239.51
801.837	4222.11
802.168	4233.18
802.499	4247.42
802.83	4237.93
803.161	4159.06
803.491	4194.54
803.822	4139.4
804.153	4165.38
804.483	4111.83
804.814	4120.41
805.145	4086.97
805.475	4047.87
805.805	4072.05
806.136	4034.99
806.466	4046.52
806.796	4004.71
807.126	3997.48
807.457	3946.86
807.787	3952.28
808.117	3998.61
808.447	3947.09
808.777	3960.19
809.107	3961.1
809.436	3941.89
809.766	3971.72
810.096	3961.1
810.426	3912.28
810.755	3994.54
811.085	3931.27
811.414	3882
811.744	3886.07
812.073	3827.31
812.403	3807.2
812.732	3835.68
813.061	3813.3
813.39	3853.53
813.719	3757.26
814.049	3785.28
814.378	3793.42
814.707	3776.02
815.036	3800.65
815.365	3764.27
815.693	3777.82
816.022	3752.97
816.351	3779.41
816.68	3744.38
817.008	3755.23
817.337	3732.85
817.665	3736.7
817.994	3746.64
818.322	3707.54
818.651	3675
818.979	3672.74
819.307	3717.04
819.636	3661.67
819.964	3587.55
820.292	3604.95
820.62	3645.85
820.948	3615.57
821.276	3619.86
821.604	3633.42
821.932	3677.94
822.259	3634.78
822.587	3649.92
822.915	3651.5
823.243	3703.25
823.57	3663.48
823.898	3678.17
824.225	3656.02
824.553	3678.62
824.88	3630.71
825.207	3664.16
825.535	3621.22
825.862	3668
826.189	3612.86
826.516	3646.98
826.843	3602.91
827.17	3598.39
827.497	3635.23
827.824	3618.51
828.151	3664.16
828.478	3587.32
828.805	3630.94
829.131	3600.88
829.458	3620.77
829.785	3637.72
830.111	3657.6
830.438	3642.23
830.764	3640.65
831.09	3657.38
831.417	3630.03
831.743	3656.7
832.069	3629.81
832.395	3607.66
832.722	3618.96
833.048	3597.04
833.374	3592.52
833.7	3568.79
834.026	3589.58
834.351	3518.62
834.677	3570.15
835.003	3610.15
835.329	3545.51
835.654	3567.89
835.98	3572.63
836.306	3573.76
836.631	3550.26
836.956	3559.75
837.282	3576.7
837.607	3568.56
837.932	3559.98
838.258	3619.64
838.583	3569.69
838.908	3542.8
839.233	3550.71
839.558	3528.79
839.883	3538.73
840.208	3514.78
840.533	3455.57
840.858	3474.78
841.182	3464.16
841.507	3466.87
841.832	3462.58
842.156	3424.39
842.481	3414.9
842.805	3410.6
843.13	3432.3
843.454	3427.1
843.778	3457.61
844.103	3437.49
844.427	3421.68
844.751	3418.06
845.075	3453.31
845.399	3413.77
845.723	3375.12
846.047	3411.51
846.371	3400.43
846.695	3360.21
847.019	3358.17
847.343	3341.23
847.666	3310.27
847.99	3285.63
848.313	3272.3
848.637	3258.74
848.96	3233.88
849.284	3246.09
849.607	3244.73
849.931	3222.13
850.254	3205.64
850.577	3190.5
850.9	3182.36
851.223	3177.16
851.546	3165.64
851.869	3216.03
852.192	3171.51
852.515	3145.52
852.838	3155.24
853.161	3153.21
853.483	3131.51
853.806	3109.59
854.129	3066.66
854.451	3110.5
854.774	3069.59
855.096	3070.05
855.419	2994.57
855.741	2993.89
856.063	2981.01
856.385	3017.39
856.708	3019.65
857.03	2980.78
857.352	3001.35
857.674	2955.47
857.996	2989.82
858.318	2917.96
858.64	2973.55
858.961	2957.51
859.283	2941.69
859.605	2954.34
859.926	2927.23
860.248	2945.76
860.57	2966.32
860.891	2954.57
861.212	2930.84
861.534	2926.77
861.855	2897.4
862.176	2868.47
862.498	2922.71
862.819	2871.18
863.14	2844.74
863.461	2851.75
863.782	2866.89
864.103	2862.14
864.424	2865.76
864.745	2818.08
865.065	2834.35
865.386	2848.58
865.707	2817.62
866.027	2797.51
866.348	2811.97
866.668	2854.91
866.989	2843.39
867.309	2820.79
867.63	2812.43
867.95	2833.67
868.27	2789.6
868.59	2838.19
868.91	2811.52
869.23	2809.94
869.55	2819.88
869.87	2802.71
870.19	2774.91
870.51	2779.66
870.83	2782.14
871.15	2725.2
871.469	2767.91
871.789	2735.37
872.109	2740.56
872.428	2736.27
872.748	2719.1
873.067	2709.83
873.386	2738.08
873.706	2741.92
874.025	2733.78
874.344	2711.19
874.663	2724.07
874.982	2711.64
875.301	2749.83
875.62	2714.12
875.939	2712.32
876.258	2701.47
876.577	2717.06
876.896	2745.08
877.214	2690.85
877.533	2712.77
877.852	2686.33
878.17	2705.08
878.489	2694.69
878.807	2662.83
879.125	2678.42
879.444	2621.47
879.762	2652.2
880.08	2629.61
880.398	2619.66
880.716	2620.79
881.034	2643.62
881.352	2619.44
881.67	2627.12
881.988	2657.18
882.306	2622.6
882.624	2612.88
882.941	2620.79
883.259	2613.79
883.577	2594.13
883.894	2624.86
884.212	2597.74
884.529	2592.32
884.846	2584.41
885.164	2573.79
885.481	2574.01
885.798	2568.14
886.115	2545.09
886.432	2560
886.75	2550.29
887.067	2563.62
887.383	2540.12
887.7	2538.53
888.017	2521.13
888.334	2525.43
888.651	2497.63
888.967	2527.46
889.284	2507.12
889.6	2459.89
889.917	2453.11
890.233	2508.71
890.55	2480.23
890.866	2487.69
891.182	2463.06
891.498	2466.9
891.815	2458.09
892.131	2473.68
892.447	2473.9
892.763	2438.88
893.079	2461.25
893.395	2423.51
893.71	2444.53
894.026	2417.63
894.342	2419.89
894.657	2403.62
894.973	2409.95
895.289	2393.91
895.604	2392.55
895.92	2389.61
896.235	2363.62
896.55	2331.08
896.865	2348.26
897.181	2332.89
897.496	2347.58
897.811	2303.96
898.126	2275.72
898.441	2309.39
898.756	2341.03
899.071	2309.84
899.386	2314.81
899.7	2313.46
900.015	2285.89
900.33	2307.13
900.644	2311.65
900.959	2294.47
901.273	2248.6
901.588	2262.38
901.902	2245.44
902.216	2276.85
902.531	2241.59
902.845	2241.82
903.159	2207.02
903.473	2222.39
903.787	2164.31
904.101	2212.44
904.415	2179.22
904.729	2164.99
905.042	2136.29
905.356	2171.09
905.67	2169.51
905.984	2157.98
906.297	2144.2
906.611	2145.55
906.924	2127.92
907.237	2111.65
907.551	2105.33
907.864	2099
908.177	2124.53
908.491	2111.65
908.804	2117.3
909.117	2072.11
909.43	2097.64
909.743	2094.48
910.056	2088.38
910.368	2063.97
910.681	2040.47
910.994	2075.5
911.307	2048.15
911.619	2021.94
911.932	2027.81
912.244	2029.4
912.557	2003.63
912.869	2023.52
913.181	1964.54
913.494	1988.72
913.806	1956.4
914.118	1967.93
914.43	1928.16
914.742	1940.81
915.054	1904.88
915.366	1934.03
915.678	1922.96
915.99	1942.62
916.302	1941.71
916.613	1928.38
916.925	1920.02
917.236	1919.79
917.548	1891.32
917.859	1913.92
918.171	1931.32
918.482	1901.49
918.794	1891.32
919.105	1911.66
919.416	1874.6
919.727	1890.87
920.038	1854.71
920.349	1861.26
920.66	1879.57
920.971	1860.59
921.282	1815.16
921.593	1810.87
921.903	1813.13
922.214	1826.92
922.525	1809.06
922.835	1775.17
923.146	1775.39
923.456	1780.81
923.767	1766.8
924.077	1784.66
924.387	1748.73
924.697	1741.72
925.008	1747.14
925.318	1758.89
925.628	1744.21
925.938	1742.17
926.248	1692.91
926.558	1706.69
926.867	1722.51
927.177	1737.2
927.487	1677.77
927.796	1672.34
928.106	1705.79
928.416	1672.34
928.725	1688.61
929.034	1666.47
929.344	1662.4
929.653	1658.33
929.962	1673.7
930.271	1641.84
930.581	1656.75
930.89	1647.71
931.199	1620.82
931.508	1617.88
931.817	1605
932.125	1598.9
932.434	1636.86
932.743	1579.69
933.051	1610.42
933.36	1617.2
933.669	1585.79
933.977	1569.75
934.286	1578.33
934.594	1609.97
934.902	1575.85
935.21	1545.79
935.519	1555.28
935.827	1583.31
936.135	1549.86
936.443	1541.27
936.751	1547.6
937.059	1561.39
937.367	1511.67
937.674	1523.87
937.982	1541.05
938.29	1512.35
938.597	1503.53
938.905	1513.93
939.213	1486.13
939.52	1478.45
939.827	1480.94
940.135	1452.91
940.442	1466.02
940.749	1443.65
941.056	1451.33
941.363	1456.98
941.67	1426.7
941.977	1426.02
942.284	1442.74
942.591	1433.93
942.898	1440.94
943.205	1413.82
943.511	1412.01
943.818	1431.22
944.125	1433.93
944.431	1438.45
944.738	1381.28
945.044	1408.17
945.35	1397.55
945.657	1398.45
945.963	1388.06
946.269	1363.42
946.575	1365.91
946.881	1410.43
947.187	1369.3
947.493	1338.57
947.799	1362.07
948.105	1347.38
948.41	1357.1
948.716	1317.55
949.022	1338.11
949.327	1346.93
949.633	1316.19
949.938	1330.21
950.244	1349.41
950.549	1306.93
950.854	1290.66
951.16	1288.85
951.465	1271.22
951.77	1318.91
952.075	1279.81
952.38	1268.74
952.685	1263.09
952.99	1287.95
953.294	1244.33
953.599	1287.49
953.904	1285.46
954.209	1254.5
954.513	1256.08
954.818	1254.95
955.122	1260.15
955.426	1257.66
955.731	1254.5
956.035	1254.95
956.339	1242.98
956.643	1231.45
956.948	1215.63
957.252	1225.58
957.556	1231.45
957.86	1241.17
958.163	1207.27
958.467	1195.29
958.771	1203.65
959.075	1188.51
959.378	1193.49
959.682	1195.97
959.985	1187.38
960.289	1187.84
960.592	1183.99
960.896	1166.82
961.199	1152.81
961.502	1170.89
961.805	1155.52
962.108	1139.7
962.411	1132.7
962.714	1136.54
963.017	1144.67
963.32	1144.9
963.623	1120.95
963.926	1156.88
964.228	1133.6
964.531	1139.25
964.833	1162.75
965.136	1126.37
965.438	1123.66
965.741	1130.66
966.043	1151.23
966.345	1121.85
966.648	1089.99
966.95	1083.66
967.252	1085.47
967.554	1088.63
967.856	1104.45
968.158	1063.09
968.46	1060.38
968.761	1067.16
969.063	1080.95
969.365	1064.45
969.666	1033.72
969.968	1040.04
970.269	1066.48
970.571	1060.38
970.872	1058.57
971.174	1044.34
971.475	1021.96
971.776	1059.03
972.077	1049.31
972.378	1029.2
972.679	1026.03
972.98	1045.47
973.281	1028.29
973.582	1025.81
973.883	1049.76
974.183	1032.81
974.484	988.52
974.785	1014.06
975.085	1018.12
975.386	1025.81
975.686	1014.96
975.986	1007.95
976.287	984.45
976.587	988.29
976.887	1009.99
977.187	992.13
977.487	969.08
977.787	971.34
978.087	940.16
978.387	956.88
978.687	967.73
978.987	957.33
979.286	961.4
979.586	957.56
979.885	937.45
980.185	941.29
980.484	945.36
980.784	913.49
981.083	939.03
981.382	934.74
981.682	937.67
981.981	924.57
982.28	938.8
982.579	918.69
982.878	935.41
983.177	930.67
983.475	948.52
983.774	936.54
984.073	924.11
984.372	909.65
984.67	898.58
984.969	922.98
985.267	896.32
985.566	895.41
985.864	895.41
986.162	889.31
986.461	897.67
986.759	908.3
987.057	912.14
987.355	888.18
987.653	895.41
987.951	859.48
988.249	869.88
988.547	887.28
988.844	884.57
989.142	860.16
989.44	842.53
989.737	842.99
990.035	825.36
990.332	853.61
990.63	845.02
990.927	833.04
991.224	851.57
991.521	845.92
991.819	830.11
992.116	825.36
992.413	816.32
992.71	823.33
993.006	842.99
993.303	843.21
993.6	833.72
993.897	840.27
994.193	838.69
994.49	836.43
994.787	821.07
995.083	807.28
995.379	823.33
995.676	811.12
995.972	811.35
996.268	778.81
996.565	796.43
996.861	793.5
997.157	798.92
997.453	781.97
997.749	782.65
998.044	779.26
998.34	779.03
998.636	789.65
998.932	788.98
999.227	750.33
999.523	766.6
999.818	746.94
1000.114	782.87
1000.409	749.88
1000.704	750.79
1001	747.62
1001.295	757.79
1001.59	767.73
1001.885	746.72
1002.18	745.36
1002.475	745.36
1002.77	729.77
1003.065	724.35
1003.359	732.93
1003.654	748.75
1003.949	746.27
1004.243	744.01
1004.538	728.41
1004.832	718.47
1005.127	732.93
1005.421	723.89
1005.715	694.97
1006.009	718.7
1006.304	702.43
1006.598	690.67
1006.892	710.11
1007.186	704.01
1007.48	675.76
1007.773	689.09
1008.067	685.48
1008.361	676.66
1008.655	688.19
1008.948	684.57
1009.242	704.46
1009.535	669.21
1009.829	660.62
1010.122	693.39
1010.415	683.22
1010.708	681.41
1011.001	677.11
1011.295	669.21
1011.588	669.21
1011.881	642.31
1012.173	669.88
1012.466	670.11
1012.759	659.71
1013.052	654.74
1013.344	640.05
1013.637	638.92
1013.93	627.4
1014.222	643.44
1014.514	640.05
1014.807	640.05
1015.099	640.05
1015.391	650.45
1015.683	636.66
1015.976	621.07
1016.268	639.15
1016.56	611.81
1016.851	635.99
1017.143	629.66
1017.435	610.68
1017.727	626.95
1018.018	627.85
1018.31	629.66
1018.602	612.71
1018.893	604.35
1019.185	577
1019.476	622.65
1019.767	592.37
1020.058	613.84
1020.35	590.56
1020.641	593.73
1020.932	603.67
1021.223	596.67
1021.514	580.62
1021.804	584.91
1022.095	591.47
1022.386	562.32
1022.677	573.61
1022.967	565.93
1023.258	585.82
1023.548	581.3
1023.839	574.74
1024.129	560.51
1024.419	542.88
1024.709	551.02
1025	540.4
1025.29	560.06
1025.58	544.46
1025.87	541.53
1026.16	541.75
1026.449	538.59
1026.739	536.55
1027.029	550.11
1027.319	560.73
1027.608	543.56
1027.898	545.59
1028.187	544.46
1028.477	549.89
1028.766	537.23
1029.055	551.47
1029.344	528.64
1029.634	524.35
1029.923	527.06
1030.212	538.59
1030.501	520.73
1030.79	528.87
1031.078	516.89
1031.367	522.77
1031.656	523.9
1031.945	517.35
1032.233	504.69
1032.522	495.2
1032.81	519.38
1033.099	501.75
1033.387	518.7
1033.675	524.35
1033.963	532.26
1034.251	513.96
1034.54	508.08
1034.828	494.97
1035.116	522.77
1035.403	488.42
1035.691	487.74
1035.979	462.21
1036.267	495.42
1036.554	471.92
1036.842	472.83
1037.129	485.93
1037.417	489.1
1037.704	483
1037.992	482.77
1038.279	476.44
1038.566	486.84
1038.853	486.84
1039.14	486.84
