Data from foam1_polythene_foam_FLMS001491_00012.txt Node
Date: Wed Feb 08 10:54:26 GMT 2017
User: dcchb
Spectrometer: FLMS00149
Trigger mode: 0
Integration Time (sec): 2.000000E-2
Scans to average: 10
Electric dark correction enabled: true
Nonlinearity correction enabled: false
Boxcar width: 0
XAxis mode: Wavelengths
Number of Pixels in Spectrum: 2048
>>>>>Begin Spectral Data<<<<<
341.393	-15.56
341.776	-15.56
342.16	-15.56
342.543	-37.26
342.927	-64.38
343.31	-59.18
343.693	-80.87
344.077	-37.03
344.46	-67.99
344.843	-42
345.226	-41.33
345.61	-32.29
345.993	-10.37
346.376	2.06
346.759	-13.98
347.142	19.46
347.525	45.45
347.908	52.46
348.291	68.28
348.674	107.14
349.057	90.2
349.44	125.22
349.823	117.99
350.206	156.18
350.588	201.6
350.971	197.54
351.354	204.77
351.737	219.91
352.119	232.56
352.502	248.38
352.884	253.35
353.267	254.03
353.65	276.41
354.032	288.83
354.414	296.97
354.797	302.85
355.179	301.26
355.562	295.16
355.944	312.79
356.326	320.92
356.709	290.64
357.091	316.18
357.473	341.94
357.855	321.38
358.238	323.64
358.62	334.93
359.002	326.8
359.384	322.28
359.766	327.93
360.148	321.15
360.53	309.85
360.912	291.77
361.294	315.5
361.676	328.38
362.057	322.28
362.439	331.54
362.821	317.31
363.203	317.99
363.584	322.96
363.966	320.47
364.348	297.42
364.729	291.77
365.111	315.5
365.493	303.98
365.874	307.14
366.256	312.34
366.637	325.67
367.019	313.01
367.4	302.39
367.781	299.68
368.163	305.78
368.544	282.28
368.925	275.95
369.306	307.82
369.688	308.95
370.069	296.97
370.45	290.42
370.831	304.43
371.212	294.48
371.593	298.55
371.974	286.12
372.355	312.79
372.736	310.75
373.117	298.78
373.498	324.99
373.879	300.81
374.26	318.21
374.641	302.39
375.021	308.72
375.402	291.09
375.783	310.98
376.163	327.93
376.544	302.39
376.925	319.79
377.305	301.72
377.686	323.86
378.066	303.75
378.447	321.15
378.827	318.89
379.208	324.54
379.588	327.48
379.968	297.87
380.349	312.56
380.729	328.38
381.109	314.6
381.489	328.16
381.87	309.17
382.25	327.25
382.63	307.82
383.01	316.86
383.39	322.51
383.77	329.06
384.15	325.44
384.53	313.92
384.91	330.42
385.29	339.68
385.67	358.44
386.049	327.03
386.429	314.82
386.809	334.03
387.189	337.19
387.568	329.96
387.948	343.97
388.328	317.08
388.707	344.2
389.087	340.81
389.466	342.17
389.846	349.17
390.225	354.6
390.605	355.27
390.984	358.89
391.363	337.65
391.743	355.05
392.122	354.82
392.501	345.33
392.881	355.27
393.26	356.63
393.639	369.96
394.018	366.35
394.397	345.56
394.776	386.91
395.155	383.3
395.534	371.32
395.913	371.77
396.292	367.02
396.671	369.51
397.05	374.03
397.429	351.66
397.808	369.51
398.186	367.93
398.565	370.87
398.944	349.85
399.323	368.61
399.701	403.86
400.08	353.24
400.458	379.23
400.837	392.79
401.215	376.74
401.594	381.04
401.972	387.59
402.351	393.46
402.729	380.36
403.107	382.17
403.486	393.01
403.864	376.52
404.242	377.65
404.62	396.4
404.999	402.73
405.377	380.13
405.755	382.84
406.133	405.44
406.511	380.81
406.889	400.24
407.267	420.13
407.645	397.53
408.023	426.23
408.401	388.94
408.779	407.93
409.156	420.58
409.534	436.17
409.912	396.85
410.29	397.08
410.667	416.29
411.045	422.84
411.422	423.07
411.8	455.61
412.178	431.43
412.555	432.11
412.933	440.47
413.31	431.66
413.687	445.89
414.065	449.28
414.442	425.78
414.819	442.28
415.197	432.79
415.574	441.82
415.951	452.9
416.328	427.81
416.705	469.62
417.082	446.12
417.46	459.45
417.837	477.08
418.214	468.49
418.591	459.23
418.967	468.72
419.344	467.59
419.721	474.37
420.098	477.3
420.475	472.78
420.852	484.54
421.228	473.01
421.605	496.96
421.982	513.24
422.358	477.53
422.735	482.28
423.111	455.16
423.488	480.24
423.864	501.03
424.241	505.1
424.617	496.29
424.994	529.05
425.37	529.28
425.746	504.42
426.123	514.14
426.499	523.63
426.875	538.09
427.251	523.63
427.627	536.51
428.003	534.93
428.379	539.22
428.756	521.82
429.132	531.77
429.507	553.01
429.883	539
430.259	562.5
430.635	553.23
431.011	548.94
431.387	538.09
431.763	569.5
432.138	567.02
432.514	571.99
432.89	574.25
433.265	570.86
433.641	599.56
434.016	588.94
434.392	590.3
434.767	605.44
435.143	607.7
435.518	636.4
435.894	593.23
436.269	600.24
436.644	627.13
437.02	623.51
437.395	634.59
437.77	643.4
438.145	620.12
438.52	636.4
438.895	645.66
439.271	652.21
439.646	685.21
440.021	648.15
440.395	653.12
440.77	674.81
441.145	676.85
441.52	679.11
441.895	686.56
442.27	702.16
442.645	690.18
443.019	687.02
443.394	702.16
443.769	707.35
444.143	707.81
444.518	725.66
444.892	735.6
445.267	725.43
445.641	725.88
446.016	734.02
446.39	736.05
446.764	743.51
447.139	737.18
447.513	742.61
447.887	777.86
448.262	771.31
448.636	750.74
449.01	776.51
449.384	784.87
449.758	802.04
450.132	767.47
450.506	789.16
450.88	799.33
451.254	768.37
451.628	796.39
452.002	821.25
452.376	806.33
452.75	800.01
453.123	816.96
453.497	856.5
453.871	826
454.244	846.33
454.618	846.33
454.992	816.73
455.365	829.38
455.739	851.76
456.112	877.29
456.486	870.74
456.859	872.77
457.232	895.82
457.606	876.39
457.979	882.04
458.352	855.15
458.725	889.72
459.099	900.34
459.472	886.33
459.845	882.72
460.218	915.48
460.591	903.96
460.964	902.6
461.337	905.99
461.71	935.6
462.083	941.7
462.456	927.46
462.829	924.98
463.201	953.45
463.574	930.4
463.947	936.05
464.32	965.88
464.692	940.79
465.065	979.21
465.438	991.19
465.81	1016.27
466.183	1010.85
466.555	1042.71
466.928	1019.89
467.3	998.65
467.672	1037.74
468.045	1040.68
468.417	1028.93
468.789	1083.84
469.161	1064.41
469.534	1041.36
469.906	1069.38
470.278	1086.33
470.65	1094.91
471.022	1106.67
471.394	1098.76
471.766	1124.29
472.138	1158.19
472.51	1156.83
472.882	1156.16
473.253	1159.55
473.625	1172.43
473.997	1195.03
474.369	1173.33
474.74	1192.77
475.112	1209.49
475.484	1209.49
475.855	1255.14
476.227	1248.36
476.598	1285.42
476.97	1282.25
477.341	1300.56
477.713	1324.51
478.084	1329.71
478.455	1339.43
478.827	1350.73
479.198	1377.39
479.569	1389.6
479.94	1394.79
480.311	1401.12
480.682	1444.74
481.053	1466.43
481.424	1471.63
481.795	1508.46
482.166	1483.38
482.537	1505.75
482.908	1529.93
483.279	1561.12
483.65	1574.22
484.021	1627.1
484.391	1602.7
484.762	1631.62
485.133	1665.97
485.503	1677.95
485.874	1720.89
486.244	1692.19
486.615	1717.95
486.985	1726.99
487.356	1766.99
487.726	1777.61
488.097	1819.42
488.467	1825.74
488.837	1867.55
489.207	1822.58
489.578	1897.38
489.948	1889.7
490.318	1922.01
490.688	1933.31
491.058	1931.5
491.428	1965.17
491.798	1995.23
492.168	2024.83
492.538	2015.34
492.908	2039.75
493.278	2074.1
493.648	2073.87
494.017	2095.11
494.387	2103.93
494.757	2122.23
495.126	2177.37
495.496	2135.79
495.866	2193.87
496.235	2192.29
496.605	2193.87
496.974	2232.29
497.344	2210.59
497.713	2260.53
498.082	2243.13
498.452	2296.47
498.821	2289.01
499.19	2307.99
499.559	2342.79
499.928	2309.12
500.298	2348.67
500.667	2351.6
501.036	2352.73
501.405	2375.11
501.774	2392.06
502.143	2382.11
502.512	2433.86
502.88	2444.26
503.249	2430.7
503.618	2459.85
503.987	2463.01
504.356	2503.47
504.724	2523.58
505.093	2513.41
505.462	2528.55
505.83	2541.66
506.199	2604.25
506.567	2577.14
506.936	2551.83
507.304	2572.84
507.672	2621.2
508.041	2624.37
508.409	2608.32
508.777	2688.55
509.145	2660.52
509.514	2679.96
509.882	2717.92
510.25	2752.05
510.618	2720.41
510.986	2728.32
511.354	2743.23
511.722	2807.86
512.09	2808.32
512.458	2827.98
512.826	2832.95
513.193	2867.07
513.561	2844.02
513.929	2866.85
514.297	2898.94
514.664	2917.24
515.032	2919.05
515.4	2949.78
515.767	2970.12
516.135	2957.92
516.502	2968.31
516.869	2989.78
517.237	3037.24
517.604	3035.65
517.972	3086.05
518.339	3110.68
518.706	3097.12
519.073	3113.17
519.44	3151.81
519.808	3151.36
520.175	3161.98
520.542	3204.24
520.909	3230.9
521.276	3263.67
521.643	3227.74
522.009	3320.62
522.376	3295.53
522.743	3279.49
523.11	3346.61
523.477	3387.74
523.843	3405.59
524.21	3410.11
524.577	3475.64
524.943	3479.94
525.31	3508.41
525.676	3538.92
526.043	3533.95
526.409	3582.53
526.776	3601.29
527.142	3585.92
527.508	3631.57
527.874	3659.14
528.241	3652.81
528.607	3658.24
528.973	3707.5
529.339	3729.2
529.705	3716.54
530.071	3761.96
530.437	3736.65
530.803	3793.15
531.169	3811.68
531.535	3850.32
531.901	3853.94
532.267	3882.19
532.632	3907.5
532.998	3888.97
533.364	3916.54
533.73	3948.4
534.095	3987.49
534.461	3958.34
534.826	4004.44
535.192	4030.2
535.557	4066.59
535.923	4041.5
536.288	4078.57
536.653	4069.07
537.019	4074.05
537.384	4079.47
537.749	4108.39
538.114	4110.43
538.479	4111.33
538.845	4184.55
539.21	4135.96
539.575	4175.06
539.94	4227.94
540.305	4235.85
540.67	4219.8
541.034	4239.69
541.399	4271.1
541.764	4279.01
542.129	4323.98
542.494	4328.73
542.858	4337.99
543.223	4342.74
543.587	4363.98
543.952	4339.35
544.316	4371.89
544.681	4360.82
545.045	4316.75
545.41	4436.07
545.774	4493.47
546.138	4409.63
546.503	4472
546.867	4462.06
547.231	4539.34
547.595	4495.73
547.959	4555.39
548.324	4507.93
548.688	4544.09
549.052	4565.78
549.416	4579.79
549.779	4592.45
550.143	4644.2
550.507	4710.64
550.871	4676.74
551.235	4637.87
551.599	4685.55
551.962	4679.23
552.326	4727.81
552.689	4721.26
553.053	4759.68
553.417	4801.71
553.78	4793.8
554.143	4796.51
554.507	4807.81
554.87	4863.86
555.234	4860.92
555.597	4848.49
555.96	4867.02
556.323	4971.87
556.686	4926.9
557.05	5014.13
557.413	5015.94
557.776	5000.12
558.139	5073.12
558.502	5085.32
558.865	5076.28
559.228	5099.56
559.59	5174.81
559.953	5123.74
560.316	5208.48
560.679	5225.2
561.041	5245.54
561.404	5280.12
561.767	5311.75
562.129	5309.95
562.492	5311.75
562.854	5352.66
563.217	5381.81
563.579	5396.5
563.941	5370.73
564.304	5459.55
564.666	5467.68
565.028	5520.56
565.39	5522.37
565.753	5573.67
566.115	5599.66
566.477	5591.97
566.839	5580.22
567.201	5634.46
567.563	5646.43
567.925	5682.59
568.287	5666.32
568.648	5716.26
569.01	5723.95
569.372	5812.08
569.734	5778.63
570.095	5795.81
570.457	5808.24
570.819	5856.82
571.18	5864.73
571.542	5871.74
571.903	5866.99
572.265	5935.24
572.626	5999.19
572.987	5942.24
573.349	5965.07
573.71	6001.9
574.071	6028.34
574.432	6074.9
574.794	6092.75
575.155	5994.9
575.516	6030.38
575.877	6070.15
576.238	6087.78
576.599	6162.35
576.96	6189.92
577.32	6161.9
577.681	6196.48
578.042	6218.62
578.403	6189.02
578.763	6187.44
579.124	6206.64
579.485	6188.57
579.845	6219.3
580.206	6190.6
580.566	6203.25
580.927	6232.86
581.287	6288.22
581.648	6261.56
582.008	6310.6
582.368	6314.44
582.728	6254.33
583.089	6255.23
583.449	6240.09
583.809	6252.07
584.169	6330.48
584.529	6272.41
584.889	6332.97
585.249	6327.09
585.609	6277.15
585.969	6351.27
586.329	6285.96
586.688	6290.94
587.048	6287.09
587.408	6280.09
587.768	6279.41
588.127	6284.83
588.487	6267.66
588.846	6309.47
589.206	6316.25
589.565	6323.03
589.925	6336.58
590.284	6299.98
590.643	6329.35
591.003	6277.15
591.362	6394.66
591.721	6300.88
592.08	6293.87
592.44	6369.8
592.799	6337.94
593.158	6375.68
593.517	6338.17
593.876	6365.28
594.235	6360.09
594.593	6362.12
594.952	6359.18
595.311	6378.17
595.67	6320.09
596.029	6405.28
596.387	6386.08
596.746	6363.48
597.104	6377.49
597.463	6358.96
597.822	6392.63
598.18	6358.28
598.538	6402.57
598.897	6395.57
599.255	6311.95
599.613	6468.56
599.972	6411.16
600.33	6440.99
600.688	6473.53
601.046	6418.39
601.404	6440.99
601.762	6439.86
602.12	6478.73
602.478	6469.01
602.836	6433.98
603.194	6438.73
603.552	6412.52
603.91	6469.01
604.268	6525.73
604.625	6510.59
604.983	6444.38
605.341	6423.81
605.698	6501.78
606.056	6496.81
606.413	6479.18
606.771	6485.06
607.128	6447.54
607.485	6511.5
607.843	6495.45
608.2	6544.71
608.557	6505.62
608.914	6494.32
609.272	6530.03
609.629	6556.47
609.986	6607.99
610.343	6492.51
610.7	6619.06
611.057	6574.54
611.414	6544.04
611.771	6521.21
612.127	6504.04
612.484	6558.5
612.841	6558.27
613.198	6571.83
613.554	6575.9
613.911	6604.6
614.267	6643.7
614.624	6596.46
614.98	6576.13
615.337	6659.51
615.693	6643.02
616.05	6623.13
616.406	6652.96
616.762	6660.42
617.118	6612.06
617.475	6619.29
617.831	6675.33
618.187	6659.74
618.543	6682.11
618.899	6672.4
619.255	6634.88
619.611	6665.84
619.967	6642.57
620.323	6658.38
620.678	6634.88
621.034	6707.2
621.39	6637.37
621.746	6657.71
622.101	6702.22
622.457	6635.56
622.812	6670.59
623.168	6724.37
623.523	6654.77
623.879	6711.72
624.234	6649.57
624.589	6699.29
624.945	6701.09
625.3	6688.89
625.655	6712.17
626.01	6641.44
626.365	6663.36
626.72	6612.51
627.075	6661.55
627.43	6654.32
627.785	6611.38
628.14	6654.32
628.495	6624.71
628.85	6644.37
629.205	6564.6
629.559	6615.67
629.914	6673.3
630.269	6580.19
630.623	6590.36
630.978	6576.58
631.332	6570.48
631.687	6609.12
632.041	6560.08
632.396	6588.56
632.75	6593.08
633.104	6598.72
633.459	6524.38
633.813	6484.38
634.167	6526.64
634.521	6480.08
634.875	6496.81
635.229	6566.64
635.583	6453.87
635.937	6508.33
636.291	6467.88
636.645	6458.62
636.999	6450.71
637.352	6404.83
637.706	6365.96
638.06	6449.35
638.413	6400.31
638.767	6402.12
639.121	6485.51
639.474	6420.42
639.828	6398.28
640.181	6359.64
640.534	6378.39
640.888	6395.11
641.241	6354.21
641.594	6379.3
641.947	6341.78
642.301	6302.24
642.654	6310.14
643.007	6321.9
643.36	6342.46
643.713	6342.69
644.066	6397.37
644.419	6296.59
644.771	6183.59
645.124	6083.26
645.477	6042.36
645.83	6031.51
646.182	6105.18
646.535	6066.31
646.888	6112.41
647.24	6121.68
647.593	6131.17
647.945	6153.31
648.298	6103.82
648.65	6130.94
649.002	6073.09
649.355	6041
649.707	6027.89
650.059	6017.05
650.411	6037.38
650.763	6089.81
651.115	6122.35
651.467	6134.1
651.819	6151.73
652.171	6128.91
652.523	6100.66
652.875	6116.93
653.227	6113.54
653.578	6131.17
653.93	6107.21
654.282	6088.46
654.633	6046.42
654.985	6069.7
655.337	6051.17
655.688	6136.59
656.039	6129.81
656.391	6002.36
656.742	6001.45
657.094	6015.69
657.445	6076.25
657.796	6049.59
658.147	6039.19
658.498	6010.72
658.849	6076.25
659.2	5958.74
659.551	6012.53
659.902	6027.21
660.253	6031.51
660.604	6033.77
660.955	5964.62
661.306	5988.8
661.656	6032.19
662.007	5967.1
662.358	5949.48
662.708	5932.98
663.059	5996.93
663.409	5886.2
663.76	5979.08
664.11	5947.89
664.461	5942.47
664.811	5934.11
665.161	5957.16
665.511	5955.35
665.862	5923.49
666.212	5952.41
666.562	5928.01
666.912	5882.81
667.262	5879.2
667.612	5903.83
667.962	5946.99
668.312	5908.12
668.662	5926.88
669.011	5907.9
669.361	5897.05
669.711	5934.11
670.06	5895.01
670.41	5902.47
670.76	5883.26
671.109	5933.88
671.459	5958.29
671.808	5863.6
672.157	5911.51
672.507	5840.55
672.856	5883.49
673.205	5817.05
673.554	5883.94
673.904	5839.2
674.253	5839.65
674.602	5788.8
674.951	5737.73
675.3	5696.83
675.649	5829.93
675.998	5864.28
676.346	5836.26
676.695	5829.71
677.044	5769.59
677.393	5816.82
677.741	5840.55
678.09	5809.14
678.438	5774.57
678.787	5799.2
679.135	5780.89
679.484	5709.03
679.832	5751.52
680.181	5709.48
680.529	5754.45
680.877	5743.15
681.225	5725.53
681.573	5743.15
681.922	5733.66
682.27	5737.05
682.618	5704.96
682.966	5674
683.314	5728.69
683.661	5689.37
684.009	5596.49
684.357	5621.35
684.705	5641.69
685.053	5649.6
685.4	5608.02
685.748	5607.34
686.095	5595.14
686.443	5530.5
686.79	5539.54
687.138	5562.82
687.485	5548.13
687.832	5553.78
688.18	5570.28
688.527	5535.02
688.874	5541.8
689.221	5479.66
689.568	5491.86
689.915	5504.29
690.262	5493.9
690.609	5482.37
690.956	5474.46
691.303	5464.52
691.65	5443.27
691.997	5452.77
692.344	5357.4
692.69	5389.04
693.037	5341.58
693.383	5337.74
693.73	5368.25
694.077	5373.67
694.423	5321.92
694.769	5358.31
695.116	5293.9
695.462	5313.56
695.808	5232.21
696.155	5232.89
696.501	5209.61
696.847	5188.82
697.193	5212.77
697.539	5213.45
697.885	5173.45
698.231	5156.95
698.577	5140.68
698.923	5173.68
699.269	5135.49
699.614	5108.59
699.96	5099.1
700.306	5080.12
700.651	5116.28
700.997	5118.31
701.342	5072.44
701.688	5015.94
702.033	5076.96
702.379	4995.6
702.724	4988.6
703.069	5027.47
703.415	4956.28
703.76	4974.36
704.105	4940.92
704.45	4962.61
704.795	4926.68
705.14	4938.43
705.485	4927.36
705.83	4951.08
706.175	4928.26
706.52	4900.01
706.865	4891.43
707.209	4889.84
707.554	4879.9
707.899	4876.96
708.243	4810.75
708.588	4841.26
708.932	4826.57
709.277	4795.83
709.621	4809.62
709.966	4713.58
710.31	4712.9
710.654	4729.62
710.998	4751.99
711.342	4744.08
711.687	4723.75
712.031	4729.4
712.375	4680.81
712.719	4712.9
713.063	4721.26
713.407	4744.76
713.75	4718.77
714.094	4655.5
714.438	4658.44
714.782	4622.73
715.125	4631.54
715.469	4617.76
715.812	4631.77
716.156	4586.8
716.499	4589.06
716.843	4626.35
717.186	4594.71
717.53	4615.05
717.873	4627.03
718.216	4615.05
718.559	4559.46
718.902	4552.68
719.246	4570.76
719.589	4597.87
719.932	4555.39
720.275	4542.73
720.617	4535.05
720.96	4501.83
721.303	4493.47
721.646	4511.32
721.989	4448.72
722.331	4439.91
722.674	4428.84
723.016	4443.75
723.359	4468.61
723.701	4450.98
724.044	4432.23
724.386	4422.51
724.729	4451.21
725.071	4453.02
725.413	4465.67
725.755	4439.69
726.097	4345.68
726.439	4382.96
726.782	4387.71
727.124	4438.78
727.465	4401.27
727.807	4372.34
728.149	4328.5
728.491	4313.81
728.833	4355.62
729.175	4308.39
729.516	4319.24
729.858	4307.03
730.199	4302.06
730.541	4312.23
730.882	4332.8
731.224	4366.47
731.565	4320.14
731.906	4346.58
732.248	4282.18
732.589	4279.24
732.93	4297.99
733.271	4248.73
733.612	4313.81
733.953	4250.76
734.294	4240.37
734.635	4216.87
734.976	4247.83
735.317	4216.87
735.658	4239.92
735.999	4246.92
736.339	4175.29
736.68	4175.06
737.021	4236.75
737.361	4179.58
737.702	4224.1
738.042	4216.64
738.383	4152.24
738.723	4200.37
739.063	4202.63
739.404	4199.01
739.744	4189.07
740.084	4157.89
740.424	4176.87
740.764	4164.89
741.104	4142.07
741.444	4100.94
741.784	4127.6
742.124	4146.59
742.464	4113.14
742.804	4103.88
743.143	4083.54
743.483	4088.96
743.823	4087.6
744.162	4093.25
744.502	4131.67
744.841	4094.16
745.181	4086.47
745.52	4050.77
745.86	4066.14
746.199	4068.85
746.538	4081.28
746.877	4037.66
747.216	4101.62
747.556	4051.45
747.895	4040.15
748.234	4035.4
748.573	4047.38
748.911	4007.15
749.25	3981.17
749.589	3985.91
749.928	3948.4
750.267	3987.04
750.605	3966.25
750.944	3959.92
751.283	3944.33
751.621	3962.18
751.96	3939.59
752.298	3943.2
752.636	3952.47
752.975	3887.38
753.313	3913.6
753.651	3920.38
753.989	3877.21
754.327	3924.44
754.666	3835.63
755.004	3872.02
755.342	3873.6
755.679	3839.25
756.017	3815.07
756.355	3838.12
756.693	3824.56
757.031	3835.41
757.368	3800.15
757.706	3773.04
758.044	3803.54
758.381	3808.97
758.719	3784.56
759.056	3786.6
759.394	3782.08
759.731	3756.99
760.068	3763.77
760.405	3724
760.743	3736.2
761.08	3747.27
761.417	3720.83
761.754	3745.92
762.091	3698.69
762.428	3704.56
762.765	3665.69
763.102	3651.46
763.438	3638.8
763.775	3635.41
764.112	3608.29
764.449	3635.64
764.785	3613.04
765.122	3586.37
765.458	3578.01
765.795	3615.07
766.131	3569.43
766.467	3605.13
766.804	3560.84
767.14	3569.2
767.476	3592.48
767.812	3540.05
768.148	3551.12
768.485	3545.47
768.821	3514.06
769.157	3478.58
769.492	3490.33
769.828	3446.27
770.164	3466.38
770.5	3437.9
770.836	3430.67
771.171	3425.47
771.507	3390
771.842	3370.79
772.178	3384.57
772.513	3399.49
772.849	3382.31
773.184	3365.14
773.519	3410.33
773.855	3368.98
774.19	3340.96
774.525	3326.72
774.86	3369.43
775.195	3338.25
775.53	3274.97
775.865	3265.03
776.2	3255.31
776.535	3252.6
776.87	3283.11
777.205	3229.77
777.539	3183.22
777.874	3214.86
778.209	3192.03
778.543	3236.78
778.878	3162.43
779.212	3156.33
779.547	3123.79
779.881	3190.45
780.215	3144.58
780.55	3135.77
780.884	3124.92
781.218	3119.72
781.552	3093.96
781.886	3125.37
782.22	3112.71
782.554	3092.38
782.888	3109.78
783.222	3084.69
783.556	3029.78
783.889	3032.94
784.223	2970.8
784.557	3009.89
784.89	3011.25
785.224	3006.5
785.557	3010.8
785.891	2980.51
786.224	2961.76
786.558	2953.17
786.891	2953.17
787.224	2955.43
787.557	2917.01
787.891	2907.75
788.224	2927.86
788.557	2913.85
788.89	2923.12
789.223	2928.31
789.556	2906.84
789.888	2902.78
790.221	2906.39
790.554	2870.01
790.887	2900.97
791.219	2864.59
791.552	2879.05
791.884	2851.03
792.217	2831.59
792.549	2797.69
792.882	2814.87
793.214	2755.21
793.546	2765.61
793.879	2741.43
794.211	2742.33
794.543	2772.38
794.875	2726.28
795.207	2740.97
795.539	2734.87
795.871	2747.53
796.203	2750.69
796.535	2698.71
796.867	2703.01
797.198	2705.95
797.53	2707.08
797.862	2709.79
798.193	2714.08
798.525	2691.26
798.856	2697.36
799.188	2651.03
799.519	2652.16
799.85	2628.66
800.182	2638.15
800.513	2636.34
800.844	2620.52
801.175	2622.11
801.506	2613.52
801.837	2628.21
802.168	2587.3
802.499	2595.67
802.83	2564.93
803.161	2573.52
803.491	2606.29
803.822	2597.02
804.153	2544.82
804.483	2530.13
804.814	2532.62
805.145	2581.2
805.475	2583.92
805.805	2555.89
806.136	2561.99
806.466	2524.03
806.796	2513.18
807.126	2518.83
807.457	2483.35
807.787	2482.67
808.117	2499.4
808.447	2448.1
808.777	2471.6
809.107	2479.96
809.436	2455.56
809.766	2454.88
810.096	2430.7
810.426	2435.9
810.755	2431.38
811.085	2449.23
811.414	2454.88
811.744	2430.02
812.073	2426.41
812.403	2430.47
812.732	2432.96
813.061	2428.66
813.39	2439.51
813.719	2409.23
814.049	2414.2
814.378	2415.11
814.707	2368.78
815.036	2417.37
815.365	2384.15
815.693	2354.77
816.022	2352.28
816.351	2353.41
816.68	2358.16
817.008	2335.79
817.337	2311.38
817.665	2287.65
817.994	2355.22
818.322	2331.72
818.651	2296.92
818.979	2306.41
819.307	2288.1
819.636	2284.71
819.964	2281.32
820.292	2324.03
820.62	2335.33
820.948	2319.74
821.276	2305.5
821.604	2296.47
821.932	2295.79
822.259	2292.85
822.587	2285.84
822.915	2285.17
823.243	2300.98
823.57	2292.4
823.898	2314.77
824.225	2313.41
824.553	2316.8
824.88	2329.46
825.207	2282.91
825.535	2278.84
825.862	2257.82
826.189	2278.84
826.516	2257.37
826.843	2273.41
827.17	2290.82
827.497	2283.13
827.824	2276.58
828.151	2314.54
828.478	2238.61
828.805	2305.5
829.131	2284.26
829.458	2299.63
829.785	2280.42
830.111	2266.41
830.438	2292.4
830.764	2287.2
831.09	2315.22
831.417	2274.09
831.743	2271.61
832.069	2301.66
832.395	2272.74
832.722	2275.67
833.048	2254.66
833.374	2261.66
833.7	2241.55
834.026	2242.46
834.351	2279.52
834.677	2230.93
835.003	2251.72
835.329	2237.03
835.654	2207.65
835.98	2242.68
836.306	2276.13
836.631	2239.97
836.956	2245.17
837.282	2258.27
837.607	2224.15
837.932	2244.49
838.258	2229.12
838.583	2230.25
838.908	2252.4
839.233	2266.18
839.558	2220.08
839.883	2220.99
840.208	2250.36
840.533	2227.99
840.858	2213.98
841.182	2230.03
841.507	2205.85
841.832	2207.65
842.156	2165.62
842.481	2160.88
842.805	2189.58
843.13	2166.75
843.454	2173.3
843.778	2165.17
844.103	2176.47
844.427	2186.86
844.751	2173.08
845.075	2135.79
845.399	2144.38
845.723	2156.13
846.047	2137.6
846.371	2166.3
846.695	2154.77
847.019	2130.37
847.343	2121.1
847.666	2111.84
847.99	2117.26
848.313	2141.89
848.637	2130.59
848.96	2109.35
849.284	2104.61
849.607	2050.37
849.931	2084.49
850.254	2072.06
850.577	2051.73
850.9	2010.37
851.223	2043.14
851.546	1983.25
851.869	1978.06
852.192	1999.98
852.515	1974.21
852.838	2014.21
853.161	1993.2
853.483	1972.18
853.806	1954.78
854.129	1967.89
854.451	1983.25
854.774	1971.95
855.096	1962.91
855.419	1969.69
855.741	1971.28
856.063	1967.66
856.385	1969.02
856.708	1970.37
857.03	1937.6
857.352	1965.17
857.674	1949.36
857.996	1954.78
858.318	1932.18
858.64	1896.7
858.961	1927.44
859.283	1932.41
859.605	1911.39
859.926	1891.05
860.248	1868
860.57	1851.5
860.891	1857.38
861.212	1863.93
861.534	1863.26
861.855	1863.93
862.176	1877.04
862.498	1856.7
862.819	1884.5
863.14	1886.31
863.461	1849.7
863.782	1877.04
864.103	1844.27
864.424	1851.5
864.745	1858.74
865.065	1841.34
865.386	1853.09
865.707	1843.37
866.027	1873.65
866.348	1826.19
866.668	1847.44
866.989	1850.15
867.309	1843.37
867.63	1812.18
867.95	1812.18
868.27	1816.93
868.59	1806.53
868.91	1806.31
869.23	1776.7
869.55	1790.04
869.87	1785.07
870.19	1787.78
870.51	1796.37
870.83	1796.37
871.15	1790.72
871.469	1786.2
871.789	1793.2
872.109	1772.86
872.428	1769.7
872.748	1811.51
873.067	1813.09
873.386	1786.87
873.706	1772.19
874.025	1788.46
874.344	1800.21
874.663	1833.2
874.982	1785.74
875.301	1781.45
875.62	1785.52
875.939	1751.39
876.258	1764.05
876.577	1785.52
876.896	1795.69
877.214	1757.95
877.533	1751.39
877.852	1730.6
878.17	1750.26
878.489	1729.47
878.807	1730.15
879.125	1721.34
879.444	1714.11
879.762	1737.16
880.08	1723.37
880.398	1728.34
880.716	1719.76
881.034	1721.34
881.352	1689.7
881.67	1736.03
881.988	1712.53
882.306	1680.21
882.624	1681.57
882.941	1703.03
883.259	1720.43
883.577	1718.4
883.894	1714.33
884.212	1690.61
884.529	1733.99
884.846	1726.08
885.164	1696.25
885.481	1724.05
885.798	1694.45
886.115	1678.18
886.432	1682.24
886.75	1678.85
887.067	1673.88
887.383	1655.8
887.7	1644.96
888.017	1644.5
888.334	1625.07
888.651	1648.8
888.967	1614.22
889.284	1625.75
889.6	1606.99
889.917	1611.29
890.233	1621.23
890.55	1621.45
890.866	1597.73
891.182	1581.91
891.498	1598.86
891.815	1599.53
892.131	1601.12
892.447	1609.48
892.763	1614
893.079	1572.42
893.395	1589.36
893.71	1604.73
894.026	1604.73
894.342	1582.59
894.657	1610.38
894.973	1585.07
895.289	1583.26
895.604	1592.53
895.92	1581
896.235	1559.08
896.55	1545.52
896.865	1553.21
897.181	1539.87
897.496	1545.75
897.811	1536.71
898.126	1526.32
898.441	1520.44
898.756	1503.27
899.071	1509.37
899.386	1519.31
899.7	1512.3
900.015	1472.31
900.33	1487.22
900.644	1484.96
900.959	1491.74
901.273	1483.83
901.588	1470.05
901.902	1484.96
902.216	1461.91
902.531	1485.86
902.845	1493.77
903.159	1479.54
903.473	1476.6
903.787	1454.23
904.101	1477.28
904.415	1443.83
904.729	1469.14
905.042	1439.54
905.356	1454.91
905.67	1438.18
905.984	1471.4
906.297	1435.24
906.611	1435.02
906.924	1430.95
907.237	1418.3
907.551	1388.24
907.864	1405.64
908.177	1423.49
908.491	1350.05
908.804	1374.91
909.117	1347.11
909.43	1356.83
909.743	1372.87
910.056	1363.61
910.368	1329.94
910.681	1363.83
910.994	1336.04
911.307	1353.89
911.619	1345.98
911.932	1346.66
912.244	1349.37
912.557	1312.76
912.869	1360.22
913.181	1340.33
913.494	1310.73
913.806	1325.42
914.118	1318.64
914.43	1329.94
914.742	1342.82
915.054	1311.86
915.366	1321.35
915.678	1317.06
915.99	1319.77
916.302	1308.47
916.613	1292.42
916.925	1266.21
917.236	1267.57
917.548	1239.77
917.859	1269.6
918.171	1261.92
918.482	1257.62
918.794	1240.9
919.105	1259.66
919.416	1250.84
919.727	1225.31
920.038	1252.42
920.349	1220.11
920.66	1202.26
920.971	1230.28
921.282	1205.65
921.593	1194.35
921.903	1232.54
922.214	1212.65
922.525	1204.97
922.835	1202.93
923.146	1201.58
923.456	1188.02
923.767	1211.97
924.077	1202.03
924.387	1197.51
924.697	1175.36
925.008	1205.65
925.318	1197.06
925.628	1168.13
925.938	1174.69
926.248	1192.77
926.558	1162.26
926.867	1173.78
927.177	1171.52
927.487	1152.09
927.796	1139.89
928.106	1121.35
928.416	1138.3
928.725	1115.93
929.034	1116.61
929.344	1101.69
929.653	1132.43
929.962	1106.21
930.271	1065.99
930.581	1072.99
930.89	1074.35
931.199	1092.88
931.508	1101.92
931.817	1097.85
932.125	1071.64
932.434	1075.71
932.743	1102.6
933.051	1069.6
933.36	1075.71
933.669	1062.6
933.977	1077.51
934.286	1064.18
934.594	1052.66
934.902	1078.87
935.21	1047.01
935.519	1054.92
935.827	1050.62
936.135	1079.77
936.443	1050.62
936.751	1042.26
937.059	1020.57
937.367	1049.72
937.674	1009.95
937.982	1033.45
938.29	1011.08
938.597	1039.1
938.905	1022.37
939.213	1010.62
939.52	1021.7
939.827	985.09
940.135	991.64
940.442	982.83
940.749	1001.81
941.056	1009.95
941.363	987.12
941.67	969.95
941.977	980.79
942.284	968.14
942.591	985.54
942.898	962.04
943.205	958.87
943.511	975.6
943.818	967.23
944.125	967.23
944.431	965.2
944.738	972.43
945.044	943.05
945.35	998.19
945.657	955.71
945.963	926.56
946.269	940.34
946.575	960.68
946.881	972.21
947.187	936.05
947.493	949.61
947.799	958.87
948.105	950.29
948.41	910.06
948.716	939.44
949.022	904.86
949.327	919.55
949.633	924.52
949.938	916.84
950.244	912.09
950.549	901.47
950.854	886.56
951.16	903.06
951.465	895.15
951.77	883.85
952.075	889.04
952.38	883.17
952.685	896.05
952.99	860.57
953.294	874.58
953.599	868.71
953.904	842.72
954.209	840.91
954.513	868.03
954.818	847.24
955.122	856.28
955.426	861.93
955.731	841.36
956.035	856.5
956.339	837.07
956.643	841.81
956.948	840.91
957.252	853.34
957.556	863.73
957.86	859.21
958.163	847.46
958.467	856.95
958.771	827.58
959.075	835.03
959.378	838.88
959.682	835.26
959.985	810.4
960.289	814.7
960.592	814.7
960.896	833.23
961.199	825.54
961.502	804.98
961.805	827.13
962.108	801.59
962.411	793.23
962.714	787.13
963.017	794.13
963.32	811.76
963.623	797.07
963.926	793.23
964.228	788.93
964.531	800.23
964.833	770.18
965.136	776.51
965.438	788.26
965.741	788.03
966.043	789.16
966.345	750.74
966.648	798.88
966.95	778.99
967.252	749.16
967.554	776.73
967.856	793.68
968.158	776.73
968.46	776.28
968.761	757.52
969.063	751.19
969.365	764.98
969.666	749.16
969.968	746.68
970.269	762.04
970.571	737.18
970.872	753.23
971.174	757.52
971.475	734.02
971.776	724.3
972.077	730.63
972.378	725.66
972.679	747.13
972.98	727.24
973.281	726.34
973.582	734.7
973.883	715.26
974.183	706.9
974.484	732.44
974.785	708.26
975.085	720.01
975.386	692.89
975.686	709.39
975.986	698.77
976.287	702.61
976.587	695.15
976.887	704.42
977.187	709.84
977.487	697.19
977.787	710.52
978.087	701.48
978.387	679.33
978.687	687.24
978.987	688.6
979.286	707.13
979.586	677.3
979.885	693.57
980.185	706.68
980.484	683.63
980.784	675.72
981.083	686.56
981.382	670.52
981.682	650.86
981.981	683.63
982.28	661.48
982.579	675.26
982.878	665.1
983.177	670.07
983.475	663.29
983.774	664.42
984.073	659.67
984.372	657.41
984.67	675.49
984.969	653.34
985.267	649.73
985.566	657.86
985.864	648.37
986.162	644.08
986.461	650.41
986.759	636.85
987.057	621.03
987.355	621.71
987.653	638.43
987.951	638.2
988.249	635.49
988.547	626.23
988.844	629.16
989.142	623.74
989.44	634.14
989.737	612.44
990.035	623.06
990.332	631.65
990.63	620.12
990.927	612.44
991.224	611.76
991.521	623.74
991.819	610.18
992.116	587.13
992.413	587.58
992.71	608.6
993.006	601.37
993.303	628.49
993.6	621.48
993.897	609.05
994.193	602.72
994.49	606.57
994.787	608.6
995.083	600.69
995.379	596.62
995.676	607.47
995.972	577.87
996.268	594.81
996.565	597.3
996.861	595.94
997.157	581.26
997.453	588.26
997.749	576.28
998.044	574.02
998.34	580.8
998.636	588.26
998.932	569.96
999.227	585.1
999.523	573.35
999.818	565.21
1000.114	544.87
1000.409	564.99
1000.704	569.05
1001	560.47
1001.295	543.74
1001.59	580.58
1001.885	571.31
1002.18	563.4
1002.475	551.65
1002.77	536.51
1003.065	560.24
1003.359	559.11
1003.654	552.78
1003.949	553.69
1004.243	542.61
1004.538	544.19
1004.832	553.46
1005.127	534.93
1005.421	549.62
1005.715	521.82
1006.009	540.13
1006.304	544.42
1006.598	530.64
1006.892	523.63
1007.186	546.23
1007.48	503.74
1007.773	526.12
1008.067	535.38
1008.361	510.3
1008.655	538.09
1008.948	533.35
1009.242	511.65
1009.535	531.09
1009.829	517.75
1010.122	518.43
1010.415	527.25
1010.708	511.88
1011.001	513.91
1011.295	518.66
1011.588	504.42
1011.881	511.2
1012.173	488.6
1012.466	501.48
1012.759	511.43
1013.052	491.09
1013.344	509.17
1013.637	508.49
1013.93	507.36
1014.222	519.11
1014.514	494.03
1014.807	499.68
1015.099	481.15
1015.391	491.09
1015.683	498.09
1015.976	505.1
1016.268	480.69
1016.56	490.86
1016.851	492.44
1017.143	517.53
1017.435	468.26
1017.727	468.72
1018.018	474.82
1018.31	458.77
1018.602	482.05
1018.893	492.9
1019.185	479.79
1019.476	477.98
1019.767	480.47
1020.058	462.61
1020.35	478.21
1020.641	470.07
1020.932	458.77
1021.223	460.13
1021.514	433.01
1021.804	452.67
1022.095	452.22
1022.386	475.5
1022.677	455.61
1022.967	475.04
1023.258	464.65
1023.548	443.18
1023.839	453.8
1024.129	440.02
1024.419	455.84
1024.709	416.74
1025	444.99
1025.29	438.43
1025.58	443.18
1025.87	434.82
1026.16	438.21
1026.449	451.09
1026.739	443.18
1027.029	435.72
1027.319	430.53
1027.608	447.02
1027.898	419.45
1028.187	412.45
1028.477	420.58
1028.766	417.64
1029.055	426.91
1029.344	441.37
1029.634	437.98
1029.923	426.01
1030.212	423.97
1030.501	444.08
1030.79	433.92
1031.078	447.47
1031.367	425.78
1031.656	418.77
1031.945	410.64
1032.233	411.09
1032.522	432.33
1032.81	421.94
1033.099	427.36
1033.387	415.61
1033.675	415.16
1033.963	411.09
1034.251	418.1
1034.54	409.06
1034.828	397.53
1035.116	412.22
1035.403	399.11
1035.691	404.99
1035.979	403.18
1036.267	380.58
1036.554	387.14
1036.842	426.91
1037.129	407.02
1037.417	409.06
1037.704	392.56
1037.992	407.93
1038.279	411.54
1038.566	386.68
1038.853	386.68
1039.14	386.68
