Data from foam_black_FLMS001491_00018.txt Node
Date: Wed Feb 08 10:43:36 GMT 2017
User: dcchb
Spectrometer: FLMS00149
Trigger mode: 0
Integration Time (sec): 2.000000E-2
Scans to average: 10
Electric dark correction enabled: true
Nonlinearity correction enabled: false
Boxcar width: 0
XAxis mode: Wavelengths
Number of Pixels in Spectrum: 2048
>>>>>Begin Spectral Data<<<<<
341.393	-19.84
341.776	-19.84
342.16	-19.84
342.543	-54.65
342.927	-57.81
343.31	-67.98
343.693	-73.63
344.077	-73.63
344.46	-65.94
344.843	-54.87
345.226	-42.89
345.61	-29.79
345.993	-1.77
346.376	-22.56
346.759	1.85
347.142	33.49
347.525	58.12
347.908	71.45
348.291	65.8
348.674	92.47
349.057	109.87
349.44	105.35
349.823	137.89
350.206	169.3
350.588	179.7
350.971	183.99
351.354	206.36
351.737	242.3
352.119	233.71
352.502	253.14
352.884	266.02
353.267	256.53
353.65	264.89
354.032	275.74
354.414	289.53
354.797	300.15
355.179	287.94
355.562	307.38
355.944	331.11
356.326	321.39
356.709	318.9
357.091	346.7
357.473	324.55
357.855	345.12
358.238	328.4
358.62	307.6
359.002	334.27
359.384	329.53
359.766	329.53
360.148	315.74
360.53	317.32
360.912	330.2
361.294	315.29
361.676	318.9
362.057	318.23
362.439	338.79
362.821	318.68
363.203	329.98
363.584	316.42
363.966	321.62
364.348	303.99
364.729	317.32
365.111	316.64
365.493	308.06
365.874	308.28
366.256	304.22
366.637	318.9
367.019	320.26
367.4	308.28
367.781	285.91
368.163	318.45
368.544	311.45
368.925	297.44
369.306	315.74
369.688	287.94
370.069	305.8
370.45	313.48
370.831	331.79
371.212	316.64
371.593	307.38
371.974	318.9
372.355	325.23
372.736	322.07
373.117	356.64
373.498	314.16
373.879	312.8
374.26	316.87
374.641	311.22
375.021	310.99
375.402	318.45
375.783	335.85
376.163	327.27
376.544	345.8
376.925	327.72
377.305	334.72
377.686	315.97
378.066	327.72
378.447	337.89
378.827	322.75
379.208	343.54
379.588	328.62
379.968	338.79
380.349	350.99
380.729	338.56
381.109	327.94
381.489	351.45
381.87	330.2
382.25	354.16
382.63	349.41
383.01	350.09
383.39	364.78
383.77	350.54
384.15	354.61
384.53	348.96
384.91	381.73
385.29	373.37
385.67	357.77
386.049	371.11
386.429	368.85
386.809	369.75
387.189	380.15
387.568	344.44
387.948	377.21
388.328	403.87
388.707	389.41
389.087	394.16
389.466	384.21
389.846	375.17
390.225	367.72
390.605	395.51
390.984	372.69
391.363	381.95
391.743	379.92
392.122	375.85
392.501	390.09
392.881	393.7
393.26	396.87
393.639	395.29
394.018	393.03
394.397	398.9
394.776	421.27
395.155	416.08
395.534	412.69
395.913	417.21
396.292	428.73
396.671	431.44
397.05	431.9
397.429	413.36
397.808	433.25
398.186	411.56
398.565	431.9
398.944	415.4
399.323	420.6
399.701	426.47
400.08	433.25
400.458	433.93
400.837	442.06
401.215	450.88
401.594	460.37
401.972	442.74
402.351	443.65
402.729	448.17
403.107	450.43
403.486	450.65
403.864	453.14
404.242	480.93
404.62	475.51
404.999	464.89
405.377	465.79
405.755	470.09
406.133	494.49
406.511	477.77
406.889	480.93
407.267	482.97
407.645	521.16
408.023	502.63
408.401	487.94
408.779	497.88
409.156	497.43
409.534	524.32
409.912	534.49
410.29	537.66
410.667	539.69
411.045	547.37
411.422	555.06
411.8	526.81
412.178	549.18
412.555	559.8
412.933	554.6
413.31	546.47
413.687	547.15
414.065	571.33
414.442	572.91
414.819	565.23
415.197	569.52
415.574	570.2
415.951	586.69
416.328	604.77
416.705	583.53
417.082	617.65
417.46	608.16
417.837	611.33
418.214	635.05
418.591	602.51
418.967	619.69
419.344	615.39
419.721	602.29
420.098	613.13
420.475	631.44
420.852	619.91
421.228	634.83
421.605	652.23
421.982	649.97
422.358	657.65
422.735	647.03
423.111	638.22
423.488	676.18
423.864	665.34
424.241	680.93
424.617	697.43
424.994	681.38
425.37	699.01
425.746	687.71
426.123	701.72
426.499	699.46
426.875	706.24
427.251	716.63
427.627	704.88
428.003	730.19
428.379	744.2
428.756	748.27
429.132	760.7
429.507	773.81
429.883	770.19
430.259	774.94
430.635	762.73
431.011	779
431.387	806.8
431.763	797.31
432.138	824.65
432.514	800.7
432.89	833.92
433.265	824.2
433.641	841.15
434.016	841.38
434.392	842.96
434.767	862.39
435.143	854.26
435.518	875.5
435.894	878.21
436.269	875.95
436.644	901.71
437.02	907.59
437.395	899.23
437.77	915.05
438.145	923.63
438.52	934.48
438.895	957.53
439.271	946.68
439.646	960.7
440.021	982.84
440.395	967.25
440.77	966.57
441.145	960.92
441.52	985.78
441.895	995.04
442.27	997.76
442.645	1005.89
443.019	995.72
443.394	983.29
443.769	1004.76
444.143	1017.87
444.518	1044.99
444.892	1029.17
445.267	1017.42
445.641	1035.72
446.016	1042.5
446.39	1052.44
446.764	1057.64
447.139	1058.09
447.513	1050.86
447.887	1045.89
448.262	1083.4
448.636	1065.55
449.01	1075.72
449.384	1083.63
449.758	1114.14
450.132	1115.49
450.506	1136.51
450.88	1126.11
451.254	1143.29
451.628	1114.59
452.002	1142.84
452.376	1170.63
452.75	1210.18
453.123	1164.76
453.497	1205.89
453.871	1213.8
454.244	1222.84
454.618	1219.22
454.992	1242.27
455.365	1283.4
455.739	1271.65
456.112	1273.68
456.486	1287.69
456.859	1295.15
457.232	1320.69
457.606	1322.72
457.979	1336.73
458.352	1367.69
458.725	1364.98
459.099	1380.12
459.472	1407.69
459.845	1397.29
460.218	1424.64
460.591	1402.72
460.964	1421.7
461.337	1449.72
461.71	1493.34
462.083	1524.97
462.456	1512.54
462.829	1482.72
463.201	1555.26
463.574	1516.39
463.947	1569.27
464.32	1568.59
464.692	1593.9
465.065	1598.19
465.438	1610.4
465.81	1670.73
466.183	1649.72
466.555	1681.81
466.928	1727.23
467.3	1703.5
467.672	1733.1
468.045	1772.88
468.417	1781.01
468.789	1771.75
469.161	1821.92
469.534	1835.25
469.906	1847.45
470.278	1872.31
470.65	1895.13
471.022	1927.45
471.394	1952.99
471.766	1997.96
472.138	1977.62
472.51	1996.15
472.882	2027.79
473.253	2061.01
473.625	2095.13
473.997	2127.9
474.369	2156.82
474.74	2191.62
475.112	2192.98
475.484	2208.8
475.855	2251.96
476.227	2301
476.598	2331.96
476.97	2343.26
477.341	2386.65
477.713	2434.33
478.084	2486.53
478.455	2529.02
478.827	2521.78
479.198	2570.37
479.569	2625.28
479.94	2640.2
480.311	2661.67
480.682	2737.82
481.053	2798.61
481.424	2840.87
481.795	2841.1
482.166	2898.27
482.537	2922.45
482.908	2975.56
483.279	2975.33
483.65	3055.33
484.021	3132.39
484.391	3120.86
484.762	3183.01
485.133	3206.74
485.503	3197.47
485.874	3321.76
486.244	3274.08
486.615	3406.51
486.985	3412.16
487.356	3442.89
487.726	3498.26
488.097	3587.74
488.467	3533.06
488.837	3651.47
489.207	3692.37
489.578	3697.35
489.948	3737.57
490.318	3809.43
490.688	3818.02
491.058	3923.33
491.428	3931.46
491.798	3980.05
492.168	4056.43
492.538	4047.39
492.908	4138.92
493.278	4113.61
493.648	4150.67
494.017	4199.25
494.387	4222.76
494.757	4302.53
495.126	4335.3
495.496	4349.98
495.866	4375.97
496.235	4423.65
496.605	4439.02
496.974	4455.07
497.344	4508.17
497.713	4555.18
498.082	4578.68
498.452	4620.49
498.821	4617.77
499.19	4662.97
499.559	4734.38
499.928	4707.04
500.298	4764.44
500.667	4845.34
501.036	4783.87
501.405	4859.35
501.774	4870.2
502.143	4865.68
502.512	4935.28
502.88	4937.77
503.249	4941.38
503.618	4971.89
503.987	5020.7
504.356	5055.95
504.724	5116.29
505.093	5067.93
505.462	5176.86
505.83	5161.94
506.199	5208.72
506.567	5290.07
506.936	5283.75
507.304	5384.53
507.672	5364.42
508.041	5444.64
508.409	5471.31
508.777	5535.04
509.145	5578.2
509.514	5547.47
509.882	5644.64
510.25	5587.24
510.618	5662.27
510.986	5715.37
511.354	5721.25
511.722	5749.04
512.09	5776.39
512.458	5798.53
512.826	5839.21
513.193	5893.9
513.561	5899.32
513.929	5915.82
514.297	5976.61
514.664	6037.62
515.032	6048.47
515.4	6127.79
515.767	6114.01
516.135	6209.14
516.502	6198.75
516.869	6283.04
517.237	6325.98
517.604	6375.24
517.972	6354.9
518.339	6514.22
518.706	6528.68
519.073	6557.38
519.44	6614.78
519.808	6664.73
520.175	6693.65
520.542	6779.98
520.909	6805.51
521.276	6843.7
521.643	6941.33
522.009	6990.37
522.376	6980.2
522.743	7045.73
523.11	7069.01
523.477	7117.37
523.843	7172.28
524.21	7189.68
524.577	7275.78
524.943	7299.29
525.31	7364.14
525.676	7399.85
526.043	7388.32
526.409	7518.71
526.776	7591.48
527.142	7603.91
527.508	7671.93
527.874	7764.36
528.241	7917.35
528.607	7878.03
528.973	7900.17
529.339	7995.76
529.705	8080.73
530.071	8169.77
530.437	8114.18
530.803	8260.16
531.169	8306.26
531.535	8297.9
531.901	8360.5
532.267	8362.76
532.632	8444.79
532.998	8571.57
533.364	8558.91
533.73	8507.62
534.095	8637.1
534.461	8540.83
534.826	8633.04
535.192	8615.86
535.557	8719.81
535.923	8653.6
536.288	8704.22
536.653	8704.45
537.019	8715.52
537.384	8841.17
537.749	8858.34
538.114	8902.18
538.479	8861.73
538.845	9018.56
539.21	9005.91
539.575	9082.52
539.94	9121.16
540.305	9240.93
540.67	9253.13
541.034	9288.39
541.399	9293.81
541.764	9339.01
542.129	9390.98
542.494	9508.49
542.858	9432.79
543.223	9486.35
543.587	9580.36
543.952	9530.41
544.316	9614.03
544.681	9559.11
545.045	9552.33
545.41	9624.65
545.774	9587.36
546.138	9666.23
546.503	9684.08
546.867	9676.85
547.231	9728.37
547.595	9815.15
547.959	9836.62
548.324	9799.11
548.688	9862.16
549.052	9924.3
549.416	9887.69
549.779	9968.59
550.143	10034.13
550.507	10108.7
550.871	10180.79
551.235	10173.33
551.599	10319.77
551.962	10303.05
552.326	10376.49
552.689	10420.11
553.053	10512.53
553.417	10497.62
553.78	10584.85
554.143	10576.94
554.507	10649.93
554.87	10590.5
555.234	10799.08
555.597	10715.69
555.96	10734
556.323	10790.49
556.686	10849.47
557.05	10890.6
557.413	10912.3
557.776	11006.98
558.139	10944.84
558.502	11028
558.865	11049.47
559.228	11139.64
559.59	11161.33
559.953	11151.16
560.316	11301.21
560.679	11360.65
561.041	11521.77
561.404	11520.19
561.767	11593.18
562.129	11586.4
562.492	11653.52
562.854	11718.83
563.217	11706.18
563.579	11769.9
563.941	11934.42
564.304	11983
564.666	12041.31
565.028	12074.53
565.39	12111.59
565.753	12203.79
566.115	12271.36
566.477	12355.42
566.839	12377.57
567.201	12495.98
567.563	12432.26
567.925	12579.15
568.287	12539.6
568.648	12539.83
569.01	12619.37
569.372	12723.55
569.734	12693.27
570.095	12741.85
570.457	12819.14
570.819	12903.66
571.18	12885.13
571.542	12941.85
571.903	12979.14
572.265	13028.17
572.626	13047.61
572.987	13163.99
573.349	13133.48
573.71	13222.52
574.071	13274.95
574.432	13303.42
574.794	13405.11
575.155	13330.77
575.516	13399.01
575.877	13401.27
576.238	13420.03
576.599	13526.01
576.96	13514.72
577.32	13554.94
577.681	13574.6
578.042	13613.7
578.403	13659.12
578.763	13647.82
579.124	13672.9
579.485	13853.92
579.845	13799
580.206	13785.67
580.566	13784.09
580.927	13845.1
581.287	13883.07
581.648	13898.89
582.008	13937.98
582.368	13909.73
582.728	14001.93
583.089	13998.54
583.449	13918.55
583.809	13970.52
584.169	14044.19
584.529	13991.09
584.889	14086
585.249	13960.58
585.609	13941.6
585.969	13980.24
586.329	13892.33
586.688	13989.73
587.048	13872.22
587.408	13925.1
587.768	13965.1
588.127	13908.15
588.487	13867.93
588.846	13996.06
589.206	13935.72
589.565	13866.8
589.925	14027.47
590.284	13903.86
590.643	13984.31
591.003	14040.8
591.362	14076.28
591.721	14029.28
592.08	14039.9
592.44	14106.11
592.799	14162.16
593.158	14116.73
593.517	14119.22
593.876	14210.74
594.235	14211.19
594.593	14271.08
594.952	14288.03
595.311	14258.42
595.67	14279.21
596.029	14306.78
596.387	14349.27
596.746	14413.9
597.104	14384.3
597.463	14374.58
597.822	14422.04
598.18	14377.74
598.538	14400.12
598.897	14427.01
599.255	14323.96
599.613	14467.23
599.972	14350.4
600.33	14407.35
600.688	14376.16
601.046	14380.23
601.404	14377.52
601.762	14411.64
602.12	14366.22
602.478	14392.88
602.836	14369.83
603.194	14247.13
603.552	14358.08
603.91	14346.11
604.268	14285.77
604.625	14349.95
604.983	14445.99
605.341	14299.33
605.698	14398.76
606.056	14449.61
606.413	14514.69
606.771	14517.17
607.128	14546.55
607.485	14446.44
607.843	14597.4
608.2	14582.48
608.557	14707.68
608.914	14730.05
609.272	14819.99
609.629	14874.91
609.986	14920.78
610.343	14844.85
610.7	14935.47
611.057	14935.92
611.414	14952.42
611.771	14922.81
612.127	15055.69
612.484	14916.71
612.841	15036.03
613.198	14995.35
613.554	14943.38
613.911	14954.68
614.267	14994.68
614.624	14972.76
614.98	14982.93
615.337	15010.27
615.693	15003.26
616.05	15000.55
616.406	15075.8
616.762	14927.33
617.118	14975.69
617.475	14909.03
617.831	14984.06
618.187	15016.6
618.543	15000.33
618.899	15110.38
619.255	15059.99
619.611	15046.43
619.967	15133.2
620.323	15104.73
620.678	15154.22
621.034	15070.61
621.39	15164.39
621.746	15078.06
622.101	15332.75
622.457	15192.41
622.812	15336.81
623.168	15398.28
623.523	15377.94
623.879	15420.2
624.234	15336.59
624.589	15373.2
624.945	15466.3
625.3	15436.92
625.655	15484.61
626.01	15379.75
626.365	15570.25
626.72	15472.86
627.075	15459.97
627.43	15425.63
627.785	15342.24
628.14	15445.51
628.495	15448.9
628.85	15406.87
629.205	15350.15
629.559	15373.88
629.914	15306.31
630.269	15261.11
630.623	15155.12
630.978	15166.2
631.332	15240.55
631.687	15145.63
632.041	14984.73
632.396	15141.57
632.75	15037.39
633.104	15057.73
633.459	14944.51
633.813	14954.45
634.167	14937.5
634.521	14989.93
634.875	14994.68
635.229	14942.93
635.583	14883.27
635.937	14952.87
636.291	14856.37
636.645	14837.17
636.999	14962.81
637.352	14889.59
637.706	14855.02
638.06	14839.88
638.413	14802.37
638.767	14758.07
639.121	14786.77
639.474	14778.41
639.828	14690.96
640.181	14827.22
640.534	14745.19
640.888	14766.43
641.241	14796.94
641.594	14762.82
641.947	14848.01
642.301	14763.72
642.654	14744.97
643.007	14805.53
643.36	14689.37
643.713	14717.17
644.066	14817.96
644.419	14666.32
644.771	14553.78
645.124	14370.06
645.477	14365.99
645.83	14252.32
646.182	14164.19
646.535	14217.75
646.888	14370.96
647.24	14300.23
647.593	14262.94
647.945	14275.15
648.298	14214.58
648.65	14256.84
649.002	14138.43
649.355	14211.19
649.707	14055.49
650.059	14151.76
650.411	14208.26
650.763	14325.99
651.115	14376.84
651.467	14381.81
651.819	14360.12
652.171	14317.41
652.523	14347.46
652.875	14197.18
653.227	14236.28
653.578	14278.09
653.93	14252.1
654.282	14145.66
654.633	14152.66
654.985	14138.88
655.337	14119.45
655.688	14088.26
656.039	14214.58
656.391	14093.91
656.742	14072.67
657.094	14085.77
657.445	14093.01
657.796	14148.6
658.147	14140.01
658.498	14026.57
658.849	14133
659.2	14147.02
659.551	14122.83
659.902	14126.45
660.253	14111.76
660.604	14202.38
660.955	13945.66
661.306	14168.94
661.656	14140.46
662.007	14186.56
662.358	14212.78
662.708	14141.37
663.059	14132.1
663.409	14065.89
663.76	14233.57
664.11	14149.05
664.461	14136.39
664.811	14191.31
665.161	14151.08
665.511	14161.93
665.862	14150.18
666.212	14150.63
666.562	14176.17
666.912	14224.08
667.262	14132.55
667.612	14149.05
667.962	14041.26
668.312	14010.97
668.662	14117.19
669.011	14045.55
669.361	13988.83
669.711	13975.27
670.06	13928.72
670.41	13856.85
670.76	13812.79
671.109	13850.98
671.459	13869.06
671.808	13859.79
672.157	13855.05
672.507	13771.21
672.856	13775.27
673.205	13840.36
673.554	13810.3
673.904	13758.32
674.253	13764.43
674.602	13801.04
674.951	13491.21
675.3	13473.59
675.649	13718.33
675.998	13653.92
676.346	13688.5
676.695	13699.34
677.044	13516.07
677.393	13763.3
677.741	13703.41
678.09	13663.41
678.438	13637.88
678.787	13720.81
679.135	13710.42
679.484	13699.12
679.832	13737.08
680.181	13638.78
680.529	13660.25
680.877	13607.59
681.225	13582.28
681.573	13733.69
681.922	13652.56
682.27	13622.51
682.618	13535.51
682.966	13547.03
683.314	13634.49
683.661	13606.92
684.009	13507.26
684.357	13495.28
684.705	13395.85
685.053	13456.64
685.4	13446.47
685.748	13387.71
686.095	13349.52
686.443	13397.43
686.79	13300.94
687.138	13271.33
687.485	13242.18
687.832	13240.6
688.18	13202.86
688.527	13080.15
688.874	13031.11
689.221	13036.31
689.568	12955.86
689.915	12943.88
690.262	13004.67
690.609	12980.72
690.956	12803.55
691.303	12717.45
691.65	12750.89
691.997	12751.35
692.344	12702.99
692.69	12814.17
693.037	12722.87
693.383	12591.35
693.73	12646.04
694.077	12582.08
694.423	12554.74
694.769	12572.82
695.116	12536.89
695.462	12550.45
695.808	12440.17
696.155	12529.2
696.501	12391.81
696.847	12364.24
697.193	12340.06
697.539	12448.08
697.885	12288.08
698.231	12241.53
698.577	12260.28
698.923	12249.44
699.269	12253.51
699.614	12216.9
699.96	12147.07
700.306	12219.83
700.651	12150.23
700.997	12070.69
701.342	12070.23
701.688	12015.77
702.033	11931.93
702.379	11876.79
702.724	11944.59
703.069	12020.29
703.415	11735.55
703.76	11816.23
704.105	11730.81
704.45	11756.57
704.795	11674.09
705.14	11645.61
705.485	11648.78
705.83	11540.98
706.175	11552.96
706.52	11475.67
706.865	11418.73
707.209	11415.34
707.554	11374.43
707.899	11442.68
708.243	11354.55
708.588	11357.94
708.932	11308.67
709.277	11304.83
709.621	11298.73
709.966	11249.01
710.31	11216.24
710.654	11115.46
710.998	11176.02
711.342	11184.83
711.687	11159.3
712.031	11102.35
712.375	10997.04
712.719	11043.14
713.063	11143.03
713.407	11059.86
713.75	11074.1
714.094	10974.22
714.438	10996.14
714.782	10925.18
715.125	10874.33
715.469	11037.49
715.812	10915.24
716.156	10884.05
716.499	10973.09
716.843	10915.01
717.186	10805.18
717.53	10879.3
717.873	10877.04
718.216	10890.83
718.559	10898.06
718.902	10812.19
719.246	10745.97
719.589	10744.17
719.932	10691.96
720.275	10710.72
720.617	10749.14
720.96	10645.64
721.303	10701.46
721.646	10713.66
721.989	10547.56
722.331	10641.8
722.674	10624.4
723.016	10594.34
723.359	10510.95
723.701	10603.83
724.044	10512.99
724.386	10446.1
724.729	10527.9
725.071	10399.54
725.413	10433.21
725.755	10352.99
726.097	10299.21
726.439	10270.28
726.782	10250.39
727.124	10361.13
727.465	10207.68
727.807	10240.23
728.149	10156.16
728.491	10119.32
728.833	10175.37
729.175	10211.98
729.516	10192.32
729.858	10134.47
730.199	10166.78
730.541	10161.36
730.882	10141.92
731.224	10073.68
731.565	9976.73
731.906	10040.68
732.248	10080.23
732.589	10086.56
732.93	10067.35
733.271	10030.06
733.612	9992.1
733.953	10035.71
734.294	10050.4
734.635	9977.63
734.976	9994.13
735.317	9910.97
735.658	10001.81
735.999	9934.47
736.339	9941.7
736.68	9954.36
737.021	9890.18
737.361	9863.51
737.702	9924.75
738.042	9936.73
738.383	9880.23
738.723	9884.53
739.063	9895.6
739.404	9952.32
739.744	9914.13
740.084	9862.83
740.424	9822.61
740.764	9834.36
741.104	9820.8
741.444	9710.52
741.784	9687.92
742.124	9717.75
742.464	9755.27
742.804	9722.5
743.143	9689.05
743.483	9719.11
743.823	9635.5
744.162	9583.07
744.502	9692.44
744.841	9590.3
745.181	9666.91
745.52	9541.94
745.86	9554.14
746.199	9590.3
746.538	9563.18
746.877	9544.42
747.216	9529.96
747.556	9479.34
747.895	9475.5
748.234	9434.14
748.573	9403.64
748.911	9352.56
749.25	9456.97
749.589	9317.76
749.928	9388.72
750.267	9405.67
750.605	9356.86
750.944	9306.92
751.283	9297.65
751.621	9328.84
751.96	9266.24
752.298	9303.3
752.636	9256.97
752.975	9257.65
753.313	9169.97
753.651	9225.34
753.989	9155.51
754.327	9125.45
754.666	9043.65
755.004	9052.69
755.342	9013.82
755.679	9061.5
756.017	9001.61
756.355	8997.77
756.693	8979.47
757.031	8894.72
757.368	8913.25
757.706	8918.9
758.044	8948.28
758.381	8923.2
758.719	8841.84
759.056	8830.54
759.394	8720.27
759.731	8732.24
760.068	8754.61
760.405	8657.89
760.743	8666.93
761.08	8728.85
761.417	8665.13
761.754	8661.28
762.091	8672.81
762.428	8616.99
762.765	8611.79
763.102	8562.3
763.438	8593.26
763.775	8459.25
764.112	8452.48
764.449	8504.45
764.785	8455.41
765.122	8358.69
765.458	8326.83
765.795	8393.95
766.131	8341.74
766.467	8362.53
766.804	8347.39
767.14	8254.97
767.476	8301.74
767.812	8234.4
768.148	8243.22
768.485	8193.27
768.821	8150.34
769.157	8161.41
769.492	8096.1
769.828	8105.82
770.164	8024.01
770.5	8053.84
770.836	7993.73
771.171	7964.35
771.507	7935.65
771.842	7902.43
772.178	7876.67
772.513	7943.11
772.849	7835.77
773.184	7840.74
773.519	7856.78
773.855	7769.33
774.19	7789.67
774.525	7718.71
774.86	7704.47
775.195	7627.41
775.53	7636
775.865	7672.16
776.2	7577.24
776.535	7547.41
776.87	7525.72
777.205	7474.87
777.539	7468.32
777.874	7480.3
778.209	7370.24
778.543	7328.66
778.878	7320.3
779.212	7277.14
779.547	7260.87
779.881	7222.23
780.215	7209.57
780.55	7241.21
780.884	7165.05
781.218	7184.49
781.552	7085.51
781.886	7045.05
782.22	7033.3
782.554	7060.65
782.888	7051.61
783.222	6923.93
783.556	6909.69
783.889	6869.92
784.223	6893.87
784.557	6843.48
784.89	6877.15
785.224	6864.27
785.557	6781.56
785.891	6739.3
786.224	6802.12
786.558	6753.76
786.891	6746.53
787.224	6732.97
787.557	6675.8
787.891	6641.45
788.224	6643.26
788.557	6744.5
788.89	6659.08
789.223	6674.9
789.556	6607.1
789.888	6588.34
790.221	6542.92
790.554	6512.87
790.887	6507.44
791.219	6550.38
791.552	6503.6
791.884	6489.14
792.217	6439.65
792.549	6484.62
792.882	6441.91
793.214	6404.85
793.546	6404.62
793.879	6385.19
794.211	6357.39
794.543	6348.8
794.875	6334.11
795.207	6321.91
795.539	6313.77
795.871	6271.52
796.203	6208.69
796.535	6184.74
796.867	6236.26
797.198	6231.06
797.53	6212.31
797.862	6148.81
798.193	6160.78
798.525	6098.19
798.856	6175.02
799.188	6041.69
799.519	5983.61
799.85	6002.14
800.182	6008.25
800.513	5968.25
800.844	5952.88
801.175	5908.81
801.506	5956.5
801.837	5897.51
802.168	5876.95
802.499	5893.9
802.83	5856.84
803.161	5875.37
803.491	5810.29
803.822	5853.67
804.153	5779.78
804.483	5723.06
804.814	5730.97
805.145	5645.32
805.475	5729.38
805.805	5631.76
806.136	5674.02
806.466	5677.86
806.796	5653.91
807.126	5587.01
807.457	5567.81
807.787	5603.51
808.117	5622.49
808.447	5524.87
808.777	5553.79
809.107	5476.73
809.436	5530.97
809.766	5464.08
810.096	5449.39
810.426	5446.9
810.755	5521.71
811.085	5441.71
811.414	5414.36
811.744	5433.12
812.073	5411.2
812.403	5445.55
812.732	5401.03
813.061	5386.79
813.39	5344.76
813.719	5326.46
814.049	5357.64
814.378	5376.4
814.707	5324.87
815.036	5342.05
815.365	5290.52
815.693	5273.58
816.022	5272.67
816.351	5301.82
816.68	5240.36
817.008	5308.15
817.337	5243.52
817.665	5250.98
817.994	5239.45
818.322	5233.35
818.651	5210.3
818.979	5235.16
819.307	5208.72
819.636	5222.5
819.964	5195.84
820.292	5201.71
820.62	5188.61
820.948	5190.41
821.276	5192
821.604	5146.57
821.932	5203.75
822.259	5154.94
822.587	5145.22
822.915	5153.13
823.243	5187.02
823.57	5135.73
823.898	5200.58
824.225	5147.25
824.553	5123.52
824.88	5127.82
825.207	5092.79
825.535	5116.97
825.862	5108.16
826.189	5129.17
826.516	5077.2
826.843	5059.34
827.17	5099.12
827.497	5069.06
827.824	5082.85
828.151	5101.38
828.478	5129.17
828.805	5138.44
829.131	5071.77
829.458	5090.53
829.785	5079.23
830.111	5090.98
830.438	5073.81
830.764	5072.45
831.09	5062.06
831.417	5104.99
831.743	5112.68
832.069	5053.02
832.395	5032.45
832.722	5093.47
833.048	5018.44
833.374	5050.08
833.7	5036.29
834.026	5099.12
834.351	5002.62
834.677	5002.85
835.003	5047.59
835.329	5007.37
835.654	5017.76
835.98	4989.29
836.306	5002.62
836.631	5008.95
836.956	4975.28
837.282	5032.45
837.607	4952.68
837.932	4981.61
838.258	4991.55
838.583	4939.12
838.908	4902.06
839.233	4944.55
839.558	4893.7
839.883	4917.2
840.208	4895.96
840.533	4906.13
840.858	4902.29
841.182	4857.54
841.507	4857.77
841.832	4874.49
842.156	4892.12
842.481	4836.75
842.805	4849.18
843.13	4877.65
843.454	4832.68
843.778	4780.71
844.103	4794.94
844.427	4785.45
844.751	4791.55
845.075	4756.98
845.399	4731.9
845.723	4752.91
846.047	4693.25
846.371	4687.38
846.695	4723.76
847.019	4667.72
847.343	4673.59
847.666	4654.61
847.99	4593.37
848.313	4601.96
848.637	4595.18
848.96	4560.15
849.284	4491
849.607	4573.71
849.931	4540.49
850.254	4509.75
850.577	4520.6
850.9	4413.71
851.223	4474.5
851.546	4445.35
851.869	4382.3
852.192	4441.96
852.515	4402.41
852.838	4393.37
853.161	4371.45
853.483	4381.62
853.806	4326.48
854.129	4346.37
854.451	4320.15
854.774	4295.52
855.096	4327.84
855.419	4314.28
855.741	4287.16
856.063	4269.99
856.385	4240.16
856.708	4227.95
857.03	4206.26
857.352	4227.95
857.674	4203.55
857.996	4176.43
858.318	4092.14
858.64	4218.91
858.961	4165.58
859.283	4131.46
859.605	4127.39
859.926	4151.57
860.248	4160.84
860.57	4105.25
860.891	4125.13
861.212	4095.53
861.534	4078.58
861.855	4089.2
862.176	4060.5
862.498	4120.61
862.819	4107.28
863.14	4040.16
863.461	4037.9
863.782	4050.56
864.103	4086.26
864.424	4079.94
864.745	4054.63
865.065	4019.82
865.386	4001.52
865.707	4037.45
866.027	4014.4
866.348	3990.9
866.668	4007.39
866.989	3993.61
867.309	3930.79
867.63	3947.96
867.95	3909.32
868.27	3919.71
868.59	3921.75
868.91	3933.72
869.23	3922.88
869.55	3916.78
869.87	3913.16
870.19	3879.71
870.51	3904.57
870.83	3893.05
871.15	3842.2
871.469	3895.08
871.789	3892.37
872.109	3828.64
872.428	3853.73
872.748	3841.3
873.067	3830.45
873.386	3831.58
873.706	3796.33
874.025	3820.96
874.344	3797.46
874.663	3828.42
874.982	3818.93
875.301	3770.56
875.62	3842.65
875.939	3804.24
876.258	3767.63
876.577	3773.95
876.896	3736.22
877.214	3733.05
877.533	3772.6
877.852	3749.32
878.17	3735.54
878.489	3730.11
878.807	3769.66
879.125	3772.15
879.444	3688.76
879.762	3720.62
880.08	3719.27
880.398	3733.73
880.716	3701.87
881.034	3698.02
881.352	3704.58
881.67	3727.85
881.988	3691.92
882.306	3699.15
882.624	3657.12
882.941	3654.41
883.259	3642.66
883.577	3630.23
883.894	3632.72
884.212	3637.23
884.529	3669.1
884.846	3676.78
885.164	3655.31
885.481	3631.59
885.798	3604.47
886.115	3626.16
886.432	3609.66
886.75	3630.91
887.067	3668.19
887.383	3607.86
887.7	3590.68
888.017	3581.87
888.334	3604.69
888.651	3587.52
888.967	3543.68
889.284	3565.6
889.6	3564.47
889.917	3512.27
890.233	3548.88
890.55	3528.76
890.866	3498.71
891.182	3487.86
891.498	3546.16
891.815	3514.3
892.131	3466.62
892.447	3436.34
892.763	3426.84
893.079	3447.41
893.395	3446.96
893.71	3428.88
894.026	3427.3
894.342	3410.12
894.657	3396.56
894.973	3361.31
895.289	3340.07
895.604	3383.91
895.92	3361.54
896.235	3328.09
896.55	3306.62
896.865	3289.22
897.181	3286.28
897.496	3288.54
897.811	3244.7
898.126	3241.54
898.441	3196.12
898.756	3206.06
899.071	3175.55
899.386	3154.31
899.7	3178.49
900.015	3166.29
900.33	3152.73
900.644	3111.6
900.959	3120.64
901.273	3137.36
901.588	3130.58
901.902	3089.68
902.216	3069.34
902.531	3049.91
902.845	3037.48
903.159	2999.96
903.473	3001.55
903.787	2989.34
904.101	2994.54
904.415	3000.19
904.729	2994.99
905.042	2963.13
905.356	2915.45
905.67	2957.48
905.984	2912.96
906.297	2939.85
906.611	2913.41
906.924	2921.32
907.237	2909.12
907.551	2913.86
907.864	2901.21
908.177	2870.02
908.491	2869.57
908.804	2852.17
909.117	2886.52
909.43	2835.9
909.743	2804.71
910.056	2876.12
910.368	2802.23
910.681	2828.67
910.994	2813.53
911.307	2793.64
911.619	2792.51
911.932	2764.94
912.244	2742.34
912.557	2733.08
912.869	2787.31
913.181	2766.07
913.494	2762.68
913.806	2741.89
914.118	2733.53
914.43	2714.1
914.742	2723.81
915.054	2700.76
915.366	2681.1
915.678	2715.23
915.99	2684.49
916.302	2659.18
916.613	2645.4
916.925	2684.72
917.236	2688.56
917.548	2669.8
917.859	2648.33
918.171	2665.28
918.482	2687.88
918.794	2626.64
919.105	2609.92
919.416	2605.4
919.727	2607.21
920.038	2597.71
920.349	2609.01
920.66	2567.88
920.971	2579.86
921.282	2545.74
921.593	2539.64
921.903	2520.43
922.214	2518.85
922.525	2514.33
922.835	2515.68
923.146	2457.15
923.456	2477.94
923.767	2478.4
924.077	2486.3
924.387	2424.84
924.697	2428.23
925.008	2425.97
925.318	2428.91
925.628	2419.87
925.938	2424.61
926.248	2397.49
926.558	2391.84
926.867	2390.49
927.177	2372.86
927.487	2365.63
927.796	2355.01
928.106	2345.74
928.416	2336.03
928.725	2337.83
929.034	2321.56
929.344	2307.78
929.653	2273.2
929.962	2243.83
930.271	2237.5
930.581	2266.88
930.89	2222.13
931.199	2214
931.508	2202.47
931.817	2229.81
932.125	2194.79
932.434	2185.52
932.743	2174.45
933.051	2142.58
933.36	2153.66
933.669	2126.31
933.977	2152.08
934.286	2100.78
934.594	2077.95
934.902	2087.67
935.21	2045.41
935.519	2048.35
935.827	2063.04
936.135	2021.91
936.443	2014.45
936.751	2047.9
937.059	2026.88
937.367	1989.59
937.674	1990.05
937.982	2004.51
938.29	1989.37
938.597	1975.13
938.905	1989.37
939.213	2007.9
939.52	1959.54
939.827	1978.97
940.135	1974
940.442	1922.93
940.749	1950.27
941.056	1921.8
941.363	1938.97
941.67	1875.47
941.977	1919.77
942.284	1885.87
942.591	1888.13
942.898	1898.75
943.205	1899.2
943.511	1889.94
943.818	1883.38
944.125	1884.74
944.431	1879.77
944.738	1891.74
945.044	1868.24
945.35	1845.87
945.657	1851.07
945.963	1826.44
946.269	1824.4
946.575	1842.71
946.881	1829.15
947.187	1827.34
947.493	1805.87
947.799	1803.61
948.105	1802.25
948.41	1800.45
948.716	1795.02
949.022	1788.24
949.327	1796.61
949.633	1785.08
949.938	1811.75
950.244	1785.76
950.549	1809.71
950.854	1771.75
951.16	1763.84
951.465	1727.23
951.77	1756.61
952.075	1719.77
952.38	1727.45
952.685	1729.94
952.99	1738.08
953.294	1716.83
953.599	1714.35
953.904	1725.42
954.209	1718.64
954.513	1688.36
954.818	1678.87
955.122	1653.78
955.426	1684.52
955.731	1665.99
956.035	1682.03
956.339	1627.12
956.643	1647.46
956.948	1640.68
957.252	1623.28
957.556	1616.95
957.86	1617.85
958.163	1603.84
958.467	1563.62
958.771	1564.52
959.075	1606.55
959.378	1580.11
959.682	1579.44
959.985	1592.09
960.289	1565.88
960.592	1568.81
960.896	1551.19
961.199	1555.48
961.502	1553
961.805	1522.04
962.108	1523.39
962.411	1519.32
962.714	1495.82
963.017	1485.65
963.32	1496.5
963.623	1497.63
963.926	1530.62
964.228	1489.49
964.531	1488.14
964.833	1473.9
965.136	1435.48
965.438	1442.72
965.741	1437.29
966.043	1430.29
966.345	1441.81
966.648	1412.43
966.95	1407.24
967.252	1427.12
967.554	1415.37
967.856	1386.22
968.158	1400.68
968.46	1408.14
968.761	1331.98
969.063	1417.18
969.365	1351.42
969.666	1380.12
969.968	1353.91
970.269	1339.22
970.571	1342.15
970.872	1362.94
971.174	1337.41
971.475	1327.69
971.776	1302.38
972.077	1317.3
972.378	1319.78
972.679	1303.28
972.98	1298.99
973.281	1325.21
973.582	1308.03
973.883	1266.22
974.183	1297.41
974.484	1299.67
974.785	1285.66
975.085	1288.6
975.386	1276.84
975.686	1272.1
975.986	1249.95
976.287	1268.03
976.587	1274.13
976.887	1246.56
977.187	1247.02
977.487	1252.89
977.787	1229.39
978.087	1231.65
978.387	1239.78
978.687	1208.37
978.987	1229.16
979.286	1229.39
979.586	1226.9
979.885	1210.41
980.185	1202.04
980.484	1206.11
980.784	1191.2
981.083	1205.21
981.382	1172.89
981.682	1219.67
981.981	1201.59
982.28	1206.79
982.579	1168.6
982.878	1188.03
983.177	1196.17
983.475	1167.24
983.774	1161.37
984.073	1174.7
984.372	1143.97
984.67	1165.66
984.969	1154.81
985.267	1164.53
985.566	1139.22
985.864	1155.27
986.162	1148.49
986.461	1148.26
986.759	1137.41
987.057	1127.7
987.355	1134.7
987.653	1121.37
987.951	1122.05
988.249	1123.63
988.547	1108.26
988.844	1092.44
989.142	1106.45
989.44	1079.79
989.737	1076.85
990.035	1110.07
990.332	1109.17
990.63	1061.48
990.927	1078.66
991.224	1070.07
991.521	1065.78
991.819	1040.24
992.116	1045.21
992.413	1056.29
992.71	1058.77
993.006	1047.7
993.303	1054.7
993.6	1042.27
993.897	1036.4
994.193	1056.96
994.49	1022.16
994.787	1024.42
995.083	1014.25
995.379	1023.97
995.676	1004.76
995.972	992.56
996.268	994.59
996.565	986.23
996.861	981.26
997.157	961.82
997.453	989.17
997.749	963.41
998.044	960.7
998.34	964.08
998.636	973.12
998.932	938.77
999.227	960.47
999.523	959.34
999.818	945.33
1000.114	927.7
1000.409	941.94
1000.704	936.06
1001	935.39
1001.295	920.02
1001.59	917.31
1001.885	917.98
1002.18	883.86
1002.475	893.13
1002.77	914.37
1003.065	907.14
1003.359	889.51
1003.654	910.98
1003.949	903.75
1004.243	886.12
1004.538	874.82
1004.832	866.23
1005.127	882.51
1005.421	873.92
1005.715	880.47
1006.009	877.53
1006.304	861.71
1006.598	825.11
1006.892	840.02
1007.186	846.8
1007.48	844.77
1007.773	863.07
1008.067	828.72
1008.361	834.6
1008.655	802.73
1008.948	858.1
1009.242	822.17
1009.535	834.14
1009.829	806.8
1010.122	806.12
1010.415	812
1010.708	784.88
1011.001	786.91
1011.295	772.9
1011.588	792.34
1011.881	772.9
1012.173	794.37
1012.466	804.09
1012.759	773.36
1013.052	776.75
1013.344	773.81
1013.637	749.4
1013.93	745.56
1014.222	788.27
1014.514	739.91
1014.807	760.47
1015.099	755.5
1015.391	754.37
1015.683	762.73
1015.976	770.42
1016.268	741.94
1016.56	753.69
1016.851	745.79
1017.143	707.14
1017.435	736.07
1017.727	726.12
1018.018	723.41
1018.31	726.8
1018.602	699.01
1018.893	729.06
1019.185	699.68
1019.476	701.04
1019.767	699.68
1020.058	713.7
1020.35	719.57
1020.641	691.1
1020.932	703.3
1021.223	693.81
1021.514	674.15
1021.804	702.4
1022.095	672.12
1022.386	672.57
1022.677	673.7
1022.967	688.39
1023.258	693.13
1023.548	669.86
1023.839	649.52
1024.129	677.76
1024.419	660.36
1024.709	647.48
1025	667.6
1025.29	657.43
1025.58	645
1025.87	658.78
1026.16	636.86
1026.449	655.84
1026.739	654.04
1027.029	655.39
1027.319	634.15
1027.608	621.95
1027.898	632.12
1028.187	611.55
1028.477	633.7
1028.766	624.43
1029.055	609.52
1029.344	613.81
1029.634	618.11
1029.923	614.49
1030.212	612.46
1030.501	597.99
1030.79	615.17
1031.078	591.89
1031.367	578.33
1031.656	600.48
1031.945	583.76
1032.233	596.41
1032.522	570.2
1032.81	546.47
1033.099	598.67
1033.387	593.02
1033.675	571.78
1033.963	570.42
1034.251	555.28
1034.54	569.97
1034.828	560.93
1035.116	556.86
1035.403	569.74
1035.691	565.9
1035.979	536.98
1036.267	531.1
1036.554	519.35
1036.842	543.98
1037.129	540.82
1037.417	558.9
1037.704	529.52
1037.992	546.24
1038.279	540.59
1038.566	513.02
1038.853	513.02
1039.14	513.02
