Data from foam2_polystyrene_foam_FLMS001491_00012.txt Node
Date: Wed Feb 08 10:57:34 GMT 2017
User: dcchb
Spectrometer: FLMS00149
Trigger mode: 0
Integration Time (sec): 2.000000E-2
Scans to average: 10
Electric dark correction enabled: true
Nonlinearity correction enabled: false
Boxcar width: 0
XAxis mode: Wavelengths
Number of Pixels in Spectrum: 2048
>>>>>Begin Spectral Data<<<<<
341.393	-2.46
341.776	-2.46
342.16	-2.46
342.543	-66.18
342.927	-81.1
343.31	-73.19
343.693	-73.42
344.077	-64.15
344.46	-55.79
344.843	-70.03
345.226	-61.21
345.61	-42.91
345.993	4.55
346.376	-13.76
346.759	21.95
347.142	26.92
347.525	56.3
347.908	68.5
348.291	58.33
348.674	105.11
349.057	112.79
349.44	121.16
349.823	154.6
350.206	179.01
350.588	228.04
350.971	208.38
351.354	234.15
351.737	264.88
352.119	264.88
352.502	278.21
352.884	282.28
353.267	290.87
353.65	312.11
354.032	306.69
354.414	287.03
354.797	328.61
355.179	340.58
355.562	354.14
355.944	341.71
356.326	365.22
356.709	340.13
357.091	357.08
357.473	355.73
357.855	353.47
358.238	348.72
358.62	359.11
359.002	368.61
359.384	361.6
359.766	345.33
360.148	355.5
360.53	374.71
360.912	355.5
361.294	367.7
361.676	351.43
362.057	362.5
362.439	352.11
362.821	363.63
363.203	351.43
363.584	350.3
363.966	363.18
364.348	362.5
364.729	336.52
365.111	351.21
365.493	362.5
365.874	356.63
366.256	358.21
366.637	352.34
367.019	340.58
367.4	355.5
367.781	339.23
368.163	342.39
368.544	360.7
368.925	366.57
369.306	368.61
369.688	361.15
370.069	377.65
370.45	360.02
370.831	348.72
371.212	370.64
371.593	359.57
371.974	348.04
372.355	352.56
372.736	372.22
373.117	364.99
373.498	357.31
373.879	362.05
374.26	390.75
374.641	367.25
375.021	355.05
375.402	365.44
375.783	376.97
376.163	384.65
376.544	395.05
376.925	411.09
377.305	380.36
377.686	380.58
378.066	399.11
378.447	407.48
378.827	407.25
379.208	390.3
379.588	406.57
379.968	401.83
380.349	415.16
380.729	425.78
381.109	394.14
381.489	404.76
381.87	435.5
382.25	409.28
382.63	421.71
383.01	425.78
383.39	424.65
383.77	437.53
384.15	441.37
384.53	454.03
384.91	456.74
385.29	423.29
385.67	469.85
386.049	456.97
386.429	455.38
386.809	462.39
387.189	470.52
387.568	461.26
387.948	468.72
388.328	501.26
388.707	473.69
389.087	477.98
389.466	469.62
389.846	499.45
390.225	490.64
390.605	504.2
390.984	493.8
391.363	501.94
391.743	508.94
392.122	529.28
392.501	538.55
392.881	528.38
393.26	520.01
393.639	548.71
394.018	539.68
394.397	558.43
394.776	553.69
395.155	541.71
395.534	555.49
395.913	545.55
396.292	547.81
396.671	558.66
397.05	553.91
397.429	573.8
397.808	568.15
398.186	560.92
398.565	597.07
398.944	586.91
399.323	599.11
399.701	621.48
400.08	625.32
400.458	600.92
400.837	586.68
401.215	624.19
401.594	638.43
401.972	618.09
402.351	653.57
402.729	649.05
403.107	652.67
403.486	650.18
403.864	665.1
404.242	646.34
404.62	667.81
404.999	675.72
405.377	666.45
405.755	684.08
406.133	695.6
406.511	698.54
406.889	702.16
407.267	728.37
407.645	719.33
408.023	744.87
408.401	757.52
408.779	752.55
409.156	782.38
409.534	764.53
409.912	766.11
410.29	798.88
410.667	802.27
411.045	799.33
411.422	815.15
411.8	828.71
412.178	827.35
412.555	837.07
412.933	868.25
413.31	896.5
413.687	873.9
414.065	885.88
414.442	898.54
414.819	904.41
415.197	901.7
415.574	907.35
415.951	914.81
416.328	932.21
416.705	957.97
417.082	931.76
417.46	985.77
417.837	987.8
418.214	959.55
418.591	992.77
418.967	999.55
419.344	989.61
419.721	1043.16
420.098	1045.65
420.475	1030.06
420.852	1047.46
421.228	1056.5
421.605	1053.11
421.982	1092.2
422.358	1091.07
422.735	1088.14
423.111	1091.75
423.488	1139.89
423.864	1171.3
424.241	1121.35
424.617	1159.55
424.994	1154.8
425.37	1170.39
425.746	1197.96
426.123	1205.87
426.499	1210.62
426.875	1225.08
427.251	1230.73
427.627	1287
428.003	1261.24
428.379	1299.43
428.756	1320.45
429.132	1344.4
429.507	1329.26
429.883	1338.75
430.259	1375.36
430.635	1367.9
431.011	1410.84
431.387	1414.68
431.763	1451.29
432.138	1486.99
432.514	1480.44
432.89	1470.5
433.265	1513.89
433.641	1551.4
434.016	1537.61
434.392	1620.32
434.767	1582.81
435.143	1585.52
435.518	1633.43
435.894	1631.62
436.269	1651.51
436.644	1653.77
437.02	1682.24
437.395	1688.57
437.77	1752.3
438.145	1733.09
438.52	1775.12
438.895	1769.7
439.271	1806.76
439.646	1841.34
440.021	1866.42
440.395	1837.49
440.77	1861.45
441.145	1855.12
441.52	1905.29
441.895	1912.75
442.27	1953.65
442.645	1928.34
443.019	1982.12
443.394	1996.36
443.769	2018.96
444.143	2016.7
444.518	2003.14
444.892	2042.01
445.267	2032.97
445.641	2120.65
446.016	2116.13
446.39	2112.29
446.764	2120.42
447.139	2153.42
447.513	2151.38
447.887	2133.98
448.262	2170.82
448.636	2221.89
449.01	2234.32
449.384	2249.01
449.758	2238.16
450.132	2282.23
450.506	2283.36
450.88	2282.45
451.254	2318.39
451.628	2360.87
452.002	2429.57
452.376	2398.38
452.75	2455.1
453.123	2454.2
453.497	2497.59
453.871	2529.23
454.244	2547.31
454.618	2581.88
454.992	2599.96
455.365	2571.94
455.739	2689
456.112	2724.93
456.486	2717.47
456.859	2707.3
457.232	2783.68
457.606	2774.19
457.979	2832.04
458.352	2863.23
458.725	2922.89
459.099	2929.67
459.472	2959.05
459.845	2987.29
460.218	3028.88
460.591	3075.2
460.964	3054.19
461.337	3162.2
461.71	3180.74
462.083	3227.06
462.456	3260.96
462.829	3230.9
463.201	3360.62
463.574	3334.86
463.947	3391.58
464.32	3461.86
464.692	3478.35
465.065	3539.6
465.438	3561.06
465.81	3629.99
466.183	3625.7
466.555	3706.6
466.928	3759.93
467.3	3781.62
467.672	3820.94
468.045	3899.81
468.417	3912.47
468.789	3957.89
469.161	3956.99
469.534	4046.48
469.906	4136.19
470.278	4198.11
470.65	4192.69
471.022	4279.24
471.394	4359.46
471.766	4402.4
472.138	4468.84
472.51	4592.45
472.882	4614.37
473.253	4655.5
473.625	4719.68
473.997	4836.74
474.369	4859.79
474.74	4911.54
475.112	4996.73
475.484	5051.19
475.855	5170.06
476.227	5288.7
476.598	5395.82
476.97	5437.63
477.341	5533.67
477.713	5582.03
478.084	5655.7
478.455	5833.77
478.827	5868.12
479.198	6021.34
479.569	6007.1
479.94	6172.97
480.311	6253.2
480.682	6364.83
481.053	6498.84
481.424	6628.55
481.795	6715.11
482.166	6784.03
482.537	6818.38
482.908	7008.43
483.279	7027.64
483.65	7245.71
484.021	7348.99
484.391	7385.6
484.762	7537.23
485.133	7564.12
485.503	7724.57
485.874	7850.67
486.244	7954.85
486.615	8068.52
486.985	8159.81
487.356	8328.85
487.726	8346.25
488.097	8561.39
488.467	8621.27
488.837	8818.55
489.207	8906.46
489.578	9016.51
489.948	9048.83
490.318	9246.34
490.688	9303.74
491.058	9393.23
491.428	9558.2
491.798	9638.87
492.168	9891.07
492.538	9843.84
492.908	10051.29
493.278	10090.16
493.648	10251.96
494.017	10359.76
494.387	10378.74
494.757	10476.59
495.126	10650.6
495.496	10653.99
495.866	10777.82
496.235	10824.38
496.605	10949.8
496.974	11016.69
497.344	11083.8
497.713	11209.9
498.082	11321.09
498.452	11348.43
498.821	11434.08
499.19	11476.34
499.559	11705.94
499.928	11674.07
500.298	11880.17
500.667	11966.27
501.036	11912.71
501.405	12194.28
501.774	12072.03
502.143	12291
502.512	12251.23
502.88	12393.37
503.249	12456.88
503.618	12508.63
503.987	12649.41
504.356	12654.38
504.724	12798.56
505.093	12828.84
505.462	12968.73
505.83	13059.35
506.199	13130.3
506.567	13369.85
506.936	13429.28
507.304	13524.87
507.672	13591.08
508.041	13617.3
508.409	13851.64
508.777	13907.46
509.145	13995.14
509.514	13992.43
509.882	14132.99
510.25	14195.81
510.618	14362.14
510.986	14365.3
511.354	14499.99
511.722	14666.08
512.09	14869.02
512.458	14890.48
512.826	14958.96
513.193	15006.19
513.561	15127.54
513.929	15219.06
514.297	15372.28
514.664	15520.75
515.032	15598.94
515.4	15693.63
515.767	15760.74
516.135	15892.94
516.502	15727.52
516.869	16166.38
517.237	16123.9
517.604	16161.19
517.972	16371.58
518.339	16460.61
518.706	16551.91
519.073	16679.82
519.44	16786.93
519.808	17070.99
520.175	17033.48
520.542	17198.67
520.909	17460.81
521.276	17357.99
521.643	17539.23
522.009	17735.38
522.376	17778.09
522.743	18035.26
523.11	18120.91
523.477	18295.14
523.843	18367
524.21	18548.02
524.577	18588.92
524.943	18819.65
525.31	18909.36
525.676	19129.69
526.043	19300.31
526.409	19301.67
526.776	19514.77
527.142	19530.81
527.508	19791.6
527.874	19926.96
528.241	20131.25
528.607	20146.39
528.973	20300.29
529.339	20380.06
529.705	20540.28
530.071	20772.59
530.437	20823.21
530.803	20942.98
531.169	21178.23
531.535	21084.22
531.901	21279.02
532.267	21345
532.632	21537.09
532.998	21569.86
533.364	21859.11
533.73	21825.67
534.095	21948.6
534.461	22057.3
534.826	22151.76
535.192	22331.64
535.557	22483.96
535.923	22383.17
536.288	22551.07
536.653	22687.34
537.019	22587.91
537.384	22733.67
537.749	22889.14
538.114	22994.23
538.479	23055.47
538.845	23104.05
539.21	23092.98
539.575	23279.64
539.94	23413.42
540.305	23555.57
540.67	23449.81
541.034	23670.59
541.399	23725.73
541.764	23812.06
542.129	23911.26
542.494	23901.09
542.858	24153.74
543.223	24149.22
543.587	24326.17
543.952	24235.78
544.316	24406.39
544.681	24394.42
545.045	24570.23
545.41	24706.72
545.774	24803.67
546.138	24872.14
546.503	24932.25
546.867	24932.03
547.231	25222.19
547.595	25198.46
547.959	25260.61
548.324	25338.35
548.688	25495.63
549.052	25475.97
549.416	25581.5
549.779	25673.25
550.143	25733.81
550.507	26026.46
550.871	26086.57
551.235	26084.99
551.599	26251.77
551.962	26355.72
552.326	26430.52
552.689	26583.28
553.053	26444.08
553.417	26600.68
553.78	27005.19
554.143	26849.04
554.507	27069.6
554.87	27079.99
555.234	27322.93
555.597	27183.49
555.96	27455.13
556.323	27579.87
556.686	27612.18
557.05	27795.68
557.413	27837.94
557.776	27976.69
558.139	28049.69
558.502	28249
558.865	28286.97
559.228	28462.56
559.59	28647.18
559.953	28691.03
560.316	28991.58
560.679	28975.31
561.041	29180.5
561.404	29318.35
561.767	29509.99
562.129	29426.6
562.492	29780.26
562.854	29734.16
563.217	29733.26
563.579	30110.42
563.941	30121.27
564.304	30372.79
564.666	30393.58
565.028	30590.18
565.39	30680.35
565.753	30761.03
566.115	30837.18
566.477	31058.87
566.839	31100
567.201	31304.29
567.563	31364.63
567.925	31638.52
568.287	31577.28
568.648	31530.95
569.01	31833.77
569.372	31968.91
569.734	31959.41
570.095	32158.05
570.457	32207.99
570.819	32239.18
571.18	32353.3
571.542	32500.64
571.903	32475.33
572.265	32613.86
572.626	32868.54
572.987	32889.33
573.349	32989.22
573.71	33056.33
574.071	33180.4
574.432	33274.86
574.794	33584.23
575.155	33512.59
575.516	33385.59
575.877	33529.77
576.238	33544.91
576.599	33826.03
576.96	33718.01
577.32	33816.31
577.681	33922.3
578.042	34012.92
578.403	34006.37
578.763	34097.66
579.124	34068.29
579.485	34350.99
579.845	34412
580.206	34320.26
580.566	34381.95
580.927	34442.51
581.287	34524.54
581.648	34430.54
582.008	34681.6
582.368	34587.14
582.728	34602.96
583.089	34683.86
583.449	34696.07
583.809	34592.79
584.169	34637.08
584.529	34653.35
584.889	34952.56
585.249	34708.49
585.609	34565.45
585.969	34890.64
586.329	34777.64
586.688	34883.18
587.048	34772.22
587.408	34736.97
587.768	34748.72
588.127	34913.23
588.487	34720.7
588.846	34895.61
589.206	34676.18
589.565	34864.42
589.925	34968.6
590.284	34803.86
590.643	35072.33
591.003	34981.71
591.362	34991.2
591.721	34973.8
592.08	35034.36
592.44	35120.23
592.799	35040.01
593.158	34947.36
593.517	35020.35
593.876	35139.44
594.235	34972.22
594.593	35088.82
594.952	35172.44
595.311	35209.95
595.67	35203.4
596.029	35289.5
596.387	35310.29
596.746	35384.41
597.104	35401.36
597.463	35235.71
597.822	35423.96
598.18	35222.38
598.538	35244.75
598.897	35571.07
599.255	35300.57
599.613	35656.94
599.972	35434.35
600.33	35647.23
600.688	35361.13
601.046	35551.86
601.404	35692.65
601.762	35562.93
602.12	35896.49
602.478	35790.5
602.836	35842.7
603.194	35740.11
603.552	35779.65
603.91	35745.08
604.268	35977.84
604.625	35840.67
604.983	35915.24
605.341	35743.27
605.698	35992.53
606.056	35952.08
606.413	35958.86
606.771	36075.69
607.128	36085.41
607.485	35902.36
607.843	36007.9
608.2	36152.3
608.557	36330.6
608.914	36179.42
609.272	36437.71
609.629	36370.82
609.986	36380.77
610.343	36410.14
610.7	36627.77
611.057	36517.03
611.414	36477.71
611.771	36683.36
612.127	36597.03
612.484	36658.95
612.841	36744.6
613.198	36652.17
613.554	36665.28
613.911	37070.01
614.267	36980.3
614.624	36797.7
614.98	37014.2
615.337	37092.84
615.693	36995.21
616.05	37012.84
616.406	37203.8
616.762	37094.87
617.118	37082.67
617.475	37108.21
617.831	37230.01
618.187	37140.75
618.543	37215.09
618.899	37524.69
619.255	37287.41
619.611	37336.9
619.967	37401.08
620.323	37500.96
620.678	37291.93
621.034	37318.37
621.39	37246.51
621.746	37258.71
622.101	37674.52
622.457	37369.89
622.812	37539.61
623.168	37613.95
623.523	37524.47
623.879	37513.62
624.234	37395.88
624.589	37420.29
624.945	37277.01
625.3	37381.42
625.655	37490.57
626.01	37492.15
626.365	37474.98
626.72	37364.02
627.075	37356.11
627.43	37307.3
627.785	37305.94
628.14	37296.9
628.495	37332.61
628.85	37343.23
629.205	37237.02
629.559	37552.26
629.914	37263.23
630.269	37196.34
630.623	37196.56
630.978	37081.09
631.332	37084.25
631.687	37241.31
632.041	36956.12
632.396	37075.89
632.75	36894.2
633.104	36777.37
633.459	36701.21
633.813	36692.85
634.167	36648.1
634.521	36662.57
634.875	36610.14
635.229	36628.22
635.583	36475.23
635.937	36413.08
636.291	36338.51
636.645	36273.2
636.999	36185.97
637.352	36431.61
637.706	36085.41
638.06	36347.55
638.413	36205.63
638.767	36101.68
639.121	36038.85
639.474	35800.22
639.828	35746.66
640.181	35926.09
640.534	35841.35
640.888	35905.3
641.241	35646.55
641.594	35586.66
641.947	35698.98
642.301	35560.45
642.654	35560.22
643.007	35486.1
643.36	35505.76
643.713	35412.43
644.066	35257.41
644.419	35228.03
644.771	35094.47
645.124	34768.38
645.477	34606.8
645.83	34455.85
646.182	34267.6
646.535	34085.01
646.888	34116.65
647.24	33931.79
647.593	34056.76
647.945	34038.68
648.298	33844.56
648.65	33773.15
649.002	33701.06
649.355	33842.98
649.707	33741.74
650.059	33911.23
650.411	34181.95
650.763	34306.02
651.115	34565.9
651.467	34587.14
651.819	34456.52
652.171	34341.95
652.523	34221.28
652.875	34306.92
653.227	34186.93
653.578	34404.1
653.93	34172.69
654.282	34073.48
654.633	34004.78
654.985	33981.96
655.337	34044.1
655.688	33978.12
656.039	34194.38
656.391	33771.12
656.742	33883.88
657.094	33811.34
657.445	34055.86
657.796	33756.43
658.147	33841.85
658.498	33587.17
658.849	33863.77
659.2	33699.71
659.551	33633.49
659.902	33627.84
660.253	33537.45
660.604	33598.24
660.955	33508.3
661.306	33621.52
661.656	33558.92
662.007	33535.87
662.358	33456.55
662.708	33554.4
663.059	33519.6
663.409	33270.11
663.76	33471.69
664.11	33396.66
664.461	33375.2
664.811	33504.46
665.161	33361.86
665.511	33215.43
665.862	33283.9
666.212	33278.25
666.562	33412.71
666.912	33152.83
667.262	33085.03
667.612	33200.51
667.962	33188.76
668.312	33173.39
668.662	33267.63
669.011	33206.39
669.361	33120.51
669.711	33071.7
670.06	32979.95
670.41	32842.55
670.76	32856.11
671.109	33064.7
671.459	32886.4
671.808	32878.26
672.157	32858.15
672.507	32630.81
672.856	32699.73
673.205	32589.68
673.554	32791.93
673.904	32686.63
674.253	32856.79
674.602	32799.17
674.951	32295.9
675.3	32095.68
675.649	32691.37
675.998	32567.99
676.346	32428.78
676.695	32629.23
677.044	32305.17
677.393	32326.18
677.741	32386.07
678.09	32447.08
678.438	32232.4
678.787	32295.9
679.135	32279.41
679.484	32143.36
679.832	32269.91
680.181	31999.41
680.529	32147.43
680.877	32131.16
681.225	31942.92
681.573	32203.93
681.922	31992.86
682.27	31805.75
682.618	31818.17
682.966	31801.23
683.314	31887.78
683.661	31596.94
684.009	31460.9
684.357	31401.91
684.705	31384.29
685.053	31480.33
685.4	31314.01
685.748	31195.14
686.095	31092.32
686.443	31068.82
686.79	30892.78
687.138	30901.81
687.485	30846
687.832	30772.78
688.18	30785.66
688.527	30577.76
688.874	30528.49
689.221	30544.31
689.568	30490.98
689.915	30356.52
690.262	30244.43
690.609	30287.14
690.956	29980.93
691.303	29992.69
691.65	30074.27
691.997	29954.49
692.344	29830.43
692.69	29783.65
693.037	29670.89
693.383	29557.9
693.73	29702.98
694.077	29481.06
694.423	29608.74
694.769	29477.45
695.116	29297.34
695.462	29267.73
695.808	29186.61
696.155	29182.76
696.501	28862.77
696.847	28889.66
697.193	28787.97
697.539	28794.98
697.885	28559.96
698.231	28549.79
698.577	28440.41
698.923	28570.12
699.269	28340.98
699.614	28226.86
699.96	28205.84
700.306	28212.62
700.651	28171.72
700.997	28130.36
701.342	28001.78
701.688	28035
702.033	27848.11
702.379	27873.65
702.724	27764.04
703.069	27845.4
703.415	27360.89
703.76	27555.24
704.105	27492.64
704.45	27423.04
704.795	27327.45
705.14	27215.13
705.485	27236.15
705.83	27100.33
706.175	27195.02
706.52	27132.2
706.865	26911.86
707.209	27002.03
707.554	26817.4
707.899	26876.61
708.243	26609.05
708.588	26626.67
708.932	26412.67
709.277	26428.49
709.621	26460.12
709.966	26324.99
710.31	26424.87
710.654	26134.48
710.998	26146.91
711.342	26330.64
711.687	26140.58
712.031	25912.34
712.375	25880.03
712.719	25915.28
713.063	25945.33
713.407	25892.91
713.75	25732.91
714.094	25712.8
714.438	25732.23
714.782	25725.45
715.125	25547.61
715.469	25540.6
715.812	25427.83
716.156	25384.67
716.499	25348.29
716.843	25343.77
717.186	25146.71
717.53	25277.56
717.873	25340.83
718.216	25174.28
718.559	25023.1
718.902	24997.11
719.246	25120.05
719.589	24895.19
719.932	24728.42
720.275	24865.14
720.617	24812.48
720.96	24810
721.303	24772.48
721.646	24747.63
721.989	24601.64
722.331	24702.43
722.674	24607.97
723.016	24578.37
723.359	24566.39
723.701	24478.71
724.044	24443.91
724.386	24281.42
724.729	24396.45
725.071	24274.87
725.413	24288.88
725.755	24300.41
726.097	24066.29
726.439	24038.04
726.782	24102.45
727.124	24082.56
727.465	23991.04
727.807	23897.25
728.149	23880.98
728.491	23868.55
728.833	23876.46
729.175	23781.78
729.516	23796.01
729.858	23748.56
730.199	23682.57
730.541	23798.05
730.882	23638.73
731.224	23699.74
731.565	23474.44
731.906	23523.7
732.248	23570.48
732.589	23450.26
732.93	23349.7
733.271	23323.48
733.612	23357.83
733.953	23485.96
734.294	23316.93
734.635	23251.85
734.976	23218.85
735.317	23175.46
735.658	23092.75
735.999	23105.86
736.339	23022.7
736.68	23219.08
737.021	23034.22
737.361	22999.65
737.702	23076.26
738.042	22932.08
738.383	22855.92
738.723	22973.89
739.063	22788.13
739.404	22910.39
739.744	22747.9
740.084	22717.85
740.424	22748.36
740.764	22693.44
741.104	22738.19
741.444	22614.8
741.784	22519.44
742.124	22528.93
742.464	22541.81
742.804	22456.84
743.143	22373.23
743.483	22372.32
743.823	22181.59
744.162	22288.03
744.502	22217.52
744.841	22234.02
745.181	22340.23
745.52	22213.23
745.86	22184.76
746.199	22107.7
746.538	22023.63
746.877	22118.54
747.216	22115.6
747.556	22125.77
747.895	21943.63
748.234	21846.46
748.573	21860.7
748.911	21819.34
749.25	21784.31
749.589	21629.29
749.928	21735.28
750.267	21588.84
750.605	21606.47
750.944	21610.76
751.283	21458
751.621	21507.03
751.96	21427.49
752.298	21423.19
752.636	21342.07
752.975	21249.86
753.313	21107.27
753.651	21159.02
753.989	21174.39
754.327	21131.9
754.666	21041.06
755.004	20993.37
755.342	21038.12
755.679	20986.37
756.017	20839.03
756.355	20893.94
756.693	20688.98
757.031	20766.49
757.368	20663.44
757.706	20695.76
758.044	20474.29
758.381	20572.37
758.719	20475.65
759.056	20399.04
759.394	20401.53
759.731	20191.59
760.068	20223.23
760.405	20213.28
760.743	20073.17
761.08	20139.16
761.417	20004.93
761.754	19944.14
762.091	19900.52
762.428	19838.38
762.765	19784.14
763.102	19781.2
763.438	19596.12
763.775	19619.4
764.112	19525.84
764.449	19541.89
764.785	19433.64
765.122	19241.56
765.458	19192.07
765.795	19341.67
766.131	19230.26
766.467	19167.66
766.804	19096.93
767.14	18936.71
767.476	18865.52
767.812	18919.08
768.148	18831.17
768.485	18730.38
768.821	18614.68
769.157	18563.83
769.492	18553.66
769.828	18544.85
770.164	18317.74
770.5	18245.42
770.836	18127.46
771.171	18190.06
771.507	18107.12
771.842	17971.99
772.178	17988.71
772.513	18007.69
772.849	17908.71
773.184	17816.28
773.519	17769.05
773.855	17663.29
774.19	17655.38
774.525	17537.42
774.86	17557.31
775.195	17539.68
775.53	17468.27
775.865	17271.89
776.2	17212.91
776.535	17120.71
776.87	17051.33
777.205	17089.07
777.539	16977.43
777.874	16895.4
778.209	16777.21
778.543	16778.12
778.878	16741.28
779.212	16682.08
779.547	16626.71
779.881	16569.08
780.215	16514.4
780.55	16548.52
780.884	16443.44
781.218	16414.06
781.552	16362.99
781.886	16251.58
782.22	16226.72
782.554	16103.11
782.888	16011.81
783.222	15971.81
783.556	15843.68
783.889	15860.4
784.223	15722.1
784.557	15741.99
784.89	15638.94
785.224	15612.73
785.557	15525.95
785.891	15494.31
786.224	15488.89
786.558	15453.41
786.891	15306.29
787.224	15200.53
787.557	15192.4
787.891	15215.45
788.224	15118.27
788.557	15222.68
788.89	15060.65
789.223	15040.76
789.556	14949.01
789.888	14977.26
790.221	14802.12
790.554	14746.31
790.887	14669.02
791.219	14725.52
791.552	14633.09
791.884	14600.32
792.217	14501.34
792.549	14391.97
792.882	14343.15
793.214	14297.96
793.546	14331.4
793.879	14170.28
794.211	14180.45
794.543	14172.31
794.875	14136.38
795.207	14148.36
795.539	13997.85
795.871	14066.55
796.203	13887.8
796.535	13812.77
796.867	13885.99
797.198	13790.17
797.53	13797.18
797.862	13730.06
798.193	13780.46
798.525	13668.6
798.856	13638.77
799.188	13510.63
799.519	13405.78
799.85	13385.21
800.182	13399.9
800.513	13440.13
800.844	13309.51
801.175	13346.8
801.506	13290.07
801.837	13233.58
802.168	13165.78
802.499	13152.68
802.83	13093.92
803.161	13010.08
803.491	12949.07
803.822	13036.3
804.153	12963.53
804.483	12851.67
804.814	12799.92
805.145	12820.03
805.475	12667.49
805.805	12752.91
806.136	12700.71
806.466	12583.65
806.796	12671.56
807.126	12553.37
807.457	12565.57
807.787	12551.56
808.117	12490.32
808.447	12424.79
808.777	12487.38
809.107	12440.83
809.436	12402.19
809.766	12407.39
810.096	12317.9
810.426	12205.13
810.755	12216.88
811.085	12195.64
811.414	12178.24
811.744	12040.62
812.073	12060.28
812.403	12025.25
812.732	11989.09
813.061	11997
813.39	11874.07
813.719	11948.87
814.049	11997
814.378	11821.64
814.707	11796.78
815.036	11842.2
815.365	11776.67
815.693	11684.92
816.022	11676.11
816.351	11662.77
816.68	11630.46
817.008	11665.71
817.337	11498.93
817.665	11452.38
817.994	11548.43
818.322	11505.94
818.651	11449.44
818.979	11371.03
819.307	11419.61
819.636	11405.6
819.964	11317.24
820.292	11320.86
820.62	11292.16
820.948	11278.83
821.276	11377.36
821.604	11225.95
821.932	11307.08
822.259	11282.67
822.587	11335.55
822.915	11264.59
823.243	11343.68
823.57	11321.76
823.898	11261.43
824.225	11292.84
824.553	11231.15
824.88	11245.83
825.207	11314.76
825.535	11210.81
825.862	11292.61
826.189	11266.4
826.516	11249.9
826.843	11286.96
827.17	11261.65
827.497	11335.55
827.824	11330.35
828.151	11288.32
828.478	11275.66
828.805	11364.93
829.131	11252.84
829.458	11137.59
829.785	11186.4
830.111	11186.63
830.438	11239.51
830.764	11119.51
831.09	11170.36
831.417	11078.83
831.743	11171.49
832.069	11177.81
832.395	11129
832.722	11145.95
833.048	11150.24
833.374	11150.47
833.7	11043.13
834.026	11082
834.351	11070.7
834.677	11050.36
835.003	11125.16
835.329	11071.83
835.654	11023.24
835.98	10886.3
836.306	11024.6
836.631	10967.2
836.956	11009.91
837.282	10973.07
837.607	10958.61
837.932	10909.12
838.258	10994.99
838.583	10903.47
838.908	10824.15
839.233	10907.99
839.558	10804.72
839.883	10832.96
840.208	10780.31
840.533	10766.98
840.858	10740.76
841.182	10744.6
841.507	10738.5
841.832	10618.51
842.156	10583.03
842.481	10619.64
842.805	10660.54
843.13	10625.96
843.454	10621.9
843.778	10592.74
844.103	10582.12
844.427	10511.84
844.751	10580.09
845.075	10430.04
845.399	10490.83
845.723	10403.82
846.047	10372.18
846.371	10308.23
846.695	10275.69
847.019	10270.27
847.343	10170.38
847.666	10127.9
847.99	10111.4
848.313	10105.98
848.637	10028.69
848.96	10045.19
849.284	9992.76
849.607	9868.7
849.931	9885.87
850.254	9828.92
850.577	9753.44
850.9	9687.91
851.223	9702.82
851.546	9649.27
851.869	9530.63
852.192	9647.46
852.515	9484.75
852.838	9504.41
853.161	9442.04
853.483	9478.65
853.806	9476.16
854.129	9442.72
854.451	9377.41
854.774	9296.96
855.096	9303.51
855.419	9221.25
855.741	9253.8
856.063	9137.64
856.385	9118.66
856.708	9150.52
857.03	9084.76
857.352	9092.9
857.674	9053.8
857.996	9028.04
858.318	9060.58
858.64	9008.83
858.961	9020.81
859.283	8980.36
859.605	8882.96
859.926	8919.57
860.248	8866.91
860.57	8809.97
860.891	8872.34
861.212	8777.88
861.534	8815.62
861.855	8805.45
862.176	8757.31
862.498	8731.78
862.819	8806.8
863.14	8679.12
863.461	8741.04
863.782	8653.13
864.103	8634.38
864.424	8691.33
864.745	8723.87
865.065	8705.56
865.386	8606.58
865.707	8570.42
866.027	8619.01
866.348	8581.72
866.668	8626.02
866.989	8571.55
867.309	8538.56
867.63	8486.36
867.95	8495.4
868.27	8445.91
868.59	8508.51
868.91	8448.17
869.23	8438
869.55	8368.85
869.87	8419.24
870.19	8449.52
870.51	8360.71
870.83	8400.26
871.15	8339.7
871.469	8395.74
871.789	8343.54
872.109	8348.96
872.428	8290.66
872.748	8293.37
873.067	8288.4
873.386	8267.38
873.706	8233.94
874.025	8251.56
874.344	8185.8
874.663	8279.58
874.982	8220.6
875.301	8162.98
875.62	8187.84
875.939	8123.88
876.258	8171.79
876.577	8164.33
876.896	8148.06
877.214	8089.99
877.533	8110.55
877.852	8084.79
878.17	8033.26
878.489	8064.67
878.807	8056.09
879.125	8024
879.444	8016.77
879.762	8015.18
880.08	7993.04
880.398	7953.04
880.716	7985.58
881.034	7951.68
881.352	7979.71
881.67	7868.3
881.988	7923.21
882.306	7887.05
882.624	7890.89
882.941	7837.11
883.259	7821.97
883.577	7809.54
883.894	7824.23
884.212	7714.63
884.529	7729.09
884.846	7719.6
885.164	7735.19
885.481	7748.3
885.798	7671.92
886.115	7622.65
886.432	7659.94
886.75	7652.03
887.067	7605.93
887.383	7624.69
887.7	7632.14
888.017	7547.17
888.334	7551.02
888.651	7503.33
888.967	7532.03
889.284	7423.11
889.6	7460.17
889.917	7359.61
890.233	7403.22
890.55	7372.49
890.866	7390.79
891.182	7394.41
891.498	7306.05
891.815	7332.94
892.131	7251.14
892.447	7253.85
892.763	7205.94
893.079	7305.6
893.395	7234.41
893.71	7249.1
894.026	7190.35
894.342	7192.16
894.657	7123.91
894.973	7097.69
895.289	7141.99
895.604	7070.58
895.92	6978.6
896.235	6985.61
896.55	7057.24
896.865	7017.02
897.181	6975.66
897.496	6936.8
897.811	6905.16
898.126	6933.86
898.441	6843.24
898.756	6883.01
899.071	6836.91
899.386	6871.03
899.7	6732.05
900.015	6746.29
900.33	6724.37
900.644	6678.95
900.959	6690.93
901.273	6733.18
901.588	6595.11
901.902	6619.06
902.216	6573.87
902.531	6570.25
902.845	6561.44
903.159	6502
903.473	6505.39
903.787	6439.63
904.101	6444.15
904.415	6435.79
904.729	6421.78
905.042	6384.27
905.356	6373.65
905.67	6302.69
905.984	6334.55
906.297	6295.68
906.611	6256.13
906.924	6297.04
907.237	6225.18
907.551	6197.61
907.864	6230.15
908.177	6142.01
908.491	6213.88
908.804	6180.2
909.117	6089.13
909.43	6072.18
909.743	6078.74
910.056	6008.01
910.368	6019.08
910.681	6031.28
910.994	5986.76
911.307	5976.82
911.619	5893.43
911.932	5914.22
912.244	5916.48
912.557	5889.82
912.869	5836.26
913.181	5814.79
913.494	5799.2
913.806	5776.15
914.118	5703.38
914.43	5713.55
914.742	5663.61
915.054	5756.71
915.366	5653.21
915.678	5604.17
915.99	5584.97
916.302	5554.01
916.613	5590.62
916.925	5548.13
917.236	5600.11
917.548	5510.39
917.859	5529.37
918.171	5420.68
918.482	5448.92
918.794	5407.12
919.105	5356.95
919.416	5307.01
919.727	5363.73
920.038	5301.58
920.349	5318.08
920.66	5225.65
920.971	5262.94
921.282	5268.36
921.593	5176.39
921.903	5176.84
922.214	5137.75
922.525	5121.93
922.835	5091.87
923.146	5043.29
923.456	5082.83
923.767	5044.64
924.077	5026.34
924.387	5007.13
924.697	4986.34
925.008	4949.05
925.318	4945.89
925.628	4927.13
925.938	4895.72
926.248	4859.11
926.558	4869.96
926.867	4810.52
927.177	4831.77
927.487	4781.6
927.796	4779.79
928.106	4749.28
928.416	4746.12
928.725	4739.11
929.034	4716.74
929.344	4709.28
929.653	4687.81
929.962	4621.83
930.271	4621.15
930.581	4617.99
930.89	4616.63
931.199	4565.11
931.508	4540.47
931.817	4530.08
932.125	4533.02
932.434	4493.92
932.743	4474.94
933.051	4432
933.36	4383.87
933.669	4350.42
933.977	4427.71
934.286	4380.7
934.594	4362.4
934.902	4307.03
935.21	4329.18
935.519	4316.75
935.827	4305.9
936.135	4232.46
936.443	4205.34
936.751	4203.31
937.059	4206.92
937.367	4194.49
937.674	4186.36
937.982	4180.71
938.29	4148.85
938.597	4149.3
938.905	4105.23
939.213	4113.37
939.52	4107.04
939.827	4039.92
940.135	4066.59
940.442	4045.35
940.749	3959.47
941.056	4017.1
941.363	3945.46
941.67	3948.85
941.977	3921.73
942.284	3881.51
942.591	3899.36
942.898	3861.17
943.205	3880.83
943.511	3870.21
943.818	3839.25
944.125	3782.53
944.431	3781.85
944.738	3759.93
945.044	3759.48
945.35	3720.61
945.657	3727.84
945.963	3761.06
946.269	3711.34
946.575	3718.57
946.881	3662.08
947.187	3623.21
947.493	3616.2
947.799	3629.99
948.105	3645.58
948.41	3572.59
948.716	3566.94
949.022	3601.52
949.327	3582.08
949.633	3524.46
949.938	3544.12
950.244	3502.08
950.549	3452.82
950.854	3467.73
951.16	3499.37
951.465	3469.09
951.77	3444.46
952.075	3451.91
952.38	3425.47
952.685	3413.5
952.99	3381.86
953.294	3364.23
953.599	3359.04
953.904	3339.15
954.209	3268.87
954.513	3293.95
954.818	3293.27
955.122	3299.6
955.426	3265.71
955.731	3198.36
956.035	3243.78
956.339	3240.17
956.643	3251.47
956.948	3175.54
957.252	3155.43
957.556	3161.53
957.86	3131.25
958.163	3173.28
958.467	3153.17
958.771	3117.69
959.075	3135.99
959.378	3129.21
959.682	3063.9
959.985	3055.54
960.289	3062.32
960.592	3078.59
960.896	3025.03
961.199	2999.72
961.502	3013.51
961.805	3015.54
962.108	2962.89
962.411	3011.02
962.714	2988.2
963.017	2942.1
963.32	2955.2
963.623	2927.41
963.926	2917.69
964.228	2897.58
964.531	2876.34
964.833	2893.74
965.136	2839.5
965.438	2860.07
965.741	2845.38
966.043	2834.3
966.345	2806.73
966.648	2794.53
966.95	2779.62
967.252	2777.58
967.554	2773.51
967.856	2721.99
968.158	2713.18
968.46	2743.01
968.761	2745.49
969.063	2729.22
969.365	2689.45
969.666	2717.24
969.968	2637.02
970.269	2673.18
970.571	2654.87
970.872	2650.13
971.174	2601.09
971.475	2632.28
971.776	2600.86
972.077	2606.06
972.378	2599.28
972.679	2601.77
972.98	2565.38
973.281	2581.88
973.582	2561.32
973.883	2515.89
974.183	2524.03
974.484	2497.36
974.785	2471.15
975.085	2521.32
975.386	2496.69
975.686	2486.06
975.986	2488.32
976.287	2465.73
976.587	2460.98
976.887	2439.29
977.187	2424.82
977.487	2426.18
977.787	2417.82
978.087	2393.19
978.387	2373.3
978.687	2381.89
978.987	2409.91
979.286	2365.62
979.586	2347.54
979.885	2279.97
980.185	2312.06
980.484	2288.56
980.784	2302.34
981.083	2308.44
981.382	2254.43
981.682	2279.74
981.981	2262.79
982.28	2255.34
982.579	2270.25
982.878	2212.63
983.177	2214.89
983.475	2220.31
983.774	2207.65
984.073	2208.33
984.372	2180.08
984.67	2180.31
984.969	2189.35
985.267	2167.43
985.566	2124.27
985.864	2140.54
986.162	2129.69
986.461	2125.4
986.759	2093.76
987.057	2121.33
987.355	2118.62
987.653	2083.14
987.951	2075.23
988.249	2093.08
988.547	2096.7
988.844	2033.87
989.142	2025.29
989.44	2028
989.737	2015.12
990.035	2016.47
990.332	2018.96
990.63	2038.62
990.927	1976.93
991.224	2011.95
991.521	1988.22
991.819	1970.15
992.116	1909.13
992.413	1948.9
992.71	1891.28
993.006	1892.63
993.303	1891.28
993.6	1921.11
993.897	1897.38
994.193	1892.18
994.49	1881.56
994.787	1865.97
995.083	1848.57
995.379	1844.27
995.676	1834.56
995.972	1877.49
996.268	1839.75
996.565	1833.88
996.861	1782.58
997.157	1807.44
997.453	1783.26
997.749	1787.78
998.044	1771.06
998.34	1788.91
998.636	1771.51
998.932	1745.07
999.227	1739.42
999.523	1725.41
999.818	1696.93
1000.114	1731.96
1000.409	1723.6
1000.704	1683.15
1001	1682.02
1001.295	1682.02
1001.59	1730.38
1001.885	1678.4
1002.18	1652.19
1002.475	1676.37
1002.77	1657.84
1003.065	1648.57
1003.359	1651.96
1003.654	1642.24
1003.949	1609.48
1004.243	1603.83
1004.538	1577.61
1004.832	1598.86
1005.127	1590.49
1005.421	1584.85
1005.715	1561.34
1006.009	1561.12
1006.304	1537.84
1006.598	1532.87
1006.892	1535.36
1007.186	1506.2
1007.48	1514.79
1007.773	1531.74
1008.067	1493.55
1008.361	1491.06
1008.655	1471.18
1008.948	1458.29
1009.242	1484.51
1009.535	1476.15
1009.829	1452.65
1010.122	1447
1010.415	1438.41
1010.708	1472.31
1011.001	1407.9
1011.295	1422.14
1011.588	1411.29
1011.881	1390.27
1012.173	1396.6
1012.466	1344.17
1012.759	1381.23
1013.052	1378.07
1013.344	1336.04
1013.637	1349.15
1013.93	1333.78
1014.222	1367.22
1014.514	1323.84
1014.807	1320.9
1015.099	1293.1
1015.391	1323.84
1015.683	1335.36
1015.976	1271.41
1016.268	1312.76
1016.56	1284.06
1016.851	1267.11
1017.143	1282.93
1017.435	1274.35
1017.727	1269.15
1018.018	1275.02
1018.31	1235.7
1018.602	1247.23
1018.893	1205.65
1019.185	1244.29
1019.476	1211.75
1019.767	1223.95
1020.058	1188.7
1020.35	1157.06
1020.641	1180.56
1020.932	1170.17
1021.223	1195.7
1021.514	1167.91
1021.804	1151.18
1022.095	1146.21
1022.386	1130.39
1022.677	1125.2
1022.967	1122.03
1023.258	1130.17
1023.548	1107.34
1023.839	1136.5
1024.129	1075.93
1024.419	1072.32
1024.709	1093.11
1025	1082.26
1025.29	1080
1025.58	1069.83
1025.87	1041.58
1026.16	1058.31
1026.449	1038.19
1026.739	1061.7
1027.029	1041.81
1027.319	1020.11
1027.608	1025.76
1027.898	1026.89
1028.187	1010.62
1028.477	1009.49
1028.766	1013.79
1029.055	981.92
1029.344	990.51
1029.634	987.35
1029.923	996.39
1030.212	976.27
1030.501	982.6
1030.79	960.23
1031.078	953.22
1031.367	924.75
1031.656	953.22
1031.945	970.17
1032.233	954.13
1032.522	933.79
1032.81	918.42
1033.099	903.28
1033.387	917.74
1033.675	922.94
1033.963	915.03
1034.251	897.63
1034.54	898.08
1034.828	881.36
1035.116	895.37
1035.403	887.01
1035.691	866.9
1035.979	868.03
1036.267	839.78
1036.554	876.62
1036.842	844.98
1037.129	844.3
1037.417	843.85
1037.704	825.77
1037.992	833.68
1038.279	821.02
1038.566	826.22
1038.853	826.22
1039.14	826.22
