Data from foam2_polystyrene_foam_FLMS001491_00044.txt Node
Date: Wed Feb 08 10:58:01 GMT 2017
User: dcchb
Spectrometer: FLMS00149
Trigger mode: 0
Integration Time (sec): 2.000000E-2
Scans to average: 10
Electric dark correction enabled: true
Nonlinearity correction enabled: false
Boxcar width: 0
XAxis mode: Wavelengths
Number of Pixels in Spectrum: 2048
>>>>>Begin Spectral Data<<<<<
341.393	-13.71
341.776	-13.71
342.16	-13.71
342.543	-47.84
342.927	-74.05
343.31	-73.6
343.693	-75.18
344.077	-67.95
344.46	-48.74
344.843	-60.04
345.226	-46.03
345.61	-40.38
345.993	-18.23
346.376	6.4
346.759	-0.61
347.142	24.93
347.525	37.13
347.908	88.2
348.291	74.64
348.674	82.78
349.057	116.68
349.44	123.68
349.823	144.47
350.206	180.18
350.588	223.57
350.971	238.48
351.354	242.78
351.737	279.39
352.119	276.9
352.502	277.8
352.884	291.14
353.267	318.48
353.65	300.85
354.032	327.97
354.414	343.79
354.797	320.51
355.179	342.21
355.562	332.49
355.944	327.29
356.326	358.25
356.709	362.09
357.091	360.74
357.473	358.48
357.855	345.15
358.238	355.99
358.62	357.8
359.002	381.53
359.384	356.67
359.766	355.99
360.148	362.32
360.53	376.56
360.912	346.5
361.294	349.89
361.676	358.93
362.057	372.94
362.439	359.61
362.821	346.28
363.203	376.78
363.584	363.68
363.966	349.44
364.348	352.15
364.729	369.55
365.111	371.81
365.493	350.8
365.874	362.32
366.256	365.94
366.637	350.57
367.019	371.81
367.4	357.8
367.781	387.63
368.163	358.93
368.544	351.47
368.925	356.22
369.306	359.38
369.688	352.38
370.069	371.13
370.45	369.1
370.831	380.4
371.212	364.35
371.593	355.99
371.974	372.94
372.355	392.83
372.736	376.78
373.117	383.34
373.498	384.92
373.879	365.71
374.26	360.74
374.641	357.12
375.021	361.87
375.402	366.61
375.783	399.61
376.163	405.94
376.544	383.11
376.925	400.51
377.305	386.28
377.686	394.18
378.066	404.13
378.447	409.1
378.827	398.48
379.208	404.58
379.588	414.97
379.968	410.46
380.349	421.08
380.729	424.92
381.109	431.7
381.489	435.31
381.87	426.95
382.25	448.19
382.63	426.73
383.01	436.44
383.39	455.43
383.77	451.13
384.15	440.29
384.53	439.16
384.91	474.86
385.29	452.04
385.67	468.08
386.049	474.41
386.429	461.98
386.809	495.65
387.189	483.9
387.568	474.63
387.948	478.25
388.328	491.58
388.707	508.31
389.087	496.33
389.466	494.07
389.846	493.84
390.225	535.42
390.605	512.37
390.984	531.58
391.363	541.07
391.743	532.03
392.122	558.7
392.501	539.04
392.881	554.18
393.26	555.76
393.639	545.14
394.018	574.97
394.397	580.39
394.776	570.45
395.155	594.86
395.534	585.37
395.913	577.68
396.292	595.99
396.671	598.02
397.05	585.14
397.429	606.16
397.808	621.75
398.186	636.89
398.565	602.77
398.944	612.71
399.323	633.05
399.701	647.96
400.08	639.38
400.458	635.53
400.837	644.35
401.215	657.68
401.594	661.52
401.972	663.33
402.351	706.04
402.729	669.66
403.107	693.84
403.486	688.87
403.864	696.1
404.242	686.15
404.62	732.48
404.999	697.91
405.377	740.16
405.755	724.35
406.133	745.14
406.511	722.54
406.889	778.13
407.267	762.54
407.645	788.98
408.023	775.64
408.401	796.43
408.779	785.36
409.156	838.47
409.534	829.2
409.912	840.5
410.29	846.6
410.667	855.19
411.045	848.41
411.422	852.25
411.8	883.66
412.178	897.9
412.555	912.59
412.933	914.62
413.31	924.34
413.687	947.62
414.065	940.16
414.442	958.01
414.819	966.37
415.197	970.89
415.574	995.07
415.951	1010.67
416.328	1012.25
416.705	1002.53
417.082	1026.48
417.46	1055.86
417.837	1049.76
418.214	1007.05
418.591	1034.17
418.967	1045.24
419.344	1098.12
419.721	1088.18
420.098	1091.12
420.475	1110.32
420.852	1100.83
421.228	1130.66
421.605	1164.11
421.982	1189.87
422.358	1173.6
422.735	1222.41
423.111	1184.45
423.488	1232.13
423.864	1240.26
424.241	1232.58
424.617	1263.09
424.994	1253.6
425.37	1266.48
425.746	1292.47
426.123	1296.08
426.499	1291.34
426.875	1323.43
427.251	1380.37
427.627	1384.22
428.003	1376.98
428.379	1396.87
428.756	1399.36
429.132	1449.07
429.507	1465.12
429.883	1482.52
430.259	1499.24
430.635	1492.46
431.011	1517.32
431.387	1539.92
431.763	1569.07
432.138	1567.26
432.514	1614.27
432.89	1646.81
433.265	1643.64
433.641	1674.15
434.016	1708.5
434.392	1731.1
434.767	1767.71
435.143	1767.03
435.518	1751.21
435.894	1791.89
436.269	1836.63
436.644	1861.04
437.02	1869.17
437.395	1880.93
437.77	1886.57
438.145	1938.1
438.52	1912.34
438.895	1957.76
439.271	1947.14
439.646	1989.62
440.021	2011.54
440.395	2061.26
440.77	2031.88
441.145	2082.73
441.52	2089.51
441.895	2109.17
442.27	2113.24
442.645	2157.08
443.019	2170.41
443.394	2176.51
443.769	2196.85
444.143	2209.96
444.518	2237.75
444.892	2210.18
445.267	2265.32
445.641	2263.06
446.016	2320.24
446.39	2332.89
446.764	2337.41
447.139	2355.49
447.513	2359.33
447.887	2400.46
448.262	2386.9
448.636	2445.43
449.01	2459.89
449.384	2507.35
449.758	2478.42
450.132	2530.17
450.506	2580.57
450.88	2584.18
451.254	2565.65
451.628	2606.56
452.002	2653.11
452.376	2667.8
452.75	2668.25
453.123	2710.73
453.497	2721.13
453.871	2765.65
454.244	2820.56
454.618	2845.42
454.992	2876.15
455.365	2857.4
455.739	2965.64
456.112	2994.12
456.486	3039.76
456.859	3028.92
457.232	3097.62
457.606	3086.77
457.979	3163.83
458.352	3159.99
458.725	3205.86
459.099	3257.84
459.472	3316.37
459.845	3328.12
460.218	3393.2
460.591	3401.56
460.964	3432.97
461.337	3484.95
461.71	3591.39
462.083	3592.07
462.456	3630.71
462.829	3619.41
463.201	3687.88
463.574	3726.75
463.947	3736.92
464.32	3831.83
464.692	3921.55
465.065	3902.79
465.438	3948.44
465.81	4008.55
466.183	4101.43
466.555	4127.42
466.928	4187.31
467.3	4179.4
467.672	4271.14
468.045	4321.54
468.417	4332.39
468.789	4377.13
469.161	4487.64
469.534	4537.35
469.906	4626.39
470.278	4658.03
470.65	4676.33
471.022	4786.39
471.394	4877.68
471.766	4959.26
472.138	5028.64
472.51	5093.5
472.882	5177.79
473.253	5223.89
473.625	5292.13
473.997	5367.84
474.369	5437.89
474.74	5524.45
475.112	5618.68
475.484	5700.94
475.855	5797.88
476.227	5873.36
476.598	6018.67
476.97	6061.61
477.341	6231.09
477.713	6278.55
478.084	6338.66
478.455	6529.62
478.827	6590.86
479.198	6714.92
479.569	6737.97
479.94	6960.79
480.311	7024.97
480.682	7151.3
481.053	7356.49
481.424	7482.81
481.795	7481.23
482.166	7664.73
482.537	7768.23
482.908	7897.72
483.279	8026.53
483.65	8209.12
484.021	8353.75
484.391	8431.71
484.762	8510.58
485.133	8601.65
485.503	8697.47
485.874	8948.08
486.244	8972.04
486.615	9152.15
486.985	9257.23
487.356	9411.57
487.726	9514.85
488.097	9721.17
488.467	9781.96
488.837	9941.28
489.207	10075.51
489.578	10195.06
489.948	10345.11
490.318	10435.95
490.688	10504.43
491.058	10659.9
491.428	10838.88
491.798	10907.13
492.168	11125.2
492.538	11157.52
492.908	11318.19
493.278	11531.74
493.648	11550.5
494.017	11598.41
494.387	11835.92
494.757	11937.38
495.126	12042.69
495.496	12112.97
495.866	12238.62
496.235	12328.11
496.605	12426.64
496.974	12541.44
497.344	12598.61
497.713	12765.84
498.082	12818.94
498.452	12989.33
498.821	13018.26
499.19	13074.76
499.559	13302.09
499.928	13384.13
500.298	13438.59
500.667	13543.67
501.036	13552.03
501.405	13737.79
501.774	13817.79
502.143	13910.21
502.512	13945.92
502.88	14174.61
503.249	14116.31
503.618	14310.65
503.987	14340.71
504.356	14496.19
504.724	14609.4
505.093	14622.51
505.462	14681.94
505.83	14794.03
506.199	15052.33
506.567	15098.66
506.936	15157.41
507.304	15352.89
507.672	15494.8
508.041	15500.91
508.409	15706.32
508.777	15702.93
509.145	15889.14
509.514	15837.39
509.882	16076.71
510.25	16225.41
510.618	16240.32
510.986	16261.56
511.354	16502.69
511.722	16716.47
512.09	16916.91
512.458	16932.28
512.826	17031.94
513.193	17165.95
513.561	17273.74
513.929	17384.7
514.297	17564.81
514.664	17698.14
515.032	17821.07
515.4	17924.12
515.767	18037.79
516.135	18119.82
516.502	18093.15
516.869	18445.46
517.237	18550.54
517.604	18528.85
517.972	18763.42
518.339	18818.11
518.706	18883.87
519.073	19034.15
519.44	19119.34
519.808	19447.47
520.175	19519.56
520.542	19705.09
520.909	19856.72
521.276	19925.42
521.643	20095.14
522.009	20201.35
522.376	20371.29
522.743	20557.72
523.11	20803.37
523.477	20980.31
523.843	21054.21
524.21	21393.41
524.577	21465.27
524.943	21588.66
525.31	21837.69
525.676	21992.26
526.043	22060.73
526.409	22253.95
526.776	22360.84
527.142	22502.08
527.508	22716.08
527.874	22859.13
528.241	23016.41
528.607	23216.18
528.973	23261.61
529.339	23367.14
529.705	23622.95
530.071	23855.04
530.437	23982.04
530.803	24065.2
531.169	24252.09
531.535	24140.68
531.901	24335.93
532.267	24511.74
532.632	24710.38
532.998	24729.59
533.364	25070.6
533.73	25029.92
534.095	25233.08
534.461	25343.59
534.826	25516.91
535.192	25540.42
535.557	25657.93
535.923	25703.12
536.288	25839.84
536.653	25991.03
537.019	25958.94
537.384	26122.32
537.749	26172.49
538.114	26340.62
538.479	26372.48
538.845	26509.88
539.21	26561.41
539.575	26716.66
539.94	26810.67
540.305	27041.85
540.67	26939.25
541.034	27038.46
541.399	27194.61
541.764	27421.72
542.129	27455.17
542.494	27444.77
542.858	27737.87
543.223	27728.61
543.587	27906
543.952	27811.77
544.316	27908.72
544.681	28102.83
545.045	28079.78
545.41	28267.8
545.774	28345.77
546.138	28451.53
546.503	28558.64
546.867	28658.53
547.231	28783.72
547.595	28818.07
547.959	28913.43
548.324	28933.55
548.688	29204.05
549.052	29253.99
549.416	29290.6
549.779	29394.33
550.143	29424.83
550.507	29669.12
550.871	29726.07
551.235	29715.9
551.599	29923.13
551.962	30018.49
552.326	29910.02
552.689	30170.8
553.053	30112.27
553.417	30195.21
553.78	30779.15
554.143	30554.52
554.507	30803.55
554.87	30858.02
555.234	31098.46
555.597	31110.21
555.96	31133.26
556.323	31387.04
556.686	31364.22
557.05	31585
557.413	31706.36
557.776	31781.38
558.139	31999.68
558.502	32052.34
558.865	32238.77
559.228	32456.62
559.59	32518.99
559.953	32592.21
560.316	32957.17
560.679	33020.67
561.041	33160.1
561.404	33408.91
561.767	33550.83
562.129	33428.12
562.492	33819.75
562.854	33956.01
563.217	34028.78
563.579	34174.77
563.941	34440.75
564.304	34410.69
564.666	34557.81
565.028	34699.5
565.39	34769.55
565.753	34959.15
566.115	35063.78
566.477	35212.03
566.839	35364.56
567.201	35653.82
567.563	35738.11
567.925	35814.27
568.287	36012.01
568.648	36085.45
569.01	36317.53
569.372	36465.33
569.734	36497.64
570.095	36499.45
570.457	36783.28
570.819	36888.37
571.18	36875.94
571.542	37160.9
571.903	37054.24
572.265	37341.01
572.626	37423.49
572.987	37536.48
573.349	37574.22
573.71	37776.7
574.071	37813.31
574.432	38050.14
574.794	38228.67
575.155	38133.98
575.516	38111.61
575.877	38296.92
576.238	38422.34
576.599	38421.89
576.96	38473.86
577.32	38568.55
577.681	38716.34
578.042	38869.78
578.403	38871.14
578.763	38800.18
579.124	38979.38
579.485	38991.36
579.845	39028.2
580.206	39041.3
580.566	38887.64
580.927	39043.11
581.287	39209.44
581.648	39255.31
582.008	39289.21
582.368	39308.87
582.728	39368.53
583.089	39283.78
583.449	39299.38
583.809	39264.12
584.169	39557
584.529	39237.23
584.889	39739.36
585.249	39323.56
585.609	39455.08
585.969	39615.75
586.329	39447.85
586.688	39609.65
587.048	39628.63
587.408	39575.98
587.768	39618.24
588.127	39520.84
588.487	39455.53
588.846	39782.08
589.206	39472.03
589.565	39479.03
589.925	39768.29
590.284	39557
590.643	39724.45
591.003	39705.24
591.362	39909.98
591.721	39764.45
592.08	39746.6
592.44	39867.27
592.799	39899.81
593.158	39746.14
593.517	39744.11
593.876	39894.39
594.235	39725.58
594.593	39814.62
594.952	39905.69
595.311	39630.44
595.67	39883.32
596.029	40018.68
596.387	40099.13
596.746	40078.79
597.104	39778.46
597.463	39853.94
597.822	40028.17
598.18	39906.37
598.538	39930.77
598.897	40187.71
599.255	39817.78
599.613	40355.85
599.972	40093.71
600.33	40263.19
600.688	40202.18
601.046	40223.65
601.404	40461.15
601.762	40313.13
602.12	40560.13
602.478	40526.01
602.836	40476.29
603.194	40358.56
603.552	40469.06
603.91	40393.13
604.268	40526.01
604.625	40426.8
604.983	40611.21
605.341	40426.8
605.698	40580.25
606.056	40623.18
606.413	40606.01
606.771	40695.5
607.128	40751.09
607.485	40579.12
607.843	40779.11
608.2	41034.25
608.557	41114.02
608.914	41108.82
609.272	41227.01
609.629	41228.59
609.986	41312.66
610.343	41092.55
610.7	41322.83
611.057	41360.34
611.414	41208.03
611.771	41307.01
612.127	41555.81
612.484	41545.42
612.841	41724.85
613.198	41459.09
613.554	41499.77
613.911	41694.12
614.267	41643.5
614.624	41653.21
614.98	41779.31
615.337	41880.33
615.693	41932.53
616.05	41869.48
616.406	41989.25
616.762	41837.84
617.118	41942.7
617.475	41971.17
617.831	42034.22
618.187	42048
618.543	42050.26
618.899	42249.58
619.255	42225.63
619.611	42175.23
619.967	42344.95
620.323	42381.56
620.678	42268.11
621.034	42188.34
621.39	42110.15
621.746	42105.18
622.101	42543.58
622.457	42225.18
622.812	42311.95
623.168	42403.48
623.523	42298.17
623.879	42412.74
624.234	42236.7
624.589	42431.27
624.945	42391.72
625.3	42371.39
625.655	42546.97
626.01	42512.4
626.365	42336.13
626.72	42280.77
627.075	42280.99
627.43	42203.48
627.785	42206.42
628.14	42311.73
628.495	42286.19
628.85	42304.72
629.205	42053.43
629.559	42348.11
629.914	42203.71
630.269	42283.48
630.623	42136.59
630.978	42082.58
631.332	42253.65
631.687	42253.87
632.041	42037.84
632.396	42146.53
632.75	41928.69
633.104	42052.3
633.459	41758.07
633.813	41873.77
634.167	41921.68
634.521	41951.06
634.875	41879.2
635.229	41748.8
635.583	41489.83
635.937	41586.77
636.291	41533.44
636.645	41416.61
636.999	41413.9
637.352	41462.48
637.706	41169.84
638.06	41530.28
638.413	41349.49
638.767	41193.56
639.121	41151.53
639.474	41071.31
639.828	41080.12
640.181	41010.97
640.534	41017.98
640.888	40843.74
641.241	40809.17
641.594	40756.74
641.947	40971.2
642.301	40644.43
642.654	40787.7
643.007	40725.55
643.36	40714.25
643.713	40553.13
644.066	40765.78
644.419	40481.72
644.771	40255.51
645.124	39850.77
645.477	39895.97
645.83	39506.15
646.182	39366.27
646.535	39144.13
646.888	39251.92
647.24	38910.01
647.593	39383.44
647.945	39099.16
648.298	39085.14
648.65	38898.03
649.002	38847.64
649.355	38880.86
649.707	38824.81
650.059	38973.28
650.411	39466.83
650.763	39435.19
651.115	39794.96
651.467	39687.61
651.819	39767.16
652.171	39718.57
652.523	39576.66
652.875	39587.05
653.227	39330.11
653.578	39525.36
653.93	39344.57
654.282	39186.16
654.633	39205.59
654.985	39258.93
655.337	39222.32
655.688	39237.01
656.039	39244.91
656.391	38806.28
656.742	38999.05
657.094	39102.32
657.445	39097.35
657.796	39073.39
658.147	38914.08
658.498	39032.04
658.849	39102.32
659.2	38842.21
659.551	38874.75
659.902	38950.91
660.253	38885.15
660.604	38970.57
660.955	38847.18
661.306	38920.4
661.656	38921.31
662.007	38846.28
662.358	38904.58
662.708	38911.36
663.059	38906.17
663.409	38721.09
663.76	38809.45
664.11	38574.65
664.461	38611.26
664.811	38646.06
665.161	38593.86
665.511	38498.72
665.862	38538.04
666.212	38552.96
666.562	38751.59
666.912	38603.35
667.262	38422.11
667.612	38513.41
667.962	38601.54
668.312	38344.37
668.662	38555.67
669.011	38486.29
669.361	38394.99
669.711	38388.67
670.06	38399.51
670.41	38379.63
670.76	38261.89
671.109	38419.85
671.459	38434.09
671.808	38194.09
672.157	38479.06
672.507	38200.87
672.856	38190.48
673.205	38358.38
673.554	38268.89
673.904	38148.9
674.253	38329.68
674.602	38171.04
674.951	37701.9
675.3	37598.18
675.649	38184.83
675.998	38020.31
676.346	37937.83
676.695	38063.7
677.044	37886.53
677.393	37992.97
677.741	38196.58
678.09	37877.04
678.438	37847.44
678.787	37749.13
679.135	37747.1
679.484	37530.38
679.832	37691.73
680.181	37486.99
680.529	37636.14
680.877	37530.38
681.225	37516.6
681.573	37805.63
681.922	37465.98
682.27	37316.83
682.618	37447.67
682.966	37352.99
683.314	37367
683.661	37212.88
684.009	37040.23
684.357	36848.37
684.705	36847.01
685.053	36916.61
685.4	36710.97
685.748	36635.94
686.095	36626.45
686.443	36499
686.79	36255.16
687.138	36551.65
687.485	36360.24
687.832	36241.15
688.18	36314.14
688.527	36086.35
688.874	36059.46
689.221	35940.82
689.568	36045
689.915	35798.45
690.262	35852.69
690.609	35586.03
690.956	35378.12
691.303	35512.13
691.65	35403.89
691.997	35341.29
692.344	35069.21
692.69	35098.58
693.037	35179.71
693.383	34903.11
693.73	35003.44
694.077	34837.57
694.423	34820.62
694.769	34736.11
695.116	34673.96
695.462	34607.52
695.808	34498.37
696.155	34412.73
696.501	34240.98
696.847	34051.6
697.193	33803.25
697.539	34005.28
697.885	33895.22
698.231	33722.35
698.577	33785.4
698.923	33836.7
699.269	33636.25
699.614	33444.39
699.96	33314
700.306	33453.88
700.651	33189.48
700.997	33098.18
701.342	33234.23
701.688	33195.13
702.033	32961.69
702.379	32870.84
702.724	32858.42
703.069	33043.5
703.415	32500.01
703.76	32511.76
704.105	32682.15
704.45	32415.26
704.795	32279.67
705.14	32106.12
705.485	32203.07
705.83	31900.7
706.175	32042.84
706.52	32026.57
706.865	31766.24
707.209	31643.31
707.554	31688.05
707.899	31631.1
708.243	31529.64
708.588	31609.86
708.932	31244.45
709.277	31286.71
709.621	31348.85
709.966	31099.37
710.31	31154.96
710.654	30883.33
710.998	30915.64
711.342	30820.5
711.687	30815.31
712.031	30810.33
712.375	30568.53
712.719	30645.37
713.063	30513.39
713.407	30653.5
713.75	30527.18
714.094	30482.21
714.438	30279.27
714.782	30425.49
715.125	30266.39
715.469	30139.39
715.812	30027.98
716.156	29914.31
716.499	29904.14
716.843	29948.44
717.186	29705.28
717.53	29864.14
717.873	29886.52
718.216	29770.59
718.559	29551.16
718.902	29468.67
719.246	29494.66
719.589	29262.13
719.932	29407.43
720.275	29235.46
720.617	29263.48
720.96	29207.89
721.303	29139.42
721.646	29149.13
721.989	28992.3
722.331	28932.64
722.674	28988.01
723.016	28879.99
723.359	28852.42
723.701	28900.1
724.044	28648.13
724.386	28467.12
724.729	28824.85
725.071	28559.09
725.413	28556.16
725.755	28526.1
726.097	28419.44
726.439	28362.94
726.782	28300.57
727.124	28331.3
727.465	28273.9
727.807	28193
728.149	28097.86
728.491	28148.71
728.833	28052.89
729.175	27958.21
729.516	27883.63
729.858	27896.06
730.199	27960.24
730.541	27742.39
730.882	27755.05
731.224	27786.68
731.565	27625.11
731.906	27559.35
732.248	27614.03
732.589	27523.41
732.93	27448.39
733.271	27423.53
733.612	27506.69
733.953	27382.18
734.294	27302.4
734.635	27209.75
734.976	27295.17
735.317	27203.88
735.658	27175.63
735.999	27223.31
736.339	27096.76
736.68	27061.51
737.021	26954.16
737.361	26899.7
737.702	27007.04
738.042	26887.73
738.383	26781.29
738.723	26868.06
739.063	26685.7
739.404	26794.39
739.744	26685.47
740.084	26536.32
740.424	26589.88
740.764	26549.66
741.104	26520.96
741.444	26419.49
741.784	26384.01
742.124	26353.28
742.464	26324.12
742.804	26225.37
743.143	26320.51
743.483	26247.52
743.823	26038.26
744.162	26082.32
744.502	26154.19
744.841	25998.48
745.181	26090.01
745.52	25993.96
745.86	25941.08
746.199	26035.77
746.538	25833.06
746.877	25905.38
747.216	25866.96
747.556	25698.6
747.895	25749.68
748.234	25670.58
748.573	25552.39
748.911	25579.51
749.25	25613.63
749.589	25470.14
749.928	25526.63
750.267	25463.36
750.605	25453.19
750.944	25350.59
751.283	25148.34
751.621	25225.62
751.96	25094.78
752.298	25064.72
752.636	25156.02
752.975	24961.9
753.313	24875.35
753.651	25010.49
753.989	24950.38
754.327	24838.74
754.666	24650.95
755.004	24607.56
755.342	24676.71
755.679	24579.09
756.017	24476.04
756.355	24475.59
756.693	24295.93
757.031	24345.19
757.368	24210.51
757.706	24087.8
758.044	24136.16
758.381	24198.08
758.719	23956.95
759.056	24051.64
759.394	23991.76
759.731	23794.25
760.068	23746.34
760.405	23634.7
760.743	23617.08
761.08	23614.82
761.417	23582.05
761.754	23461.6
762.091	23450.98
762.428	23291.44
762.765	23179.35
763.102	23232
763.438	23119.91
763.775	22984.33
764.112	22944.78
764.449	22978.22
764.785	22749.08
765.122	22733.71
765.458	22568.29
765.795	22646.03
766.131	22577.78
766.467	22603.32
766.804	22347.28
767.14	22304.12
767.476	22349.09
767.812	22193.39
768.148	22229.99
768.485	22121.97
768.821	21954.07
769.157	21877.46
769.492	21840.63
769.828	21885.6
770.164	21734.87
770.5	21631.82
770.836	21609.22
771.171	21492.16
771.507	21427.08
771.842	21260.3
772.178	21315.44
772.513	21206.74
772.849	21164.26
773.184	20938.28
773.519	21036.35
773.855	21043.36
774.19	20753.42
774.525	20634.78
774.86	20718.4
775.195	20636.59
775.53	20509.36
775.865	20454.9
776.2	20261.01
776.535	20230.05
776.87	20246.54
777.205	20109.15
777.539	19922.48
777.874	20033.89
778.209	19776.5
778.543	19790.74
778.878	19759.1
779.212	19655.15
779.547	19605.88
779.881	19753
780.215	19589.84
780.55	19650.85
780.884	19381.71
781.218	19435.72
781.552	19508.26
781.886	19490.86
782.22	19128.61
782.554	19111.66
782.888	19000.47
783.222	18906.69
783.556	18879.57
783.889	18748.96
784.223	18666.7
784.557	18627.38
784.89	18694.49
785.224	18583.76
785.557	18470.09
785.891	18437.33
786.224	18349.42
786.558	18351.45
786.891	18207.95
787.224	18217.67
787.557	18182.87
787.891	18026.49
788.224	17987.62
788.557	17951.69
788.89	17863.78
789.223	17904.91
789.556	17724.12
789.888	17647.74
790.221	17579.27
790.554	17507.41
790.887	17473.28
791.219	17403.23
791.552	17360.52
791.884	17235.78
792.217	17254.53
792.549	17179.96
792.882	17097.93
793.214	16931.15
793.546	17030.36
793.879	16951.72
794.211	16894.77
794.543	16934.54
794.875	16751.27
795.207	16785.84
795.539	16674.89
795.871	16649.35
796.203	16569.58
796.535	16484.16
796.867	16412.52
797.198	16418.62
797.53	16309.47
797.862	16284.16
798.193	16335.91
798.525	16111.51
798.856	16195.35
799.188	15965.53
799.519	15981.12
799.85	15899.09
800.182	15897.05
800.513	15876.49
800.844	15730.28
801.175	15907.67
801.506	15795.14
801.837	15594.69
802.168	15696.61
802.499	15608.7
802.83	15523.96
803.161	15457.07
803.491	15447.12
803.822	15483.05
804.153	15327.13
804.483	15213.23
804.814	15172.78
805.145	15073.57
805.475	15144.98
805.805	15060.92
806.136	15007.81
806.466	14980.24
806.796	14980.24
807.126	14860.02
807.457	14857.76
807.787	14796.29
808.117	14757.87
808.447	14760.13
808.777	14740.47
809.107	14730.08
809.436	14662.28
809.766	14606.92
810.096	14607.37
810.426	14508.16
810.755	14513.36
811.085	14554.49
811.414	14388.62
811.744	14360.6
812.073	14352.91
812.403	14321.05
812.732	14266.36
813.061	14320.37
813.39	14195.18
813.719	14179.36
814.049	14285.57
814.378	14133.03
814.707	14000.61
815.036	14133.03
815.365	14015.07
815.693	13894.85
816.022	13801.52
816.351	13828.18
816.68	13776.66
817.008	13833.15
817.337	13725.59
817.665	13683.78
817.994	13696.89
818.322	13671.58
818.651	13637
818.979	13610.11
819.307	13620.96
819.636	13584.12
819.964	13473.39
820.292	13604.68
820.62	13486.04
820.948	13491.02
821.276	13500.73
821.604	13484.69
821.932	13496.44
822.259	13424.12
822.587	13413.96
822.915	13408.53
823.243	13442.2
823.57	13377.12
823.898	13444.01
824.225	13360.62
824.553	13369.66
824.88	13338.7
825.207	13490.11
825.535	13368.08
825.862	13537.57
826.189	13430.23
826.516	13450.56
826.843	13497.12
827.17	13492.82
827.497	13423.9
827.824	13493.95
828.151	13522.88
828.478	13473.16
828.805	13501.18
829.131	13446.5
829.458	13395.2
829.785	13268.65
830.111	13387.97
830.438	13365.59
830.764	13318.36
831.09	13281.3
831.417	13247.41
831.743	13355.43
832.069	13279.72
832.395	13264.13
832.722	13388.87
833.048	13258.48
833.374	13364.01
833.7	13268.2
834.026	13278.59
834.351	13267.29
834.677	13211.93
835.003	13236.33
835.329	13153.4
835.654	13167.63
835.98	13096.22
836.306	13128.31
836.631	13073.85
836.956	13210.8
837.282	13078.82
837.607	13039.95
837.932	12968.77
838.258	12991.82
838.583	13023.23
838.908	12931.26
839.233	12930.13
839.558	12884.25
839.883	12816
840.208	12816.46
840.533	12783.46
840.858	12816
841.182	12872.27
841.507	12796.57
841.832	12667.53
842.156	12733.07
842.481	12714.31
842.805	12636.12
843.13	12638.83
843.454	12597.48
843.778	12629.57
844.103	12533.3
844.427	12506.18
844.751	12509.12
845.075	12512.06
845.399	12384.15
845.723	12485.62
846.047	12405.62
846.371	12373.3
846.695	12282.01
847.019	12192.29
847.343	12132.86
847.666	12063.48
847.99	12064.39
848.313	12006.76
848.637	11964.5
848.96	11801.57
849.284	11883.6
849.607	11762.93
849.931	11753.66
850.254	11656.49
850.577	11644.74
850.9	11530.84
851.223	11541.24
851.546	11497.17
851.869	11436.38
852.192	11476.38
852.515	11279.32
852.838	11281.13
853.161	11232.54
853.483	11227.8
853.806	11116.39
854.129	11194.8
854.451	11144.18
854.774	11036.84
855.096	11026.22
855.419	10950.74
855.741	10908.26
856.063	10917.52
856.385	10887.69
856.708	10816.96
857.03	10776.28
857.352	10763.4
857.674	10753.01
857.996	10740.13
858.318	10603.63
858.64	10751.2
858.961	10656.51
859.283	10615.16
859.605	10656.97
859.926	10601.15
860.248	10537.42
860.57	10486.12
860.891	10585.78
861.212	10475.5
861.534	10400.25
861.855	10390.76
862.176	10438.21
862.498	10396.63
862.819	10378.33
863.14	10320.93
863.461	10325.9
863.782	10293.13
864.103	10257.2
864.424	10295.39
864.745	10331.32
865.065	10256.52
865.386	10157.32
865.707	10277.77
866.027	10234.83
866.348	10193.02
866.668	10179.46
866.989	10158.22
867.309	10085.68
867.63	10115.06
867.95	10107.38
868.27	10069.86
868.59	10023.31
868.91	10015.4
869.23	10046.13
869.55	10026.93
869.87	10040.71
870.19	9994.61
870.51	10010.43
870.83	9982.41
871.15	9896.76
871.469	9942.18
871.789	9944.89
872.109	9862.18
872.428	9856.76
872.748	9892.01
873.067	9818.12
873.386	9832.58
873.706	9826.03
874.025	9766.37
874.344	9693.6
874.663	9768.18
874.982	9712.58
875.301	9783.77
875.62	9754.84
875.939	9673.71
876.258	9756.88
876.577	9667.16
876.896	9639.59
877.214	9625.13
877.533	9636.2
877.852	9627.84
878.17	9565.24
878.489	9615.64
878.807	9606.6
879.125	9506.49
879.444	9503.55
879.762	9465.13
880.08	9543.1
880.398	9460.84
880.716	9433.95
881.034	9455.42
881.352	9455.42
881.67	9415.42
881.988	9440.27
882.306	9404.8
882.624	9399.82
882.941	9321.41
883.259	9293.61
883.577	9314.18
883.894	9271.47
884.212	9272.37
884.529	9237.12
884.846	9138.81
885.164	9195.99
885.481	9200.51
885.798	9240.51
886.115	9180.85
886.432	9121.64
886.75	9129.32
887.067	9134.75
887.383	9064.47
887.7	9049.78
888.017	8992.38
888.334	8934.98
888.651	9052.49
888.967	8878.71
889.284	8920.97
889.6	8843
889.917	8782.66
890.233	8828.31
890.55	8763
890.866	8760.29
891.182	8716.23
891.498	8710.58
891.815	8732.27
892.131	8633.97
892.447	8617.7
892.763	8657.47
893.079	8616.57
893.395	8566.85
893.71	8555.33
894.026	8510.13
894.342	8578.15
894.657	8411.15
894.973	8414.76
895.289	8385.61
895.604	8372.28
895.92	8374.31
896.235	8317.59
896.55	8358.49
896.865	8329.57
897.181	8283.69
897.496	8248.89
897.811	8271.27
898.126	8181.55
898.441	8140.42
898.756	8136.81
899.071	8036.92
899.386	8044.38
899.7	8026.3
900.015	7953.08
900.33	7867.21
900.644	7951.95
900.959	7954.89
901.273	7857.04
901.588	7853.42
901.902	7780.21
902.216	7790.15
902.531	7819.07
902.845	7765.52
903.159	7728.45
903.473	7729.81
903.787	7635.12
904.101	7612.53
904.415	7621.79
904.729	7605.29
905.042	7499.53
905.356	7566.43
905.67	7450.5
905.984	7474.22
906.297	7445.07
906.611	7404.4
906.924	7412.08
907.237	7309.71
907.551	7257.96
907.864	7250.05
908.177	7285.98
908.491	7264.51
908.804	7192.42
909.117	7153.78
909.43	7063.84
909.743	7096.16
910.056	7144.52
910.368	7050.96
910.681	7043.28
910.994	7023.39
911.307	6985.65
911.619	6915.14
911.932	6954.01
912.244	6867.46
912.557	6866.1
912.869	6817.52
913.181	6798.76
913.494	6810.74
913.806	6769.38
914.118	6712.44
914.43	6703.17
914.742	6686.67
915.054	6660.01
915.366	6632.89
915.678	6552.89
915.99	6535.27
916.302	6524.64
916.613	6446
916.925	6459.34
917.236	6454.82
917.548	6380.92
917.859	6447.36
918.171	6389.73
918.482	6325.1
918.794	6352.22
919.105	6295.27
919.416	6216.63
919.727	6239.45
920.038	6251.21
920.349	6177.76
920.66	6125.79
920.971	6165.78
921.282	6116.07
921.593	6124.2
921.903	6036.52
922.214	5997.43
922.525	6004.88
922.835	5952.91
923.146	5949.97
923.456	5948.16
923.767	5893.7
924.077	5856.41
924.387	5854.83
924.697	5852.35
925.008	5811.9
925.318	5783.65
925.628	5798.11
925.938	5787.49
926.248	5717.43
926.558	5633.14
926.867	5672.46
927.177	5644.22
927.487	5600.15
927.796	5575.97
928.106	5547.27
928.416	5544.56
928.725	5515.86
929.034	5499.36
929.344	5528.06
929.653	5530.32
929.962	5441.28
930.271	5437.89
930.581	5431.34
930.89	5335.52
931.199	5336.2
931.508	5382.3
931.817	5307.73
932.125	5272.02
932.434	5302.98
932.743	5222.53
933.051	5210.1
933.36	5188.18
933.669	5158.13
933.977	5162.42
934.286	5202.19
934.594	5108.86
934.902	5132.82
935.21	5085.13
935.519	5093.72
935.827	5024.57
936.135	4967.4
936.443	4973.95
936.751	4922.2
937.059	4948.87
937.367	4937.34
937.674	4967.62
937.982	4871.35
938.29	4858.47
938.597	4895.99
938.905	4786.39
939.213	4781.19
939.52	4777.57
939.827	4816.22
940.135	4803.11
940.442	4719.27
940.749	4747.74
941.056	4694.18
941.363	4675.65
941.67	4666.39
941.977	4645.37
942.284	4660.97
942.591	4545.71
942.898	4614.41
943.205	4611.02
943.511	4568.76
943.818	4536.9
944.125	4483.12
944.431	4472.95
944.738	4437.69
945.044	4478.82
945.35	4378.03
945.657	4375.55
945.963	4366.06
946.269	4339.39
946.575	4385.94
946.881	4348.66
947.187	4303.23
947.493	4313.4
947.799	4300.07
948.105	4274.08
948.41	4255.33
948.716	4236.34
949.022	4177.36
949.327	4203.35
949.633	4153.86
949.938	4145.27
950.244	4124.26
950.549	4125.39
950.854	4137.36
951.16	4053.3
951.465	4072.96
951.77	4073.86
952.075	3994.54
952.38	4063.92
952.685	3975.33
952.99	3968.1
953.294	3994.99
953.599	3928.78
953.904	3933.98
954.209	3876.8
954.513	3896.69
954.818	3884.04
955.122	3829.35
955.426	3806.98
955.731	3836.35
956.035	3784.38
956.339	3747.99
956.643	3782.57
956.948	3764.49
957.252	3722.01
957.556	3724.04
957.86	3729.69
958.163	3659.64
958.467	3676.58
958.771	3665.96
959.075	3650.6
959.378	3623.48
959.682	3658.05
959.985	3631.39
960.289	3582.8
960.592	3573.54
960.896	3551.39
961.199	3558.4
961.502	3546.87
961.805	3473.43
962.108	3455.57
962.411	3499.41
962.714	3446.99
963.017	3461
963.32	3413.31
963.623	3440.88
963.926	3394.56
964.228	3378.29
964.531	3368.57
964.833	3385.29
965.136	3352.75
965.438	3339.19
965.741	3314.33
966.043	3329.02
966.345	3275.24
966.648	3285.63
966.95	3246.09
967.252	3229.36
967.554	3223.04
967.856	3191.85
968.158	3225.3
968.46	3211.96
968.761	3222.81
969.063	3167.9
969.365	3175.35
969.666	3106.43
969.968	3126.99
970.269	3133.32
970.571	3122.7
970.872	3108.92
971.174	3032.31
971.475	3048.8
971.776	3073.21
972.077	2989.82
972.378	3051.74
972.679	3018.07
972.98	3003.61
973.281	2988.69
973.582	2997.28
973.883	2943.95
974.183	2954.8
974.484	2934.23
974.785	2941.01
975.085	2901.92
975.386	2902.82
975.686	2904.4
975.986	2892.65
976.287	2894.23
976.587	2816.04
976.887	2821.69
977.187	2853.33
977.487	2795.48
977.787	2782.6
978.087	2774.91
978.387	2799.55
978.687	2775.14
978.987	2755.03
979.286	2715.03
979.586	2736.5
979.885	2694.46
980.185	2678.87
980.484	2683.84
980.784	2684.29
981.083	2677.29
981.382	2666.44
981.682	2675.25
981.981	2636.61
982.28	2630.06
982.579	2619.44
982.878	2605.2
983.177	2568.82
983.475	2573.56
983.774	2537.18
984.073	2561.13
984.372	2555.26
984.67	2502.83
984.969	2504.41
985.267	2507.8
985.566	2516.16
985.864	2503.06
986.162	2493.79
986.461	2447.46
986.759	2437.52
987.057	2417.86
987.355	2417.86
987.653	2431.87
987.951	2408.82
988.249	2392.78
988.547	2385.54
988.844	2377.64
989.142	2359.1
989.44	2321.14
989.737	2344.19
990.035	2337.41
990.332	2316.62
990.63	2282.95
990.927	2295.38
991.224	2250.86
991.521	2282.72
991.819	2267.58
992.116	2253.34
992.413	2239.56
992.71	2230.52
993.006	2220.13
993.303	2236.85
993.6	2219.67
993.897	2189.62
994.193	2164.76
994.49	2170.41
994.787	2174.25
995.083	2152.1
995.379	2163.63
995.676	2093.8
995.972	2138.55
996.268	2094.93
996.565	2096.74
996.861	2093.57
997.157	2073.91
997.453	2080.47
997.749	2051.77
998.044	2009.74
998.34	2037.76
998.636	1996.63
998.932	2032.79
999.227	1989.62
999.523	1988.04
999.818	1991.88
1000.114	1981.49
1000.409	1962.28
1000.704	1911.21
1001	1953.01
1001.295	1919.12
1001.59	1929.06
1001.885	1911.88
1002.18	1885.22
1002.475	1884.31
1002.77	1904.65
1003.065	1899.91
1003.359	1855.62
1003.654	1880.47
1003.949	1821.49
1004.243	1819.01
1004.538	1821.94
1004.832	1821.27
1005.127	1830.98
1005.421	1787.14
1005.715	1788.27
1006.009	1779.46
1006.304	1770.65
1006.598	1757.31
1006.892	1747.37
1007.186	1730.87
1007.48	1727.48
1007.773	1714.6
1008.067	1682.06
1008.361	1688.61
1008.655	1703.98
1008.948	1682.29
1009.242	1672.79
1009.535	1676.64
1009.829	1654.49
1010.122	1652.23
1010.415	1646.36
1010.708	1615.4
1011.001	1608.39
1011.295	1596.19
1011.588	1599.35
1011.881	1576.07
1012.173	1578.79
1012.466	1587.83
1012.759	1582.18
1013.052	1552.8
1013.344	1561.16
1013.637	1567.04
1013.93	1517.77
1014.222	1511.67
1014.514	1487.49
1014.807	1512.8
1015.099	1495.85
1015.391	1470.99
1015.683	1465.34
1015.976	1447.49
1016.268	1461.05
1016.56	1468.28
1016.851	1440.48
1017.143	1427.6
1017.435	1454.5
1017.727	1399.36
1018.018	1405.91
1018.31	1397.77
1018.602	1409.98
1018.893	1409.98
1019.185	1353.03
1019.476	1381.05
1019.767	1372.24
1020.058	1324.1
1020.35	1336.76
1020.641	1334.5
1020.932	1299.02
1021.223	1281.39
1021.514	1317.1
1021.804	1301.05
1022.095	1298.57
1022.386	1281.84
1022.677	1289.53
1022.967	1240.04
1023.258	1268.96
1023.548	1226.25
1023.839	1219.7
1024.129	1229.87
1024.419	1236.2
1024.709	1211.56
1025	1214.28
1025.29	1217.67
1025.58	1199.59
1025.87	1177.89
1026.16	1193.94
1026.449	1143.54
1026.739	1170.66
1027.029	1153.71
1027.319	1156.88
1027.608	1179.47
1027.898	1135.18
1028.187	1127.05
1028.477	1117.33
1028.766	1110.1
1029.055	1108.97
1029.344	1098.57
1029.634	1094.51
1029.923	1080.27
1030.212	1094.73
1030.501	1085.92
1030.79	1052.7
1031.078	1039.59
1031.367	1014.06
1031.656	1041.85
1031.945	1054.28
1032.233	1054.28
1032.522	1037.11
1032.81	1015.19
1033.099	998.91
1033.387	1001.63
1033.675	1019.48
1033.963	1003.21
1034.251	987.16
1034.54	982.19
1034.828	979.25
1035.116	976.54
1035.403	959.59
1035.691	960.27
1035.979	962.98
1036.267	953.94
1036.554	942.64
1036.842	935.64
1037.129	922.53
1037.417	921.63
1037.704	920.72
1037.992	908.52
1038.279	907.39
1038.566	889.54
1038.853	889.54
1039.14	889.54
