Data from foam_black_FLMS001491_00023.txt Node
Date: Wed Feb 08 10:43:38 GMT 2017
User: dcchb
Spectrometer: FLMS00149
Trigger mode: 0
Integration Time (sec): 2.000000E-2
Scans to average: 10
Electric dark correction enabled: true
Nonlinearity correction enabled: false
Boxcar width: 0
XAxis mode: Wavelengths
Number of Pixels in Spectrum: 2048
>>>>>Begin Spectral Data<<<<<
341.393	-8.38
341.776	-8.38
342.16	-8.38
342.543	-69.62
342.927	-83.18
343.31	-64.87
343.693	-72.1
344.077	-67.81
344.46	-47.02
344.843	-46.57
345.226	-22.16
345.61	-34.82
345.993	-18.09
346.376	-7.47
346.759	3.83
347.142	31.4
347.525	41.34
347.908	35.92
348.291	71.62
348.674	86.76
349.057	110.04
349.44	131.51
349.823	122.92
350.206	157.72
350.588	187.55
350.971	199.98
351.354	226.65
351.737	247.21
352.119	243.37
352.502	260.32
352.884	258.28
353.267	285.4
353.65	296.48
354.032	292.86
354.414	311.84
354.797	290.37
355.179	322.92
355.562	299.41
355.944	285.63
356.326	330.82
356.709	329.02
357.091	324.72
357.473	334.44
357.855	306.19
358.238	319.07
358.62	329.24
359.002	341.22
359.384	345.51
359.766	335.12
360.148	319.53
360.53	322.24
360.912	340.99
361.294	298.96
361.676	321.33
362.057	325.4
362.439	327.43
362.821	345.06
363.203	320.66
363.584	333.76
363.966	338.28
364.348	327.89
364.729	321.56
365.111	298.96
365.493	331.05
365.874	315.91
366.256	322.46
366.637	315.23
367.019	305.74
367.4	311.62
367.781	325.63
368.163	296.02
368.544	303.25
368.925	318.4
369.306	329.02
369.688	309.81
370.069	310.94
370.45	312.07
370.831	315.91
371.212	299.86
371.593	301.22
371.974	327.21
372.355	326.3
372.736	316.36
373.117	334.44
373.498	323.14
373.879	300.54
374.26	328.79
374.641	304.16
375.021	310.03
375.402	342.35
375.783	343.03
376.163	353.87
376.544	339.64
376.925	336.47
377.305	319.53
377.686	330.82
378.066	331.05
378.447	346.87
378.827	339.19
379.208	348.23
379.588	321.56
379.968	341.67
380.349	342.58
380.729	362.69
381.109	348.68
381.489	365.17
381.87	354.78
382.25	343.48
382.63	354.1
383.01	349.81
383.39	341.67
383.77	363.37
384.15	347.55
384.53	374.21
384.91	350.26
385.29	379.41
385.67	374.21
386.049	364.04
386.429	373.76
386.809	372.63
387.189	377.15
387.568	386.87
387.948	370.6
388.328	379.86
388.707	391.16
389.087	380.09
389.466	383.48
389.846	378.28
390.225	395.23
390.605	389.81
390.984	392.97
391.363	398.62
391.743	376.93
392.122	385.29
392.501	411.27
392.881	411.73
393.26	413.99
393.639	416.02
394.018	419.41
394.397	423.25
394.776	416.02
395.155	406.08
395.534	424.38
395.913	443.36
396.292	412.4
396.671	436.13
397.05	440.43
397.429	424.38
397.808	434.32
398.186	421.9
398.565	431.39
398.944	437.04
399.323	432.29
399.701	454.89
400.08	466.64
400.458	434.32
400.837	456.02
401.215	455.12
401.594	456.25
401.972	450.37
402.351	450.14
402.729	470.71
403.107	446.53
403.486	454.44
403.864	462.12
404.242	466.19
404.62	481.78
404.999	465.96
405.377	472.52
405.755	462.12
406.133	485.4
406.511	480.88
406.889	486.98
407.267	499.41
407.645	522.01
408.023	494.44
408.401	511.38
408.779	502.35
409.156	517.71
409.534	515.9
409.912	510.48
410.29	549.8
410.667	519.75
411.045	523.36
411.422	528.56
411.8	521.33
412.178	560.88
412.555	548.9
412.933	562
413.31	556.58
413.687	561.78
414.065	588.67
414.442	586.64
414.819	593.19
415.197	561.78
415.574	564.94
415.951	581.21
416.328	590.93
416.705	595.9
417.082	599.97
417.46	621.21
417.837	591.61
418.214	596.58
418.591	630.93
418.967	628.44
419.344	628.44
419.721	615.56
420.098	643.36
420.475	624.6
420.852	629.57
421.228	646.3
421.605	626.18
421.982	642
422.358	660.31
422.735	655.56
423.111	671.83
423.488	660.08
423.864	678.39
424.241	680.87
424.617	660.99
424.994	709.35
425.37	676.35
425.746	700.08
426.123	707.54
426.499	706.63
426.875	708.89
427.251	721.55
427.627	727.88
428.003	755.22
428.379	729.91
428.756	749.57
429.132	757.48
429.507	791.6
429.883	781.21
430.259	758.16
430.635	784.15
431.011	784.15
431.387	793.19
431.763	815.11
432.138	821.89
432.514	814.43
432.89	815.78
433.265	816.01
433.641	834.77
434.016	850.36
434.392	862.34
434.767	813.98
435.143	868.44
435.518	859.62
435.894	858.27
436.269	871.15
436.644	890.58
437.02	904.37
437.395	895.78
437.77	909.57
438.145	896.69
438.52	955.67
438.895	905.5
439.271	922.22
439.646	958.83
440.021	979.62
440.395	952.05
440.77	940.98
441.145	933.07
441.52	973.07
441.895	978.49
442.27	990.02
442.645	998.6
443.019	997.02
443.394	975.78
443.769	1011.94
444.143	999.73
444.518	1020.98
444.892	981.88
445.267	1027.76
445.641	1037.92
446.016	1035.89
446.39	1042.22
446.764	1047.42
447.139	1062.56
447.513	1057.36
447.887	1052.16
448.262	1058.49
448.636	1075.21
449.01	1089.9
449.384	1095.1
449.758	1093.52
450.132	1114.53
450.506	1112.72
450.88	1127.41
451.254	1132.61
451.628	1144.59
452.002	1159.05
452.376	1154.31
452.75	1172.38
453.123	1167.64
453.497	1147.07
453.871	1201.54
454.244	1208.32
454.618	1214.42
454.992	1241.99
455.365	1227.07
455.739	1251.7
456.112	1311.36
456.486	1279.05
456.859	1316.34
457.232	1301.42
457.606	1308.43
457.979	1310.01
458.352	1335.32
458.725	1364.92
459.099	1340.97
459.472	1351.81
459.845	1385.94
460.218	1393.4
460.591	1388.42
460.964	1430.68
461.337	1462.09
461.71	1467.52
462.083	1470.91
462.456	1490.57
462.829	1505.48
463.201	1528.76
463.574	1515.65
463.947	1534.18
464.32	1572.6
464.692	1552.94
465.065	1607.18
465.438	1635.65
465.81	1641.07
466.183	1663.22
466.555	1661.41
466.928	1672.26
467.3	1688.3
467.672	1691.47
468.045	1733.95
468.417	1735.99
468.789	1733.73
469.161	1773.95
469.534	1801.52
469.906	1793.84
470.278	1850.78
470.65	1862.08
471.022	1895.08
471.394	1923.1
471.766	1928.75
472.138	1944.57
472.51	1996.32
472.882	2023.21
473.253	2050.33
473.625	2075.19
473.997	2091.23
474.369	2089.87
474.74	2121.06
475.112	2129.65
475.484	2204
475.855	2243.77
476.227	2227.5
476.598	2330.55
476.97	2306.59
477.341	2331.9
477.713	2435.18
478.084	2380.04
478.455	2470.43
478.827	2508.39
479.198	2547.72
479.569	2539.58
479.94	2590.88
480.311	2646.02
480.682	2705.9
481.053	2757.88
481.424	2772.34
481.795	2801.49
482.166	2862.96
482.537	2876.52
482.908	2900.02
483.279	2989.74
483.65	2984.99
484.021	3053.24
484.391	3089.85
484.762	3113.12
485.133	3130.75
485.503	3154.71
485.874	3277.87
486.244	3282.84
486.615	3327.58
486.985	3358.99
487.356	3390.63
487.726	3430.4
488.097	3489.84
488.467	3533.68
488.837	3600.8
489.207	3573.45
489.578	3653
489.948	3679.66
490.318	3764.18
490.688	3737.97
491.058	3824.07
491.428	3883.95
491.798	3909.49
492.168	3960.56
492.538	3963.95
492.908	4006.89
493.278	4090.95
493.648	4067.9
494.017	4147
494.387	4138.86
494.757	4216.15
495.126	4228.8
495.496	4253.21
495.866	4259.08
496.235	4312.41
496.605	4360.78
496.974	4402.58
497.344	4361.45
497.713	4454.56
498.082	4494.1
498.452	4515.57
498.821	4553.54
499.19	4603.03
499.559	4616.81
499.928	4604.84
500.298	4655.68
500.667	4689.58
501.036	4655.46
501.405	4761.67
501.774	4745.62
502.143	4763.25
502.512	4862.23
502.88	4845.96
503.249	4873.08
503.618	4920.99
503.987	4937.71
504.356	4939.97
504.724	5026.75
505.093	5043.7
505.462	5013.41
505.83	5109.23
506.199	5146.29
506.567	5154.2
506.936	5219.28
507.304	5247.31
507.672	5297.02
508.041	5319.85
508.409	5383.57
508.777	5354.42
509.145	5438.49
509.514	5426.96
509.882	5528.88
510.25	5515.1
510.618	5553.96
510.986	5571.82
511.354	5554.19
511.722	5628.31
512.09	5722.32
512.458	5647.3
512.826	5720.51
513.193	5761.42
513.561	5797.12
513.929	5785.82
514.297	5920.73
514.664	5915.99
515.032	5880.28
515.4	5986.95
515.767	6049.54
516.135	6023.56
516.502	6020.84
516.869	6175.19
517.237	6204.34
517.604	6203.66
517.972	6310.33
518.339	6376.54
518.706	6335.19
519.073	6455.86
519.44	6438.46
519.808	6575.41
520.175	6535.41
520.542	6619.92
520.909	6633.94
521.276	6677.1
521.643	6705.12
522.009	6824.89
522.376	6843.42
522.743	6852.24
523.11	6901.95
523.477	6915.28
523.843	6998.9
524.21	7075.05
524.577	7022.17
524.943	7074.15
525.31	7130.65
525.676	7228.04
526.043	7271.21
526.409	7376.97
526.776	7396.85
527.142	7463.29
527.508	7503.07
527.874	7584.65
528.241	7614.25
528.607	7678.65
528.973	7772.66
529.339	7757.75
529.705	7910.06
530.071	7937.18
530.437	7954.13
530.803	8038.42
531.169	8074.12
531.535	8115.93
531.901	8170.39
532.267	8205.87
532.632	8258.98
532.998	8242.71
533.364	8280.45
533.73	8263.95
534.095	8368.58
534.461	8377.62
534.826	8336.72
535.192	8408.35
535.557	8406.54
535.923	8477.73
536.288	8489.25
536.653	8587.56
537.019	8491.97
537.384	8635.47
537.749	8631.62
538.114	8678.18
538.479	8694.22
538.845	8754.11
539.21	8815.12
539.575	8891.96
539.94	8916.36
540.305	9022.8
540.67	8932.41
541.034	9088.56
541.399	9060.09
541.764	9079.07
542.129	9202.23
542.494	9148.67
542.858	9220.53
543.223	9209.69
543.587	9282.45
543.952	9280.19
544.316	9312.74
544.681	9324.71
545.045	9282.23
545.41	9381.21
545.774	9453.07
546.138	9392.28
546.503	9460.08
546.867	9424.37
547.231	9542.33
547.595	9535.33
547.959	9542.79
548.324	9546.63
548.688	9645.61
549.052	9636.34
549.416	9704.82
549.779	9691.26
550.143	9786.62
550.507	9824.36
550.871	9878.6
551.235	9948.42
551.599	10058.03
551.962	10046.73
552.326	10147.52
552.689	10210.56
553.053	10174.41
553.417	10220.51
553.78	10370.79
554.143	10316.78
554.507	10382.31
554.87	10514.74
555.234	10495.98
555.597	10391.35
555.96	10452.59
556.323	10494.4
556.686	10452.59
557.05	10562.42
557.413	10609.88
557.776	10621.18
558.139	10630.44
558.502	10752.47
558.865	10802.19
559.228	10838.12
559.59	10871.11
559.953	10901.39
560.316	11017.78
560.679	10982.52
561.041	11207.15
561.404	11227.49
561.767	11240.59
562.129	11262.06
562.492	11388.61
562.854	11458.44
563.217	11441.27
563.579	11545.9
563.941	11647.36
564.304	11728.27
564.666	11725.1
565.028	11777.76
565.39	11838.54
565.753	11842.39
566.115	11948.37
566.477	12016.62
566.839	11985.89
567.201	12214.13
567.563	12149.5
567.925	12172.55
568.287	12199.67
568.648	12245.77
569.01	12355.59
569.372	12358.08
569.734	12391.98
570.095	12386.78
570.457	12520.56
570.819	12500
571.18	12520.56
571.542	12656.38
571.903	12649.6
572.265	12673.1
572.626	12679.2
572.987	12747.9
573.349	12797.84
573.71	12908.35
574.071	12944.96
574.432	12947.44
574.794	13041.68
575.155	13097.04
575.516	12954.22
575.877	13155.35
576.238	13182.92
576.599	13198.28
576.96	13126.87
577.32	13156.48
577.681	13328.22
578.042	13243.48
578.403	13296.13
578.763	13318.51
579.124	13306.3
579.485	13436.69
579.845	13425.17
580.206	13424.04
580.566	13410.93
580.927	13560.99
581.287	13482.12
581.648	13509.69
582.008	13569.35
582.368	13560.76
582.728	13622.23
583.089	13558.73
583.449	13543.58
583.809	13684.37
584.169	13645.73
584.529	13550.36
584.889	13671.04
585.249	13620.64
585.609	13602.11
585.969	13614.54
586.329	13560.76
586.688	13543.36
587.048	13601.44
587.408	13662
587.768	13669.68
588.127	13595.79
588.487	13526.86
588.846	13692.96
589.206	13589.01
589.565	13564.15
589.925	13634.66
590.284	13465.39
590.643	13594.2
591.003	13579.97
591.362	13715.33
591.721	13641.44
592.08	13730.92
592.44	13737.03
592.799	13702
593.158	13736.35
593.517	13781.09
593.876	13839.62
594.235	13835.33
594.593	13797.59
594.952	13943.12
595.311	13823.8
595.67	13825.39
596.029	13895.89
596.387	13895.67
596.746	13968.21
597.104	13922.78
597.463	13983.12
597.822	14046.17
598.18	13962.78
598.538	13948.32
598.897	14058.37
599.255	13939.51
599.613	14164.81
599.972	14047.53
600.33	14087.75
600.688	14011.37
601.046	14030.8
601.404	14077.58
601.762	13956
602.12	14034.87
602.478	13982.67
602.836	14032.16
603.194	13918.04
603.552	13942.44
603.91	13965.04
604.268	13944.93
604.625	13810.7
604.983	13939.73
605.341	14023.35
605.698	14087.53
606.056	14116.45
606.413	14067.41
606.771	14114.87
607.128	14147.64
607.485	14124.81
607.843	14184.47
608.2	14246.84
608.557	14264.24
608.914	14218.37
609.272	14404.35
609.629	14398.03
609.986	14522.99
610.343	14477.35
610.7	14584.69
611.057	14501.98
611.414	14505.37
611.771	14470.34
612.127	14614.52
612.484	14570.22
612.841	14540.17
613.198	14531.81
613.554	14582.88
613.911	14572.71
614.267	14572.48
614.624	14584.69
614.98	14601.64
615.337	14626.95
615.693	14568.64
616.05	14614.97
616.406	14631.24
616.762	14600.73
617.118	14510.11
617.475	14537.46
617.831	14563.22
618.187	14530.9
618.543	14612.93
618.899	14642.54
619.255	14684.35
619.611	14638.7
619.967	14677.57
620.323	14810.67
620.678	14735.19
621.034	14710.56
621.39	14727.73
621.746	14685.25
622.101	14944.23
622.457	14858.8
622.812	14854.28
623.168	14907.39
623.523	14834.62
623.879	15060.15
624.234	15026.71
624.589	14998.01
624.945	15067.61
625.3	15024.9
625.655	15021.51
626.01	15015.64
626.365	15030.55
626.72	14954.85
627.075	15050.21
627.43	15045.01
627.785	14959.37
628.14	15028.97
628.495	15033.04
628.85	15008.4
629.205	14985.58
629.559	14989.65
629.914	14895.87
630.269	14875.07
630.623	14756.21
630.978	14792.59
631.332	14746.94
631.687	14737
632.041	14715.98
632.396	14693.16
632.75	14677.79
633.104	14697.45
633.459	14565.93
633.813	14622.43
634.167	14536.78
634.521	14566.16
634.875	14611.35
635.229	14596.66
635.583	14500.4
635.937	14406.84
636.291	14490.68
636.645	14505.59
636.999	14472.83
637.352	14433.05
637.706	14384.69
638.06	14489.77
638.413	14427.4
638.767	14391.7
639.121	14429.66
639.474	14367.29
639.828	14391.7
640.181	14464.69
640.534	14384.24
640.888	14317.8
641.241	14304.02
641.594	14347.86
641.947	14446.39
642.301	14409.78
642.654	14453.17
643.007	14371.81
643.36	14360.96
643.713	14365.94
644.066	14327.52
644.419	14212.72
644.771	14111.71
645.124	13940.64
645.477	13915.78
645.83	13860.64
646.182	13843.01
646.535	13811.37
646.888	13964.82
647.24	13897.93
647.593	13969.79
647.945	13976.79
648.298	13849.34
648.65	13805.5
649.002	13764.37
649.355	13791.04
649.707	13685.28
650.059	13694.54
650.411	13854.99
650.763	13868.1
651.115	14029
651.467	14028.54
651.819	13969.79
652.171	13921.88
652.523	13892.73
652.875	13859.96
653.227	13833.75
653.578	13864.71
653.93	13810.7
654.282	13874.42
654.633	13731.83
654.985	13798.27
655.337	13753.52
655.688	13846.63
656.039	13836.68
656.391	13698.38
656.742	13677.82
657.094	13643.47
657.445	13830.13
657.796	13736.35
658.147	13755.78
658.498	13751.71
658.849	13782.22
659.2	13780.41
659.551	13674.65
659.902	13731.15
660.253	13733.64
660.604	13727.99
660.955	13650.7
661.306	13737.03
661.656	13811.15
662.007	13721.66
662.358	13721.21
662.708	13753.07
663.059	13723.69
663.409	13633.53
663.76	13766.4
664.11	13803.92
664.461	13785.61
664.811	13753.97
665.161	13732.28
665.511	13680.3
665.862	13667.65
666.212	13749
666.562	13762.11
666.912	13664.94
667.262	13720.98
667.612	13680.08
667.962	13671.72
668.312	13664.26
668.662	13693.19
669.011	13654.99
669.361	13583.36
669.711	13598.72
670.06	13600.53
670.41	13544.26
670.76	13581.78
671.109	13582
671.459	13593.07
671.808	13546.52
672.157	13593.53
672.507	13352.63
672.856	13499.07
673.205	13540.87
673.554	13512.85
673.904	13426.53
674.253	13566.18
674.602	13393.98
674.951	13174.78
675.3	13005.97
675.649	13346.53
675.998	13257.26
676.346	13377.71
676.695	13356.02
677.044	13276.92
677.393	13443.25
677.741	13320.54
678.09	13305.62
678.438	13330.93
678.787	13366.41
679.135	13347.88
679.484	13296.81
679.832	13332.29
680.181	13282.8
680.529	13307.66
680.877	13264.04
681.225	13245.51
681.573	13296.59
681.922	13262.01
682.27	13224.5
682.618	13234.44
682.966	13161
683.314	13252.52
683.661	13137.49
684.009	13113.09
684.357	13104.73
684.705	13066.99
685.053	13039.19
685.4	13129.36
685.748	13042.58
686.095	12958.52
686.443	12932.3
686.79	12839.2
687.138	12962.58
687.485	12970.72
687.832	12890.04
688.18	12838.52
688.527	12794.23
688.874	12771.4
689.221	12698.18
689.568	12646.21
689.915	12589.71
690.262	12601.46
690.609	12535.48
690.956	12619.32
691.303	12521.01
691.65	12437.17
691.997	12410.51
692.344	12388.36
692.69	12408.93
693.037	12336.61
693.383	12253.22
693.73	12363.73
694.077	12271.75
694.423	12311.07
694.769	12228.82
695.116	12203.05
695.462	12170.74
695.808	12192.89
696.155	12139.55
696.501	11965.09
696.847	12074.92
697.193	11933.01
697.539	11993.34
697.885	11877.19
698.231	11875.83
698.577	11920.35
698.923	11837.87
699.269	11866.57
699.614	11807.13
699.96	11822.27
700.306	11864.31
700.651	11688.04
700.997	11654.37
701.342	11648.95
701.688	11617.99
702.033	11687.36
702.379	11637.42
702.724	11622.28
703.069	11603.52
703.415	11462.06
703.76	11432.68
704.105	11426.13
704.45	11433.81
704.795	11332.57
705.14	11290.31
705.485	11303.87
705.83	11269.52
706.175	11234.72
706.52	11205.57
706.865	11222.97
707.209	11161.95
707.554	11108.62
707.899	11139.58
708.243	11033.59
708.588	11081.05
708.932	10968.51
709.277	11011.22
709.621	11012.58
709.966	10982.52
710.31	10933.71
710.654	10860.49
710.998	10872.92
711.342	10915.18
711.687	10891.22
712.031	10744.79
712.375	10765.58
712.719	10719.48
713.063	10757.44
713.407	10776.43
713.75	10782.08
714.094	10709.99
714.438	10619.37
714.782	10695.3
715.125	10667.95
715.469	10687.39
715.812	10648.29
716.156	10522.2
716.499	10571.23
716.843	10531.91
717.186	10507.96
717.53	10543.44
717.873	10597.9
718.216	10625.47
718.559	10497.56
718.902	10463.44
719.246	10491.01
719.589	10387.28
719.932	10362.65
720.275	10350.45
720.617	10332.82
720.96	10422.31
721.303	10319.04
721.646	10387.96
721.989	10387.28
722.331	10335.53
722.674	10297.57
723.016	10286.5
723.359	10244.69
723.701	10227.74
724.044	10175.99
724.386	10118.82
724.729	10138.7
725.071	10168.08
725.413	10135.76
725.755	10128.99
726.097	10075.88
726.439	10060.06
726.782	10020.29
727.124	10053.05
727.465	10016.45
727.807	9969.44
728.149	10013.51
728.491	9977.12
728.833	9959.27
729.175	10004.24
729.516	9938.03
729.858	9869.33
730.199	9895.32
730.541	9828.43
730.882	9846.51
731.224	9793.4
731.565	9830.01
731.906	9827.75
732.248	9810.8
732.589	9746.4
732.93	9765.83
733.271	9747.75
733.612	9728.54
733.953	9731.03
734.294	9702.1
734.635	9676.79
734.976	9726.06
735.317	9692.16
735.658	9627.08
735.999	9645.83
736.339	9691.26
736.68	9669.11
737.021	9638.38
737.361	9595.67
737.702	9710.47
738.042	9589.56
738.383	9632.5
738.723	9693.52
739.063	9588.66
739.404	9612.16
739.744	9547.98
740.084	9525.61
740.424	9511.6
740.764	9553.86
741.104	9552.96
741.444	9412.62
741.784	9405.39
742.124	9433.64
742.464	9410.36
742.804	9464.6
743.143	9431.15
743.483	9430.02
743.823	9295.56
744.162	9334.43
744.502	9328.33
744.841	9342.34
745.181	9288.1
745.52	9310.93
745.86	9342.79
746.199	9318.84
746.538	9213.3
746.877	9319.06
747.216	9262.12
747.556	9240.65
747.895	9194.55
748.234	9168.56
748.573	9182.8
748.911	9225.51
749.25	9202.23
749.589	9128.33
749.928	9187.99
750.267	9158.16
750.605	9093.31
750.944	9075.68
751.283	9011.73
751.621	9055.12
751.96	9023.93
752.298	9056.24
752.636	9015.12
752.975	8925.63
753.313	8975.12
753.651	8923.59
753.989	8829.58
754.327	8856.93
754.666	8813.99
755.004	8830.71
755.342	8761.11
755.679	8831.39
756.017	8703.03
756.355	8785.97
756.693	8696.03
757.031	8710.49
757.368	8667.78
757.706	8681.11
758.044	8556.82
758.381	8613.77
758.719	8656.48
759.056	8563.6
759.394	8592.98
759.731	8516.6
760.068	8512.08
760.405	8503.04
760.743	8386.88
761.08	8444.74
761.417	8447.45
761.754	8378.75
762.091	8423.49
762.428	8396.38
762.765	8265.98
763.102	8288.36
763.438	8262.14
763.775	8227.57
764.112	8226.44
764.449	8241.35
764.785	8208.36
765.122	8166.55
765.458	8136.72
765.795	8117.96
766.131	8102.6
766.467	8101.02
766.804	8063.5
767.14	8045.65
767.476	8047.68
767.812	7986.67
768.148	8010.17
768.485	7958.65
768.821	7926.11
769.157	7931.53
769.492	7926.56
769.828	7847.46
770.164	7851.76
770.5	7788.26
770.836	7804.53
771.171	7747.58
771.507	7693.34
771.842	7684.3
772.178	7662.84
772.513	7698.99
772.849	7662.84
773.184	7611.54
773.519	7630.75
773.855	7637.75
774.19	7553.01
774.525	7536.96
774.86	7489.96
775.195	7461.94
775.53	7379.45
775.865	7393.24
776.2	7381.94
776.535	7288.38
776.87	7253.58
777.205	7323.64
777.539	7215.39
777.874	7292
778.209	7141.49
778.543	7149.4
778.878	7125.22
779.212	7110.76
779.547	7044.09
779.881	7072.57
780.215	7023.76
780.55	7020.14
780.884	6928.17
781.218	6909.41
781.552	6958.22
781.886	6903.99
782.22	6873.48
782.554	6814.5
782.888	6728.62
783.222	6794.38
783.556	6725.23
783.889	6710.09
784.223	6641.62
784.557	6657.44
784.89	6724.55
785.224	6660.15
785.557	6628.96
785.891	6591.45
786.224	6569.3
786.558	6521.4
786.891	6586.93
787.224	6574.05
787.557	6489.98
787.891	6446.37
788.224	6522.53
788.557	6482.08
788.89	6528.63
789.223	6520.72
789.556	6448.4
789.888	6393.49
790.221	6356.88
790.554	6306.71
790.887	6376.99
791.219	6336.99
791.552	6355.52
791.884	6271.01
792.217	6322.53
792.549	6294.51
792.882	6245.25
793.214	6242.31
793.546	6247.51
793.879	6221.74
794.211	6149.43
794.543	6214.29
794.875	6174.96
795.207	6180.16
795.539	6129.09
795.871	6125.7
796.203	6083.89
796.535	6053.16
796.867	6084.12
797.198	6024.69
797.53	5967.06
797.862	5969.32
798.193	5965.25
798.525	5950.11
798.856	5883.67
799.188	5847.29
799.519	5830.34
799.85	5788.76
800.182	5838.02
800.513	5804.35
800.844	5805.03
801.175	5800.96
801.506	5783.11
801.837	5742.89
802.168	5764.13
802.499	5711.02
802.83	5690.91
803.161	5671.7
803.491	5650.91
803.822	5673.51
804.153	5581.76
804.483	5578.14
804.814	5565.72
805.145	5526.17
805.475	5520.97
805.805	5529.56
806.136	5503.34
806.466	5451.14
806.796	5469.67
807.126	5453.4
807.457	5402.1
807.787	5441.88
808.117	5371.6
808.447	5382.9
808.777	5367.53
809.107	5369.56
809.436	5330.69
809.766	5303.12
810.096	5326.4
810.426	5321.65
810.755	5353.52
811.085	5304.93
811.414	5290.69
811.744	5267.64
812.073	5247.53
812.403	5269
812.732	5248.44
813.061	5208.89
813.39	5180.19
813.719	5176.12
814.049	5214.09
814.378	5191.04
814.707	5213.18
815.036	5198.72
815.365	5179.06
815.693	5155.78
816.022	5177.48
816.351	5143.13
816.68	5110.13
817.008	5167.08
817.337	5065.39
817.665	5097.7
817.994	5100.64
818.322	5102
818.651	5112.85
818.979	5031.27
819.307	5130.25
819.636	5057.48
819.964	5008.44
820.292	5020.19
820.62	5002.11
820.948	5032.62
821.276	5080.76
821.604	4992.85
821.932	4993.75
822.259	4958.05
822.587	5055.9
822.915	4983.36
823.243	5029.46
823.57	4972.28
823.898	5000.08
824.225	5012.28
824.553	4959.86
824.88	4969.57
825.207	4982
825.535	4931.38
825.862	4970.02
826.189	5001.66
826.516	4955.56
826.843	4938.84
827.17	4989.46
827.497	4993.98
827.824	4980.42
828.151	4989.91
828.478	4978.39
828.805	4949.23
829.131	4933.19
829.458	4927.09
829.785	4888.22
830.111	4953.08
830.438	5011.38
830.764	4967.99
831.09	4963.92
831.417	4900.2
831.743	4944.71
832.069	4903.59
832.395	4947.65
832.722	4955.79
833.048	4916.01
833.374	4903.59
833.7	4841.21
834.026	4869.91
834.351	4921.89
834.677	4813.42
835.003	4915.56
835.329	4896.58
835.654	4884.15
835.98	4872.63
836.306	4868.78
836.631	4867.88
836.956	4871.72
837.282	4850.03
837.607	4843.47
837.932	4818.16
838.258	4843.25
838.583	4849.58
838.908	4833.98
839.233	4784.27
839.558	4798.96
839.883	4787.88
840.208	4797.37
840.533	4789.24
840.858	4757.6
841.182	4747.43
841.507	4739.97
841.832	4726.87
842.156	4760.09
842.481	4741.56
842.805	4726.42
843.13	4692.29
843.454	4690.26
843.778	4639.86
844.103	4651.61
844.427	4687.55
844.751	4712.63
845.075	4632.41
845.399	4649.81
845.723	4626.98
846.047	4596.02
846.371	4535.69
846.695	4576.59
847.019	4579.3
847.343	4574.33
847.666	4542.01
847.99	4469.92
848.313	4476.93
848.637	4491.62
848.96	4471.73
849.284	4414.79
849.607	4387.44
849.931	4406.65
850.254	4407.1
850.577	4391.51
850.9	4351.28
851.223	4367.78
851.546	4282.81
851.869	4302.7
852.192	4345.86
852.515	4239.65
852.838	4256.82
853.161	4270.83
853.483	4235.13
853.806	4233.32
854.129	4198.29
854.451	4184.96
854.774	4198.97
855.096	4209.59
855.419	4143.38
855.741	4158.75
856.063	4157.62
856.385	4170.05
856.708	4123.49
857.03	4093.89
857.352	4086.21
857.674	4092.99
857.996	4034
858.318	4046.89
858.64	4030.84
858.961	4055.25
859.283	4032.65
859.605	4033.55
859.926	4034.46
860.248	4027.45
860.57	4010.28
860.891	4033.78
861.212	3980.22
861.534	3995.81
861.855	3975.47
862.176	3960.11
862.498	3980.9
862.819	3976.38
863.14	3942.93
863.461	3986.77
863.782	3955.14
864.103	3920.33
864.424	3963.05
864.745	3968.47
865.065	3942.26
865.386	3880.56
865.707	3910.62
866.027	3881.01
866.348	3861.35
866.668	3881.47
866.989	3852.54
867.309	3875.82
867.63	3890.73
867.95	3861.35
868.27	3802.15
868.59	3857.06
868.91	3852.99
869.23	3810.28
869.55	3774.35
869.87	3805.08
870.19	3779.77
870.51	3774.8
870.83	3799.66
871.15	3749.04
871.469	3767.8
871.789	3770.06
872.109	3735.25
872.428	3725.76
872.748	3751.3
873.067	3745.2
873.386	3747.46
873.706	3730.28
874.025	3722.37
874.344	3697.52
874.663	3756.5
874.982	3696.39
875.301	3690.74
875.62	3685.54
875.939	3649.38
876.258	3660
876.577	3659.55
876.896	3684.41
877.214	3649.83
877.533	3690.28
877.852	3623.39
878.17	3645.99
878.489	3647.12
878.807	3671.98
879.125	3640.34
879.444	3644.18
879.762	3592.89
880.08	3645.99
880.398	3612.55
880.716	3615.94
881.034	3595.15
881.352	3587.91
881.67	3593.11
881.988	3601.93
882.306	3610.74
882.624	3602.15
882.941	3595.37
883.259	3557.86
883.577	3589.72
883.894	3556.28
884.212	3566.22
884.529	3589.04
884.846	3530.29
885.164	3565.32
885.481	3540.91
885.798	3566.67
886.115	3493
886.432	3571.19
886.75	3500.01
887.067	3535.49
887.383	3520.8
887.7	3507.24
888.017	3483.96
888.334	3516.05
888.651	3485.77
888.967	3440.8
889.284	3436.51
889.6	3457.52
889.917	3445.54
890.233	3468.82
890.55	3444.19
890.866	3440.57
891.182	3407.13
891.498	3435.15
891.815	3428.37
892.131	3380.69
892.447	3381.82
892.763	3311.76
893.079	3355.38
893.395	3345.89
893.71	3334.81
894.026	3343.63
894.342	3319.9
894.657	3269.5
894.973	3281.26
895.289	3262.5
895.604	3288.71
895.92	3269.28
896.235	3248.26
896.55	3226.34
896.865	3238.54
897.181	3197.87
897.496	3163.07
897.811	3190.41
898.126	3168.94
898.441	3183.63
898.756	3125.33
899.071	3069.96
899.386	3132.56
899.7	3077.87
900.015	3080.13
900.33	3035.16
900.644	3040.36
900.959	3030.87
901.273	3027.02
901.588	3043.3
901.902	3011.43
902.216	2976.63
902.531	3000.81
902.845	3019.79
903.159	2962.85
903.473	2946.8
903.787	2943.19
904.101	2897.76
904.415	2900.25
904.729	2880.59
905.042	2850.98
905.356	2886.01
905.67	2879.01
905.984	2855.5
906.297	2905.22
906.611	2842.85
906.924	2837.2
907.237	2831.32
907.551	2838.78
907.864	2785.9
908.177	2833.36
908.491	2795.17
908.804	2791.32
909.117	2736.41
909.43	2740.25
909.743	2738.67
910.056	2764.88
910.368	2743.19
910.681	2744.55
910.994	2716.75
911.307	2712.68
911.619	2722.4
911.932	2705.68
912.244	2719.69
912.557	2681.72
912.869	2676.98
913.181	2696.64
913.494	2681.05
913.806	2688.5
914.118	2698.9
914.43	2715.39
914.742	2657.77
915.054	2650.54
915.366	2653.7
915.678	2625.45
915.99	2596.3
916.302	2586.81
916.613	2610.31
916.925	2604.21
917.236	2614.38
917.548	2606.02
917.859	2583.19
918.171	2574.16
918.482	2553.59
918.794	2571.9
919.105	2538.45
919.416	2546.36
919.727	2532.57
920.038	2529.64
920.349	2510.88
920.66	2477.89
920.971	2496.19
921.282	2506.13
921.593	2453.25
921.903	2451.45
922.214	2417.32
922.525	2480.15
922.835	2427.49
923.146	2418
923.456	2453.93
923.767	2415.06
924.077	2395.4
924.387	2425.46
924.697	2372.13
925.008	2372.35
925.318	2361.51
925.628	2367.38
925.938	2317.67
926.248	2351.11
926.558	2321.73
926.867	2291.68
927.177	2290.77
927.487	2302.75
927.796	2263.43
928.106	2310.66
928.416	2274.5
928.725	2215.07
929.034	2235.18
929.344	2247.84
929.653	2217.78
929.962	2190.44
930.271	2164
930.581	2153.83
930.89	2199.25
931.199	2177.1
931.508	2135.07
931.817	2180.72
932.125	2121.29
932.434	2149.31
932.743	2091.68
933.051	2127.84
933.36	2081.74
933.669	2072.02
933.977	2087.84
934.286	2081.74
934.594	2052.59
934.902	2038.35
935.21	2011.01
935.519	1999.93
935.827	2030.67
936.135	2004
936.443	1955.19
936.751	1991.35
937.059	1977.56
937.367	1965.36
937.674	1959.93
937.982	1952.48
938.29	1949.99
938.597	1961.06
938.905	1950.44
939.213	1922.87
939.52	1947.96
939.827	1930.1
940.135	1927.39
940.442	1921.52
940.749	1871.35
941.056	1895.08
941.363	1848.98
941.67	1860.95
941.977	1846.49
942.284	1855.08
942.591	1846.27
942.898	1842.42
943.205	1867.51
943.511	1851.24
943.818	1840.62
944.125	1823.44
944.431	1809.43
944.738	1826.6
945.044	1863.44
945.35	1809.88
945.657	1815.76
945.963	1811.46
946.269	1791.58
946.575	1813.27
946.881	1789.77
947.187	1809.43
947.493	1773.95
947.799	1766.04
948.105	1756.1
948.41	1748.64
948.716	1766.49
949.022	1746.15
949.327	1745.7
949.633	1731.01
949.938	1746.61
950.244	1753.61
950.549	1684.01
950.854	1702.31
951.16	1703.67
951.465	1719.26
951.77	1700.96
952.075	1688.08
952.38	1677.68
952.685	1684.46
952.99	1653.95
953.294	1646.27
953.599	1672.26
953.904	1652.6
954.209	1650.56
954.513	1663.44
954.818	1626.16
955.122	1664.57
955.426	1627.97
955.731	1644.24
956.035	1614.18
956.339	1600.17
956.643	1597.68
956.948	1609.21
957.252	1585.48
957.556	1590.9
957.86	1580.28
958.163	1532.15
958.467	1550.23
958.771	1582.09
959.075	1539.38
959.378	1528.76
959.682	1532.37
959.985	1512.49
960.289	1526.73
960.592	1523.56
960.896	1505.71
961.199	1518.36
961.502	1498.48
961.805	1506.84
962.108	1498.03
962.411	1489.21
962.714	1463.68
963.017	1452.83
963.32	1467.07
963.623	1444.47
963.926	1461.42
964.228	1448.99
964.531	1434.52
964.833	1452.6
965.136	1383.9
965.438	1413.28
965.741	1401.08
966.043	1394.53
966.345	1395.2
966.648	1366.5
966.95	1368.31
967.252	1385.94
967.554	1392.94
967.856	1325.83
968.158	1369.22
968.46	1345.71
968.761	1325.6
969.063	1341.19
969.365	1336.67
969.666	1312.95
969.968	1314.75
970.269	1333.06
970.571	1305.71
970.872	1309.33
971.174	1322.89
971.475	1285.6
971.776	1275.88
972.077	1292.16
972.378	1293.96
972.679	1285.15
972.98	1250.57
973.281	1282.44
973.582	1280.4
973.883	1234.08
974.183	1246.28
974.484	1224.36
974.785	1234.3
975.085	1240.86
975.386	1239.05
975.686	1238.82
975.986	1233.4
976.287	1219.39
976.587	1203.8
976.887	1233.4
977.187	1236.11
977.487	1252.83
977.787	1206.06
978.087	1214.19
978.387	1205.83
978.687	1207.64
978.987	1211.48
979.286	1212.84
979.586	1197.24
979.885	1197.02
980.185	1178.94
980.484	1167.19
980.784	1172.38
981.083	1171.93
981.382	1171.71
981.682	1178.26
981.981	1168.99
982.28	1163.8
982.579	1166.28
982.878	1154.98
983.177	1139.62
983.475	1168.77
983.774	1143.01
984.073	1122.89
984.372	1142.33
984.67	1131.03
984.969	1173.29
985.267	1109.34
985.566	1138.94
985.864	1112.5
986.162	1119.05
986.461	1087.41
986.759	1089.22
987.057	1105.72
987.355	1117.02
987.653	1078.15
987.951	1092.39
988.249	1107.3
988.547	1088.54
988.844	1089.9
989.142	1072.73
989.44	1047.19
989.737	1063.23
990.035	1070.01
990.332	1050.58
990.63	1034.08
990.927	1060.07
991.224	1046.06
991.521	1062.78
991.819	1022.78
992.116	1022.56
992.413	1045.61
992.71	1011.71
993.006	1027.3
993.303	1048.77
993.6	1005.84
993.897	1030.24
994.193	1020.3
994.49	1001.32
994.787	984.14
995.083	987.08
995.379	992.28
995.676	991.82
995.972	983.69
996.268	976.68
996.565	972.62
996.861	955.21
997.157	952.05
997.453	959.96
997.749	960.86
998.044	958.83
998.34	963.8
998.636	942.33
998.932	943.24
999.227	947.08
999.523	916.8
999.818	927.42
1000.114	926.97
1000.409	891.94
1000.704	919.28
1001	909.34
1001.295	887.65
1001.59	890.13
1001.885	898.04
1002.18	881.77
1002.475	885.16
1002.77	872.96
1003.065	872.05
1003.359	884.03
1003.654	872.51
1003.949	881.77
1004.243	844.48
1004.538	839.74
1004.832	875.22
1005.127	843.35
1005.421	853.07
1005.715	839.29
1006.009	820.08
1006.304	834.31
1006.598	821.43
1006.892	828.44
1007.186	819.4
1007.48	835.22
1007.773	840.87
1008.067	822.34
1008.361	810.81
1008.655	817.59
1008.948	809
1009.242	800.19
1009.535	800.19
1009.829	807.42
1010.122	794.09
1010.415	796.58
1010.708	788.44
1011.001	810.13
1011.295	804.71
1011.588	783.47
1011.881	792.51
1012.173	780.3
1012.466	778.04
1012.759	764.03
1013.052	784.37
1013.344	764.49
1013.637	766.97
1013.93	766.75
1014.222	757.71
1014.514	744.6
1014.807	724.94
1015.099	747.76
1015.391	752.73
1015.683	750.02
1015.976	743.24
1016.268	740.08
1016.56	725.16
1016.851	717.71
1017.143	735.79
1017.435	729.68
1017.727	715
1018.018	702.34
1018.31	703.24
1018.602	725.84
1018.893	730.36
1019.185	707.31
1019.476	722.68
1019.767	703.7
1020.058	715.67
1020.35	689.69
1020.641	701.89
1020.932	656.92
1021.223	667.76
1021.514	675.22
1021.804	679.74
1022.095	690.82
1022.386	693.3
1022.677	674.32
1022.967	697.37
1023.258	676.35
1023.548	648.78
1023.839	654.43
1024.129	670.7
1024.419	670.25
1024.709	641.1
1025	653.98
1025.29	654.43
1025.58	635
1025.87	624.15
1026.16	649.01
1026.449	645.17
1026.739	651.27
1027.029	627.77
1027.319	622.79
1027.608	623.02
1027.898	616.47
1028.187	615.34
1028.477	613.3
1028.766	615.11
1029.055	632.74
1029.344	611.27
1029.634	620.31
1029.923	627.99
1030.212	593.42
1030.501	597.71
1030.79	576.47
1031.078	576.02
1031.367	565.85
1031.656	571.72
1031.945	567.43
1032.233	564.94
1032.522	584.83
1032.81	580.54
1033.099	567.2
1033.387	587.99
1033.675	539.41
1033.963	551.61
1034.251	544.6
1034.54	541.67
1034.828	576.02
1035.116	581.21
1035.403	554.32
1035.691	532.63
1035.979	539.41
1036.267	543.02
1036.554	557.94
1036.842	530.14
1037.129	530.59
1037.417	552.06
1037.704	552.06
1037.992	526.3
1038.279	523.81
1038.566	526.98
1038.853	526.98
1039.14	526.98
