Data from foam1_polythene_foam_FLMS001491_00026.txt Node
Date: Wed Feb 08 10:54:36 GMT 2017
User: dcchb
Spectrometer: FLMS00149
Trigger mode: 0
Integration Time (sec): 2.000000E-2
Scans to average: 10
Electric dark correction enabled: true
Nonlinearity correction enabled: false
Boxcar width: 0
XAxis mode: Wavelengths
Number of Pixels in Spectrum: 2048
>>>>>Begin Spectral Data<<<<<
341.393	-8.9
341.776	-8.9
342.16	-8.9
342.543	-59.07
342.927	-67.65
343.31	-82.12
343.693	-69.01
344.077	-63.13
344.46	-51.61
344.843	-55
345.226	-58.16
345.61	-19.52
345.993	-13.64
346.376	-9.35
346.759	-13.19
347.142	36.3
347.525	48.73
347.908	84.43
348.291	84.43
348.674	87.82
349.057	93.02
349.44	116.3
349.823	129.18
350.206	186.13
350.588	165.33
350.971	188.61
351.354	196.97
351.737	202.62
352.119	237.88
352.502	244.65
352.884	234.03
353.267	273.13
353.65	277.65
354.032	278.55
354.414	286.46
354.797	300.7
355.179	290.76
355.562	301.38
355.944	328.04
356.326	314.71
356.709	314.94
357.091	328.04
357.473	333.69
357.855	329.85
358.238	312.22
358.62	342.28
359.002	304.54
359.384	305.9
359.766	323.75
360.148	340.7
360.53	316.52
360.912	338.89
361.294	320.81
361.676	292.11
362.057	307.03
362.439	304.54
362.821	309.06
363.203	311.09
363.584	307.48
363.966	295.27
364.348	303.18
364.729	316.52
365.111	327.82
365.493	300.25
365.874	302.05
366.256	291.66
366.637	313.81
367.019	309.29
367.4	313.35
367.781	305.22
368.163	309.74
368.544	292.11
368.925	286.91
369.306	286.01
369.688	304.77
370.069	314.26
370.45	299.12
370.831	283.98
371.212	283.3
371.593	293.47
371.974	316.29
372.355	301.38
372.736	308.16
373.117	310.64
373.498	316.52
373.879	304.54
374.26	286.24
374.641	296.63
375.021	283.52
375.402	317.42
375.783	311.09
376.163	300.7
376.544	301.15
376.925	302.96
377.305	295.5
377.686	303.64
378.066	304.31
378.447	304.09
378.827	329.17
379.208	309.74
379.588	316.74
379.968	308.61
380.349	315.84
380.729	309.74
381.109	331.66
381.489	319
381.87	301.83
382.25	321.49
382.63	327.82
383.01	335.95
383.39	318.55
383.77	306.12
384.15	311.55
384.53	325.1
384.91	323.75
385.29	331.88
385.67	332.11
386.049	333.92
386.429	351.32
386.809	337.76
387.189	337.99
387.568	328.72
387.948	356.74
388.328	340.25
388.707	337.99
389.087	329.85
389.466	336.86
389.846	332.79
390.225	336.63
390.605	373.69
390.984	342.05
391.363	344.31
391.743	370.53
392.122	342.28
392.501	344.99
392.881	366.46
393.26	365.33
393.639	356.29
394.018	390.87
394.397	325.33
394.776	362.62
395.155	365.56
395.534	356.74
395.913	357.65
396.292	373.01
396.671	379.79
397.05	350.64
397.429	358.32
397.808	362.84
398.186	381.37
398.565	387.93
398.944	378.66
399.323	392.67
399.701	387.48
400.08	376.18
400.458	389.06
400.837	383.63
401.215	392
401.594	420.02
401.972	372.11
402.351	390.19
402.729	386.35
403.107	403.75
403.486	396.51
403.864	407.14
404.242	427.25
404.62	405.78
404.999	399.23
405.377	419.79
405.755	407.14
406.133	431.09
406.511	410.98
406.889	397.64
407.267	433.12
407.645	424.08
408.023	422.28
408.401	404.88
408.779	415.95
409.156	438.32
409.534	433.12
409.912	451.43
410.29	459.11
410.667	445.33
411.045	448.72
411.422	433.58
411.8	432.67
412.178	450.75
412.555	466.57
412.933	438.77
413.31	450.98
413.687	453.69
414.065	471.99
414.442	471.77
414.819	467.25
415.197	481.94
415.574	487.59
415.951	464.31
416.328	516.51
416.705	504.31
417.082	493.24
417.46	481.71
417.837	472.22
418.214	492.11
418.591	501.37
418.967	497.3
419.344	504.99
419.721	488.94
420.098	505.89
420.475	514.7
420.852	518.09
421.228	529.62
421.605	508.83
421.982	521.03
422.358	548.6
422.735	533.01
423.111	550.64
423.488	542.5
423.864	543.4
424.241	564.87
424.617	543.18
424.994	544.76
425.37	570.52
425.746	550.18
426.123	546.12
426.499	582.5
426.875	547.7
427.251	571.65
427.627	577.08
428.003	555.83
428.379	594.48
428.756	609.62
429.132	606.45
429.507	609.16
429.883	592.67
430.259	622.27
430.635	620.69
431.011	640.8
431.387	653.46
431.763	627.7
432.138	655.04
432.514	645.32
432.89	631.76
433.265	654.14
433.641	676.51
434.016	690.97
434.392	675.83
434.767	695.04
435.143	684.19
435.518	711.31
435.894	698.43
436.269	702.5
436.644	718.54
437.02	721.93
437.395	716.96
437.77	752.89
438.145	749.73
438.52	743.62
438.895	751.53
439.271	776.39
439.646	762.16
440.021	764.19
440.395	759.22
440.77	798.76
441.145	787.47
441.52	809.61
441.895	794.7
442.27	796.5
442.645	815.49
443.019	828.14
443.394	824.07
443.769	837.41
444.143	817.07
444.518	846.45
444.892	829.95
445.267	840.8
445.641	839.89
446.016	840.8
446.39	875.82
446.764	862.49
447.139	872.89
447.513	909.95
447.887	872.43
448.262	912.21
448.636	894.58
449.01	937.07
449.384	915.15
449.758	895.26
450.132	974.13
450.506	949.27
450.88	947.46
451.254	933.45
451.628	933
452.002	976.16
452.376	962.6
452.75	968.48
453.123	991.08
453.497	999.66
453.871	1009.61
454.244	1005.31
454.618	1020.45
454.992	1021.58
455.365	1026.55
455.739	1100.45
456.112	1050.06
456.486	1070.85
456.859	1066.33
457.232	1067.23
457.606	1087.8
457.979	1085.54
458.352	1081.24
458.725	1123.05
459.099	1112.2
459.472	1143.16
459.845	1110.17
460.218	1161.92
460.591	1125.31
460.964	1170.05
461.337	1169.38
461.71	1166.21
462.083	1168.92
462.456	1190.84
462.829	1205.53
463.201	1196.27
463.574	1238.07
463.947	1246.21
464.32	1274.68
464.692	1268.36
465.065	1266.32
465.438	1270.62
465.81	1274.01
466.183	1314.23
466.555	1312.2
466.928	1361.46
467.3	1331.63
467.672	1347
468.045	1352.65
468.417	1375.02
468.789	1381.12
469.161	1393.78
469.534	1427.22
469.906	1424.51
470.278	1431.29
470.65	1482.81
471.022	1466.32
471.394	1490.5
471.766	1486.88
472.138	1536.82
472.51	1555.58
472.882	1557.16
473.253	1575.02
473.625	1603.71
473.997	1616.14
474.369	1612.75
474.74	1663.83
475.112	1686.2
475.484	1684.84
475.855	1723.03
476.227	1731.4
476.598	1793.54
476.97	1796.03
477.341	1811.62
477.713	1839.87
478.084	1841.9
478.455	1870.83
478.827	1902.92
479.198	1923.03
479.569	1940.88
479.94	1997.83
480.311	1991.95
480.682	2058.84
481.053	2094.78
481.424	2080.31
481.795	2101.55
482.166	2178.39
482.537	2146.75
482.908	2196.24
483.279	2229.24
483.65	2285.96
484.021	2305.62
484.391	2345.84
484.762	2369.12
485.133	2419.29
485.503	2402.56
485.874	2485.73
486.244	2452.73
486.615	2544.26
486.985	2560.75
487.356	2597.81
487.726	2629.68
488.097	2676.23
488.467	2676.91
488.837	2741.76
489.207	2752.39
489.578	2762.33
489.948	2826.06
490.318	2810.01
490.688	2842.55
491.058	2911.93
491.428	2922.78
491.798	2945.6
492.168	2962.32
492.538	3060.4
492.908	3083.45
493.278	3079.61
493.648	3086.39
494.017	3129.55
494.387	3187.4
494.757	3197.57
495.126	3238.02
495.496	3203.22
495.866	3294.07
496.235	3301.98
496.605	3318.02
496.974	3351.92
497.344	3327.74
497.713	3393.95
498.082	3411.35
498.452	3486.38
498.821	3504
499.19	3528.18
499.559	3531.12
499.928	3563.44
500.298	3575.41
500.667	3659.03
501.036	3628.97
501.405	3635.53
501.774	3635.98
502.143	3709.42
502.512	3692.93
502.88	3749.2
503.249	3757.78
503.618	3813.83
503.987	3797.33
504.356	3830.77
504.724	3850.44
505.093	3855.41
505.462	3890.21
505.83	3948.96
506.199	3981.73
506.567	4025.35
506.936	4018.79
507.304	4069.86
507.672	4066.93
508.041	4102.41
508.409	4162.07
508.777	4154.61
509.145	4173.59
509.514	4202.97
509.882	4234.15
510.25	4243.19
510.618	4234.61
510.986	4311.21
511.354	4301.05
511.722	4349.63
512.09	4402.06
512.458	4381.72
512.826	4424.88
513.193	4461.27
513.561	4482.96
513.929	4564.54
514.297	4578.33
514.664	4593.47
515.032	4611.32
515.4	4673.46
515.767	4674.37
516.135	4706.91
516.502	4647.7
516.869	4803.63
517.237	4812.9
517.604	4848.6
517.972	4870.97
518.339	4941.48
518.706	4884.53
519.073	4907.36
519.44	4993.91
519.808	5000.91
520.175	5044.08
520.542	5087.69
520.909	5184.41
521.276	5125.88
521.643	5221.25
522.009	5233
522.376	5291.75
522.743	5268.93
523.11	5348.48
523.477	5390.96
523.843	5447.68
524.21	5503.5
524.577	5493.33
524.943	5551.63
525.31	5605.19
525.676	5646.32
526.043	5635.7
526.409	5677.96
526.776	5762.02
527.142	5828.01
527.508	5808.35
527.874	5906.2
528.241	5869.14
528.607	5905.75
528.973	5994.56
529.339	6004.5
529.705	5997.95
530.071	6092.41
530.437	6101.68
530.803	6124.5
531.169	6220.77
531.535	6173.76
531.901	6221.67
532.267	6184.84
532.632	6287.21
532.998	6309.58
533.364	6306.87
533.73	6363.59
534.095	6393.19
534.461	6375.57
534.826	6458.73
535.192	6475.68
535.557	6541.21
535.923	6555.9
536.288	6550.93
536.653	6580.53
537.019	6594.09
537.384	6598.16
537.749	6646.29
538.114	6695.78
538.479	6657.14
538.845	6726.74
539.21	6741.66
539.575	6749.57
539.94	6856.01
540.305	6888.32
540.67	6868.21
541.034	6872.95
541.399	6926.06
541.764	6861.43
542.129	6946.85
542.494	6978.49
542.858	7039.28
543.223	7004.48
543.587	7051.48
543.952	7082.44
544.316	7108.43
544.681	7100.52
545.045	7126.96
545.41	7156.79
545.774	7147.3
546.138	7157.47
546.503	7240.4
546.867	7202.21
547.231	7258.93
547.595	7266.16
547.959	7364.92
548.324	7340.74
548.688	7332.6
549.052	7380.96
549.416	7471.36
549.779	7368.99
550.143	7360.63
550.507	7477.91
550.871	7445.6
551.235	7495.31
551.599	7488.53
551.962	7578.47
552.326	7609.88
552.689	7622.31
553.053	7666.61
553.417	7672.26
553.78	7778.24
554.143	7682.43
554.507	7748.64
554.87	7744.8
555.234	7859.6
555.597	7834.06
555.96	7828.64
556.323	7927.62
556.686	7879.71
557.05	8015.07
557.413	8029.76
557.776	8048.97
558.139	8171.68
558.502	8108.63
558.865	8124.9
559.228	8203.77
559.59	8204.45
559.953	8193.37
560.316	8263.65
560.679	8314.05
561.041	8368.28
561.404	8414.38
561.767	8502.06
562.129	8444.21
562.492	8505.23
562.854	8515.62
563.217	8482.18
563.579	8535.51
563.941	8587.71
564.304	8589.97
564.666	8639.91
565.028	8749.06
565.39	8742.51
565.753	8766.24
566.115	8896.86
566.477	8836.75
566.839	8834.26
567.201	8949.96
567.563	8980.24
567.925	9018.89
568.287	9059.11
568.648	9075.38
569.01	9126.68
569.372	9167.13
569.734	9180.92
570.095	9183.63
570.457	9261.82
570.819	9281.25
571.18	9217.98
571.542	9362.15
571.903	9328.94
572.265	9386.34
572.626	9322.83
572.987	9428.59
573.349	9465.43
573.71	9438.76
574.071	9498.2
574.432	9475.82
574.794	9590.62
575.155	9579.78
575.516	9582.94
575.877	9542.72
576.238	9598.31
576.599	9626.78
576.96	9693.22
577.32	9697.06
577.681	9733.44
578.042	9716.95
578.403	9757.4
578.763	9801.01
579.124	9782.93
579.485	9800.11
579.845	9747.46
580.206	9852.31
580.566	9864.74
580.927	9802.6
581.287	9866.55
581.648	9845.53
582.008	9838.53
582.368	9843.05
582.728	9847.57
583.089	9854.12
583.449	9829.04
583.809	9799.66
584.169	9853.89
584.529	9862.03
584.889	9898.64
585.249	9862.25
585.609	9789.71
585.969	9876.27
586.329	9897.51
586.688	9834.23
587.048	9923.04
587.408	9825.65
587.768	9863.61
588.127	9903.38
588.487	9775.25
588.846	9933.89
589.206	9874.01
589.565	9882.59
589.925	9954.46
590.284	9881.01
590.643	9921.46
591.003	9969.82
591.362	9959.65
591.721	9961.46
592.08	9953.1
592.44	9960.11
592.799	9946.55
593.158	9951.29
593.517	9898.19
593.876	9993.32
594.235	9948.81
594.593	9921.46
594.952	9963.95
595.311	9889.6
595.67	9985.42
596.029	9973.44
596.387	10013.66
596.746	10079.2
597.104	9955.13
597.463	10008.24
597.822	10052.53
598.18	9910.16
598.538	9934.8
598.897	10030.16
599.255	9930.73
599.613	10069.71
599.972	10034.23
600.33	10037.84
600.688	10041.91
601.046	10031.52
601.404	10042.36
601.762	10051.18
602.12	10098.63
602.478	10107.67
602.836	10115.58
603.194	10071.29
603.552	10030.84
603.91	10035.13
604.268	10091.85
604.625	10067.45
604.983	10135.69
605.341	10033.78
605.698	10094.34
606.056	10122.13
606.413	10132.98
606.771	10190.38
607.128	10215.69
607.485	10142.93
607.843	10187.9
608.2	10221.79
608.557	10286.2
608.914	10113.32
609.272	10301.34
609.629	10233.77
609.986	10357.16
610.343	10218.4
610.7	10288.01
611.057	10285.29
611.414	10332.98
611.771	10287.33
612.127	10317.38
612.484	10335.69
612.841	10334.56
613.198	10314.67
613.554	10363.94
613.911	10452.75
614.267	10345.86
614.624	10406.87
614.98	10365.07
615.337	10431.51
615.693	10393.77
616.05	10402.35
616.406	10427.44
616.762	10427.44
617.118	10405.74
617.475	10465.85
617.831	10416.36
618.187	10457.49
618.543	10468.11
618.899	10492.97
619.255	10466.08
619.611	10423.14
619.967	10525.97
620.323	10468.11
620.678	10403.71
621.034	10436.03
621.39	10476.02
621.746	10398.74
622.101	10465.85
622.457	10391.28
622.812	10436.03
623.168	10500.43
623.523	10516.47
623.879	10494.1
624.234	10464.5
624.589	10524.84
624.945	10622.01
625.3	10503.37
625.655	10455.23
626.01	10512.63
626.365	10557.15
626.72	10546.08
627.075	10431.96
627.43	10368.91
627.785	10450.49
628.14	10404.61
628.495	10441
628.85	10479.87
629.205	10412.75
629.559	10472.18
629.914	10399.87
630.269	10410.04
630.623	10353.99
630.978	10350.38
631.332	10381.79
631.687	10437.15
632.041	10364.39
632.396	10402.35
632.75	10321.68
633.104	10397.16
633.459	10324.84
633.813	10335.24
634.167	10290.94
634.521	10227.67
634.875	10317.38
635.229	10205.3
635.583	10172.3
635.937	10187.67
636.291	10156.03
636.645	10171.63
636.999	10141.8
637.352	10167.11
637.706	10074.9
638.06	10155.81
638.413	10192.19
638.767	10139.31
639.121	10146.09
639.474	9995.81
639.828	10100.67
640.181	10054.79
640.534	10066.09
640.888	9955.36
641.241	9947.22
641.594	9955.59
641.947	10014.34
642.301	9931.18
642.654	9928.69
643.007	9957.62
643.36	9964.85
643.713	9933.89
644.066	10096.15
644.419	9934.12
644.771	9843.72
645.124	9768.25
645.477	9667.68
645.83	9637.85
646.182	9614.58
646.535	9572.54
646.888	9598.31
647.24	9523.73
647.593	9526.9
647.945	9493.22
648.298	9493
648.65	9522.38
649.002	9475.15
649.355	9431.53
649.707	9499.78
650.059	9493.45
650.411	9604.63
650.763	9653.9
651.115	9734.8
651.467	9713.56
651.819	9670.17
652.171	9660.45
652.523	9600.11
652.875	9627.23
653.227	9547.69
653.578	9645.31
653.93	9658.19
654.282	9611.41
654.633	9515.6
654.985	9540.68
655.337	9495.94
655.688	9500.23
656.039	9615.71
656.391	9559.66
656.742	9547.91
657.094	9548.36
657.445	9548.36
657.796	9530.51
658.147	9563.28
658.498	9507.69
658.849	9570.96
659.2	9435.37
659.551	9447.58
659.902	9510.63
660.253	9416.39
660.604	9488.25
660.955	9436.5
661.306	9425.43
661.656	9443.28
662.007	9402.38
662.358	9476.05
662.708	9418.65
663.059	9469.04
663.409	9326
663.76	9406
664.11	9324.19
664.461	9363.74
664.811	9341.82
665.161	9351.76
665.511	9330.29
665.862	9355.83
666.212	9371.19
666.562	9275.6
666.912	9312.89
667.262	9272.67
667.612	9311.31
667.962	9263.17
668.312	9255.49
668.662	9290.29
669.011	9245.1
669.361	9278.32
669.711	9315.38
670.06	9231.08
670.41	9236.73
670.76	9192.44
671.109	9247.36
671.459	9198.09
671.808	9176.62
672.157	9257.07
672.507	9192.22
672.856	9138.88
673.205	9158.32
673.554	9197.19
673.904	9195.38
674.253	9207.58
674.602	9164.65
674.951	8993.8
675.3	8961.71
675.649	9199.9
675.998	9127.13
676.346	9135.49
676.695	9123.97
677.044	9055.04
677.393	9072.67
677.741	9123.97
678.09	9059.34
678.438	9101.82
678.787	9114.93
679.135	9038.77
679.484	9014.59
679.832	9082.16
680.181	9014.14
680.529	9064.99
680.877	9003.52
681.225	8987.48
681.573	9055.72
681.922	8951.32
682.27	8960.36
682.618	8951.77
682.966	8916.52
683.314	8931.43
683.661	8921.04
684.009	8906.35
684.357	8852.79
684.705	8855.73
685.053	8839.23
685.4	8788.16
685.748	8743.19
686.095	8814.15
686.443	8770.98
686.79	8713.36
687.138	8789.97
687.485	8791.55
687.832	8682.17
688.18	8721.49
688.527	8648.05
688.874	8610.54
689.221	8594.49
689.568	8569.18
689.915	8598.33
690.262	8531.44
690.609	8512.46
690.956	8517.88
691.303	8452.8
691.65	8443.08
691.997	8467.26
692.344	8408.28
692.69	8410.09
693.037	8321.73
693.383	8328.06
693.73	8312.92
694.077	8335.74
694.423	8278.34
694.769	8263.65
695.116	8258.23
695.462	8231.79
695.808	8236.99
696.155	8223.43
696.501	8134.39
696.847	8134.62
697.193	8038.12
697.539	8110.21
697.885	8014.62
698.231	7974.39
698.577	8019.37
698.923	7978.24
699.269	7901.18
699.614	7913.15
699.96	7910.22
700.306	7941.18
700.651	7886.04
700.997	7841.07
701.342	7767.62
701.688	7769.88
702.033	7773.95
702.379	7821.86
702.724	7732.59
703.069	7800.61
703.415	7686.72
703.76	7694.4
704.105	7764.23
704.45	7696.44
704.795	7615.31
705.14	7617.34
705.485	7593.84
705.83	7597.23
706.175	7588.19
706.52	7537.34
706.865	7502.32
707.209	7575.54
707.554	7481.75
707.899	7513.84
708.243	7467.06
708.588	7509.55
708.932	7341.42
709.277	7455.76
709.621	7437.91
709.966	7361.3
710.31	7391.81
710.654	7313.4
710.998	7334.19
711.342	7367.86
711.687	7337.12
712.031	7343
712.375	7275.88
712.719	7270.91
713.063	7283.11
713.407	7237.92
713.75	7205.15
714.094	7243.34
714.438	7196.79
714.782	7161.53
715.125	7152.5
715.469	7211.48
715.812	7170.12
716.156	7114.3
716.499	7109.78
716.843	7105.94
717.186	7065.94
717.53	7124.02
717.873	7104.81
718.216	7032.5
718.559	7070.24
718.902	7008.32
719.246	7034.31
719.589	6969.22
719.932	6935.33
720.275	6949.79
720.617	6988.21
720.96	6934.65
721.303	6870.24
721.646	6907.53
721.989	6918.38
722.331	6882.45
722.674	6887.19
723.016	6924.48
723.359	6840.19
723.701	6919.06
724.044	6812.17
724.386	6811.26
724.729	6767.42
725.071	6740.53
725.413	6776.69
725.755	6781.88
726.097	6761.55
726.439	6756.8
726.782	6723.58
727.124	6775.78
727.465	6717.03
727.807	6672.06
728.149	6656.24
728.491	6674.09
728.833	6681.55
729.175	6690.81
729.516	6690.59
729.858	6618.27
730.199	6607.43
730.541	6595.45
730.882	6595.45
731.224	6593.19
731.565	6578.27
731.906	6541.44
732.248	6522.23
732.589	6430.03
732.93	6477.49
733.271	6531.49
733.612	6487.43
733.953	6492.17
734.294	6472.74
734.635	6411.5
734.976	6467.32
735.317	6418.96
735.658	6470.25
735.999	6446.98
736.339	6395.45
736.68	6423.25
737.021	6418.28
737.361	6380.54
737.702	6498.73
738.042	6350.03
738.383	6311.61
738.723	6383.02
739.063	6370.6
739.404	6370.37
739.744	6329.92
740.084	6304.61
740.424	6317.49
740.764	6285.4
741.104	6301.9
741.444	6239.3
741.784	6311.84
742.124	6269.81
742.464	6242.24
742.804	6251.28
743.143	6256.7
743.483	6252.63
743.823	6218.28
744.162	6182.13
744.502	6227.1
744.841	6225.51
745.181	6258.51
745.52	6174.44
745.86	6210.37
746.199	6157.72
746.538	6178.28
746.877	6189.81
747.216	6190.49
747.556	6189.36
747.895	6139.19
748.234	6128.12
748.573	6098.51
748.911	6113.88
749.25	6083.82
749.589	6020.32
749.928	6100.09
750.267	6011.73
750.605	6038.85
750.944	6065.52
751.283	6054.22
751.621	6086.31
751.96	5961.34
752.298	5939.87
752.636	6025.29
752.975	5947.78
753.313	5975.8
753.651	5956.14
753.989	5923.38
754.327	5902.13
754.666	5937.39
755.004	5898.97
755.342	5879.76
755.679	5876.6
756.017	5844.06
756.355	5861.68
756.693	5836.82
757.031	5780.78
757.368	5768.35
757.706	5798.18
758.044	5788.01
758.381	5754.79
758.719	5752.31
759.056	5807.9
759.394	5703.27
759.731	5645.64
760.068	5660.56
760.405	5657.85
760.743	5621.46
761.08	5660.56
761.417	5586.44
761.754	5636.6
762.091	5570.84
762.428	5602.25
762.765	5613.78
763.102	5564.51
763.438	5526.55
763.775	5477.96
764.112	5507.79
764.449	5514.57
764.785	5486.32
765.122	5413.56
765.458	5444.97
765.795	5397.51
766.131	5381.47
766.467	5401.13
766.804	5333.79
767.14	5346.44
767.476	5330.62
767.812	5298.76
768.148	5294.24
768.485	5267.8
768.821	5244.3
769.157	5272.09
769.492	5255.82
769.828	5242.49
770.164	5168.59
770.5	5163.4
770.836	5172.66
771.171	5109.84
771.507	5142.83
771.842	5078.2
772.178	5094.02
772.513	5092.21
772.849	5074.36
773.184	5058.31
773.519	5045.43
773.855	5003.4
774.19	5010.63
774.525	4993.68
774.86	4973.12
775.195	4947.58
775.53	4925.89
775.865	4976.73
776.2	4929.96
776.535	4855.61
776.87	4868.49
777.205	4821.26
777.539	4817.19
777.874	4859
778.209	4851.31
778.543	4762.95
778.878	4756.4
779.212	4735.38
779.547	4751.65
779.881	4757.53
780.215	4681.83
780.55	4699.23
780.884	4658.32
781.218	4655.84
781.552	4671.43
781.886	4629.4
782.22	4606.12
782.554	4597.31
782.888	4560.47
783.222	4596.18
783.556	4545.11
783.889	4506.46
784.223	4520.47
784.557	4488.38
784.89	4503.07
785.224	4481.38
785.557	4494.26
785.891	4458.33
786.224	4457.88
786.558	4470.31
786.891	4383.75
787.224	4434.15
787.557	4367.71
787.891	4306.92
788.224	4381.72
788.557	4319.35
788.89	4338.33
789.223	4317.77
789.556	4271.67
789.888	4314.15
790.221	4287.26
790.554	4231.44
790.887	4266.02
791.219	4240.26
791.552	4219.01
791.884	4176.98
792.217	4143.08
792.549	4158.45
792.882	4137.43
793.214	4078.23
793.546	4125.23
793.879	4113.93
794.211	4105.8
794.543	4074.38
794.875	4047.49
795.207	4091.79
795.539	4068.73
795.871	4034.84
796.203	4050.43
796.535	4010.21
796.867	4040.04
797.198	3960.94
797.53	3976.76
797.862	3929.53
798.193	3969.98
798.525	3930.89
798.856	3972.24
799.188	3895.63
799.519	3896.08
799.85	3859.47
800.182	3879.14
800.513	3845.24
800.844	3846.14
801.175	3846.82
801.506	3810.21
801.837	3824.45
802.168	3828.74
802.499	3845.92
802.83	3763.43
803.161	3726.14
803.491	3761.62
803.822	3739.48
804.153	3714.62
804.483	3718.91
804.814	3689.99
805.145	3723.66
805.475	3698.58
805.805	3672.14
806.136	3676.2
806.466	3681.17
806.796	3684.56
807.126	3633.72
807.457	3631.46
807.787	3610.22
808.117	3598.46
808.447	3603.89
808.777	3641.85
809.107	3592.82
809.436	3588.75
809.766	3597.79
810.096	3544
810.426	3528.64
810.755	3565.92
811.085	3572.48
811.414	3609.31
811.744	3517.56
812.073	3505.36
812.403	3526.38
812.732	3501.07
813.061	3507.17
813.39	3450.45
813.719	3470.56
814.049	3492.25
814.378	3485.7
814.707	3458.13
815.036	3472.37
815.365	3448.64
815.693	3425.59
816.022	3422.42
816.351	3426.27
816.68	3373.39
817.008	3363.89
817.337	3348.3
817.665	3348.75
817.994	3377
818.322	3374.97
818.651	3368.87
818.979	3303.11
819.307	3344.91
819.636	3348.98
819.964	3367.96
820.292	3363.67
820.62	3321.64
820.948	3367.51
821.276	3347.85
821.604	3333.84
821.932	3347.17
822.259	3362.31
822.587	3318.02
822.915	3330.68
823.243	3306.04
823.57	3317.34
823.898	3358.92
824.225	3313.27
824.553	3307.4
824.88	3327.74
825.207	3319.38
825.535	3319.83
825.862	3350.79
826.189	3344.01
826.516	3320.96
826.843	3328.87
827.17	3334.52
827.497	3348.08
827.824	3315.99
828.151	3326.16
828.478	3362.76
828.805	3378.13
829.131	3347.4
829.458	3291.35
829.785	3277.34
830.111	3317.34
830.438	3317.34
830.764	3303.33
831.09	3311.01
831.417	3289.55
831.743	3305.37
832.069	3306.27
832.395	3315.53
832.722	3357.57
833.048	3295.87
833.374	3293.84
833.7	3273.5
834.026	3306.95
834.351	3262.43
834.677	3275.54
835.003	3292.94
835.329	3269.89
835.654	3275.76
835.98	3238.25
836.306	3275.08
836.631	3241.64
836.956	3266.95
837.282	3243.67
837.607	3184.92
837.932	3206.61
838.258	3215.42
838.583	3227.4
838.908	3205.71
839.233	3201.19
839.558	3202.09
839.883	3183.11
840.208	3209.55
840.533	3182.43
840.858	3175.2
841.182	3142.88
841.507	3165.93
841.832	3178.14
842.156	3149.89
842.481	3167.74
842.805	3132.94
843.13	3158.48
843.454	3089.55
843.778	3082.32
844.103	3092.72
844.427	3076.44
844.751	3104.01
845.075	3090
845.399	3081.42
845.723	3051.81
846.047	3066.73
846.371	3038.48
846.695	3068.99
847.019	3011.14
847.343	3004.13
847.666	3016.33
847.99	2988.76
848.313	2956.22
848.637	3006.84
848.96	2933.62
849.284	2939.05
849.607	2876.9
849.931	2941.98
850.254	2874.19
850.577	2939.27
850.9	2828.99
851.223	2883
851.546	2825.83
851.869	2848.43
852.192	2839.39
852.515	2839.39
852.838	2820.18
853.161	2832.84
853.483	2793.74
853.806	2767.98
854.129	2824.47
854.451	2768.43
854.774	2777.7
855.096	2759.16
855.419	2741.31
855.741	2746.74
856.063	2725.95
856.385	2720.07
856.708	2733.85
857.03	2694.08
857.352	2664.25
857.674	2706.06
857.996	2701.54
858.318	2705.83
858.64	2672.61
858.961	2702.44
859.283	2662.9
859.605	2647.3
859.926	2664.25
860.248	2657.92
860.57	2642.78
860.891	2628.09
861.212	2638.04
861.534	2640.52
861.855	2622.67
862.176	2625.38
862.498	2622.45
862.819	2601.88
863.14	2637.59
863.461	2645.04
863.782	2562.56
864.103	2582.9
864.424	2588.77
864.745	2566.18
865.065	2538.61
865.386	2561.88
865.707	2573.63
866.027	2576.8
866.348	2549.68
866.668	2560.98
866.989	2564.82
867.309	2542.45
867.63	2562.33
867.95	2524.37
868.27	2523.46
868.59	2576.34
868.91	2560.07
869.23	2565.95
869.55	2490.47
869.87	2504.93
870.19	2532.96
870.51	2518.04
870.83	2510.36
871.15	2517.14
871.469	2508.32
871.789	2529.79
872.109	2483.24
872.428	2476.69
872.748	2508.78
873.067	2499.74
873.386	2480.08
873.706	2507.65
874.025	2469.45
874.344	2486.86
874.663	2502.67
874.982	2504.71
875.301	2472.39
875.62	2528.44
875.939	2444.82
876.258	2467.42
876.577	2453.41
876.896	2471.94
877.214	2451.6
877.533	2466.97
877.852	2463.35
878.17	2452.96
878.489	2462.22
878.807	2470.13
879.125	2425.84
879.444	2431.72
879.762	2435.11
880.08	2431.49
880.398	2410.7
880.716	2435.11
881.034	2405.5
881.352	2410.47
881.67	2415.44
881.988	2414.99
882.306	2399.63
882.624	2397.37
882.941	2362.34
883.259	2374.32
883.577	2363.47
883.894	2341.32
884.212	2347.2
884.529	2349.91
884.846	2335.45
885.164	2331.83
885.481	2327.54
885.798	2353.53
886.115	2363.47
886.432	2327.99
886.75	2331.61
887.067	2353.75
887.383	2329.8
887.7	2300.65
888.017	2316.24
888.334	2276.47
888.651	2334.77
888.967	2292.06
889.284	2267.2
889.6	2311.04
889.917	2287.31
890.233	2267.65
890.55	2250.03
890.866	2297.26
891.182	2269.46
891.498	2236.01
891.815	2250.03
892.131	2242.34
892.447	2212.74
892.763	2215.22
893.079	2199.41
893.395	2203.93
893.71	2183.81
894.026	2166.19
894.342	2205.28
894.657	2166.19
894.973	2194.89
895.289	2139.75
895.604	2183.81
895.92	2181.55
896.235	2153.98
896.55	2134.55
896.865	2163.47
897.181	2144.72
897.496	2104.49
897.811	2124.38
898.126	2095
898.441	2086.41
898.756	2087.54
899.071	2071.5
899.386	2102.46
899.7	2086.87
900.015	2084.15
900.33	2064.04
900.644	2078.05
900.959	2072.63
901.273	2056.13
901.588	2024.49
901.902	2068.56
902.216	2054.32
902.531	2038.05
902.845	2011.16
903.159	1997.6
903.473	1984.72
903.787	1989.24
904.101	1995.34
904.415	1974.1
904.729	1968.23
905.042	1963.93
905.356	1936.81
905.67	1949.69
905.984	1948.56
906.297	1965.97
906.611	1928.9
906.924	1939.98
907.237	1899.75
907.551	1913.99
907.864	1898.62
908.177	1927.55
908.491	1918.96
908.804	1913.31
909.117	1871.73
909.43	1849.58
909.743	1868.57
910.056	1844.84
910.368	1867.21
910.681	1882.8
910.994	1838.28
911.307	1824.5
911.619	1799.64
911.932	1835.35
912.244	1819.08
912.557	1802.13
912.869	1811.62
913.181	1815.46
913.494	1812.52
913.806	1798.51
914.118	1792.41
914.43	1786.76
914.742	1776.14
915.054	1754.9
915.366	1747.44
915.678	1785.18
915.99	1758.06
916.302	1720.1
916.613	1756.48
916.925	1734.11
917.236	1734.78
917.548	1720.1
917.859	1701.57
918.171	1715.12
918.482	1697.72
918.794	1679.42
919.105	1681.9
919.416	1676.26
919.727	1692.98
920.038	1696.37
920.349	1657.05
920.66	1633.54
920.971	1666.54
921.282	1623.15
921.593	1633.32
921.903	1637.16
922.214	1610.49
922.525	1627.67
922.835	1587.44
923.146	1606.2
923.456	1585.86
923.767	1610.49
924.077	1643.71
924.387	1621.12
924.697	1597.39
925.008	1591.29
925.318	1583.6
925.628	1580.21
925.938	1580.44
926.248	1586.31
926.558	1563.94
926.867	1544.06
927.177	1551.51
927.487	1559.2
927.796	1545.86
928.106	1536.37
928.416	1555.13
928.725	1491.63
929.034	1522.36
929.344	1504.96
929.653	1524.62
929.962	1495.92
930.271	1473.32
930.581	1482.59
930.89	1474
931.199	1481.68
931.508	1464.06
931.817	1478.07
932.125	1507.45
932.434	1458.63
932.743	1467.67
933.051	1459.54
933.36	1441.01
933.669	1450.72
933.977	1423.38
934.286	1428.13
934.594	1441.91
934.902	1415.47
935.21	1426.09
935.519	1391.29
935.827	1405.3
936.135	1379.09
936.443	1403.49
936.751	1365.76
937.059	1408.01
937.367	1384.51
937.674	1384.29
937.982	1381.12
938.29	1353.33
938.597	1387.22
938.905	1378.64
939.213	1364.17
939.52	1353.33
939.827	1348.81
940.135	1352.42
940.442	1333.67
940.749	1339.77
941.056	1332.76
941.363	1321.46
941.67	1306.55
941.977	1291.18
942.284	1303.61
942.591	1316.94
942.898	1324.4
943.205	1325.3
943.511	1283.95
943.818	1314.46
944.125	1279.66
944.431	1281.92
944.738	1286.21
945.044	1289.15
945.35	1281.69
945.657	1275.36
945.963	1248.02
946.269	1255.7
946.575	1271.07
946.881	1271.97
947.187	1244.63
947.493	1220.9
947.799	1244.18
948.105	1231.75
948.41	1235.59
948.716	1237.62
949.022	1229.71
949.327	1210.96
949.633	1167.34
949.938	1208.7
950.244	1200.11
950.549	1184.29
950.854	1206.89
951.16	1175.93
951.465	1207.57
951.77	1193.33
952.075	1169.6
952.38	1180.22
952.685	1163.5
952.99	1166.44
953.294	1148.81
953.599	1201.92
953.904	1177.29
954.209	1162.6
954.513	1168.25
954.818	1144.74
955.122	1123.5
955.426	1131.64
955.731	1124.86
956.035	1158.3
956.339	1143.39
956.643	1117.17
956.948	1113.78
957.252	1135.25
957.556	1138.64
957.86	1114.91
958.163	1101.81
958.467	1105.2
958.771	1072.2
959.075	1096.84
959.378	1108.81
959.682	1087.12
959.985	1071.07
960.289	1094.35
960.592	1106.55
960.896	1071.53
961.199	1066.55
961.502	1063.16
961.805	1061.58
962.108	1057.74
962.411	1068.59
962.714	1026.1
963.017	1014.35
963.32	998.99
963.623	1019.1
963.926	1044.63
964.228	1021.36
964.531	1053.9
964.833	1013
965.136	1007.57
965.438	1012.77
965.741	1016.16
966.043	1013.9
966.345	998.53
966.648	1027.91
966.95	1014.35
967.252	1013.45
967.554	997.18
967.856	1005.09
968.158	1017.97
968.46	979.1
968.761	996.05
969.063	973.22
969.365	976.61
969.666	985.43
969.968	968.25
970.269	944.98
970.571	1012.54
970.872	968.03
971.174	956.05
971.475	966.44
971.776	932.77
972.077	921.7
972.378	947.46
972.679	959.66
972.98	955.82
973.281	932.55
973.582	941.13
973.883	949.27
974.183	940.23
974.484	944.52
974.785	922.15
975.085	922.15
975.386	937.07
975.686	930.74
975.986	907.46
976.287	899.33
976.587	907.24
976.887	899.1
977.187	890.06
977.487	870.85
977.787	891.19
978.087	898.2
978.387	875.15
978.687	871.98
978.987	882.83
979.286	870.85
979.586	887.12
979.885	873.79
980.185	869.72
980.484	873.11
980.784	857.52
981.083	873.11
981.382	884.64
981.682	870.63
981.981	826.56
982.28	867.46
982.579	849.16
982.878	857.29
983.177	823.62
983.475	843.73
983.774	836.5
984.073	821.59
984.372	850.06
984.67	826.79
984.969	833.79
985.267	839.22
985.566	826.79
985.864	817.52
986.162	819.33
986.461	804.19
986.759	796.73
987.057	808.26
987.355	797.41
987.653	785.88
987.951	784.98
988.249	799.22
988.547	777.07
988.844	800.57
989.142	789.5
989.44	776.17
989.737	766.67
990.035	786.11
990.332	781.59
990.63	801.25
990.927	770.74
991.224	764.64
991.521	777.97
991.819	768.93
992.116	777.07
992.413	773.45
992.71	754.47
993.006	752.21
993.303	727.81
993.6	742.49
993.897	768.48
994.193	753.12
994.49	745.21
994.787	732.33
995.083	740.23
995.379	744.3
995.676	735.72
995.972	720.57
996.268	743.62
996.565	713.12
996.861	716.05
997.157	723.51
997.453	726.45
997.749	728.94
998.044	712.66
998.34	714.25
998.636	700.91
998.932	727.35
999.227	707.02
999.523	715.15
999.818	690.29
1000.114	715.38
1000.409	720.12
1000.704	697.52
1001	702.04
1001.295	707.92
1001.59	689.16
1001.885	694.81
1002.18	685.09
1002.475	696.39
1002.77	700.46
1003.065	684.87
1003.359	698.43
1003.654	683.29
1003.949	681.93
1004.243	657.98
1004.538	658.65
1004.832	659.11
1005.127	673.12
1005.421	659.33
1005.715	659.56
1006.009	650.75
1006.304	664.98
1006.598	657.98
1006.892	660.46
1007.186	654.59
1007.48	637.19
1007.773	655.04
1008.067	665.66
1008.361	672.67
1008.655	620.92
1008.948	628.37
1009.242	643.06
1009.535	623.63
1009.829	626.79
1010.122	635.6
1010.415	620.46
1010.708	620.92
1011.001	622.27
1011.295	615.49
1011.588	605.55
1011.881	601.03
1012.173	595.83
1012.466	619.11
1012.759	618.2
1013.052	617.75
1013.344	604.65
1013.637	606.23
1013.93	609.39
1014.222	585.89
1014.514	597.41
1014.807	609.16
1015.099	586.57
1015.391	610.97
1015.683	587.47
1015.976	589.96
1016.268	590.63
1016.56	574.36
1016.851	586.34
1017.143	568.71
1017.435	580.24
1017.727	584.08
1018.018	570.97
1018.31	599.45
1018.602	595.15
1018.893	553.35
1019.185	564.65
1019.476	578.43
1019.767	580.92
1020.058	576.17
1020.35	532.78
1020.641	563.97
1020.932	549.05
1021.223	553.57
1021.514	558.09
1021.804	550.64
1022.095	529.84
1022.386	558.09
1022.677	536.62
1022.967	555.61
1023.258	548.83
1023.548	540.01
1023.839	534.36
1024.129	551.09
1024.419	520.81
1024.709	535.95
1025	537.3
1025.29	540.24
1025.58	528.94
1025.87	521.71
1026.16	512.67
1026.449	518.77
1026.739	513.57
1027.029	516.51
1027.319	519.45
1027.608	508.15
1027.898	523.52
1028.187	506.57
1028.477	494.37
1028.766	510.41
1029.055	491.88
1029.344	505.44
1029.634	501.6
1029.923	504.31
1030.212	494.59
1030.501	502.73
1030.79	513.8
1031.078	490.75
1031.367	492.11
1031.656	481.94
1031.945	512.44
1032.233	490.3
1032.522	488.26
1032.81	470.86
1033.099	486
1033.387	486.68
1033.675	464.99
1033.963	495.95
1034.251	468.6
1034.54	475.83
1034.828	460.47
1035.116	489.62
1035.403	477.19
1035.691	471.32
1035.979	496.17
1036.267	465.44
1036.554	480.58
1036.842	441.49
1037.129	472.9
1037.417	464.54
1037.704	465.89
1037.992	458.21
1038.279	441.71
1038.566	450.75
1038.853	450.75
1039.14	450.75
