Data from foam2_polystyrene_foam_FLMS001491_00016.txt Node
Date: Wed Feb 08 10:57:35 GMT 2017
User: dcchb
Spectrometer: FLMS00149
Trigger mode: 0
Integration Time (sec): 2.000000E-2
Scans to average: 10
Electric dark correction enabled: true
Nonlinearity correction enabled: false
Boxcar width: 0
XAxis mode: Wavelengths
Number of Pixels in Spectrum: 2048
>>>>>Begin Spectral Data<<<<<
341.393	-6.44
341.776	-6.44
342.16	-6.44
342.543	-54.12
342.927	-75.37
343.31	-62.03
343.693	-63.16
344.077	-76.27
344.46	-58.42
344.843	-43.95
345.226	-39.89
345.61	-25.2
345.993	-25.88
346.376	-11.41
346.759	0.56
347.142	16.61
347.525	26.33
347.908	65.2
348.291	87.12
348.674	91.41
349.057	118.98
349.44	109.94
349.823	147.45
350.206	169.37
350.588	174.57
350.971	221.35
351.354	223.84
351.737	250.28
352.119	240.56
352.502	277.17
352.884	274.91
353.267	283.72
353.65	297.28
354.032	306.32
354.414	302.93
354.797	319.65
355.179	335.47
355.562	347.67
355.944	341.57
356.326	350.39
356.709	346.77
357.091	332.31
357.473	346.77
357.855	371.4
358.238	364.4
358.62	338.86
359.002	366.21
359.384	341.57
359.766	347.9
360.148	363.72
360.53	334.34
360.912	355.81
361.294	362.82
361.676	363.27
362.057	352.42
362.439	351.97
362.821	333.89
363.203	351.06
363.584	361.46
363.966	350.39
364.348	351.52
364.729	344.06
365.111	327.34
365.493	337.51
365.874	339.09
366.256	351.52
366.637	337.73
367.019	346.09
367.4	351.06
367.781	346.54
368.163	335.02
368.544	339.77
368.925	337.73
369.306	373.21
369.688	342.7
370.069	368.92
370.45	367.33
370.831	367.56
371.212	377.05
371.593	358.97
371.974	363.49
372.355	351.97
372.736	336.38
373.117	357.84
373.498	353.1
373.879	349.03
374.26	334.12
374.641	346.09
375.021	350.61
375.402	369.14
375.783	382.93
376.163	389.03
376.544	383.15
376.925	360.78
377.305	374.11
377.686	394
378.066	379.54
378.447	395.13
378.827	392.42
379.208	387
379.588	390.16
379.968	405.3
380.349	407.33
380.729	402.14
381.109	432.64
381.489	385.41
381.87	408.92
382.25	417.28
382.63	422.02
383.01	427.9
383.39	446.43
383.77	417.96
384.15	410.27
384.53	428.12
384.91	445.75
385.29	448.46
385.67	449.37
386.049	455.24
386.429	449.14
386.809	470.38
387.189	454.11
387.568	486.65
387.948	462.47
388.328	463.6
388.707	454.34
389.087	474
389.466	495.24
389.846	480.33
390.225	500.44
390.605	493.66
390.984	510.83
391.363	490.5
391.743	486.2
392.122	505.86
392.501	511.29
392.881	545.86
393.26	510.61
393.639	529.59
394.018	537.5
394.397	541.12
394.776	554.45
395.155	545.86
395.534	539.08
395.913	542.92
396.292	541.79
396.671	556.48
397.05	542.7
397.429	592.41
397.808	559.19
398.186	564.39
398.565	571.17
398.944	572.98
399.323	619.98
399.701	598.06
400.08	604.16
400.458	595.35
400.837	591.74
401.215	628.35
401.594	625.86
401.972	624.96
402.351	621.34
402.729	626.31
403.107	642.36
403.486	620.44
403.864	662.92
404.242	663.37
404.62	680.32
404.999	658.4
405.377	683.26
405.755	708.79
406.133	701.56
406.511	664.05
406.889	721.9
407.267	746.99
407.645	714.22
408.023	732.52
408.401	749.02
408.779	752.41
409.156	752.64
409.534	737.49
409.912	772.3
410.29	777.27
410.667	796.25
411.045	797.38
411.422	822.92
411.8	786.53
412.178	795.12
412.555	870.82
412.933	832.86
413.31	856.59
413.687	883.71
414.065	889.13
414.442	910.6
414.819	885.74
415.197	908.56
415.574	917.83
415.951	927.55
416.328	925.06
416.705	937.72
417.082	953.53
417.46	977.49
417.837	969.81
418.214	979.52
418.591	1006.41
418.967	975
419.344	1010.03
419.721	1019.3
420.098	1000.99
420.475	1007.54
420.852	1040.09
421.228	1056.13
421.605	1038.73
421.982	1080.54
422.358	1076.02
422.735	1113.98
423.111	1085.51
423.488	1117.37
423.864	1126.41
424.241	1145.62
424.617	1131.16
424.994	1160.31
425.37	1161.89
425.746	1165.28
426.123	1196.01
426.499	1200.31
426.875	1223.13
427.251	1238.27
427.627	1266.29
428.003	1240.98
428.379	1291.15
428.756	1330.93
429.132	1328.44
429.507	1323.47
429.883	1324.82
430.259	1380.64
430.635	1376.8
431.011	1350.81
431.387	1453.63
431.763	1456.57
432.138	1442.11
432.514	1492.5
432.89	1501.77
433.265	1520.52
433.641	1520.07
434.016	1570.92
434.392	1563.01
434.767	1616.34
435.143	1594.2
435.518	1594.87
435.894	1654.31
436.269	1682.1
436.644	1653.4
437.02	1694.53
437.395	1718.26
437.77	1716.45
438.145	1766.62
438.52	1725.49
438.895	1782.66
439.271	1774.3
439.646	1841.19
440.021	1867.86
440.395	1823.34
440.77	1843.23
441.145	1920.97
441.52	1922.1
441.895	1919.61
442.27	1927.75
442.645	1939.95
443.019	1991.93
443.394	1965.49
443.769	2008.42
444.143	1987.41
444.518	2042.32
444.892	2030.57
445.267	2040.74
445.641	2053.39
446.016	2070.79
446.39	2095.65
446.764	2108.98
447.139	2089.78
447.513	2163.67
447.887	2172.71
448.262	2184.69
448.636	2180.62
449.01	2219.94
449.384	2220.85
449.758	2279.6
450.132	2292.93
450.506	2308.75
450.88	2316.21
451.254	2358.92
451.628	2343.78
452.002	2373.16
452.376	2409.99
452.75	2452.48
453.123	2467.84
453.497	2469.65
453.871	2509.65
454.244	2545.13
454.618	2564.79
454.992	2584.9
455.365	2643.21
455.739	2704
456.112	2687.05
456.486	2692.02
456.859	2759.14
457.232	2784.45
457.606	2749.87
457.979	2819.93
458.352	2896.53
458.725	2915.06
459.099	2918.45
459.472	2984.44
459.845	2992.35
460.218	3023.31
460.591	3046.36
460.964	3049.75
461.337	3151.89
461.71	3176.98
462.083	3223.31
462.456	3238.9
462.829	3230.54
463.201	3324.55
463.574	3340.14
463.947	3377.2
464.32	3453.58
464.692	3482.06
465.065	3530.87
465.438	3584.43
465.81	3604.09
466.183	3660.36
466.555	3709.39
466.928	3715.5
467.3	3704.87
467.672	3783.74
468.045	3878.43
468.417	3916.39
468.789	3925.89
469.161	3995.49
469.534	4031.42
469.906	4135.15
470.278	4151.42
470.65	4189.16
471.022	4291.75
471.394	4357.51
471.766	4381.47
472.138	4439.09
472.51	4519.99
472.882	4606.55
473.253	4684.74
473.625	4740.55
473.997	4834.34
474.369	4832.3
474.74	4903.26
475.112	5041.11
475.484	5085.85
475.855	5186.19
476.227	5239.98
476.598	5366.3
476.97	5399.07
477.341	5562.9
477.713	5576.24
478.084	5621.66
478.455	5755.89
478.827	5848.09
479.198	5991.14
479.569	6032.95
479.94	6147.52
480.311	6206.05
480.682	6369.44
481.053	6501.18
481.424	6645.59
481.795	6663.44
482.166	6782.76
482.537	6924
482.908	7040.83
483.279	7070.44
483.65	7251.9
484.021	7344.1
484.391	7457.09
484.762	7559.01
485.133	7632.45
485.503	7761.94
485.874	7897.08
486.244	7930.98
486.615	8097.53
486.985	8196.28
487.356	8328.71
487.726	8422.04
488.097	8589.04
488.467	8627.46
488.837	8769.37
489.207	8894.12
489.578	9062.25
489.948	9112.87
490.318	9241
490.688	9289.81
491.058	9376.59
491.428	9550.82
491.798	9631.27
492.168	9846.63
492.538	9809.35
492.908	9936.35
493.278	10132.28
493.648	10176.34
494.017	10349.22
494.387	10442.1
494.757	10511.7
495.126	10535.88
495.496	10625.82
495.866	10676.44
496.235	10841.41
496.605	10927.28
496.974	10982.2
497.344	11164.11
497.713	11210.67
498.082	11307.84
498.452	11371.34
498.821	11416.99
499.19	11533.6
499.559	11606.81
499.928	11683.65
500.298	11829.86
500.667	11919.35
501.036	11977.2
501.405	12111.88
501.774	12133.13
502.143	12304.65
502.512	12391.88
502.88	12441.37
503.249	12467.13
503.618	12548.71
503.987	12646.79
504.356	12745.54
504.724	12760.91
505.093	12864.18
505.462	12931.3
505.83	13037.06
506.199	13237.51
506.567	13348.24
506.936	13400.21
507.304	13496.93
507.672	13567.21
508.041	13642.69
508.409	13684.05
508.777	13936.24
509.145	13984.15
509.514	14040.87
509.882	14143.47
510.25	14211.94
510.618	14314.54
510.986	14382.56
511.354	14531.93
511.722	14660.52
512.09	14796.33
512.458	14801.53
512.826	14951.36
513.193	15033.39
513.561	15136.89
513.929	15263.44
514.297	15358.35
514.664	15489.2
515.032	15512.25
515.4	15636.31
515.767	15796.08
516.135	15867.04
516.502	15814.39
516.869	16161.27
517.237	16166.24
517.604	16159.01
517.972	16468.15
518.339	16504.09
518.706	16547.7
519.073	16707.92
519.44	16799.22
519.808	17026.78
520.175	17044.86
520.542	17219.32
520.909	17365.76
521.276	17376.61
521.643	17587
522.009	17777.05
522.376	17815.69
522.743	17947.89
523.11	18128.68
523.477	18251.84
523.843	18397.37
524.21	18539.29
524.577	18659.96
524.943	18845.27
525.31	18972.72
525.676	19113.51
526.043	19260.17
526.409	19361.19
526.776	19487.96
527.142	19648.18
527.508	19872.13
527.874	20038.91
528.241	20046.37
528.607	20173.82
528.973	20342.63
529.339	20409.97
529.705	20599.57
530.071	20857.87
530.437	20870.3
530.803	20931.77
531.169	21071.65
531.535	21127.24
531.901	21233.23
532.267	21377.86
532.632	21561.58
532.998	21612.65
533.364	21669.15
533.73	21801.8
534.095	22032.53
534.461	21972.64
534.826	22147.1
535.192	22191.85
535.557	22463.93
535.923	22473.65
536.288	22545.51
536.653	22611.27
537.019	22658.5
537.384	22792.06
537.749	22897.14
538.114	22980.75
538.479	23028.43
538.845	23142.1
539.21	23067.98
539.575	23289.67
539.94	23294.42
540.305	23495.31
540.67	23528.53
541.034	23751.58
541.399	23819.37
541.764	23817.57
542.129	24016.2
542.494	24006.94
542.858	24065.92
543.223	24142.98
543.587	24332.13
543.952	24232.02
544.316	24477.44
544.681	24538.68
545.045	24570.77
545.41	24735.06
545.774	24789.29
546.138	24804.43
546.503	24846.01
546.867	24907.48
547.231	25207.59
547.595	25130.3
547.959	25276.74
548.324	25373.68
548.688	25445.55
549.052	25605.09
549.416	25676.27
549.779	25632.21
550.143	25774.58
550.507	26033.33
550.871	26027.68
551.235	26055.7
551.599	26271.74
551.962	26323.71
552.326	26459.98
552.689	26642.58
553.053	26595.35
553.417	26637.6
553.78	26940.2
554.143	26822.46
554.507	26907.65
554.87	27073.07
555.234	27423.12
555.597	27277.59
555.96	27441.65
556.323	27525.49
556.686	27570.69
557.05	27754.19
557.413	27893.84
557.776	28068.53
558.139	28167.06
558.502	28224
558.865	28301.74
559.228	28567.05
559.59	28616.08
559.953	28620.83
560.316	28957.32
560.679	28989.86
561.041	29148.73
561.404	29301.49
561.767	29466.23
562.129	29444.99
562.492	29846.33
562.854	29831.64
563.217	29898.54
563.579	29886.11
563.941	30135.14
564.304	30311.86
564.666	30443.83
565.028	30503.49
565.39	30716.14
565.753	30821.22
566.115	30942.8
566.477	31134.44
566.839	31051.5
567.201	31290.59
567.563	31480.64
567.925	31491.26
568.287	31646.51
568.648	31626.85
569.01	31756.57
569.372	32104.35
569.734	31912.49
570.095	32107.07
570.457	32240.85
570.819	32145.48
571.18	32281.98
571.542	32659.59
571.903	32586.6
572.265	32708.18
572.626	32709.76
572.987	32964.22
573.349	32855.97
573.71	33260.71
574.071	33206.47
574.432	33362.17
574.794	33643.3
575.155	33491.89
575.516	33486.69
575.877	33522.4
576.238	33706.57
576.599	33854.36
576.96	33742.95
577.32	33961.25
577.681	33965.32
578.042	34060.01
578.403	34081.02
578.763	34052.32
579.124	34141.14
579.485	34287.8
579.845	34352.2
580.206	34331.87
580.566	34267.69
580.927	34457.29
581.287	34454.8
581.648	34400.56
582.008	34712.42
582.368	34413.22
582.728	34589.26
583.089	34679.65
583.449	34573.89
583.809	34663.83
584.169	34727.79
584.529	34537.28
584.889	34924.39
585.249	34676.04
585.609	34634
585.969	34891.17
586.329	34763.49
586.688	34790.38
587.048	34730.27
587.408	34787.67
587.768	34829.71
588.127	34764.4
588.487	34728.92
588.846	34922.36
589.206	34704.74
589.565	34773.44
589.925	35043.94
590.284	34852.98
590.643	34917.39
591.003	34987.44
591.362	35112.64
591.721	34954.67
592.08	35043.49
592.44	35069.93
592.799	35159.64
593.158	34986.54
593.517	35059.98
593.876	35069.7
594.235	35086.42
594.593	35142.24
594.952	35052.3
595.311	35003.26
595.67	35159.87
596.029	35319.64
596.387	35282.35
596.746	35286.42
597.104	35149.47
597.463	35072.86
597.822	35443.25
598.18	35260.65
598.538	35279.41
598.897	35363.7
599.255	35237.83
599.613	35599.4
599.972	35488.9
600.33	35692.06
600.688	35407.77
601.046	35633.53
601.404	35768.21
601.762	35671.49
602.12	35865.84
602.478	35858.15
602.836	35900.86
603.194	35813.86
603.552	35790.81
603.91	35604.83
604.268	35997.13
604.625	35718.95
604.983	35935.67
605.341	35780.64
605.698	35911.03
606.056	36056.57
606.413	35896.12
606.771	36089.56
607.128	36088.43
607.485	36040.75
607.843	36023.57
608.2	36175.88
608.557	36293.4
608.914	36174.08
609.272	36461.3
609.629	36544.91
609.986	36572.71
610.343	36291.14
610.7	36547.17
611.057	36524.8
611.414	36441.19
611.771	36578.59
612.127	36750.56
612.484	36555.99
612.841	36905.81
613.198	36701.97
613.554	36734.51
613.911	36977.45
614.267	36896.54
614.624	36789.2
614.98	36945.81
615.337	36949.2
615.693	36991.23
616.05	36904.23
616.406	37179.25
616.762	37083.88
617.118	36970.67
617.475	37104.45
617.831	37232.13
618.187	37063.77
618.543	37302.63
618.899	37531.33
619.255	37398.45
619.611	37317.78
619.967	37399.58
620.323	37406.59
620.678	37417.43
621.034	37309.64
621.39	37214.05
621.746	37206.59
622.101	37643.64
622.457	37412.01
622.812	37350.09
623.168	37459.69
623.523	37421.95
623.879	37450.43
624.234	37313.48
624.589	37383.08
624.945	37369.98
625.3	37428.06
625.655	37338.79
626.01	37487.04
626.365	37390.54
626.72	37368.62
627.075	37362.07
627.43	37397.77
627.785	37417.21
628.14	37421.05
628.495	37376.53
628.85	37219.93
629.205	37238
629.559	37408.62
629.914	37250.66
630.269	37325.69
630.623	37079.59
630.978	36974.06
631.332	37216.31
631.687	37215.41
632.041	37040.27
632.396	37091.57
632.75	36866.94
633.104	36876.21
633.459	36617.46
633.813	36858.8
634.167	36648.64
634.521	36607.96
634.875	36605.03
635.229	36503.11
635.583	36414.75
635.937	36442.32
636.291	36382.43
636.645	36476.22
636.999	36361.19
637.352	36378.37
637.706	36071.93
638.06	36252.72
638.413	36201.65
638.767	35949.9
639.121	36090.01
639.474	35955.1
639.828	35930.69
640.181	35894.31
640.534	35798.95
640.888	35856.8
641.241	35737.93
641.594	35637.59
641.947	35781.09
642.301	35556.69
642.654	35534.77
643.007	35611.38
643.36	35601.21
643.713	35391.72
644.066	35521.44
644.419	35261.56
644.771	35072.41
645.124	34852.08
645.477	34742.02
645.83	34483.73
646.182	34300.68
646.535	34125.32
646.888	34133
647.24	33857.08
647.593	34151.76
647.945	34137.97
648.298	33810.98
648.65	33732.33
649.002	33718.1
649.355	33772.78
649.707	33857.98
650.059	33999.67
650.411	34296.84
650.763	34354.24
651.115	34680.56
651.467	34520.56
651.819	34421.81
652.171	34406.21
652.523	34349.27
652.875	34307.01
653.227	34162.6
653.578	34354.24
653.93	34335.93
654.282	34172.1
654.633	34039.44
654.985	34146.33
655.337	34017.98
655.688	34136.62
656.039	34176.84
656.391	33902.05
656.742	33877.64
657.094	33888.26
657.445	33991.54
657.796	33941.82
658.147	33897.3
658.498	33688.27
658.849	33800.58
659.2	33758.32
659.551	33548.84
659.902	33682.39
660.253	33443.75
660.604	33576.63
660.955	33451.89
661.306	33634.48
661.656	33444.66
662.007	33573.02
662.358	33517.65
662.708	33429.06
663.059	33365.11
663.409	33158.56
663.76	33547.93
664.11	33289.86
664.461	33432
664.811	33396.97
665.161	33383.64
665.511	33286.92
665.862	33116.08
666.212	33347.94
666.562	33246.47
666.912	33195.4
667.262	33146.13
667.612	33227.04
667.962	33292.34
668.312	33051.22
668.662	33268.39
669.011	33187.04
669.361	33042.86
669.711	33001.28
670.06	32987.04
670.41	33049.87
670.76	32809.65
671.109	32996.99
671.459	32923.09
671.808	32907.5
672.157	32935.29
672.507	32722.42
672.856	32681.51
673.205	32833.15
673.554	32866.37
673.904	32600.39
674.253	32993.82
674.602	32704.11
674.951	32136.9
675.3	32182.77
675.649	32553.16
675.998	32464.8
676.346	32611.91
676.695	32649.2
677.044	32315.42
677.393	32485.59
677.741	32511.12
678.09	32404.46
678.438	32351.35
678.787	32218.93
679.135	32329.43
679.484	32129.21
679.832	32183
680.181	32152.04
680.529	32071.59
680.877	32106.84
681.225	31981.42
681.573	32162.66
681.922	31872.04
682.27	31798.6
682.618	31910.91
682.966	31703.01
683.314	31855.55
683.661	31636.57
684.009	31426.86
684.357	31412.85
684.705	31472.96
685.053	31478.83
685.4	31252.4
685.748	31187.54
686.095	31215.56
686.443	31039.07
686.79	30802.92
687.138	30991.61
687.485	30956.81
687.832	30810.83
688.18	30747.55
688.527	30507.11
688.874	30564.51
689.221	30500.33
689.568	30425.3
689.915	30399.99
690.262	30309.37
690.609	30322.03
690.956	30052.66
691.303	30135.37
691.65	29995.26
691.997	29975.14
692.344	29833
692.69	29792.78
693.037	29753
693.383	29717.98
693.73	29730.63
694.077	29487.7
694.423	29499.9
694.769	29335.16
695.116	29340.81
695.462	29258.78
695.808	29130.65
696.155	29332.22
696.501	28982.85
696.847	29086.35
697.193	28729.3
697.539	28937.21
697.885	28607.5
698.231	28706.48
698.577	28604.33
698.923	28525.01
699.269	28471.68
699.614	28177.23
699.96	28254.74
700.306	28217.22
700.651	28165.93
700.997	28069.21
701.342	28011.81
701.688	27960.06
702.033	27880.74
702.379	27742.66
702.724	27748.08
703.069	27750.12
703.415	27450.92
703.76	27481.42
704.105	27498.37
704.45	27490.01
704.795	27202.11
705.14	27200.75
705.485	27153.07
705.83	27189.68
706.175	27087.54
706.52	27021.1
706.865	26963.25
707.209	26954.88
707.554	26825.62
707.899	26850.03
708.243	26654.78
708.588	26658.62
708.932	26486.42
709.277	26483.26
709.621	26511.05
709.966	26410.49
710.31	26522.81
710.654	26128.69
710.998	26280.33
711.342	26181.12
711.687	26094.34
712.031	25984.74
712.375	25970.96
712.719	25990.16
713.063	25913.33
713.407	25976.15
713.75	25720.34
714.094	25723.28
714.438	25749.49
714.782	25663.39
715.125	25571.64
715.469	25606.45
715.812	25410.52
716.156	25326.68
716.499	25292.33
716.843	25396.28
717.186	25124.2
717.53	25261.82
717.873	25332.55
718.216	25278.54
718.559	25152.9
718.902	24916.07
719.246	25100.47
719.589	24987.03
719.932	24870.87
720.275	24755.85
720.617	24883.53
720.96	24749.07
721.303	24784.55
721.646	24834.49
721.989	24565.12
722.331	24732.12
722.674	24653.7
723.016	24645.11
723.359	24550.2
723.701	24566.25
724.044	24401.28
724.386	24297.1
724.729	24404.9
725.071	24366.7
725.413	24311.79
725.755	24133.04
726.097	24160.38
726.439	24044.9
726.782	24014.85
727.124	24116.99
727.465	23944.79
727.807	23992.48
728.149	23899.15
728.491	23775.08
728.833	24008.75
729.175	23871.35
729.516	23886.04
729.858	23707.06
730.199	23773.95
730.541	23652.37
730.882	23712.26
731.224	23689.66
731.565	23547.74
731.906	23656.89
732.248	23505.48
732.589	23500.29
732.93	23271.59
733.271	23423
733.612	23464.58
733.953	23361.98
734.294	23202.89
734.635	23203.57
734.976	23293.74
735.317	23195.66
735.658	23139.84
735.999	23199.73
736.339	23172.39
736.68	23098.04
737.021	23002.22
737.361	22915.89
737.702	23084.48
738.042	22848.33
738.383	22866.18
738.723	22885.16
739.063	22863.01
739.404	22920.41
739.744	22804.71
740.084	22652.62
740.424	22707.54
740.764	22675.9
741.104	22790.93
741.444	22633.19
741.784	22508.9
742.124	22619.41
742.464	22534.66
742.804	22459.64
743.143	22300.09
743.483	22369.69
743.823	22199.53
744.162	22346.42
744.502	22360.65
744.841	22223.48
745.181	22214.67
745.52	22163.82
745.86	22194.78
746.199	22075.01
746.538	22180.55
746.877	22099.42
747.216	22054.22
747.556	22000.21
747.895	21934
748.234	21939.88
748.573	21940.78
748.911	21873.66
749.25	21757.51
749.589	21742.59
749.928	21631.63
750.267	21712.54
750.605	21529.72
750.944	21633.44
751.283	21512.99
751.621	21566.33
751.96	21394.8
752.298	21419.66
752.636	21255.83
752.975	21202.95
753.313	21103.96
753.651	21342.83
753.989	21032.78
754.327	21023.74
754.666	21032.33
755.004	21008.83
755.342	21070.29
755.679	20968.6
756.017	20995.95
756.355	20852.67
756.693	20721.15
757.031	20840.92
757.368	20653.81
757.706	20601.83
758.044	20468.73
758.381	20524.32
758.719	20342.85
759.056	20411.33
759.394	20391.44
759.731	20200.03
760.068	20117.55
760.405	20181.5
760.743	20111
761.08	20106.03
761.417	19926.14
761.754	19900.83
762.091	19900.15
762.428	19859.93
762.765	19741.06
763.102	19813.83
763.438	19762.08
763.775	19567.73
764.112	19624.23
764.449	19613.16
764.785	19404.35
765.122	19315.31
765.458	19262.21
765.795	19253.62
766.131	19218.59
766.467	19083.45
766.804	18963.68
767.14	18975.43
767.476	18973.63
767.812	18783.57
768.148	18844.36
768.485	18692.28
768.821	18680.3
769.157	18631.49
769.492	18560.3
769.828	18581.55
770.164	18343.36
770.5	18237.37
770.836	18193.31
771.171	18116.02
771.507	18165.74
771.842	17964.16
772.178	17989.47
772.513	18046.87
772.849	17911.73
773.184	17866.08
773.519	17754.22
773.855	17682.59
774.19	17532.99
774.525	17494.34
774.86	17573.44
775.195	17466.09
775.53	17376.38
775.865	17301.58
776.2	17252.31
776.535	17107.91
776.87	17128.25
777.205	17076.95
777.539	16913.79
777.874	17008.25
778.209	16846.68
778.543	16705.66
778.878	16714.93
779.212	16679
779.547	16600.35
779.881	16638.77
780.215	16506.35
780.55	16600.35
780.884	16393.58
781.218	16443.52
781.552	16332.34
781.886	16278.56
782.22	16190.2
782.554	16174.6
782.888	15988.85
783.222	15954.27
783.556	15804.44
783.889	15845.57
784.223	15659.59
784.557	15652.13
784.89	15734.16
785.224	15654.16
785.557	15536.65
785.891	15486.49
786.224	15515.19
786.558	15440.61
786.891	15297.34
787.224	15346.38
787.557	15262.54
787.891	15197
788.224	15142.99
788.557	15081.75
788.89	15055.99
789.223	15047.63
789.556	14938.7
789.888	14906.39
790.221	14825.94
790.554	14748.2
790.887	14751.82
791.219	14619.84
791.552	14640.18
791.884	14586.85
792.217	14481.77
792.549	14355.44
792.882	14329.45
793.214	14297.14
793.546	14282
793.879	14211.04
794.211	14125.17
794.543	14178.05
794.875	14100.08
795.207	14174.2
795.539	14024.15
795.871	14018.73
796.203	13950.93
796.535	13885.85
796.867	13828.68
797.198	13812.63
797.53	13777.15
797.862	13768.56
798.193	13689.24
798.525	13665.74
798.856	13654.9
799.188	13432.53
799.519	13428.69
799.85	13368.35
800.182	13452.19
800.513	13369.48
800.844	13318.41
801.175	13330.38
801.506	13213.55
801.837	13216.49
802.168	13186.43
802.499	13083.38
802.83	13001.13
803.161	13064.18
803.491	13018.53
803.822	13000
804.153	12942.37
804.483	12828.7
804.814	12819.89
805.145	12760.46
805.475	12808.36
805.805	12758.42
806.136	12658.54
806.466	12713
806.796	12717.29
807.126	12548.03
807.457	12590.29
807.787	12511.42
808.117	12488.6
808.447	12458.32
808.777	12446.34
809.107	12381.93
809.436	12333.12
809.766	12351.43
810.096	12275.27
810.426	12260.36
810.755	12309.17
811.085	12204.31
811.414	12116.63
811.744	12089.74
812.073	12103.07
812.403	12092.68
812.732	12020.59
813.061	11874.6
813.39	11955.28
813.719	11819.46
814.049	11960.93
814.378	11875.28
814.707	11880.7
815.036	11818.79
815.365	11774.49
815.693	11604.33
816.022	11646.36
816.351	11597.1
816.68	11630.09
817.008	11685.68
817.337	11547.83
817.665	11494.5
817.994	11507.83
818.322	11503.99
818.651	11449.3
818.979	11463.09
819.307	11407.72
819.636	11359.81
819.964	11258.57
820.292	11308.06
820.62	11362.53
820.948	11238.24
821.276	11304.22
821.604	11289.31
821.932	11300.38
822.259	11288.18
822.587	11296.54
822.915	11286.82
823.243	11313.49
823.57	11280.95
823.898	11325.92
824.225	11293.83
824.553	11294.73
824.88	11224.68
825.207	11310.78
825.535	11291.57
825.862	11237.78
826.189	11212.47
826.516	11301.51
826.843	11313.26
827.17	11280.49
827.497	11278.23
827.824	11233.72
828.151	11261.29
828.478	11231.68
828.805	11280.72
829.131	11229.42
829.458	11206.82
829.785	11170.89
830.111	11186.71
830.438	11216.09
830.764	11162.98
831.09	11230.78
831.417	11167.05
831.743	11169.31
832.069	11194.85
832.395	11073.95
832.722	11201.17
833.048	11138.35
833.374	11168.86
833.7	11031.24
834.026	11135.64
834.351	11070.78
834.677	11100.61
835.003	11041.18
835.329	11139.93
835.654	11009.09
835.98	11029.88
836.306	11068.97
836.631	10962.99
836.956	10961.63
837.282	11021.52
837.607	10916.66
837.932	10950.11
838.258	10954.18
838.583	10923.44
838.908	10837.34
839.233	10851.58
839.558	10790.79
839.883	10780.62
840.208	10764.58
840.533	10743.33
840.858	10735.2
841.182	10791.24
841.507	10767.74
841.832	10679.38
842.156	10578.82
842.481	10760.96
842.805	10622.43
843.13	10637.12
843.454	10597.35
843.778	10497.01
844.103	10611.81
844.427	10491.14
844.751	10511.25
845.075	10440.29
845.399	10430.57
845.723	10382.21
846.047	10384.7
846.371	10295.44
846.695	10335.43
847.019	10241.43
847.343	10144.25
847.666	10153.97
847.99	10109
848.313	10071.26
848.637	10033.3
848.96	10010.92
849.284	9983.13
849.607	9922.11
849.931	9790.59
850.254	9847.09
850.577	9762.12
850.9	9651.61
851.223	9730.48
851.546	9654.55
851.869	9591.5
852.192	9615
852.515	9517.6
852.838	9512.86
853.161	9535.68
853.483	9483.25
853.806	9403.48
854.129	9408.23
854.451	9400.77
854.774	9372.75
855.096	9281.22
855.419	9256.14
855.741	9209.81
856.063	9196.26
856.385	9190.38
856.708	9177.27
857.03	9102.02
857.352	9115.35
857.674	9045.3
857.996	9067.22
858.318	8952.65
858.64	9010.95
858.961	8916.04
859.283	8943.38
859.605	8925.08
859.926	8943.61
860.248	8917.17
860.57	8907.45
860.891	8900.22
861.212	8825.19
861.534	8800.56
861.855	8778.19
862.176	8805.31
862.498	8775.02
862.819	8795.14
863.14	8710.84
863.461	8676.72
863.782	8676.95
864.103	8744.52
864.424	8696.83
864.745	8704.06
865.065	8610.96
865.386	8629.49
865.707	8575.71
866.027	8561.47
866.348	8646.44
866.668	8587.01
866.989	8546.78
867.309	8504.75
867.63	8545.88
867.95	8518.31
868.27	8387.01
868.59	8464.3
868.91	8410.29
869.23	8457.74
869.55	8344.53
869.87	8402.83
870.19	8443.73
870.51	8368.48
870.83	8387.01
871.15	8346.33
871.469	8236.51
871.789	8409.84
872.109	8305.66
872.428	8238.54
872.748	8328.93
873.067	8309.73
873.386	8271.76
873.706	8249.84
874.025	8217.52
874.344	8187.69
874.663	8227.69
874.982	8188.82
875.301	8249.16
875.62	8172.33
875.939	8131.88
876.258	8170.07
876.577	8065.44
876.896	8060.69
877.214	8084.42
877.533	8046.46
877.852	8100.69
878.17	8057.08
878.489	8020.24
878.807	8062.05
879.125	7988.15
879.444	8005.1
879.762	8006.23
880.08	7964.65
880.398	7958.55
880.716	7956.51
881.034	7943.41
881.352	7956.06
881.67	7897.31
881.988	7901.6
882.306	7868.38
882.624	7871.77
882.941	7828.16
883.259	7829.51
883.577	7802.62
883.894	7809.85
884.212	7823.86
884.529	7762.62
884.846	7740.25
885.164	7773.69
885.481	7682.17
885.798	7709.51
886.115	7605.56
886.432	7659.35
886.75	7632.23
887.067	7615.73
887.383	7582.74
887.7	7636.97
888.017	7671.78
888.334	7571.67
888.651	7554.72
888.967	7535.51
889.284	7476.98
889.6	7516.98
889.917	7423.87
890.233	7387.94
890.55	7409.18
890.866	7403.99
891.182	7373.7
891.498	7328.06
891.815	7312.92
892.131	7321.95
892.447	7277.21
892.763	7221.62
893.079	7270.43
893.395	7214.16
893.71	7212.13
894.026	7155.41
894.342	7141.85
894.657	7103.43
894.973	7176.87
895.289	7096.65
895.604	7119.93
895.92	7064.56
896.235	7094.39
896.55	7044.22
896.865	6990.21
897.181	6982.53
897.496	6971.46
897.811	6923.77
898.126	6865.24
898.441	6860.72
898.756	6825.47
899.071	6837.22
899.386	6808.75
899.7	6752.03
900.015	6777.79
900.33	6702.54
900.644	6693.27
900.959	6685.81
901.273	6654.4
901.588	6644.68
901.902	6646.04
902.216	6599.71
902.531	6546.16
902.845	6554.74
903.159	6527.85
903.473	6531.24
903.787	6477
904.101	6425.48
904.415	6435.65
904.729	6335.31
905.042	6355.88
905.356	6382.32
905.67	6329.21
905.984	6397.23
906.297	6340.74
906.611	6213.96
906.924	6268.65
907.237	6204.7
907.551	6272.94
907.864	6175.09
908.177	6213.96
908.491	6200.4
908.804	6168.09
909.117	6142.32
909.43	6046.51
909.743	6032.5
910.056	6013.06
910.368	6019.39
910.681	6006.28
910.994	6021.42
911.307	5957.24
911.619	5892.61
911.932	5937.13
912.244	5829.56
912.557	5898.04
912.869	5827.53
913.181	5824.14
913.494	5796.57
913.806	5770.58
914.118	5698.04
914.43	5747.98
914.742	5726.97
915.054	5643.58
915.366	5632.28
915.678	5615.56
915.99	5576.69
916.302	5586.18
916.613	5600.87
916.925	5546.63
917.236	5491.04
917.548	5456.24
917.859	5535.56
918.171	5480.42
918.482	5434.32
918.794	5406.75
919.105	5354.77
919.416	5330.59
919.727	5332.63
920.038	5313.87
920.349	5273.42
920.66	5256.92
920.971	5249.24
921.282	5209.24
921.593	5206.98
921.903	5159.07
922.214	5117.72
922.525	5116.59
922.835	5119.07
923.146	5082.47
923.456	5054.67
923.767	5045.18
924.077	5041.56
924.387	4948.23
924.697	4979.64
925.008	4938.97
925.318	4941.68
925.628	4942.81
925.938	4900.78
926.248	4845.41
926.558	4817.61
926.867	4793.89
927.177	4841.79
927.487	4785.75
927.796	4767.9
928.106	4763.38
928.416	4745.52
928.725	4706.2
929.034	4729.25
929.344	4718.63
929.653	4703.04
929.962	4683.38
930.271	4636.83
930.581	4605.42
930.89	4530.84
931.199	4585.53
931.508	4515.25
931.817	4498.07
932.125	4515.93
932.434	4485.19
932.743	4462.59
933.051	4421.69
933.36	4393.67
933.669	4407.45
933.977	4379.66
934.286	4328.81
934.594	4340.11
934.902	4337.4
935.21	4291.07
935.519	4318.87
935.827	4218.99
936.135	4308.47
936.443	4208.36
936.751	4203.62
937.059	4222.83
937.367	4176.27
937.674	4183.28
937.982	4163.85
938.29	4153.45
938.597	4098.76
938.905	4084.53
939.213	4090.63
939.52	4084.3
939.827	4046.33
940.135	4031.87
940.442	4025.32
940.749	3993.23
941.056	4013.79
941.363	3955.26
941.67	3938.77
941.977	3932.89
942.284	3887.92
942.591	3864.87
942.898	3860.58
943.205	3875.49
943.511	3882.04
943.818	3861.93
944.125	3808.37
944.431	3816.51
944.738	3768.38
945.044	3765.66
945.35	3741.03
945.657	3756.62
945.963	3739.22
946.269	3680.92
946.575	3659.45
946.881	3662.39
947.187	3646.8
947.493	3637.31
947.799	3651.54
948.105	3619.45
948.41	3563.18
948.716	3556.63
949.022	3555.27
949.327	3543.75
949.633	3511.89
949.938	3547.36
950.244	3502.39
950.549	3511.43
950.854	3488.61
951.16	3472.11
951.465	3438.21
951.77	3444.32
952.075	3431.89
952.38	3407.93
952.685	3369.74
952.99	3347.37
953.294	3371.78
953.599	3302.17
953.904	3356.18
954.209	3297.65
954.513	3311.21
954.818	3290.2
955.122	3303.53
955.426	3265.56
955.731	3234.83
956.035	3191.89
956.339	3195.06
956.643	3191.67
956.948	3225.11
957.252	3192.8
957.556	3153.48
957.86	3132.69
958.163	3146.7
958.467	3125.45
958.771	3126.36
959.075	3105.57
959.378	3087.04
959.682	3072.12
959.985	3062.63
960.289	3068.28
960.592	3038.45
960.896	3012.92
961.199	3015.17
961.502	2989.41
961.805	2998.9
962.108	2952.35
962.411	2980.6
962.714	2942.41
963.017	2939.24
963.32	2944.89
963.623	2893.82
963.926	2904.44
964.228	2932.69
964.531	2855.86
964.833	2873.71
965.136	2859.7
965.438	2833.03
965.741	2819.02
966.043	2834.39
966.345	2769.76
966.648	2784.22
966.95	2790.77
967.252	2722.08
967.554	2744
967.856	2739.7
968.158	2717.1
968.46	2714.62
968.761	2688.4
969.063	2699.03
969.365	2693.38
969.666	2671.68
969.968	2646.37
970.269	2636.65
970.571	2657.67
970.872	2658.12
971.174	2599.37
971.475	2620.61
971.776	2572.47
972.077	2614.96
972.378	2572.25
972.679	2593.49
972.98	2575.41
973.281	2551.46
973.582	2545.81
973.883	2522.76
974.183	2508.97
974.484	2525.7
974.785	2495.41
975.085	2522.98
975.386	2511.46
975.686	2469.2
975.986	2445.25
976.287	2482.31
976.587	2451.35
976.887	2436.89
977.187	2400.95
977.487	2388.3
977.787	2388.52
978.087	2395.53
978.387	2357.34
978.687	2333.38
978.987	2352.59
979.286	2351.01
979.586	2324.35
979.885	2344.46
980.185	2284.57
980.484	2277.34
980.784	2280.28
981.083	2254.29
981.382	2282.76
981.682	2261.3
981.981	2257.91
982.28	2267.17
982.579	2211.58
982.878	2214.07
983.177	2212.71
983.475	2187.85
983.774	2189.89
984.073	2173.39
984.372	2183.56
984.67	2196.21
984.969	2146.72
985.267	2131.58
985.566	2159.6
985.864	2138.36
986.162	2104.01
986.461	2113.05
986.759	2121.19
987.057	2107.63
987.355	2112.6
987.653	2068.31
987.951	2062.88
988.249	2028.53
988.547	2069.21
988.844	2050.91
989.142	2025.37
989.44	2015.88
989.737	1995.77
990.035	2003
990.332	2014.75
990.63	2003.22
990.927	1978.14
991.224	1996.44
991.521	1963.9
991.819	1949.89
992.116	1972.49
992.413	1932.94
992.71	1935.43
993.006	1931.81
993.303	1903.79
993.6	1903.34
993.897	1914.64
994.193	1906.05
994.49	1864.92
994.787	1870.8
995.083	1859.05
995.379	1864.24
995.676	1868.09
995.972	1832.83
996.268	1807.07
996.565	1828.09
996.861	1803.68
997.157	1791.03
997.453	1789.44
997.749	1802.33
998.044	1785.38
998.34	1748.54
998.636	1748.77
998.932	1727.75
999.227	1754.19
999.523	1774.98
999.818	1711.48
1000.114	1744.25
1000.409	1719.84
1000.704	1702.67
1001	1685.04
1001.295	1672.39
1001.59	1660.18
1001.885	1667.64
1002.18	1666.06
1002.475	1675.1
1002.77	1645.95
1003.065	1614.76
1003.359	1619.73
1003.654	1641.43
1003.949	1612.95
1004.243	1610.92
1004.538	1565.04
1004.832	1599.84
1005.127	1566.85
1005.421	1546.51
1005.715	1536.12
1006.009	1563.46
1006.304	1527.76
1006.598	1531.37
1006.892	1521.88
1007.186	1501.77
1007.48	1491.6
1007.773	1499.73
1008.067	1490.7
1008.361	1490.47
1008.655	1484.82
1008.948	1485.27
1009.242	1464.48
1009.535	1462.45
1009.829	1449.79
1010.122	1449.11
1010.415	1458.61
1010.708	1422.67
1011.001	1416.57
1011.295	1396.69
1011.588	1434.43
1011.881	1400.75
1012.173	1412.05
1012.466	1385.16
1012.759	1392.84
1013.052	1372.96
1013.344	1378.61
1013.637	1349.91
1013.93	1341.55
1014.222	1317.59
1014.514	1332.28
1014.807	1307.42
1015.099	1305.39
1015.391	1314.88
1015.683	1298.38
1015.976	1281.21
1016.268	1275.79
1016.56	1229.46
1016.851	1270.81
1017.143	1251.15
1017.435	1262.45
1017.727	1262.9
1018.018	1239.85
1018.31	1233.07
1018.602	1252.96
1018.893	1236.24
1019.185	1253.64
1019.476	1203.47
1019.767	1196.24
1020.058	1207.76
1020.35	1174.55
1020.641	1184.26
1020.932	1164.38
1021.223	1171.83
1021.514	1165.73
1021.804	1132.51
1022.095	1144.04
1022.386	1141.1
1022.677	1120.76
1022.967	1105.39
1023.258	1136.81
1023.548	1117.6
1023.839	1098.84
1024.129	1113.08
1024.419	1080.31
1024.709	1079.86
1025	1064.04
1025.29	1069.01
1025.58	1050.25
1025.87	1065.17
1026.16	1072.85
1026.449	1041.22
1026.739	1054.55
1027.029	1038.05
1027.319	1029.69
1027.608	1021.56
1027.898	1029.24
1028.187	1006.41
1028.477	999.63
1028.766	983.82
1029.055	978.17
1029.344	987.43
1029.634	960.77
1029.923	973.65
1030.212	976.58
1030.501	971.16
1030.79	990.14
1031.078	946.98
1031.367	940.88
1031.656	965.51
1031.945	919.64
1032.233	913.31
1032.522	915.12
1032.81	903.59
1033.099	909.69
1033.387	923.93
1033.675	890.71
1033.963	895.46
1034.251	913.76
1034.54	916.47
1034.828	882.12
1035.116	864.95
1035.403	872.63
1035.691	886.42
1035.979	847.55
1036.267	863.37
1036.554	858.4
1036.842	821.79
1037.129	826.53
1037.417	830.15
1037.704	853.42
1037.992	847.77
1038.279	820.2
1038.566	843.48
1038.853	843.48
1039.14	843.48
