Data from foam2_polystyrene_foam_FLMS001491_00047.txt Node
Date: Wed Feb 08 10:58:01 GMT 2017
User: dcchb
Spectrometer: FLMS00149
Trigger mode: 0
Integration Time (sec): 2.000000E-2
Scans to average: 10
Electric dark correction enabled: true
Nonlinearity correction enabled: false
Boxcar width: 0
XAxis mode: Wavelengths
Number of Pixels in Spectrum: 2048
>>>>>Begin Spectral Data<<<<<
341.393	-13.35
341.776	-13.35
342.16	-13.35
342.543	-59.67
342.927	-73.46
343.31	-59.67
343.693	-78.66
344.077	-64.65
344.46	-51.54
344.843	-40.47
345.226	-55.83
345.61	-28.26
345.993	-14.48
346.376	-8.38
346.759	19.19
347.142	29.36
347.525	48.12
347.908	31.62
348.291	70.27
348.674	91.51
349.057	111.85
349.44	110.04
349.823	114.11
350.206	152.3
350.588	218.51
350.971	211.05
351.354	216.03
351.737	254.89
352.119	279.98
352.502	262.58
352.884	296.7
353.267	292.41
353.65	304.16
354.032	301.45
354.414	325.4
354.797	331.05
355.179	361.33
355.562	339.64
355.944	339.19
356.326	342.58
356.709	371.5
357.091	353.2
357.473	359.75
357.855	363.14
358.238	360.43
358.62	378.73
359.002	364.04
359.384	362.91
359.766	373.99
360.148	370.6
360.53	372.41
360.912	364.95
361.294	371.5
361.676	345.74
362.057	362.69
362.439	366.08
362.821	331.95
363.203	349.81
363.584	337.6
363.966	349.36
364.348	358.17
364.729	334.89
365.111	356.13
365.493	349.13
365.874	350.03
366.256	350.71
366.637	356.36
367.019	355.46
367.4	351.39
367.781	356.59
368.163	367.43
368.544	346.19
368.925	356.81
369.306	379.41
369.688	367.66
370.069	365.85
370.45	356.36
370.831	359.07
371.212	368.79
371.593	371.05
371.974	399.3
372.355	393.2
372.736	376.02
373.117	368.11
373.498	381.67
373.879	388
374.26	373.31
374.641	378.06
375.021	360.88
375.402	355
375.783	399.07
376.163	417.6
376.544	403.14
376.925	394.1
377.305	403.59
377.686	390.48
378.066	410.37
378.447	413.76
378.827	407.43
379.208	410.6
379.588	425.74
379.968	413.99
380.349	431.39
380.729	414.66
381.109	425.06
381.489	423.25
381.87	405.4
382.25	443.36
382.63	445.62
383.01	455.79
383.39	460.31
383.77	448.79
384.15	445.17
384.53	440.65
384.91	452.4
385.29	460.76
385.67	451.73
386.049	479.75
386.429	492.85
386.809	475.45
387.189	475.91
387.568	489.01
387.948	491.72
388.328	477.71
388.707	495.11
389.087	520.65
389.466	500.76
389.846	493.76
390.225	524.27
390.605	515.23
390.984	506.64
391.363	540.08
391.743	542.34
392.122	537.6
392.501	543.7
392.881	549.58
393.26	560.65
393.639	570.82
394.018	565.85
394.397	583.02
394.776	578.28
395.155	576.69
395.534	577.6
395.913	587.09
396.292	593.64
396.671	600.87
397.05	619.63
397.429	608.11
397.808	631.61
398.186	612.63
398.565	607.2
398.944	624.38
399.323	639.07
399.701	628.9
400.08	651.49
400.458	636.35
400.837	644.71
401.215	672.74
401.594	679.97
401.972	663.7
402.351	669.57
402.729	688.33
403.107	681.1
403.486	685.84
403.864	701.66
404.242	705.96
404.62	705.05
404.999	733.07
405.377	710.25
405.755	722.9
406.133	726.07
406.511	738.05
406.889	749.12
407.267	760.87
407.645	791.38
408.023	792.06
408.401	826.4
408.779	821.89
409.156	837.25
409.534	845.39
409.912	856.46
410.29	838.61
410.667	875.22
411.045	885.39
411.422	878.61
411.8	874.77
412.178	884.93
412.555	891.94
412.933	912.5
413.31	929.68
413.687	950.92
414.065	945.95
414.442	960.86
414.819	952.73
415.197	997.7
415.574	994.54
415.951	1004.48
416.328	1023.91
416.705	1009.45
417.082	1054.87
417.46	1053.29
417.837	1062.33
418.214	1045.83
418.591	1076.79
418.967	1090.35
419.344	1087.19
419.721	1081.09
420.098	1092.16
420.475	1115.66
420.852	1137.13
421.228	1158.83
421.605	1143.68
421.982	1164.25
422.358	1162.67
422.735	1207.86
423.111	1213.29
423.488	1223
423.864	1227.07
424.241	1250.12
424.617	1269.78
424.994	1272.95
425.37	1286.73
425.746	1292.38
426.123	1291.48
426.499	1331.7
426.875	1332.61
427.251	1312.72
427.627	1373.96
428.003	1374.86
428.379	1401.3
428.756	1414.41
429.132	1464.13
429.507	1445.82
429.883	1455.99
430.259	1498.03
430.635	1486.5
431.011	1500.29
431.387	1540.74
431.763	1574.63
432.138	1576.44
432.514	1633.39
432.89	1618.47
433.265	1680.39
433.641	1674.74
434.016	1679.26
434.392	1740.28
434.767	1740.05
435.143	1735.76
435.518	1778.24
435.894	1778.92
436.269	1822.31
436.644	1823.89
437.02	1902.31
437.395	1859.37
437.77	1875.64
438.145	1935.53
438.52	1951.35
438.895	1965.81
439.271	1985.7
439.646	2016.2
440.021	2028.18
440.395	2020.27
440.77	2058.46
441.145	2067.05
441.52	2121.74
441.895	2130.55
442.27	2143.21
442.645	2127.39
443.019	2165.8
443.394	2208.52
443.769	2214.84
444.143	2181.4
444.518	2254.39
444.892	2253.71
445.267	2255.97
445.641	2262.75
446.016	2304.56
446.39	2327.61
446.764	2310.43
447.139	2333.48
447.513	2361.73
447.887	2360.6
448.262	2447.61
448.636	2411.22
449.01	2448.28
449.384	2486.93
449.758	2493.03
450.132	2555.4
450.506	2536.42
450.88	2545.46
451.254	2552.91
451.628	2586.13
452.002	2653.93
452.376	2629.07
452.75	2719.46
453.123	2698.45
453.497	2784.77
453.871	2759.24
454.244	2837.88
454.618	2834.71
454.992	2869.06
455.365	2879.23
455.739	2971.66
456.112	2986.8
456.486	3048.04
456.859	3034.03
457.232	3121.49
457.606	3069.96
457.979	3112.9
458.352	3203.29
458.725	3238.32
459.099	3262.95
459.472	3331.88
459.845	3353.34
460.218	3433.34
460.591	3436.28
460.964	3412.55
461.337	3512.21
461.71	3550.63
462.083	3605.09
462.456	3604.86
462.829	3628.82
463.201	3663.84
463.574	3720.57
463.947	3740.68
464.32	3852.54
464.692	3881.47
465.065	3917.4
465.438	3970.73
465.81	4026.55
466.183	4038.3
466.555	4158.29
466.928	4161.68
467.3	4191.29
467.672	4275.13
468.045	4349.25
468.417	4320.1
468.789	4370.27
469.161	4464.73
469.534	4537.27
469.906	4645.97
470.278	4695.68
470.65	4723.25
471.022	4805.96
471.394	4918.05
471.766	4898.61
472.138	5038.05
472.51	5112.62
472.882	5202.33
473.253	5239.85
473.625	5322.78
473.997	5367.3
474.369	5455.21
474.74	5544.92
475.112	5679.16
475.484	5746.73
475.855	5784.69
476.227	5927.29
476.598	6043.89
476.97	6059.49
477.341	6192.37
477.713	6286.83
478.084	6323.21
478.455	6538.8
478.827	6567.04
479.198	6809.52
479.569	6816.76
479.94	6947.83
480.311	7047.48
480.682	7135.62
481.053	7360.02
481.424	7463.74
481.795	7577.41
482.166	7693.57
482.537	7756.17
482.908	7975.82
483.279	8018.98
483.65	8175.82
484.021	8344.17
484.391	8411.74
484.762	8457.62
485.133	8584.39
485.503	8746.42
485.874	8923.14
486.244	9051.5
486.615	9219.63
486.985	9308.89
487.356	9421.89
487.726	9544.82
488.097	9800.41
488.467	9714.98
488.837	9928.31
489.207	10099.38
489.578	10262.09
489.948	10293.05
490.318	10420.28
490.688	10510.67
491.058	10707.5
491.428	10867.27
491.798	10930.32
492.168	11187.71
492.538	11156.53
492.908	11315.85
493.278	11503.41
493.648	11510.64
494.017	11776.17
494.387	11846.45
494.757	11906.34
495.126	12089.61
495.496	12095.49
495.866	12161.93
496.235	12307.91
496.605	12426.33
496.974	12536.15
497.344	12718.75
497.713	12744.06
498.082	12857.73
498.452	13000.55
498.821	13004.62
499.19	13124.84
499.559	13368
499.928	13456.81
500.298	13475.34
500.667	13617.48
501.036	13552.85
501.405	13756.01
501.774	13678.72
502.143	13875.78
502.512	14020.63
502.88	14124.36
503.249	14153.74
503.618	14224.92
503.987	14323.23
504.356	14482.99
504.724	14497.91
505.093	14645.7
505.462	14624.46
505.83	14895.19
506.199	14946.03
506.567	15186.93
506.936	15168.4
507.304	15433.48
507.672	15350.77
508.041	15546.7
508.409	15700.36
508.777	15708.27
509.145	15939.45
509.514	16004.31
509.882	16051.54
510.25	16181.71
510.618	16266.68
510.986	16408.82
511.354	16536.73
511.722	16665.99
512.09	16929.94
512.458	16924.74
512.826	17125.64
513.193	17149.82
513.561	17225.52
513.929	17418.51
514.297	17594.55
514.664	17713.87
515.032	17678.62
515.4	17965.62
515.767	18033.86
516.135	18134.88
516.502	18146.4
516.869	18380.29
517.237	18524.47
517.604	18481.31
517.972	18692.38
518.339	18858.93
518.706	18887.62
519.073	19086.94
519.44	19191.8
519.808	19357.22
520.175	19446.03
520.542	19715.17
520.909	19814.38
521.276	19862.97
521.643	20115.62
522.009	20233.8
522.376	20414.59
522.743	20588.37
523.11	20729.84
523.477	20912.66
523.843	21087.12
524.21	21401.91
524.577	21481.68
524.943	21670.38
525.31	21796.7
525.676	21964.83
526.043	22120.99
526.409	22213.87
526.776	22394.65
527.142	22478.26
527.508	22581.99
527.874	22861.08
528.241	22943.56
528.607	23054.52
528.973	23414.51
529.339	23395.98
529.705	23608.18
530.071	23768.63
530.437	23967.27
530.803	24059.69
531.169	24213.59
531.535	24259.46
531.901	24360.48
532.267	24493.58
532.632	24658.55
532.998	24808.83
533.364	24981.02
533.73	25009.27
534.095	25175.6
534.461	25371.3
534.826	25501.01
535.192	25593.89
535.557	25823.04
535.923	25674.57
536.288	25905.29
536.653	25933.32
537.019	25959.53
537.384	26170.37
537.749	26246.75
538.114	26251.05
538.479	26294.66
538.845	26508.89
539.21	26641.55
539.575	26712.05
539.94	26839.96
540.305	26973.74
540.67	26994.76
541.034	27108.65
541.399	27280.62
541.764	27239.27
542.129	27344.8
542.494	27477.68
542.858	27654.17
543.223	27722.19
543.587	27944.56
543.952	27882.87
544.316	27892.36
544.681	27948.4
545.045	28067.5
545.41	28180.49
545.774	28425.45
546.138	28346.13
546.503	28485.34
546.867	28523.3
547.231	28857.31
547.595	28850.75
547.959	28961.48
548.324	29038.54
548.688	29248.93
549.052	29180.69
549.416	29383.85
549.779	29387.91
550.143	29585.2
550.507	29675.82
550.871	29745.42
551.235	29697.06
551.599	29959.65
551.962	30101.12
552.326	30009.59
552.689	30337.27
553.053	30297.49
553.417	30312.86
553.78	30739.06
554.143	30598.96
554.507	30787.88
554.87	30806.41
555.234	31141.99
555.597	30923.01
555.96	31180.18
556.323	31447.52
556.686	31402.78
557.05	31646.39
557.413	31780.62
557.776	31811.58
558.139	32037.34
558.502	32020.16
558.865	32188.74
559.228	32410.89
559.59	32532.69
559.953	32626.7
560.316	32987.14
560.679	33049.51
561.041	33308.94
561.404	33390.52
561.767	33592.55
562.129	33405.89
562.492	33835.71
562.854	33949.15
563.217	33963.84
563.579	34087.9
563.941	34269.14
564.304	34510.04
564.666	34700.54
565.028	34759.3
565.39	34825.96
565.753	35030.93
566.115	35089.91
566.477	35161.32
566.839	35385.27
567.201	35530.35
567.563	35648.54
567.925	36008.3
568.287	36007.4
568.648	36018.47
569.01	36179.83
569.372	36452.36
569.734	36401.29
570.095	36561.28
570.457	36881.05
570.819	36778.91
571.18	36916.98
571.542	37208.73
571.903	37096.19
572.265	37325.11
572.626	37423.63
572.987	37521.26
573.349	37511.09
573.71	37660.69
574.071	37787.92
574.432	38051.19
574.794	38277.62
575.155	38181.58
575.516	38128.02
575.877	38298.64
576.238	38272.43
576.599	38515.58
576.96	38521.01
577.32	38522.81
577.681	38584.06
578.042	38877.83
578.403	38841.9
578.763	38774.11
579.124	39004.84
579.485	39025.17
579.845	39093.87
580.206	39063.14
580.566	39044.38
580.927	39123.02
581.287	39287.54
581.648	39185.85
582.008	39407.99
582.368	39278.28
582.728	39463.58
583.089	39318.95
583.449	39238.95
583.809	39326.41
584.169	39464.94
584.529	39341.78
584.889	39756.45
585.249	39515.11
585.609	39447.08
585.969	39631.03
586.329	39447.31
586.688	39683.01
587.048	39511.04
587.408	39522.11
587.768	39657.25
588.127	39597.36
588.487	39537.03
588.846	39931.14
589.206	39515.78
589.565	39562.11
589.925	39719.17
590.284	39477.82
590.643	39685.27
591.003	39639.85
591.362	39902.44
591.721	39805.04
592.08	39737.92
592.44	39862.89
592.799	39830.8
593.158	39691.37
593.517	39758.71
593.876	39833.51
594.235	39766.4
594.593	39887.98
594.952	39927.98
595.311	39781.09
595.67	39813.85
596.029	40019.05
596.387	40058.82
596.746	40012.27
597.104	39883.23
597.463	39885.04
597.822	40003.68
598.18	39844.59
598.538	39926.17
598.897	40153.05
599.255	39893.17
599.613	40510.33
599.972	40006.84
600.33	40227.63
600.688	40124.81
601.046	40280.73
601.404	40360.96
601.762	40385.59
602.12	40501.75
602.478	40447.96
602.836	40551.46
603.194	40253.39
603.552	40457.45
603.91	40404.8
604.268	40548.07
604.625	40340.85
604.983	40647.96
605.341	40495.64
605.698	40604.34
606.056	40736.09
606.413	40663.1
606.771	40755.98
607.128	40855.86
607.485	40794.39
607.843	40840.95
608.2	41061.28
608.557	41003.88
608.914	41045.46
609.272	41158.45
609.629	41336.98
609.986	41365
610.343	41159.58
610.7	41520.48
611.057	41315.51
611.414	41350.54
611.771	41394.15
612.127	41644.31
612.484	41548.95
612.841	41633.92
613.198	41508.72
613.554	41540.81
613.911	41716.63
614.267	41760.24
614.624	41603.86
614.98	41896.96
615.337	41800.47
615.693	41775.38
616.05	41814.03
616.406	41982.61
616.762	42105.09
617.118	41926.34
617.475	41898.77
617.831	41956.17
618.187	42066.22
618.543	42076.85
618.899	42310.29
619.255	42246.11
619.611	42245.65
619.967	42200.91
620.323	42465.08
620.678	42294.47
621.034	42164.98
621.39	42159.56
621.746	42215.15
622.101	42593.67
622.457	42398.87
622.812	42430.28
623.168	42340.79
623.523	42389.83
623.879	42451.3
624.234	42285.65
624.589	42441.81
624.945	42291.76
625.3	42454.01
625.655	42447.23
626.01	42506.44
626.365	42351.64
626.72	42346.44
627.075	42281.13
627.43	42263.73
627.785	42238.65
628.14	42384.86
628.495	42388.7
628.85	42271.87
629.205	42247.69
629.559	42358.65
629.914	42115.94
630.269	42198.2
630.623	42195.26
630.978	42085.21
631.332	42258.08
631.687	42275.94
632.041	41969.73
632.396	41981.03
632.75	41900.58
633.104	41936.51
633.459	41891.99
633.813	41935.38
634.167	41776.51
634.521	41931.31
634.875	41734.93
635.229	41717.31
635.583	41552.34
635.937	41489.52
636.291	41318.22
636.645	41579.01
636.999	41400.93
637.352	41504.88
637.706	41249.75
638.06	41508.95
638.413	41293.36
638.767	41276.41
639.121	41358.9
639.474	41035.74
639.828	40969.76
640.181	41050.88
640.534	41005.46
640.888	40907.84
641.241	40747.62
641.594	40839.36
641.947	40909.42
642.301	40820.38
642.654	40743.32
643.007	40827.16
643.36	40718.46
643.713	40643.21
644.066	40678.46
644.419	40466.94
644.771	40368.87
645.124	39861.76
645.477	39847.98
645.83	39513.75
646.182	39306.3
646.535	39103.82
646.888	39254.77
647.24	39092.52
647.593	39296.58
647.945	39243.25
648.298	38958.28
648.65	38946.08
649.002	38786.99
649.355	38935.91
649.707	38905.63
650.059	39007.1
650.411	39416.8
650.763	39517.82
651.115	39750.35
651.467	39663.58
651.819	39787.64
652.171	39725.04
652.523	39517.82
652.875	39495.67
653.227	39390.14
653.578	39573.41
653.93	39376.35
654.282	39230.59
654.633	39189.69
654.985	39356.47
655.337	39256.81
655.688	39031.28
656.039	39191.95
656.391	38968.45
656.742	38946.76
657.094	39000.54
657.445	39205.28
657.796	39076.25
658.147	39069.02
658.498	38886.2
658.849	39124.83
659.2	38843.48
659.551	38991.73
659.902	39040.54
660.253	38885.29
660.604	39019.75
660.955	38848
661.306	38993.08
661.656	38795.12
662.007	38905.86
662.358	38988.11
662.708	38875.12
663.059	38801
663.409	38710.38
663.76	38913.09
664.11	38755.35
664.461	38728.23
664.811	38802.13
665.161	38686.2
665.511	38537.73
665.862	38644.85
666.212	38649.59
666.562	38668.8
666.912	38614.79
667.262	38570.27
667.612	38458.18
667.962	38492.08
668.312	38460.67
668.662	38623.83
669.011	38501.12
669.361	38452.53
669.711	38485.53
670.06	38309.71
670.41	38236.49
670.76	38307.45
671.109	38505.19
671.459	38544.28
671.808	38422.25
672.157	38468.13
672.507	38252.99
672.856	38364.85
673.205	38290.5
673.554	38318.3
673.904	38327.34
674.253	38212.54
674.602	38254.8
674.951	37664.98
675.3	37550.41
675.649	38077.63
675.998	38064.07
676.346	38112.43
676.695	38092.77
677.044	37921.02
677.393	37992.43
677.741	38116.5
678.09	37870.4
678.438	37881.7
678.787	37854.36
679.135	37795.83
679.484	37563.07
679.832	37847.8
680.181	37482.84
680.529	37632.67
680.877	37463.63
681.225	37495.95
681.573	37632.22
681.922	37430.87
682.27	37359.91
682.618	37399.23
682.966	37351.55
683.314	37356.07
683.661	37182.96
684.009	37076.53
684.357	36870.43
684.705	36923.76
685.053	37019.58
685.4	36863.2
685.748	36471.57
686.095	36547.95
686.443	36444.9
686.79	36393.38
687.138	36474.73
687.485	36429.76
687.832	36393.15
688.18	36321.97
688.527	36150.22
688.874	36186.83
689.221	35970.79
689.568	35857.57
689.915	35747.07
690.262	35903.67
690.609	35634.3
690.956	35655.09
691.303	35472.95
691.65	35341.43
691.997	35339.17
692.344	35225.27
692.69	35050.14
693.037	35146.86
693.383	34925.62
693.73	35122.68
694.077	34917.49
694.423	34838.62
694.769	34595.46
695.116	34548.23
695.462	34558.63
695.808	34406.99
696.155	34547.33
696.501	34316.37
696.847	34186.43
697.193	34067.34
697.539	34118.64
697.885	33784.41
698.231	33756.16
698.577	33756.39
698.923	33699.66
699.269	33524.75
699.614	33488.6
699.96	33310.97
700.306	33474.36
700.651	33334.7
700.997	33191.2
701.342	32963.19
701.688	33031.43
702.033	32893.13
702.379	32948.27
702.724	32836.86
703.069	33026.01
703.415	32530.43
703.76	32550.77
704.105	32580.6
704.45	32532.69
704.795	32348.74
705.14	32263.09
705.485	32172.7
705.83	32025.81
706.175	32128.86
706.52	31916.89
706.865	31801.86
707.209	31817.45
707.554	31676.22
707.899	31722.09
708.243	31554.41
708.588	31465.15
708.932	31290.24
709.277	31317.81
709.621	31238.49
709.966	31034.42
710.31	31077.59
710.654	30928.66
710.998	30907.65
711.342	30969.79
711.687	30795.11
712.031	30690.48
712.375	30643.93
712.719	30660.42
713.063	30551.95
713.407	30587.66
713.75	30585.62
714.094	30474.89
714.438	30319.19
714.782	30324.39
715.125	30137.5
715.469	30271.73
715.812	30036.48
716.156	29921.23
716.499	29883.04
716.843	29996.03
717.186	29653.9
717.53	29899.99
717.873	29695.48
718.216	29796.72
718.559	29503.84
718.902	29408.48
719.246	29580.68
719.589	29407.57
719.932	29184.98
720.275	29286.22
720.617	29225.88
720.96	29244.41
721.303	29143.17
721.646	29193.79
721.989	28873.58
722.331	28954.93
722.674	29006.68
723.016	28932.78
723.359	28973.46
723.701	28950.19
724.044	28723.07
724.386	28637.88
724.729	28748.61
725.071	28620.25
725.413	28552.68
725.755	28450.54
726.097	28410.99
726.439	28363.31
726.782	28363.31
727.124	28421.16
727.465	28206.25
727.807	28154.27
728.149	28121.05
728.491	28151.11
728.833	28160.6
729.175	27982.75
729.516	28014.16
729.858	28048.51
730.199	27896.88
730.541	27727.84
730.882	27724.68
731.224	27854.85
731.565	27573.72
731.906	27634.51
732.248	27742.31
732.589	27618.69
732.93	27351.13
733.271	27526.49
733.612	27397.46
733.953	27494.63
734.294	27303.45
734.635	27261.64
734.976	27225.03
735.317	27323.56
735.658	27133.51
735.999	27237.01
736.339	27158.82
736.68	27070.69
737.021	26955.44
737.361	26963.57
737.702	26941.88
738.042	26778.04
738.383	26778.94
738.723	26926.96
739.063	26737.59
739.404	26797.02
739.744	26692.84
740.084	26580.53
740.424	26558.16
740.764	26506.41
741.104	26585.95
741.444	26518.61
741.784	26346.86
742.124	26518.16
742.464	26313.42
742.804	26345.96
743.143	26343.25
743.483	26215.34
743.823	26179.18
744.162	26170.37
744.502	26069.13
744.841	26093.54
745.181	26097.15
745.52	25982.13
745.86	26029.13
746.199	26008.12
746.538	25837.95
746.877	25971.05
747.216	25959.76
747.556	25739.87
747.895	25812.64
748.234	25671.63
748.573	25629.37
748.911	25575.81
749.25	25585.53
749.589	25461.69
749.928	25479.32
750.267	25529.94
750.605	25510.05
750.944	25391.18
751.283	25329.72
751.621	25254.01
751.96	25065.99
752.298	25063.73
752.636	25043.17
752.975	24957.52
753.313	24921.36
753.651	25041.81
753.989	24846.56
754.327	24789.39
754.666	24768.37
755.004	24720.47
755.342	24687.25
755.679	24571.54
756.017	24572.45
756.355	24547.36
756.693	24389.85
757.031	24279.35
757.368	24253.36
757.706	24214.26
758.044	24126.58
758.381	24094.49
758.719	24009.98
759.056	24000.71
759.394	23877.32
759.731	23878.23
760.068	23795.07
760.405	23762.3
760.743	23603.21
761.08	23720.72
761.417	23426.26
761.754	23417
762.091	23522.76
762.428	23346.04
762.765	23240.73
763.102	23288.41
763.438	23131.58
763.775	23028.98
764.112	22972.26
764.449	23011.36
764.785	22861.31
765.122	22710.8
765.458	22593.52
765.795	22597.36
766.131	22630.13
766.467	22417.93
766.804	22374.99
767.14	22234.43
767.476	22331.83
767.812	22165.28
768.148	22227.65
768.485	22106.52
768.821	21960.99
769.157	21947.21
769.492	21840.54
769.828	21876.02
770.164	21635.8
770.5	21569.59
770.836	21601.68
771.171	21523.04
771.507	21393.77
771.842	21223.16
772.178	21288.69
772.513	21094.57
772.849	21113.56
773.184	20996.72
773.519	21116.72
773.855	20917.4
774.19	20815.03
774.525	20827.01
774.86	20761.47
775.195	20694.36
775.53	20596.28
775.865	20417.53
776.2	20261.37
776.535	20128.27
776.87	20114.71
777.205	20092.34
777.539	19998.78
777.874	20095.73
778.209	19835.17
778.543	19867.49
778.878	19671.11
779.212	19751.33
779.547	19655.51
779.881	19690.09
780.215	19546.59
780.55	19578.91
780.884	19365.13
781.218	19422.98
781.552	19360.61
781.886	19333.49
782.22	19149.09
782.554	19117.9
782.888	19046.72
783.222	18955.65
783.556	18870.68
783.889	18792.71
784.223	18670
784.557	18747.29
784.89	18698.7
785.224	18524.47
785.557	18518.59
785.891	18450.12
786.224	18468.65
786.558	18444.7
786.891	18123.58
787.224	18138.94
787.557	18078.83
787.891	18106.18
788.224	18069.34
788.557	18013.07
788.89	17974.43
789.223	17953.19
789.556	17683.36
789.888	17744.83
790.221	17724.72
790.554	17587.55
790.887	17525.17
791.219	17396.82
791.552	17448.79
791.884	17325.41
792.217	17213.77
792.549	17123.38
792.882	17003.15
793.214	16987.34
793.546	17073.44
793.879	16856.49
794.211	16805.42
794.543	16889.49
794.875	16825.31
795.207	16750.73
795.539	16679.55
795.871	16734.01
796.203	16621.47
796.535	16468.48
796.867	16495.37
797.198	16420.12
797.53	16365.66
797.862	16186.45
798.193	16313.91
798.525	16160.01
798.856	16156.62
799.188	16013.35
799.519	15965.89
799.85	15836.63
800.182	15975.84
800.513	15902.17
800.844	15791.21
801.175	15951.2
801.506	15890.19
801.837	15755.73
802.168	15704.21
802.499	15632.8
802.83	15543.08
803.161	15433.03
803.491	15459.24
803.822	15436.19
804.153	15382.41
804.483	15265.57
804.814	15257.89
805.145	15177.89
805.475	15166.82
805.805	15120.72
806.136	15097.67
806.466	15039.82
806.796	14945.13
807.126	14830.56
807.457	14831.46
807.787	14773.16
808.117	14786.94
808.447	14737.23
808.777	14789.2
809.107	14686.15
809.436	14717.79
809.766	14594.86
810.096	14513.05
810.426	14603.67
810.755	14650.22
811.085	14464.24
811.414	14510.56
811.744	14403.22
812.073	14434.41
812.403	14350.34
812.732	14267.63
813.061	14247.75
813.39	14222.89
813.719	14166.17
814.049	14183.12
814.378	14108.77
814.707	14096.56
815.036	14055.66
815.365	14026.74
815.693	13936.79
816.022	13887.08
816.351	13848.89
816.68	13786.06
817.008	13780.19
817.337	13703.35
817.665	13691.83
817.994	13664.71
818.322	13675.78
818.651	13691.15
818.979	13563.02
819.307	13635.11
819.636	13500.2
819.964	13488.67
820.292	13535.22
820.62	13480.08
820.948	13492.51
821.276	13496.35
821.604	13457.26
821.932	13382.46
822.259	13489.57
822.587	13421.55
822.915	13391.72
823.243	13418.16
823.57	13320.77
823.898	13460.87
824.225	13371.84
824.553	13348.11
824.88	13461.78
825.207	13422.01
825.535	13317.83
825.862	13511.5
826.189	13339.52
826.516	13500.42
826.843	13489.8
827.17	13533.19
827.497	13489.12
827.824	13469.46
828.151	13449.58
828.478	13479.63
828.805	13449.58
829.131	13333.87
829.458	13399.18
829.785	13319.18
830.111	13358.73
830.438	13396.47
830.764	13379.3
831.09	13344.49
831.417	13292.74
831.743	13404.83
832.069	13290.71
832.395	13303.82
832.722	13316.47
833.048	13264.95
833.374	13240.32
833.7	13194.44
834.026	13238.73
834.351	13224.04
834.677	13216.59
835.003	13220.66
835.329	13214.33
835.654	13122.13
835.98	13147.44
836.306	13214.78
836.631	13143.37
836.956	13150.37
837.282	13132.97
837.607	12982.47
837.932	13030.38
838.258	13018.4
838.583	12934.34
838.908	12882.81
839.233	12936.37
839.558	12863.38
839.883	12817.73
840.208	12758.29
840.533	12811.85
840.858	12852.76
841.182	12836.94
841.507	12752.42
841.832	12700.44
842.156	12760.1
842.481	12744.96
842.805	12686.88
843.13	12638.98
843.454	12660.67
843.778	12610.5
844.103	12586.77
844.427	12550.84
844.751	12577.51
845.075	12506.78
845.399	12471.97
845.723	12360.79
846.047	12377.97
846.371	12356.27
846.695	12309.49
847.019	12251.64
847.343	12129.61
847.666	12111.53
847.99	12056.17
848.313	12019.78
848.637	11866.79
848.96	11932.1
849.284	11848.04
849.607	11787.7
849.931	11731.88
850.254	11677.19
850.577	11683.29
850.9	11530.3
851.223	11553.58
851.546	11529.4
851.869	11375.28
852.192	11428.16
852.515	11352
852.838	11298.22
853.161	11267.26
853.483	11172.35
853.806	11204.21
854.129	11158.11
854.451	11131.44
854.774	11042.63
855.096	10987.27
855.419	10951.79
855.741	10965.12
856.063	10871.11
856.385	10917.44
856.708	10869.53
857.03	10766.03
857.352	10810.78
857.674	10793.6
857.996	10777.78
858.318	10716.09
858.64	10674.96
858.961	10623.21
859.283	10565.13
859.605	10538.47
859.926	10550.22
860.248	10519.26
860.57	10466.6
860.891	10494.85
861.212	10428.19
861.534	10410.56
861.855	10370.33
862.176	10422.99
862.498	10457.56
862.819	10436.77
863.14	10352.48
863.461	10387.28
863.782	10324.69
864.103	10328.3
864.424	10295.08
864.745	10339.38
865.065	10267.06
865.386	10124.01
865.707	10226.61
866.027	10284.24
866.348	10189.32
866.668	10191.58
866.989	10152.49
867.309	10140.74
867.63	10130.11
867.95	10145.71
868.27	10035.43
868.59	10014.86
868.91	10086.05
869.23	10069.78
869.55	10024.81
869.87	10087.18
870.19	10028.87
870.51	10013.73
870.83	10049.21
871.15	9959.05
871.469	9925.83
871.789	9959.95
872.109	9843.34
872.428	9823.46
872.748	9872.72
873.067	9881.08
873.386	9878.6
873.706	9775.55
874.025	9796.79
874.344	9742.1
874.663	9795.21
874.982	9719.28
875.301	9708.43
875.62	9729.22
875.939	9734.65
876.258	9711.59
876.577	9733.29
876.896	9714.98
877.214	9647.64
877.533	9680.18
877.852	9602.67
878.17	9617.81
878.489	9620.52
878.807	9584.82
879.125	9601.77
879.444	9578.94
879.762	9414.65
880.08	9506.63
880.398	9476.57
880.716	9423.24
881.034	9455.1
881.352	9421.89
881.67	9346.63
881.988	9383.24
882.306	9420.3
882.624	9308.89
882.941	9256.92
883.259	9272.28
883.577	9277.26
883.894	9337.59
884.212	9242.23
884.529	9147.32
884.846	9159.52
885.164	9147.99
885.481	9189.12
885.798	9156.36
886.115	9079.07
886.432	9084.72
886.75	9075.91
887.067	9071.84
887.383	8994.1
887.7	9088.33
888.017	9032.74
888.334	9015.57
888.651	8933.08
888.967	8895.8
889.284	8905.06
889.6	8904.61
889.917	8855.35
890.233	8816.93
890.55	8738.51
890.866	8750.04
891.182	8773.09
891.498	8736.48
891.815	8710.49
892.131	8707.55
892.447	8660.1
892.763	8606.09
893.079	8621.23
893.395	8585.3
893.71	8592.08
894.026	8541
894.342	8531.74
894.657	8431.4
894.973	8419.2
895.289	8407
895.604	8464.85
895.92	8347.11
896.235	8280.9
896.55	8307.34
896.865	8315.7
897.181	8273.89
897.496	8245.19
897.811	8302.37
898.126	8155.48
898.441	8194.57
898.756	8084.75
899.071	8004.97
899.386	8104.41
899.7	8011.75
900.015	7948.03
900.33	7930.62
900.644	7915.03
900.959	7964.52
901.273	7824.86
901.588	7874.58
901.902	7796.84
902.216	7806.11
902.531	7822.38
902.845	7732.21
903.159	7672.33
903.473	7718.2
903.787	7639.11
904.101	7665.77
904.415	7616.96
904.729	7518.43
905.042	7582.39
905.356	7523.63
905.67	7460.13
905.984	7464.87
906.297	7429.85
906.611	7379.68
906.924	7355.05
907.237	7315.5
907.551	7325.67
907.864	7302.84
908.177	7228.95
908.491	7194.82
908.804	7258.33
909.117	7173.13
909.43	7148.72
909.743	7148.95
910.056	7078.44
910.368	7049.74
910.681	7001.61
910.994	7015.39
911.307	6970.42
911.619	6863.76
911.932	6906.47
912.244	6821.05
912.557	6855.17
912.869	6809.98
913.181	6770.43
913.494	6748.51
913.806	6750.32
914.118	6723.2
914.43	6638.91
914.742	6732.92
915.054	6612.24
915.366	6602.3
915.678	6532.24
915.99	6544.9
916.302	6521.62
916.613	6468.29
916.925	6480.27
917.236	6381.06
917.548	6444.79
917.859	6379.03
918.171	6372.7
918.482	6354.4
918.794	6276.66
919.105	6291.8
919.416	6208.86
919.727	6213.16
920.038	6246.38
920.349	6119.37
920.66	6142.42
920.971	6124.12
921.282	6124.57
921.593	6051.8
921.903	6017.91
922.214	6015.42
922.525	6010.9
922.835	5995.53
923.146	5940.62
923.456	5908.08
923.767	5897.91
924.077	5902.43
924.387	5828.31
924.697	5805.26
925.008	5785.14
925.318	5790.79
925.628	5727.74
925.938	5747.86
926.248	5688.2
926.558	5706.95
926.867	5685.71
927.177	5598.26
927.487	5619.27
927.796	5557.81
928.106	5547.86
928.416	5557.35
928.725	5554.87
929.034	5461.99
929.344	5454.76
929.653	5495.89
929.962	5466.06
930.271	5447.53
930.581	5421.09
930.89	5413.18
931.199	5386.51
931.508	5355.1
931.817	5296.12
932.125	5342.9
932.434	5266.74
932.743	5222
933.051	5230.81
933.36	5234.88
933.669	5213.41
933.977	5174.77
934.286	5145.84
934.594	5135.9
934.902	5062.45
935.21	5073.52
935.519	5097.25
935.827	5027.88
936.135	5030.14
936.443	4991.49
936.751	4982.23
937.059	4970.48
937.367	4907.88
937.674	4930.7
937.982	4921.21
938.29	4831.72
938.597	4829.01
938.905	4806.64
939.213	4798.96
939.52	4775.68
939.827	4774.78
940.135	4752.4
940.442	4735
940.749	4725.51
941.056	4657.72
941.363	4703.14
941.67	4644.84
941.977	4626.98
942.284	4598.74
942.591	4574.33
942.898	4575.46
943.205	4591.28
943.511	4575.01
943.818	4520.32
944.125	4540.21
944.431	4481
944.738	4441.23
945.044	4435.58
945.35	4418.17
945.657	4361
945.963	4346.54
946.269	4330.04
946.575	4361.45
946.881	4334.11
947.187	4337.27
947.493	4270.38
947.799	4219.54
948.105	4227.22
948.41	4229.03
948.716	4209.82
949.022	4222.93
949.327	4160.55
949.633	4120.33
949.938	4104.74
950.244	4181.57
950.549	4142.02
950.854	4087.79
951.16	4102.25
951.465	4027.22
951.77	4092.99
952.075	4007.79
952.38	4011.63
952.685	4025.42
952.99	3963.05
953.294	3962.59
953.599	3947.45
953.904	3897.51
954.209	3928.92
954.513	3927.57
954.818	3865.65
955.122	3827.23
955.426	3840.79
955.731	3822.71
956.035	3827.68
956.339	3753.33
956.643	3773.9
956.948	3726.44
957.252	3744.75
957.556	3756.27
957.86	3688.93
958.163	3710.4
958.467	3662.26
958.771	3672.43
959.075	3663.17
959.378	3609.83
959.682	3656.61
959.985	3596.73
960.289	3585.88
960.592	3621.81
960.896	3556.05
961.199	3566.67
961.502	3517.18
961.805	3521.48
962.108	3496.62
962.411	3495.26
962.714	3458.65
963.017	3458.88
963.32	3477.63
963.623	3414.36
963.926	3445.54
964.228	3394.92
964.531	3391.76
964.833	3377.3
965.136	3333.01
965.438	3311.99
965.741	3258.66
966.043	3292.78
966.345	3311.76
966.648	3287.81
966.95	3276.51
967.252	3265.66
967.554	3239.45
967.856	3222.5
968.158	3172.33
968.46	3178.66
968.761	3135.5
969.063	3174.14
969.365	3142.28
969.666	3145.21
969.968	3095.72
970.269	3069.51
970.571	3117.19
970.872	3055.05
971.174	3053.24
971.475	3024.77
971.776	3052.79
972.077	3015.05
972.378	2998.33
972.679	3014.37
972.98	3001.04
973.281	2990.19
973.582	3009.4
973.883	2912.23
974.183	2954.71
974.484	2925.56
974.785	2927.82
975.085	2926.46
975.386	2921.04
975.686	2910.87
975.986	2881.27
976.287	2893.92
976.587	2819.8
976.887	2813.25
977.187	2808.27
977.487	2785.68
977.787	2794.26
978.087	2736.19
978.387	2792
978.687	2787.26
978.987	2739.8
979.286	2713.36
979.586	2723.3
979.885	2716.07
980.185	2666.81
980.484	2684.21
980.784	2664.77
981.083	2669.29
981.382	2652.12
981.682	2634.49
981.981	2603.08
982.28	2656.19
982.579	2617.09
982.878	2590.43
983.177	2581.16
983.475	2559.92
983.774	2559.47
984.073	2543.65
984.372	2511.33
984.67	2552.24
984.969	2572.8
985.267	2498.9
985.566	2517.21
985.864	2485.12
986.162	2483.99
986.461	2478.11
986.759	2420.04
987.057	2450.09
987.355	2457.77
987.653	2386.36
987.951	2412.35
988.249	2378.91
988.547	2383.2
988.844	2377.55
989.142	2341.62
989.44	2349.98
989.737	2327.83
990.035	2307.27
990.332	2355.18
990.63	2268.17
990.927	2278.8
991.224	2261.4
991.521	2248.97
991.819	2279.25
992.116	2256.2
992.413	2276.31
992.71	2225.69
993.006	2222.3
993.303	2224.79
993.6	2190.89
993.897	2199.02
994.193	2161.74
994.49	2167.16
994.787	2148.63
995.083	2123.55
995.379	2134.39
995.676	2137.33
995.972	2128.74
996.268	2114.51
996.565	2090.1
996.861	2064.11
997.157	2064.34
997.453	2060.27
997.749	2032.47
998.044	2025.24
998.34	2012.36
998.636	2015.3
998.932	2008.97
999.227	1995.87
999.523	1987.5
999.818	1992.93
1000.114	1958.58
1000.409	1965.58
1000.704	1918.58
1001	1923.1
1001.295	1921.29
1001.59	1900.95
1001.885	1897.34
1002.18	1893.95
1002.475	1909.09
1002.77	1880.39
1003.065	1866.6
1003.359	1865.02
1003.654	1874.96
1003.949	1841.52
1004.243	1823.89
1004.538	1845.36
1004.832	1804.91
1005.127	1794.51
1005.421	1796.32
1005.715	1786.61
1006.009	1789.32
1006.304	1753.16
1006.598	1751.35
1006.892	1750.45
1007.186	1737.79
1007.48	1730.56
1007.773	1700.96
1008.067	1715.87
1008.361	1701.86
1008.655	1680.85
1008.948	1710.45
1009.242	1680.39
1009.535	1661.41
1009.829	1658.7
1010.122	1612.37
1010.415	1624.35
1010.708	1627.74
1011.001	1630.23
1011.295	1616.44
1011.588	1571.24
1011.881	1569.21
1012.173	1570.57
1012.466	1571.02
1012.759	1566.5
1013.052	1556.33
1013.344	1544.58
1013.637	1514.75
1013.93	1522.88
1014.222	1492.38
1014.514	1528.99
1014.807	1513.62
1015.099	1495.54
1015.391	1500.29
1015.683	1493.73
1015.976	1463.22
1016.268	1490.12
1016.56	1433.62
1016.851	1446.5
1017.143	1413.73
1017.435	1430
1017.727	1435.88
1018.018	1411.25
1018.31	1414.41
1018.602	1387.52
1018.893	1385.71
1019.185	1381.87
1019.476	1380.74
1019.767	1363.11
1020.058	1352.27
1020.35	1346.17
1020.641	1323.34
1020.932	1306.62
1021.223	1324.24
1021.514	1296.45
1021.804	1279.95
1022.095	1242.21
1022.386	1272.72
1022.677	1272.72
1022.967	1282.44
1023.258	1239.5
1023.548	1240.86
1023.839	1222.33
1024.129	1222.1
1024.419	1208.09
1024.709	1237.92
1025	1204.25
1025.29	1199.95
1025.58	1202.44
1025.87	1171.25
1026.16	1178.94
1026.449	1172.84
1026.739	1162.89
1027.029	1128.77
1027.319	1150.92
1027.608	1151.59
1027.898	1137.13
1028.187	1154.98
1028.477	1136.23
1028.766	1125.83
1029.055	1137.81
1029.344	1107.98
1029.634	1092.39
1029.923	1097.36
1030.212	1092.61
1030.501	1097.81
1030.79	1072.05
1031.078	1039.51
1031.367	1053.97
1031.656	1046.51
1031.945	1044.03
1032.233	1036.57
1032.522	1037.7
1032.81	1005.16
1033.099	1009.68
1033.387	1014.87
1033.675	999.28
1033.963	1007.19
1034.251	988.89
1034.54	985.5
1034.828	962.9
1035.116	957.02
1035.403	960.19
1035.691	973.97
1035.979	975.1
1036.267	963.12
1036.554	944.37
1036.842	949.34
1037.129	924.93
1037.417	931.94
1037.704	936.23
1037.992	898.95
1038.279	891.04
1038.566	891.71
1038.853	891.71
1039.14	891.71
