Data from foam_black_FLMS001491_00099.txt Node
Date: Wed Feb 08 10:45:06 GMT 2017
User: dcchb
Spectrometer: FLMS00149
Trigger mode: 0
Integration Time (sec): 2.000000E-2
Scans to average: 10
Electric dark correction enabled: true
Nonlinearity correction enabled: false
Boxcar width: 0
XAxis mode: Wavelengths
Number of Pixels in Spectrum: 2048
>>>>>Begin Spectral Data<<<<<
341.393	-11.58
341.776	-11.58
342.16	-11.58
342.543	-58.36
342.927	-58.59
343.31	-54.97
343.693	-83.9
344.077	-59.72
344.46	-70.34
344.843	-51.13
345.226	-33.95
345.61	-32.15
345.993	-7.29
346.376	1.98
346.759	-1.19
347.142	21.64
347.525	40.39
347.908	62.31
348.291	91.01
348.674	74.52
349.057	102.77
349.44	127.62
349.823	131.92
350.206	156.55
350.588	188.87
350.971	197.68
351.354	204.68
351.737	208.07
352.119	212.14
352.502	235.19
352.884	254.4
353.267	264.57
353.65	276.09
354.032	272.25
354.414	256.21
354.797	309.77
355.179	281.74
355.562	293.27
355.944	323.1
356.326	307.51
356.709	297.11
357.091	300.73
357.473	322.87
357.855	325.36
358.238	294.63
358.62	311.8
359.002	325.13
359.384	304.34
359.766	316.55
360.148	326.94
360.53	325.81
360.912	322.87
361.294	316.09
361.676	282.42
362.057	298.01
362.439	302.08
362.821	307.51
363.203	324.68
363.584	305.92
363.966	302.31
364.348	307.51
364.729	303.21
365.111	305.25
365.493	312.93
365.874	292.37
366.256	288.52
366.637	280.39
367.019	298.47
367.4	274.96
367.781	293.95
368.163	293.5
368.544	284.68
368.925	286.26
369.306	291.01
369.688	284.23
370.069	283.78
370.45	277
370.831	272.48
371.212	286.26
371.593	294.17
371.974	279.03
372.355	293.95
372.736	295.98
373.117	283.33
373.498	287.62
373.879	282.87
374.26	288.75
374.641	291.46
375.021	296.88
375.402	288.52
375.783	295.08
376.163	253.95
376.544	288.3
376.925	300.73
377.305	300.95
377.686	280.84
378.066	291.91
378.447	293.95
378.827	292.37
379.208	293.72
379.588	285.36
379.968	283.33
380.349	296.21
380.729	294.17
381.109	319.94
381.489	289.88
381.87	288.3
382.25	300.95
382.63	309.09
383.01	291.24
383.39	297.34
383.77	298.01
384.15	293.27
384.53	317.22
384.91	278.58
385.29	284.91
385.67	315.42
386.049	316.55
386.429	303.89
386.809	297.56
387.189	311.12
387.568	304.57
387.948	299.6
388.328	290.56
388.707	306.15
389.087	311.57
389.466	317.68
389.846	297.34
390.225	303.21
390.605	304.12
390.984	317.45
391.363	312.48
391.743	308.64
392.122	303.44
392.501	312.03
392.881	312.25
393.26	302.76
393.639	330.1
394.018	311.8
394.397	346.6
394.776	305.92
395.155	325.58
395.534	322.65
395.913	308.86
396.292	326.04
396.671	316.09
397.05	304.34
397.429	321.07
397.808	331.23
398.186	321.07
398.565	305.7
398.944	315.87
399.323	305.7
399.701	327.84
400.08	318.58
400.458	305.92
400.837	331.69
401.215	320.84
401.594	319.71
401.972	326.71
402.351	337.56
402.729	350.22
403.107	330.56
403.486	317.9
403.864	334.4
404.242	328.75
404.62	334.4
404.999	327.39
405.377	331.69
405.755	333.04
406.133	322.42
406.511	327.62
406.889	310.44
407.267	335.75
407.645	315.42
408.023	345.25
408.401	336.21
408.779	333.27
409.156	341.4
409.534	324.45
409.912	342.76
410.29	328.97
410.667	355.64
411.045	337.79
411.422	361.29
411.8	340.05
412.178	361.06
412.555	336.66
412.933	354.96
413.31	347.28
413.687	351.8
414.065	356.09
414.442	347.5
414.819	342.99
415.197	338.01
415.574	342.31
415.951	350.22
416.328	346.6
416.705	362.87
417.082	373.49
417.46	362.19
417.837	360.16
418.214	372.36
418.591	360.84
418.967	378.24
419.344	354.28
419.721	374.85
420.098	370.33
420.475	364.91
420.852	360.39
421.228	368.75
421.605	362.19
421.982	373.94
422.358	371.23
422.735	385.7
423.111	387.96
423.488	371.01
423.864	368.07
424.241	395.41
424.617	393.15
424.994	356.77
425.37	377.11
425.746	357.67
426.123	390.44
426.499	390.67
426.875	399.93
427.251	403.1
427.627	385.47
428.003	395.87
428.379	392.02
428.756	400.61
429.132	398.13
429.507	374.85
429.883	377.33
430.259	390.44
430.635	412.81
431.011	393.61
431.387	412.14
431.763	403.77
432.138	395.87
432.514	407.39
432.89	404.45
433.265	401.74
433.641	409.65
434.016	399.71
434.392	396.09
434.767	420.27
435.143	397.45
435.518	393.15
435.894	411.91
436.269	429.76
436.644	427.73
437.02	398.35
437.395	418.46
437.77	406.26
438.145	442.19
438.52	415.3
438.895	444.68
439.271	418.46
439.646	429.31
440.021	413.94
440.395	430.67
440.77	425.02
441.145	455.3
441.52	440.16
441.895	442.42
442.27	449.88
442.645	426.37
443.019	446.71
443.394	451.46
443.769	425.02
444.143	439.03
444.518	451.68
444.892	460.27
445.267	450.55
445.641	444.68
446.016	456.65
446.39	450.55
446.764	455.07
447.139	446.49
447.513	475.64
447.887	467.28
448.262	455.98
448.636	443.32
449.01	458.01
449.384	468.41
449.758	459.14
450.132	467.5
450.506	457.33
450.88	465.24
451.254	455.75
451.628	458.01
452.002	476.77
452.376	466.82
452.75	477.45
453.123	463.66
453.497	478.35
453.871	476.54
454.244	492.13
454.618	488.07
454.992	486.71
455.365	481.96
455.739	489.2
456.112	487.61
456.486	498.91
456.859	474.73
457.232	500.95
457.606	503.21
457.979	507.5
458.352	489.87
458.725	505.47
459.099	514.96
459.472	503.43
459.845	506.82
460.218	514.05
460.591	514.51
460.964	513.83
461.337	531.91
461.71	507.73
462.083	551.34
462.456	529.65
462.829	545.24
463.201	544.34
463.574	534.84
463.947	552.02
464.32	552.25
464.692	542.08
465.065	538.69
465.438	551.12
465.81	580.04
466.183	572.36
466.555	569.65
466.928	577.56
467.3	553.38
467.672	589.31
468.045	606.93
468.417	592.47
468.789	578.69
469.161	602.19
469.534	583.66
469.906	595.18
470.278	597.44
470.65	608.74
471.022	625.92
471.394	629.31
471.766	620.72
472.138	629.53
472.51	629.31
472.882	652.13
473.253	641.51
473.625	645.58
473.997	643.09
474.369	649.19
474.74	648.06
475.112	649.64
475.484	657.1
475.855	679.02
476.227	672.47
476.598	672.24
476.97	682.64
477.341	699.36
477.713	682.64
478.084	707.95
478.455	706.14
478.827	698.91
479.198	725.35
479.569	725.57
479.94	713.37
480.311	755.63
480.682	736.2
481.053	756.76
481.424	793.37
481.795	786.36
482.166	758.79
482.537	787.27
482.908	801.96
483.279	804.67
483.65	806.48
484.021	830.43
484.391	805.12
484.762	835.4
485.133	832.01
485.503	844.89
485.874	851.45
486.244	866.36
486.615	879.02
486.985	887.15
487.356	866.14
487.726	886.25
488.097	893.93
488.467	907.94
488.837	914.95
489.207	920.15
489.578	905.46
489.948	937.32
490.318	945.68
490.688	953.36
491.058	962.86
491.428	961.05
491.798	992.69
492.168	998.79
492.538	985.68
492.908	1003.31
493.278	1007.6
493.648	1007.83
494.017	996.75
494.387	1041.27
494.757	1028.84
495.126	1033.14
495.496	1043.76
495.866	1028.62
496.235	1039.92
496.605	1064.55
496.974	1079.01
497.344	1052.57
497.713	1088.95
498.082	1064.1
498.452	1081.72
498.821	1072.01
499.19	1089.41
499.559	1094.6
499.928	1081.05
500.298	1069.97
500.667	1128.73
501.036	1137.77
501.405	1104.32
501.774	1121.27
502.143	1145.45
502.512	1128.28
502.88	1120.14
503.249	1128.28
503.618	1173.47
503.987	1153.59
504.356	1151.1
504.724	1150.2
505.093	1134.6
505.462	1181.83
505.83	1156.07
506.199	1178.22
506.567	1173.47
506.936	1195.17
507.304	1201.72
507.672	1201.95
508.041	1213.02
508.409	1213.47
508.777	1206.47
509.145	1221.38
509.514	1244.66
509.882	1231.32
510.25	1248.72
510.618	1236.97
510.986	1222.74
511.354	1256.86
511.722	1266.8
512.09	1281.72
512.458	1259.35
512.826	1272.45
513.193	1305.22
513.561	1324.65
513.929	1344.99
514.297	1347.93
514.664	1333.02
515.032	1370.08
515.4	1366.69
515.767	1352.68
516.135	1367.82
516.502	1371.66
516.869	1382.51
517.237	1397.19
517.604	1368.04
517.972	1430.41
518.339	1408.95
518.706	1398.32
519.073	1449.85
519.44	1418.21
519.808	1449.85
520.175	1432
520.542	1444.2
520.909	1490.75
521.276	1453.46
521.643	1477.19
522.009	1485.78
522.376	1492.11
522.743	1481.26
523.11	1523.29
523.477	1507.02
523.843	1539.11
524.21	1547.02
524.577	1543.41
524.943	1571.88
525.31	1570.98
525.676	1549.28
526.043	1547.47
526.409	1588.6
526.776	1603.52
527.142	1554.7
527.508	1584.31
527.874	1572.78
528.241	1573.91
528.607	1608.71
528.973	1638.09
529.339	1614.14
529.705	1655.04
530.071	1618.88
530.437	1608.26
530.803	1651.43
531.169	1643.29
531.535	1669.05
531.901	1659.11
532.267	1689.62
532.632	1686.9
532.998	1682.39
533.364	1673.57
533.73	1703.85
534.095	1731.42
534.461	1711.54
534.826	1712.44
535.192	1730.97
535.557	1746.56
535.923	1773.46
536.288	1764.64
536.653	1776.62
537.019	1793.12
537.384	1778.43
537.749	1775.04
538.114	1780.46
538.479	1814.13
538.845	1773.91
539.21	1793.79
539.575	1810.74
539.94	1869.27
540.305	1847.35
540.67	1865.88
541.034	1835.15
541.399	1864.98
541.764	1898.42
542.129	1897.97
542.494	1876.96
542.858	1938.42
543.223	1920.8
543.587	1949.5
543.952	1940.23
544.316	1915.6
544.681	1944.98
545.045	1901.14
545.41	1942.72
545.774	1964.41
546.138	1949.27
546.503	1966.9
546.867	1966.67
547.231	2014.58
547.595	2014.13
547.959	1961.47
548.324	2002.83
548.688	2027.01
549.052	2017.29
549.416	1984.98
549.779	2016.61
550.143	2030.62
550.507	2053.9
550.871	2045.77
551.235	2032.21
551.599	2021.81
551.962	2078.53
552.326	2024.98
552.689	2047.8
553.053	2053.9
553.417	2040.57
553.78	2069.49
554.143	2073.34
554.507	2080.11
554.87	2069.04
555.234	2096.39
555.597	2069.27
555.96	2090.96
556.323	2083.5
556.686	2086.44
557.05	2100.91
557.413	2098.65
557.776	2102.49
558.139	2118.08
558.502	2103.62
558.865	2104.97
559.228	2140.23
559.59	2134.58
559.953	2116.27
560.316	2140
560.679	2133.45
561.041	2158.76
561.404	2147.91
561.767	2190.17
562.129	2168.93
562.492	2224.74
562.854	2202.82
563.217	2204.18
563.579	2215.48
563.941	2208.47
564.304	2222.48
564.666	2231.75
565.028	2284.18
565.39	2281.69
565.753	2304.74
566.115	2315.36
566.477	2299.09
566.839	2325.53
567.201	2332.54
567.563	2349.49
567.925	2351.97
568.287	2399.65
568.648	2381.12
569.01	2384.51
569.372	2429.03
569.734	2375.7
570.095	2447.56
570.457	2408.02
570.819	2447.34
571.18	2469.03
571.542	2468.35
571.903	2515.36
572.265	2491.86
572.626	2536.83
572.987	2546.54
573.349	2558.97
573.71	2576.82
574.071	2564.85
574.432	2563.27
574.794	2574.34
575.155	2602.81
575.516	2585.41
575.877	2602.59
576.238	2604.85
576.599	2627.22
576.96	2598.75
577.32	2621.34
577.681	2615.02
578.042	2646.88
578.403	2634.68
578.763	2605.3
579.124	2603.94
579.485	2660.44
579.845	2673.09
580.206	2635.58
580.566	2646.88
580.927	2636.71
581.287	2642.81
581.648	2634.68
582.008	2614.34
582.368	2611.17
582.728	2636.48
583.089	2648.46
583.449	2632.19
583.809	2631.51
584.169	2635.13
584.529	2623.83
584.889	2652.3
585.249	2614.34
585.609	2669.25
585.969	2625.19
586.329	2623.38
586.688	2608.01
587.048	2608.24
587.408	2584.73
587.768	2615.92
588.127	2556.26
588.487	2572.53
588.846	2597.62
589.206	2552.64
589.565	2600.1
589.925	2560.1
590.284	2574.79
590.643	2598.29
591.003	2604.85
591.362	2622.47
591.721	2588.8
592.08	2575.92
592.44	2590.38
592.799	2589.25
593.158	2527.33
593.517	2566.43
593.876	2571.18
594.235	2557.62
594.593	2561.01
594.952	2549.71
595.311	2548.35
595.67	2585.41
596.029	2585.19
596.387	2586.54
596.746	2614.34
597.104	2589.25
597.463	2613.21
597.822	2604.17
598.18	2582.47
598.538	2646.2
598.897	2640.78
599.255	2597.62
599.613	2656.14
599.972	2634.45
600.33	2627.22
600.688	2614.56
601.046	2690.27
601.404	2666.09
601.762	2651.63
602.12	2670.16
602.478	2709.02
602.836	2675.35
603.194	2659.53
603.552	2699.53
603.91	2675.81
604.268	2712.41
604.625	2717.16
604.983	2672.87
605.341	2699.99
605.698	2692.53
606.056	2753.77
606.413	2754.67
606.771	2779.08
607.128	2712.41
607.485	2729.82
607.843	2770.94
608.2	2749.48
608.557	2840.09
608.914	2771.17
609.272	2749.25
609.629	2783.6
609.986	2816.82
610.343	2802.58
610.7	2791.06
611.057	2805.97
611.414	2789.47
611.771	2808.01
612.127	2815.69
612.484	2803.03
612.841	2791.51
613.198	2769.81
613.554	2817.27
613.911	2824.28
614.267	2837.83
614.624	2823.6
614.98	2826.31
615.337	2843.71
615.693	2841.45
616.05	2816.14
616.406	2845.07
616.762	2840.32
617.118	2838.51
617.475	2831.51
617.831	2853.65
618.187	2824.73
618.543	2787.89
618.899	2808.91
619.255	2796.71
619.611	2806.88
619.967	2780.66
620.323	2878.06
620.678	2816.82
621.034	2810.49
621.39	2789.7
621.746	2824.5
622.101	2794.67
622.457	2803.49
622.812	2802.81
623.168	2771.4
623.523	2776.59
623.879	2806.88
624.234	2784.96
624.589	2794.67
624.945	2789.7
625.3	2770.94
625.655	2813.65
626.01	2795.58
626.365	2795.58
626.72	2761
627.075	2771.4
627.43	2781.34
627.785	2744.05
628.14	2827.44
628.495	2775.92
628.85	2778.18
629.205	2740.89
629.559	2777.72
629.914	2762.36
630.269	2768.46
630.623	2756.93
630.978	2755.8
631.332	2754.45
631.687	2777.72
632.041	2773.66
632.396	2769.59
632.75	2739.76
633.104	2688.69
633.459	2742.92
633.813	2742.47
634.167	2722.81
634.521	2744.5
634.875	2722.81
635.229	2704.28
635.583	2742.7
635.937	2712.19
636.291	2746.09
636.645	2710.15
636.999	2704.28
637.352	2703.15
637.706	2747.89
638.06	2736.59
638.413	2685.97
638.767	2720.1
639.121	2715.8
639.474	2687.33
639.828	2705.64
640.181	2721.91
640.534	2714
640.888	2707.22
641.241	2694.11
641.594	2719.87
641.947	2676.71
642.301	2713.32
642.654	2734.56
643.007	2718.97
643.36	2678.74
643.713	2687.1
644.066	2716.03
644.419	2705.41
644.771	2656.82
645.124	2668.8
645.477	2657.27
645.83	2583.6
646.182	2661.12
646.535	2634.68
646.888	2661.57
647.24	2627.22
647.593	2671.06
647.945	2648.69
648.298	2671.51
648.65	2635.58
649.002	2622.47
649.355	2622.25
649.707	2636.03
650.059	2659.53
650.411	2666.77
650.763	2693.43
651.115	2680.33
651.467	2652.08
651.819	2685.75
652.171	2657.95
652.523	2665.64
652.875	2694.34
653.227	2666.31
653.578	2678.74
653.93	2662.47
654.282	2693.21
654.633	2643.72
654.985	2662.02
655.337	2684.39
655.688	2661.79
656.039	2652.08
656.391	2625.64
656.742	2663.38
657.094	2681.45
657.445	2668.8
657.796	2619.54
658.147	2633.32
658.498	2634.9
658.849	2625.86
659.2	2601.68
659.551	2615.92
659.902	2611.17
660.253	2632.19
660.604	2631.29
660.955	2600.78
661.306	2595.13
661.656	2644.62
662.007	2617.95
662.358	2604.85
662.708	2593.32
663.059	2590.84
663.409	2586.54
663.76	2645.75
664.11	2613.21
664.461	2584.96
664.811	2596.94
665.161	2588.12
665.511	2585.64
665.862	2574.57
666.212	2596.94
666.562	2601.91
666.912	2605.52
667.262	2601.46
667.612	2549.26
667.962	2576.82
668.312	2615.47
668.662	2580.67
669.011	2563.94
669.361	2597.16
669.711	2586.54
670.06	2550.61
670.41	2538.41
670.76	2573.44
671.109	2547.9
671.459	2627.67
671.808	2523.04
672.157	2571.85
672.507	2529.14
672.856	2541.57
673.205	2585.41
673.554	2547
673.904	2582.25
674.253	2547.22
674.602	2571.4
674.951	2528.24
675.3	2500.44
675.649	2566.88
675.998	2563.49
676.346	2551.51
676.695	2551.51
677.044	2549.71
677.393	2536.83
677.741	2535.7
678.09	2514.68
678.438	2554
678.787	2543.61
679.135	2517.17
679.484	2524.4
679.832	2546.32
680.181	2522.36
680.529	2540.44
680.877	2519.2
681.225	2501.8
681.573	2517.39
681.922	2490.05
682.27	2495.25
682.618	2475.13
682.966	2515.81
683.314	2535.02
683.661	2513.78
684.009	2450.95
684.357	2486.66
684.705	2491.86
685.053	2499.54
685.4	2494.34
685.748	2502.25
686.095	2452.31
686.443	2478.3
686.79	2481.46
687.138	2486.43
687.485	2440.11
687.832	2467
688.18	2447.56
688.527	2455.92
688.874	2452.99
689.221	2417.96
689.568	2457.05
689.915	2458.86
690.262	2423.61
690.609	2393.1
690.956	2417.06
691.303	2383.38
691.65	2423.61
691.997	2382.71
692.344	2377.51
692.69	2410.95
693.037	2375.02
693.383	2378.64
693.73	2386.1
694.077	2357.62
694.423	2362.82
694.769	2363.05
695.116	2370.73
695.462	2328.92
695.808	2285.08
696.155	2341.12
696.501	2337.51
696.847	2309.71
697.193	2325.98
697.539	2317.62
697.885	2306.55
698.231	2327.34
698.577	2308.81
698.923	2285.99
699.269	2287.57
699.614	2292.31
699.96	2284.18
700.306	2281.92
700.651	2286.44
700.997	2266.78
701.342	2268.81
701.688	2245.99
702.033	2221.35
702.379	2247.12
702.724	2239.88
703.069	2240.34
703.415	2223.84
703.76	2237.85
704.105	2239.88
704.45	2235.59
704.795	2204.86
705.14	2189.26
705.485	2180.23
705.83	2206.89
706.175	2164.18
706.52	2173.67
706.865	2196.95
707.209	2170.06
707.554	2158.08
707.899	2180.45
708.243	2163.95
708.588	2169.6
708.932	2163.5
709.277	2147.46
709.621	2170.51
709.966	2142.26
710.31	2145.2
710.654	2093
710.998	2097.29
711.342	2164.18
711.687	2126.44
712.031	2112.43
712.375	2125.99
712.719	2103.39
713.063	2085.54
713.407	2128.02
713.75	2114.46
714.094	2091.41
714.438	2101.13
714.782	2079.89
715.125	2086.89
715.469	2080.57
715.812	2055.26
716.156	2084.63
716.499	2039.44
716.843	2067.01
717.186	2087.57
717.53	2078.98
717.873	2107.01
718.216	2039.44
718.559	2058.42
718.902	2057.29
719.246	2045.09
719.589	2058.87
719.932	2029.49
720.275	2048.7
720.617	2054.8
720.96	2020.91
721.303	2065.2
721.646	2049.61
721.989	2044.86
722.331	2057.06
722.674	2047.35
723.016	2037.18
723.359	2027.69
723.701	2064.97
724.044	2044.18
724.386	2035.14
724.729	2012.32
725.071	2038.99
725.413	2003.73
725.755	2017.74
726.097	2025.88
726.439	2005.31
726.782	1992.43
727.124	2015.26
727.465	1987.01
727.807	2005.77
728.149	2002.6
728.491	1980.46
728.833	1983.39
729.175	1975.71
729.516	2005.77
729.858	1994.02
730.199	1967.8
730.541	1982.26
730.882	1976.39
731.224	1972.32
731.565	1984.75
731.906	1949.95
732.248	1963.96
732.589	1960.34
732.93	1939.55
733.271	1937.52
733.612	1974.58
733.953	1918.31
734.294	1921.25
734.635	1944.07
734.976	1962.6
735.317	1925.99
735.658	1931.19
735.999	1926.9
736.339	1898.42
736.68	1933.23
737.021	1930.29
737.361	1914.24
737.702	1917.86
738.042	1890.06
738.383	1909.5
738.723	1919.44
739.063	1916.96
739.404	1905.2
739.744	1914.24
740.084	1918.54
740.424	1904.98
740.764	1869.95
741.104	1908.37
741.444	1871.08
741.784	1898.2
742.124	1894.81
742.464	1899.55
742.804	1878.99
743.143	1919.22
743.483	1872.89
743.823	1902.27
744.162	1860.01
744.502	1867.69
744.841	1866.11
745.181	1873.79
745.52	1852.55
745.86	1870.4
746.199	1832.44
746.538	1847.8
746.877	1850.97
747.216	1851.42
747.556	1872.21
747.895	1861.82
748.234	1833.12
748.573	1811.65
748.911	1832.21
749.25	1836.96
749.589	1814.59
749.928	1815.49
750.267	1840.12
750.605	1823.62
750.944	1804.64
751.283	1818.43
751.621	1814.13
751.96	1793.57
752.298	1787.92
752.636	1797.18
752.975	1769.16
753.313	1803.51
753.651	1809.84
753.989	1794.47
754.327	1794.25
754.666	1769.84
755.004	1773.46
755.342	1798.31
755.679	1811.2
756.017	1735.94
756.355	1775.04
756.693	1779.56
757.031	1754.7
757.368	1758.99
757.706	1757.19
758.044	1747.69
758.381	1723.29
758.719	1740.46
759.056	1746.34
759.394	1726.23
759.731	1723.06
760.068	1732.55
760.405	1712.44
760.743	1732.1
761.08	1697.53
761.417	1699.79
761.754	1700.92
762.091	1701.82
762.428	1688.26
762.765	1680.8
763.102	1697.3
763.438	1672.22
763.775	1705.89
764.112	1692.1
764.449	1673.35
764.785	1660.24
765.122	1665.66
765.458	1663.85
765.795	1628.38
766.131	1664.08
766.467	1663.18
766.804	1625.89
767.14	1643.97
767.476	1614.14
767.812	1639.9
768.148	1633.35
768.485	1605.1
768.821	1625.66
769.157	1590.41
769.492	1601.03
769.828	1594.25
770.164	1565.33
770.5	1584.08
770.836	1597.87
771.171	1593.35
771.507	1588.38
771.842	1571.65
772.178	1584.53
772.513	1569.39
772.849	1580.47
773.184	1576.17
773.519	1577.53
773.855	1565.78
774.19	1565.33
774.525	1548.6
774.86	1555.38
775.195	1567.81
775.53	1533.69
775.865	1543.86
776.2	1502.5
776.535	1526.68
776.87	1517.64
777.205	1530.52
777.539	1506.12
777.874	1495.72
778.209	1482.84
778.543	1516.74
778.878	1518.32
779.212	1500.02
779.547	1496.18
779.881	1487.81
780.215	1470.87
780.55	1494.37
780.884	1485.55
781.218	1455.05
781.552	1478.32
781.886	1491.88
782.22	1425.89
782.554	1445.56
782.888	1457.53
783.222	1462.73
783.556	1441.04
783.889	1423.86
784.223	1466.57
784.557	1411.43
784.89	1415.27
785.224	1402.62
785.557	1428.38
785.891	1418.89
786.224	1436.29
786.558	1406.01
786.891	1410.3
787.224	1407.14
787.557	1374.14
787.891	1409.17
788.224	1404.65
788.557	1390.64
788.89	1397.19
789.223	1416.86
789.556	1389.51
789.888	1402.17
790.221	1380.25
790.554	1343.41
790.887	1362.62
791.219	1361.94
791.552	1344.77
791.884	1384.09
792.217	1354.03
792.549	1350.64
792.882	1352.45
793.214	1353.13
793.546	1364.2
793.879	1347.93
794.211	1348.16
794.543	1321.26
794.875	1326.24
795.207	1324.88
795.539	1358.78
795.871	1331.21
796.203	1344.31
796.535	1312
796.867	1312.23
797.198	1312
797.53	1318.78
797.862	1295.73
798.193	1302.28
798.525	1290.98
798.856	1300.7
799.188	1296.86
799.519	1269.29
799.85	1269.06
800.182	1290.76
800.513	1259.57
800.844	1263.19
801.175	1270.87
801.506	1266.35
801.837	1277.65
802.168	1267.25
802.499	1261.15
802.83	1227.03
803.161	1261.83
803.491	1254.15
803.822	1266.12
804.153	1250.53
804.483	1245.33
804.814	1258.22
805.145	1244.43
805.475	1244.88
805.805	1254.37
806.136	1255.5
806.466	1272.68
806.796	1270.42
807.126	1234.26
807.457	1228.61
807.787	1216.41
808.117	1227.93
808.447	1235.62
808.777	1232
809.107	1217.99
809.436	1232.91
809.766	1215.96
810.096	1211.66
810.426	1211.66
810.755	1214.6
811.085	1220.48
811.414	1217.09
811.744	1182.51
812.073	1182.96
812.403	1211.44
812.732	1184.09
813.061	1168.05
813.39	1161.72
813.719	1204.21
814.049	1189.29
814.378	1148.39
814.707	1190.65
815.036	1166.69
815.365	1162.85
815.693	1164.43
816.022	1175.28
816.351	1150.65
816.68	1157.43
817.008	1160.82
817.337	1154.72
817.665	1163.75
817.994	1187.26
818.322	1133.7
818.651	1150.65
818.979	1150.65
819.307	1141.16
819.636	1129.18
819.964	1133.25
820.292	1130.76
820.62	1129.41
820.948	1112.91
821.276	1116.75
821.604	1147.71
821.932	1118.56
822.259	1138.9
822.587	1117.65
822.915	1127.15
823.243	1123.53
823.57	1122.17
823.898	1134.6
824.225	1131.21
824.553	1132.57
824.88	1095.96
825.207	1106.13
825.535	1114.72
825.862	1128.05
826.189	1126.69
826.516	1108.84
826.843	1120.14
827.17	1116.07
827.497	1117.65
827.824	1130.99
828.151	1126.24
828.478	1092.34
828.805	1119.24
829.131	1124.21
829.458	1104.1
829.785	1114.72
830.111	1115.85
830.438	1100.03
830.764	1123.53
831.09	1121.95
831.417	1109.52
831.743	1095.51
832.069	1110.2
832.395	1106.58
832.722	1113.36
833.048	1086.92
833.374	1102.51
833.7	1093.25
834.026	1080.37
834.351	1100.71
834.677	1096.19
835.003	1095.06
835.329	1124.66
835.654	1108.61
835.98	1079.24
836.306	1087.15
836.631	1096.86
836.956	1106.81
837.282	1098.45
837.607	1082.85
837.932	1107.03
838.258	1081.72
838.583	1086.02
838.908	1081.5
839.233	1087.82
839.558	1098.45
839.883	1060.03
840.208	1066.36
840.533	1067.03
840.858	1071.33
841.182	1071.78
841.507	1088.28
841.832	1078.11
842.156	1077.2
842.481	1074.72
842.805	1068.62
843.13	1062.06
843.454	1067.03
843.778	1052.12
844.103	1057.99
844.427	1067.03
844.751	1053.02
845.075	1069.97
845.399	1071.55
845.723	1020.03
846.047	1037.43
846.371	1065
846.695	1058.22
847.019	1024.78
847.343	1044.66
847.666	1041.5
847.99	1031.78
848.313	1062.97
848.637	1051.22
848.96	1037.2
849.284	1013.7
849.607	1029.97
849.931	1041.27
850.254	997.21
850.577	1024.1
850.9	1035.17
851.223	1017.32
851.546	1000.6
851.869	1025
852.192	1002.18
852.515	985.23
852.838	1001.5
853.161	981.61
853.483	1008.05
853.806	988.17
854.129	994.72
854.451	1021.84
854.774	976.64
855.096	1010.31
855.419	997.21
855.741	1013.48
856.063	981.16
856.385	988.39
856.708	989.3
857.03	979.8
857.352	1015.74
857.674	990.2
857.996	973.7
858.318	982.29
858.64	979.8
858.961	979.58
859.283	969.64
859.605	954.95
859.926	987.04
860.248	972.8
860.57	953.36
860.891	943.42
861.212	971.67
861.534	970.54
861.855	966.92
862.176	971.44
862.498	957.88
862.819	970.54
863.14	984.55
863.461	974.16
863.782	959.69
864.103	933.7
864.424	975.51
864.745	952.23
865.065	995.4
865.386	962.18
865.707	974.83
866.027	948.17
866.348	956.3
866.668	966.25
866.989	952.01
867.309	960.82
867.63	966.47
867.95	965.12
868.27	963.31
868.59	943.2
868.91	969.41
869.23	985
869.55	959.01
869.87	927.38
870.19	977.54
870.51	959.01
870.83	970.31
871.15	957.43
871.469	963.53
871.789	952.01
872.109	958.34
872.428	957.43
872.748	955.85
873.067	959.69
873.386	955.4
873.706	917.89
874.025	965.12
874.344	934.16
874.663	948.39
874.982	948.17
875.301	932.57
875.62	923.99
875.939	926.25
876.258	917.43
876.577	944.55
876.896	941.84
877.214	923.08
877.533	909.3
877.852	939.58
878.17	937.09
878.489	924.21
878.807	944.78
879.125	949.07
879.444	932.12
879.762	940.71
880.08	931.9
880.398	919.02
880.716	911.56
881.034	901.61
881.352	942.74
881.67	916.76
881.988	910.43
882.306	890.99
882.624	913.82
882.941	899.58
883.259	905
883.577	918.56
883.894	891.9
884.212	909.07
884.529	911.56
884.846	902.97
885.164	903.87
885.481	919.69
885.798	923.08
886.115	909.98
886.432	887.83
886.75	892.58
887.067	903.42
887.383	900.26
887.7	885.57
888.017	894.84
888.334	889.64
888.651	882.41
888.967	870.2
889.284	878.79
889.6	876.08
889.917	883.54
890.233	858.23
890.55	872.91
890.866	881.73
891.182	859.58
891.498	854.38
891.815	862.97
892.131	850.77
892.447	855.06
892.763	846.25
893.079	868.4
893.395	850.77
893.71	862.97
894.026	823.65
894.342	854.38
894.657	845.8
894.973	833.37
895.289	843.09
895.604	832.01
895.92	821.39
896.235	835.63
896.55	826.14
896.865	830.43
897.181	830.88
897.496	841.5
897.811	827.94
898.126	821.16
898.441	817.1
898.756	777.1
899.071	807.83
899.386	802.41
899.7	791.34
900.015	771.9
900.33	794.27
900.644	776.87
900.959	789.08
901.273	796.76
901.588	782.3
901.902	786.59
902.216	793.59
902.531	771.22
902.845	774.39
903.159	760.38
903.473	776.42
903.787	749.3
904.101	771.67
904.415	764.67
904.729	748.62
905.042	753.14
905.356	765.12
905.67	766.7
905.984	744.56
906.297	777.55
906.611	743.65
906.924	765.8
907.237	743.43
907.551	748.4
907.864	729.87
908.177	768.51
908.491	746.14
908.804	727.83
909.117	719.92
909.43	745.46
909.743	731.68
910.056	731.45
910.368	744.1
910.681	738.23
910.994	743.43
911.307	734.84
911.619	708.85
911.932	707.72
912.244	715.4
912.557	720.38
912.869	688.29
913.181	698.91
913.494	704.56
913.806	706.82
914.118	707.95
914.43	691.22
914.742	693.03
915.054	717.44
915.366	676.99
915.678	701.17
915.99	694.84
916.302	707.5
916.613	684.9
916.925	701.62
917.236	694.16
917.548	692.58
917.859	703.43
918.171	683.09
918.482	686.48
918.794	683.32
919.105	689.64
919.416	674.05
919.727	673.37
920.038	691.22
920.349	716.31
920.66	671.56
920.971	669.3
921.282	672.69
921.593	669.98
921.903	667.95
922.214	671.79
922.525	660.27
922.835	652.58
923.146	646.48
923.456	660.72
923.767	669.76
924.077	650.55
924.387	684.67
924.697	646.71
925.008	645.12
925.318	663.2
925.628	641.51
925.938	634.73
926.248	656.88
926.558	654.84
926.867	655.52
927.177	672.24
927.487	639.47
927.796	649.19
928.106	627.5
928.416	649.19
928.725	645.35
929.034	644.9
929.344	660.04
929.653	639.93
929.962	624.56
930.271	623.2
930.581	625.01
930.89	635.86
931.199	597.89
931.508	629.08
931.817	622.3
932.125	631.57
932.434	620.27
932.743	620.94
933.051	615.97
933.36	635.18
933.669	633.6
933.977	620.49
934.286	612.36
934.594	619.14
934.902	593.37
935.21	619.36
935.519	623.88
935.827	596.76
936.135	601.06
936.443	592.02
936.751	627.72
937.059	595.86
937.367	596.54
937.674	628.63
937.982	599.25
938.29	607.39
938.597	609.64
938.905	605.8
939.213	618.01
939.52	598.35
939.827	599.93
940.135	604.67
940.442	598.8
940.749	578.46
941.056	595.86
941.363	589.31
941.67	582.53
941.977	613.94
942.284	578.23
942.591	611.23
942.898	588.63
943.205	578.23
943.511	613.49
943.818	563.77
944.125	604.67
944.431	590.21
944.738	607.16
945.044	593.37
945.35	577.56
945.657	585.92
945.963	585.01
946.269	592.02
946.575	577.1
946.881	604.45
947.187	595.18
947.493	598.12
947.799	562.87
948.105	562.64
948.41	574.39
948.716	588.4
949.022	570.55
949.327	570.1
949.633	562.19
949.938	574.84
950.244	574.39
950.549	581.62
950.854	578.69
951.16	563.77
951.465	601.06
951.77	580.27
952.075	567.16
952.38	597.89
952.685	562.41
952.99	588.85
953.294	565.13
953.599	559.48
953.904	559.48
954.209	561.06
954.513	578.91
954.818	547.73
955.122	549.76
955.426	555.64
955.731	560.15
956.035	573.71
956.339	549.53
956.643	557.44
956.948	555.64
957.252	531.45
957.556	543.43
957.86	537.1
958.163	537.33
958.467	550.21
958.771	547.95
959.075	556.31
959.378	547.5
959.682	545.92
959.985	535.75
960.289	528.52
960.592	527.84
960.896	549.53
961.199	549.08
961.502	542.75
961.805	531.45
962.108	528.97
962.411	543.88
962.714	535.97
963.017	543.43
963.32	543.21
963.623	535.52
963.926	527.84
964.228	513.38
964.531	528.29
964.833	538.23
965.136	514.73
965.438	534.62
965.741	537.33
966.043	515.64
966.345	516.77
966.648	534.39
966.95	513.83
967.252	516.54
967.554	530.78
967.856	519.03
968.158	526.94
968.46	508.4
968.761	520.38
969.063	505.01
969.365	534.17
969.666	520.61
969.968	516.77
970.269	518.8
970.571	518.57
970.872	521.06
971.174	505.24
971.475	501.17
971.776	493.94
972.077	493.49
972.378	495.3
972.679	520.16
972.98	496.88
973.281	509.99
973.582	487.61
973.883	491.46
974.183	492.13
974.484	486.94
974.785	493.04
975.085	509.53
975.386	487.61
975.686	473.83
975.986	512.47
976.287	478.35
976.587	480.38
976.887	477.67
977.187	494.17
977.487	507.73
977.787	486.26
978.087	478.35
978.387	491.68
978.687	465.92
978.987	496.2
979.286	462.3
979.586	475.64
979.885	471.57
980.185	484.9
980.484	441.06
980.784	479.7
981.083	483.77
981.382	469.76
981.682	482.42
981.981	456.65
982.28	460.27
982.579	485.13
982.878	475.19
983.177	459.37
983.475	475.41
983.774	480.83
984.073	444
984.372	465.47
984.67	478.12
984.969	462.08
985.267	483.09
985.566	482.42
985.864	449.2
986.162	462.98
986.461	448.07
986.759	465.47
987.057	455.75
987.355	453.26
987.653	431.8
987.951	446.26
988.249	454.17
988.547	460.5
988.844	440.16
989.142	458.24
989.44	436.09
989.737	447.39
990.035	416.43
990.332	431.34
990.63	435.19
990.927	428.86
991.224	444.23
991.521	421.18
991.819	439.71
992.116	422.76
992.413	439.03
992.71	453.49
993.006	440.61
993.303	436.09
993.6	428.86
993.897	429.54
994.193	447.62
994.49	422.53
994.787	427.05
995.083	428.63
995.379	428.18
995.676	445.58
995.972	437.9
996.268	424.79
996.565	418.69
996.861	413.72
997.157	442.42
997.453	419.14
997.749	413.27
998.044	429.76
998.34	415.3
998.636	411.01
998.932	421.4
999.227	420.5
999.523	430.89
999.818	426.37
1000.114	446.71
1000.409	422.76
1000.704	416.88
1001	394.96
1001.295	436.32
1001.59	426.15
1001.885	421.85
1002.18	420.72
1002.475	406.94
1002.77	415.07
1003.065	405.58
1003.359	415.07
1003.654	402.64
1003.949	408.52
1004.243	411.68
1004.538	408.97
1004.832	417.79
1005.127	408.52
1005.421	401.51
1005.715	413.72
1006.009	413.94
1006.304	411.68
1006.598	413.49
1006.892	395.41
1007.186	390.44
1007.48	396.54
1007.773	412.59
1008.067	413.72
1008.361	409.2
1008.655	394.74
1008.948	407.39
1009.242	410.78
1009.535	411.46
1009.829	418.46
1010.122	389.76
1010.415	416.88
1010.708	385.7
1011.001	394.51
1011.295	393.38
1011.588	407.62
1011.881	396.09
1012.173	390.44
1012.466	387.28
1012.759	389.31
1013.052	395.64
1013.344	383.66
1013.637	405.36
1013.93	364.45
1014.222	388.18
1014.514	390.22
1014.807	380.95
1015.099	390.67
1015.391	385.02
1015.683	355.87
1015.976	383.66
1016.268	406.03
1016.56	421.85
1016.851	387.73
1017.143	391.12
1017.435	385.24
1017.727	377.33
1018.018	368.07
1018.31	378.92
1018.602	391.12
1018.893	396.77
1019.185	381.4
1019.476	382.08
1019.767	393.61
1020.058	390.67
1020.35	380.05
1020.641	379.59
1020.932	379.37
1021.223	375.75
1021.514	365.81
1021.804	386.15
1022.095	392.48
1022.386	382.08
1022.677	380.27
1022.967	367.84
1023.258	380.95
1023.548	408.07
1023.839	347.96
1024.129	365.58
1024.419	383.21
1024.709	367.84
1025	378.92
1025.29	376.66
1025.58	375.3
1025.87	372.82
1026.16	375.53
1026.449	377.11
1026.739	362.65
1027.029	357.9
1027.319	378.24
1027.608	356.32
1027.898	358.58
1028.187	365.58
1028.477	378.24
1028.766	357
1029.055	384.57
1029.344	349.09
1029.634	351.35
1029.923	379.37
1030.212	360.16
1030.501	347.05
1030.79	375.07
1031.078	371.01
1031.367	359.03
1031.656	356.77
1031.945	337.34
1032.233	346.83
1032.522	349.09
1032.81	368.75
1033.099	365.81
1033.387	366.49
1033.675	368.07
1033.963	353.83
1034.251	374.85
1034.54	348.41
1034.828	380.72
1035.116	351.8
1035.403	354.74
1035.691	340.5
1035.979	368.97
1036.267	343.66
1036.554	354.96
1036.842	332.36
1037.129	338.69
1037.417	357.45
1037.704	364.91
1037.992	373.94
1038.279	355.87
1038.566	349.31
1038.853	349.31
1039.14	349.31
