Data from foam2_polystyrene_foam_FLMS001491_00066.txt Node
Date: Wed Feb 08 10:58:20 GMT 2017
User: dcchb
Spectrometer: FLMS00149
Trigger mode: 0
Integration Time (sec): 2.000000E-2
Scans to average: 10
Electric dark correction enabled: true
Nonlinearity correction enabled: false
Boxcar width: 0
XAxis mode: Wavelengths
Number of Pixels in Spectrum: 2048
>>>>>Begin Spectral Data<<<<<
341.393	-17.23
341.776	-17.23
342.16	-17.23
342.543	-50
342.927	-68.08
343.31	-54.29
343.693	-78.02
344.077	-46.83
344.46	-49.32
344.843	-65.59
345.226	-50.45
345.61	-33.5
345.993	-23.33
346.376	1.07
346.759	4.24
347.142	19.15
347.525	28.87
347.908	43.33
348.291	77
348.674	92.14
349.057	135.53
349.44	131.69
349.823	143.44
350.206	166.49
350.588	185.7
350.971	209.2
351.354	235.42
351.737	241.75
352.119	256.43
352.502	266.38
352.884	276.32
353.267	250.78
353.65	297.56
354.032	307.96
354.414	313.61
354.797	315.19
355.179	320.84
355.562	333.72
355.944	325.36
356.326	348.86
356.709	337.79
357.091	316.09
357.473	346.83
357.855	334.62
358.238	354.74
358.62	337.11
359.002	330.33
359.384	356.09
359.766	353.38
360.148	346.83
360.53	343.89
360.912	348.41
361.294	344.34
361.676	370.1
362.057	363.1
362.439	326.94
362.821	340.5
363.203	352.25
363.584	342.99
363.966	343.44
364.348	344.79
364.729	321.07
365.111	336.88
365.493	316.32
365.874	323.55
366.256	321.52
366.637	324.91
367.019	332.14
367.4	326.26
367.781	338.69
368.163	339.14
368.544	331.23
368.925	335.53
369.306	336.88
369.688	344.79
370.069	350.89
370.45	326.71
370.831	339.37
371.212	363.78
371.593	338.24
371.974	337.56
372.355	340.27
372.736	350.22
373.117	351.12
373.498	372.36
373.879	350.44
374.26	333.49
374.641	345.92
375.021	344.57
375.402	349.54
375.783	353.83
376.163	362.42
376.544	361.97
376.925	370.33
377.305	349.09
377.686	355.87
378.066	377.56
378.447	375.3
378.827	368.75
379.208	377.11
379.588	386.83
379.968	385.47
380.349	371.69
380.729	366.71
381.109	387.28
381.489	407.84
381.87	383.44
382.25	398.13
382.63	399.71
383.01	404.9
383.39	397.45
383.77	380.95
384.15	405.81
384.53	392.25
384.91	388.63
385.29	398.58
385.67	394.96
386.049	411.23
386.429	415.07
386.809	441.74
387.189	432.47
387.568	420.5
387.948	408.52
388.328	432.7
388.707	420.95
389.087	415.3
389.466	436.77
389.846	462.98
390.225	436.77
390.605	426.82
390.984	457.56
391.363	451.01
391.743	457.33
392.122	439.25
392.501	458.01
392.881	479.48
393.26	449.88
393.639	442.64
394.018	469.31
394.397	483.32
394.776	462.3
395.155	460.04
395.534	470.21
395.913	497.78
396.292	497.56
396.671	497.56
397.05	483.32
397.429	508.18
397.808	521.74
398.186	500.95
398.565	500.27
398.944	498.24
399.323	511.79
399.701	493.94
400.08	512.02
400.458	524.68
400.837	524.22
401.215	503.21
401.594	549.08
401.972	547.05
402.351	536.88
402.729	540.72
403.107	529.2
403.486	547.73
403.864	553.83
404.242	546.37
404.62	561.96
404.999	585.24
405.377	564.22
405.755	554.51
406.133	597.89
406.511	579.59
406.889	606.93
407.267	595.41
407.645	594.5
408.023	619.36
408.401	612.81
408.779	614.16
409.156	623.88
409.534	638.57
409.912	642.41
410.29	653.03
410.667	641.28
411.045	660.27
411.422	659.36
411.8	665.91
412.178	669.98
412.555	676.76
412.933	705.46
413.31	677.89
413.687	685.58
414.065	709.98
414.442	702.52
414.819	721.51
415.197	721.05
415.574	713.6
415.951	738.68
416.328	722.18
416.705	747.95
417.082	757.89
417.46	735.07
417.837	760.83
418.214	754.73
418.591	769.64
418.967	789.75
419.344	766.93
419.721	797.44
420.098	778.23
420.475	789.08
420.852	791.79
421.228	803.99
421.605	784.56
421.982	813.03
422.358	840.83
422.735	825.68
423.111	832.01
423.488	852.8
423.864	872.24
424.241	865.68
424.617	872.24
424.994	882.86
425.37	874.04
425.746	876.76
426.123	897.55
426.499	924.89
426.875	913.82
427.251	931.22
427.627	952.46
428.003	942.29
428.379	950.43
428.756	956.53
429.132	993.36
429.507	985
429.883	1018.45
430.259	1008.96
430.635	1018.67
431.011	1036.07
431.387	1074.94
431.763	1071.1
432.138	1059.12
432.514	1087.82
432.89	1082.17
433.265	1151.1
433.641	1114.04
434.016	1095.73
434.392	1135.28
434.767	1156.52
435.143	1152.68
435.518	1188.16
435.894	1189.29
436.269	1200.59
436.644	1204.43
437.02	1219.12
437.395	1234.04
437.77	1249.18
438.145	1267.48
438.52	1227.93
438.895	1277.65
439.271	1291.89
439.646	1328.5
440.021	1331.66
440.395	1296.41
440.77	1333.69
441.145	1337.76
441.52	1364.43
441.895	1367.82
442.27	1356.97
442.645	1375.05
443.019	1420.25
443.394	1402.62
443.769	1455.5
444.143	1399.23
444.518	1467.7
444.892	1448.72
445.267	1455.5
445.641	1480.81
446.016	1489.4
446.39	1483.52
446.764	1514.48
447.139	1468.61
447.513	1522.39
447.887	1536.63
448.262	1541.15
448.636	1534.59
449.01	1580.92
449.384	1566.46
449.758	1580.92
450.132	1617.98
450.506	1636.06
450.88	1598.55
451.254	1651.65
451.628	1633.57
452.002	1655.72
452.376	1665.44
452.75	1693.23
453.123	1723.06
453.497	1711.99
453.871	1766.45
454.244	1751.99
454.618	1772.33
454.992	1813.68
455.365	1764.19
455.739	1820.23
456.112	1860.01
456.486	1854.81
456.859	1889.84
457.232	1940.91
457.606	1896.16
457.979	1907.24
458.352	1970.29
458.725	1970.74
459.099	1982.49
459.472	2003.05
459.845	2020.23
460.218	2045.09
460.591	2064.52
460.964	2056.16
461.337	2112.2
461.71	2133.9
462.083	2199.43
462.456	2179.1
462.829	2164.41
463.201	2188.81
463.574	2227.91
463.947	2221.58
464.32	2314.01
464.692	2302.71
465.065	2307.91
465.438	2341.35
465.81	2357.85
466.183	2409.37
466.555	2407.79
466.928	2395.13
467.3	2468.13
467.672	2501.57
468.045	2516.04
468.417	2524.62
468.789	2556.03
469.161	2584.73
469.534	2629.93
469.906	2667.9
470.278	2696.14
470.65	2699.31
471.022	2801.68
471.394	2845.52
471.766	2857.5
472.138	2847.78
472.51	2923.03
472.882	2977.94
473.253	2979.53
473.625	3015.91
473.997	3100.2
474.369	3098.17
474.74	3109.69
475.112	3201.67
475.484	3210.03
475.855	3252.74
476.227	3307.88
476.598	3350.59
476.97	3448.89
477.341	3485.73
477.713	3580.19
478.084	3542.9
478.455	3604.37
478.827	3659.51
479.198	3749.22
479.569	3741.77
479.94	3879.84
480.311	3883.46
480.682	3985.83
481.053	4040.97
481.424	4145.82
481.795	4160.29
482.166	4203.22
482.537	4273.28
482.908	4345.59
483.279	4395.31
483.65	4452.26
484.021	4534.06
484.391	4591.24
484.762	4618.35
485.133	4676.2
485.503	4711.23
485.874	4820.83
486.244	4860.15
486.615	4949.87
486.985	5018.57
487.356	5136.53
487.726	5134.05
488.097	5217.43
488.467	5184.67
488.837	5365.9
489.207	5400.93
489.578	5448.84
489.948	5527.71
490.318	5606.8
490.688	5692.68
491.058	5749.62
491.428	5792.11
491.798	5875.27
492.168	5982.39
492.538	6012.44
492.908	6033.23
493.278	6121.36
493.648	6143.51
494.017	6238.65
494.387	6221.02
494.757	6349.83
495.126	6374.47
495.496	6430.51
495.866	6513.22
496.235	6553.22
496.605	6595.02
496.974	6624.18
497.344	6695.59
497.713	6717.96
498.082	6815.36
498.452	6839.99
498.821	6874.34
499.19	6928.35
499.559	6964.05
499.928	7039.98
500.298	7055.35
500.667	7169.92
501.036	7161.34
501.405	7224.61
501.774	7253.31
502.143	7354.78
502.512	7292.41
502.88	7431.16
503.249	7453.76
503.618	7437.94
503.987	7530.59
504.356	7589.8
504.724	7584.6
505.093	7658.05
505.462	7717.48
505.83	7803.35
506.199	7820.53
506.567	7985.72
506.936	7970.58
507.304	8049.22
507.672	8083.35
508.041	8155.21
508.409	8197.47
508.777	8244.7
509.145	8289.44
509.514	8314.3
509.882	8420.06
510.25	8396.33
510.618	8478.59
510.986	8551.58
511.354	8622.77
511.722	8703.67
512.09	8769.66
512.458	8780.5
512.826	8853.95
513.193	8912.03
513.561	8942.53
513.929	9017.33
514.297	9072.7
514.664	9120.16
515.032	9157.44
515.4	9247.38
515.767	9259.14
516.135	9395.4
516.502	9323.31
516.869	9516.3
517.237	9624.32
517.604	9542.29
517.972	9662.29
518.339	9722.63
518.706	9760.14
519.073	9829.52
519.44	9919
519.808	10022.96
520.175	9984.31
520.542	10152.22
520.909	10197.64
521.276	10254.36
521.643	10307.47
522.009	10396.96
522.376	10470.18
522.743	10595.15
523.11	10678.31
523.477	10760.79
523.843	10794.69
524.21	10944.74
524.577	11055.7
524.943	11080.56
525.31	11137.28
525.676	11209.14
526.043	11286.65
526.409	11269.7
526.776	11527.1
527.142	11531.62
527.508	11667.43
527.874	11753.31
528.241	11744.27
528.607	11763.02
528.973	11926.86
529.339	11886.64
529.705	12054.77
530.071	12142.22
530.437	12188.1
530.803	12276.23
531.169	12347.64
531.535	12351.94
531.901	12408.2
532.267	12405.94
532.632	12546.96
532.998	12568.2
533.364	12672.38
533.73	12710.57
534.095	12829.21
534.461	12837.35
534.826	12978.59
535.192	12961.18
535.557	12977.46
535.923	13039.15
536.288	13119.15
536.653	13052.71
537.019	13213.38
537.384	13322.31
537.749	13349.2
538.114	13384.45
538.479	13405.01
538.845	13420.83
539.21	13507.84
539.575	13595.52
539.94	13573.6
540.305	13729.53
540.67	13626.7
541.034	13700.6
541.399	13901.05
541.764	13824.89
542.129	13917.32
542.494	13973.14
542.858	14074.38
543.223	14039.57
543.587	14110.98
543.952	14147.59
544.316	14099.01
544.681	14148.72
545.045	14291.55
545.41	14349.85
545.774	14317.08
546.138	14403.63
546.503	14442.28
546.867	14424.42
547.231	14657.86
547.595	14657.64
547.959	14665.55
548.324	14695.6
548.688	14869.38
549.052	14773.11
549.416	14865.99
549.779	14857.41
550.143	14856.05
550.507	15017.4
550.871	15147.79
551.235	15058.08
551.599	15247.68
551.962	15256.27
552.326	15216.27
552.689	15409.71
553.053	15289.94
553.417	15390.95
553.78	15554.34
554.143	15515.24
554.507	15667.33
554.87	15787.55
555.234	15855.8
555.597	15801.56
555.96	15877.04
556.323	15937.15
556.686	15962.01
557.05	16171.04
557.413	16123.59
557.776	16198.39
558.139	16309.57
558.502	16308.44
558.865	16414.43
559.228	16523.12
559.59	16627.3
559.953	16554.76
560.316	16771.25
560.679	16818.03
561.041	16906.17
561.404	17053.96
561.767	17118.36
562.129	17105.93
562.492	17241.52
562.854	17179.83
563.217	17312.93
563.579	17338.92
563.941	17469.09
564.304	17545.47
564.666	17681.51
565.028	17610.33
565.39	17821.4
565.753	17891.22
566.115	17882.86
566.477	18029.53
566.839	18052.58
567.201	18172.57
567.563	18163.53
567.925	18321.27
568.287	18317.88
568.648	18405.11
569.01	18535.05
569.372	18583.86
569.734	18615.5
570.095	18605.33
570.457	18768.04
570.819	18842.16
571.18	18846.23
571.542	18916.96
571.903	19016.62
572.265	19125.77
572.626	19090.74
572.987	19210.29
573.349	19261.36
573.71	19321.7
574.071	19356.04
574.432	19494.12
574.794	19507.91
575.155	19538.19
575.516	19521.69
575.877	19588.58
576.238	19635.13
576.599	19655.92
576.96	19722.14
577.32	19799.2
577.681	19903.6
578.042	19770.72
578.403	19824.96
578.763	19891.4
579.124	20010.49
579.485	20131.84
579.845	20071.51
580.206	20056.37
580.566	20033.77
580.927	20170.71
581.287	20158.74
581.648	20081.45
582.008	20146.31
582.368	20159.19
582.728	20266.76
583.089	20190.83
583.449	20132.07
583.809	20241.22
584.169	20270.6
584.529	20149.24
584.889	20317.15
585.249	20295.23
585.609	20181.79
585.969	20358.28
586.329	20170.94
586.688	20269.02
587.048	20441.89
587.408	20253.2
587.768	20223.14
588.127	20308.11
588.487	20327.32
588.846	20367.32
589.206	20250.71
589.565	20255.23
589.925	20381.1
590.284	20302.01
590.643	20407.77
591.003	20384.04
591.362	20448.45
591.721	20268.34
592.08	20379.07
592.44	20390.59
592.799	20461.55
593.158	20373.65
593.517	20287.55
593.876	20529.35
594.235	20447.54
594.593	20511.27
594.952	20495.45
595.311	20434.89
595.67	20436.47
596.029	20556.01
596.387	20469.69
596.746	20626.97
597.104	20501.78
597.463	20533.19
597.822	20655.67
598.18	20516.92
598.538	20606.86
598.897	20635.33
599.255	20483.7
599.613	20752.39
599.972	20640.08
600.33	20664.48
600.688	20638.5
601.046	20638.27
601.404	20817.7
601.762	20624.71
602.12	20727.08
602.478	20716.91
602.836	20872.39
603.194	20612.51
603.552	20752.39
603.91	20630.59
604.268	20747.65
604.625	20757.36
604.983	20829.9
605.341	20809.34
605.698	20881.2
606.056	20808.89
606.413	20854.31
606.771	20937.02
607.128	20959.84
607.485	20831.26
607.843	20806.63
608.2	20929.79
608.557	21070.8
608.914	20896.8
609.272	21059.05
609.629	21123.91
609.986	21188.54
610.343	21158.48
610.7	21193.28
611.057	21174.53
611.414	21107.19
611.771	21179.27
612.127	21217.69
612.484	21178.82
612.841	21247.52
613.198	21276.67
613.554	21251.59
613.911	21336.78
614.267	21408.19
614.624	21338.14
614.98	21409.78
615.337	21417.91
615.693	21377.91
616.05	21442.09
616.406	21594.18
616.762	21396.44
617.118	21443.67
617.475	21537.91
617.831	21537.91
618.187	21524.58
618.543	21563.67
618.899	21625.82
619.255	21551.02
619.611	21542.65
619.967	21664.91
620.323	21675.31
620.678	21628.98
621.034	21543.78
621.39	21695.42
621.746	21442.09
622.101	21895.64
622.457	21652.26
622.812	21685.7
623.168	21724.57
623.523	21698.58
623.879	21644.12
624.234	21514.63
624.589	21657
624.945	21627.4
625.3	21674.85
625.655	21619.94
626.01	21598.7
626.365	21602.77
626.72	21631.01
627.075	21619.71
627.43	21665.81
627.785	21528.87
628.14	21659.26
628.495	21649.32
628.85	21566.61
629.205	21535.2
629.559	21619.26
629.914	21507.17
630.269	21480.51
630.623	21385.82
630.978	21386.95
631.332	21531.13
631.687	21482.99
632.041	21406.84
632.396	21515.99
632.75	21285.94
633.104	21332.72
633.459	21252.94
633.813	21292.49
634.167	21245.49
634.521	21276.67
634.875	21200.74
635.229	21257.24
635.583	21064.02
635.937	21128.43
636.291	21078.26
636.645	21061.08
636.999	21016.34
637.352	21057.92
637.706	20834.2
638.06	20960.07
638.413	20819.74
638.767	20776.12
639.121	20894.54
639.474	20758.04
639.828	20728.21
640.181	20791.71
640.534	20851.15
640.888	20650.02
641.241	20644.15
641.594	20699.06
641.947	20717.36
642.301	20671.04
642.654	20602.11
643.007	20535.22
643.36	20503.36
643.713	20563.7
644.066	20580.87
644.419	20522.34
644.771	20272.18
645.124	19990.15
645.477	19930.94
645.83	19854.79
646.182	19884.39
646.535	19769.82
646.888	19869.93
647.24	19754.9
647.593	19955.8
647.945	19886.88
648.298	19728.92
648.65	19718.07
649.002	19594.91
649.355	19637.85
649.707	19561.69
650.059	19640.56
650.411	19810.04
650.763	19816.15
651.115	20050.72
651.467	19896.14
651.819	19966.2
652.171	19848.24
652.523	19966.65
652.875	19860.44
653.227	19754.9
653.578	19874.68
653.93	19801.23
654.282	19632.42
654.633	19588.58
654.985	19749.48
655.337	19782.02
655.688	19706.54
656.039	19745.86
656.391	19611.86
656.742	19694.11
657.094	19664.51
657.445	19712.65
657.796	19625.87
658.147	19632.65
658.498	19513.33
658.849	19592.2
659.2	19613.89
659.551	19546.32
659.902	19590.16
660.253	19549.03
660.604	19502.48
660.955	19475.59
661.306	19498.19
661.656	19497.51
662.007	19486.21
662.358	19420.22
662.708	19393.78
663.059	19363.73
663.409	19302.71
663.76	19511.07
664.11	19389.26
664.461	19417.29
664.811	19305.42
665.161	19366.44
665.511	19274.69
665.862	19277.18
666.212	19291.87
666.562	19356.27
666.912	19249.15
667.262	19298.65
667.612	19276.27
667.962	19289.38
668.312	19230.85
668.662	19358.08
669.011	19247.8
669.361	19234.92
669.711	19234.24
670.06	19176.84
670.41	19132.1
670.76	19073.11
671.109	19099.33
671.459	19131.64
671.808	19140.23
672.157	19081.93
672.507	19006.22
672.856	19022.27
673.205	19060.23
673.554	19114.92
673.904	18994.92
674.253	19005.09
674.602	18969.16
674.951	18807.81
675.3	18674.93
675.649	19011.2
675.998	18925.77
676.346	18951.08
676.695	18962.38
677.044	18892.33
677.393	18963.29
677.741	18908.6
678.09	18828.83
678.438	18804.87
678.787	18760.58
679.135	18830.86
679.484	18704.08
679.832	18760.58
680.181	18673.8
680.529	18687.59
680.877	18594.48
681.225	18554.03
681.573	18743.41
681.922	18592.67
682.27	18451.89
682.618	18617.53
682.966	18411.21
683.314	18457.54
683.661	18406.47
684.009	18280.37
684.357	18314.72
684.705	18317.88
685.053	18270.42
685.4	18298.9
685.748	18199.24
686.095	18166.25
686.443	18060.03
686.79	18013.93
687.138	18150.65
687.485	18040.83
687.832	18088.06
688.18	17943.43
688.527	17889.64
688.874	17771.45
689.221	17891.9
689.568	17797.67
689.915	17657.11
690.262	17729.65
690.609	17653.26
690.956	17608.07
691.303	17615.98
691.65	17584.57
691.997	17540.5
692.344	17405.36
692.69	17376.44
693.037	17423.89
693.383	17279.49
693.73	17359.49
694.077	17160.62
694.423	17197.46
694.769	17124.46
695.116	17074.75
695.462	17078.59
695.808	17027.29
696.155	16980.74
696.501	16980.29
696.847	16905.04
697.193	16738.94
697.539	16762.21
697.885	16696.68
698.231	16685.61
698.577	16634.08
698.923	16611.48
699.269	16592.73
699.614	16479.96
699.96	16443.13
700.306	16462.79
700.651	16384.37
700.997	16296.92
701.342	16359.29
701.688	16248.56
702.033	16167.2
702.379	16171.04
702.724	16176.92
703.069	16110.48
703.415	15989.35
703.76	16087.88
704.105	15898.28
704.45	15891.05
704.795	15752.98
705.14	15804.73
705.485	15723.15
705.83	15719.53
706.175	15678.63
706.52	15642.47
706.865	15616.26
707.209	15677.05
707.554	15486.99
707.899	15610.38
708.243	15423.72
708.588	15419.65
708.932	15352.99
709.277	15403.83
709.621	15383.27
709.966	15236.61
710.31	15284.51
710.654	15220.33
710.998	15212.88
711.342	15178.98
711.687	15098.3
712.031	15079.77
712.375	15034.35
712.719	15000
713.063	14978.98
713.407	15042.94
713.75	14961.58
714.094	14955.93
714.438	14879.55
714.782	14891.76
715.125	14850.4
715.469	14780.35
715.812	14718.65
716.156	14666
716.499	14737.64
716.843	14701.25
717.186	14617.41
717.53	14697.86
717.873	14622.16
718.216	14614.7
718.559	14498.09
718.902	14417.64
719.246	14473.46
719.589	14357.08
719.932	14386.68
720.275	14331.77
720.617	14299.45
720.96	14278.66
721.303	14352.79
721.646	14239.8
721.989	14214.71
722.331	14160.93
722.674	14200.7
723.016	14196.18
723.359	14181.04
723.701	14108.27
724.044	14043.87
724.386	14031.66
724.729	14043.42
725.071	13992.12
725.413	14061.27
725.755	14015.62
726.097	13955.51
726.439	13861.73
726.782	13912.8
727.124	13952.8
727.465	13883.42
727.807	13872.12
728.149	13807.49
728.491	13770.65
728.833	13808.85
729.175	13664.44
729.516	13730.2
729.858	13649.3
730.199	13688.62
730.541	13688.4
730.882	13594.61
731.224	13706.7
731.565	13544.22
731.906	13588.29
732.248	13608.17
732.589	13544.45
732.93	13501.06
733.271	13492.92
733.612	13405.47
733.953	13557.1
734.294	13392.13
734.635	13344.45
734.976	13408.63
735.317	13336.32
735.658	13331.57
735.999	13316.66
736.339	13276.2
736.68	13350.1
737.021	13258.35
737.361	13234.17
737.702	13255.19
738.042	13177
738.383	13245.47
738.723	13209.77
739.063	13134.29
739.404	13104.91
739.744	13128.86
740.084	13079.83
740.424	13064.68
740.764	13018.58
741.104	13100.16
741.444	12957.57
741.784	12928.64
742.124	12942.65
742.464	12957.34
742.804	12963.22
743.143	12897.23
743.483	12896.78
743.823	12784.01
744.162	12794.41
744.502	12886.61
744.841	12737.91
745.181	12755.99
745.52	12755.09
745.86	12743.34
746.199	12804.58
746.538	12686.16
746.877	12751.92
747.216	12648.42
747.556	12621.53
747.895	12630.8
748.234	12537.24
748.573	12564.81
748.911	12553.51
749.25	12535.89
749.589	12494.98
749.928	12433.51
750.267	12499.95
750.605	12350.35
750.944	12333.4
751.283	12333.18
751.621	12356.23
751.96	12355.32
752.298	12358.26
752.636	12290.02
752.975	12230.81
753.313	12164.82
753.651	12193.97
753.989	12213.86
754.327	12172.05
754.666	12098.16
755.004	12108.78
755.342	12031.04
755.679	12093.86
756.017	11953.98
756.355	11980.87
756.693	11958.27
757.031	11944.49
757.368	11908.33
757.706	11902
758.044	11804.6
758.381	11780.88
758.719	11743.59
759.056	11782.46
759.394	11696.36
759.731	11629.02
760.068	11624.04
760.405	11596.47
760.743	11553.31
761.08	11607.32
761.417	11513.77
761.754	11484.16
762.091	11474.67
762.428	11431.51
762.765	11333.66
763.102	11313.09
763.438	11239.42
763.775	11304.28
764.112	11350.83
764.449	11246.43
764.785	11177.95
765.122	11066.32
765.458	11083.49
765.795	11094.12
766.131	11033.33
766.467	11022.25
766.804	10970.73
767.14	10917.17
767.476	10933.89
767.812	10830.62
768.148	10787.46
768.485	10803.95
768.821	10723.5
769.157	10658.87
769.492	10703.39
769.828	10718.08
770.164	10568.48
770.5	10507.69
770.836	10503.85
771.171	10473.11
771.507	10464.3
771.842	10385.66
772.178	10392.89
772.513	10387.47
772.849	10351.31
773.184	10288.94
773.519	10256.62
773.855	10283.06
774.19	10233.57
774.525	10168.04
774.86	10149.28
775.195	10163.97
775.53	10111.09
775.865	10055.27
776.2	10007.14
776.535	9977.53
776.87	9944.54
777.205	9843.53
777.539	9886.01
777.874	9816.86
778.209	9795.17
778.543	9796.07
778.878	9677.66
779.212	9684.21
779.547	9657.99
779.881	9641.05
780.215	9561.5
780.55	9607.15
780.884	9411.22
781.218	9477.43
781.552	9518.79
781.886	9459.36
782.22	9399.24
782.554	9392.46
782.888	9317.89
783.222	9247.84
783.556	9225.24
783.889	9235.86
784.223	9175.97
784.557	9125.81
784.89	9105.24
785.224	9077.22
785.557	9039.03
785.891	8975.75
786.224	8958.58
786.558	8967.84
786.891	8909.09
787.224	8898.92
787.557	8839.49
787.891	8782.99
788.224	8815.53
788.557	8832.93
788.89	8741.86
789.223	8861.18
789.556	8675.65
789.888	8668.19
790.221	8625.03
790.554	8583.45
790.887	8618.7
791.219	8514.97
791.552	8559.04
791.884	8471.81
792.217	8490.34
792.549	8416.9
792.882	8432.04
793.214	8366.28
793.546	8390.23
793.879	8368.09
794.211	8305.71
794.543	8340.74
794.875	8272.95
795.207	8312.27
795.539	8241.53
795.871	8159.28
796.203	8185.72
796.535	8059.62
796.867	8132.39
797.198	8025.72
797.53	8084.7
797.862	7982.33
798.193	7999.73
798.525	7952.73
798.856	7980.52
799.188	7883.35
799.519	7906.63
799.85	7823.01
800.182	7816.46
800.513	7830.25
800.844	7756.8
801.175	7797.7
801.506	7731.49
801.837	7702.34
802.168	7677.03
802.499	7686.07
802.83	7613.3
803.161	7635.9
803.491	7637.93
803.822	7641.78
804.153	7489.92
804.483	7566.07
804.814	7558.16
805.145	7493.31
805.475	7446.08
805.805	7445.4
806.136	7431.84
806.466	7481.78
806.796	7389.81
807.126	7356.13
807.457	7312.97
807.787	7339.19
808.117	7296.47
808.447	7273.88
808.777	7273.42
809.107	7267.1
809.436	7276.36
809.766	7171.73
810.096	7149.36
810.426	7152.98
810.755	7185.74
811.085	7176.48
811.414	7093.77
811.744	7081.57
812.073	7066.65
812.403	7046.99
812.732	7045.18
813.061	7038.4
813.39	7013.77
813.719	7006.99
814.049	6990.27
814.378	7005.41
814.707	6945.75
815.036	6931.96
815.365	6869.59
815.693	6826.88
816.022	6908.69
816.351	6851.06
816.68	6825.98
817.008	6861.91
817.337	6797.5
817.665	6799.54
817.994	6749.82
818.322	6813.55
818.651	6756.15
818.979	6726.09
819.307	6744.4
819.636	6664.18
819.964	6687.23
820.292	6679.54
820.62	6643.38
820.948	6654.68
821.276	6658.3
821.604	6662.82
821.932	6675.02
822.259	6580.79
822.587	6651.52
822.915	6614.23
823.243	6625.76
823.57	6564.52
823.898	6574.01
824.225	6592.31
824.553	6581.47
824.88	6623.95
825.207	6628.7
825.535	6605.87
825.862	6584.86
826.189	6591.86
826.516	6627.34
826.843	6601.35
827.17	6585.76
827.497	6594.57
827.824	6621.92
828.151	6622.37
828.478	6566.78
828.805	6637.28
829.131	6599.32
829.458	6552.09
829.785	6526.55
830.111	6599.09
830.438	6612.65
830.764	6584.18
831.09	6558.64
831.417	6553.67
831.743	6589.15
832.069	6585.99
832.395	6510.96
832.722	6536.95
833.048	6548.47
833.374	6506.89
833.7	6518.19
834.026	6506.44
834.351	6605.87
834.677	6515.03
835.003	6545.31
835.329	6494.46
835.654	6510.05
835.98	6468.7
836.306	6511.18
836.631	6472.99
836.956	6523.84
837.282	6523.16
837.607	6423.5
837.932	6437.29
838.258	6466.67
838.583	6419.66
838.908	6437.97
839.233	6430.96
839.558	6370.85
839.883	6362.26
840.208	6376.95
840.533	6325.88
840.858	6345.54
841.182	6354.35
841.507	6335.82
841.832	6266.67
842.156	6296.5
842.481	6251.53
842.805	6269.38
843.13	6327.91
843.454	6248.14
843.778	6193
844.103	6221.02
844.427	6190.06
844.751	6172.44
845.075	6114.13
845.399	6149.16
845.723	6126.79
846.047	6124.98
846.371	6081.82
846.695	6085.89
847.019	6009.28
847.343	6041.37
847.666	6001.59
847.99	5961.59
848.313	5974.25
848.637	5942.16
848.96	5949.17
849.284	5847.7
849.607	5818.55
849.931	5843.18
850.254	5799.11
850.577	5818.1
850.9	5748.72
851.223	5756.18
851.546	5694.26
851.869	5663.07
852.192	5683.86
852.515	5635.95
852.838	5651.09
853.161	5631.21
853.483	5594.15
853.806	5572.68
854.129	5617.65
854.451	5590.76
854.774	5505.34
855.096	5577.65
855.419	5478.22
855.741	5485
856.063	5489.97
856.385	5440.93
856.708	5440.7
857.03	5399.12
857.352	5429.86
857.674	5382.63
857.996	5301.73
858.318	5351.44
858.64	5347.37
858.961	5291.56
859.283	5331.55
859.605	5287.26
859.926	5319.58
860.248	5279.35
860.57	5230.54
860.891	5232.35
861.212	5190.54
861.534	5240.94
861.855	5266.92
862.176	5200.71
862.498	5180.6
862.819	5230.77
863.14	5204.55
863.461	5153.25
863.782	5157.1
864.103	5166.14
864.424	5141.05
864.745	5114.84
865.065	5085.91
865.386	5128.4
865.707	5099.7
866.027	5117.1
866.348	5082.97
866.668	5106.93
866.989	5020.15
867.309	5042.97
867.63	5028.96
867.95	5035.07
868.27	5051.11
868.59	5032.81
868.91	5037.55
869.23	5012.69
869.55	4986.48
869.87	5009.3
870.19	4968.4
870.51	5017.21
870.83	4968.17
871.15	4910.32
871.469	4956.88
871.789	4970.21
872.109	4943.09
872.428	4937.44
872.748	4918.23
873.067	4962.3
873.386	4926.82
873.706	4942.86
874.025	4867.61
874.344	4890.66
874.663	4865.35
874.982	4866.03
875.301	4853.38
875.62	4871.68
875.939	4831.91
876.258	4821.74
876.577	4845.01
876.896	4838.69
877.214	4822.64
877.533	4793.26
877.852	4793.26
878.17	4808.4
878.489	4771.8
878.807	4759.59
879.125	4794.39
879.444	4764.34
879.762	4781.51
880.08	4749.2
880.398	4706.71
880.716	4773.15
881.034	4665.13
881.352	4737.22
881.67	4684.57
881.988	4726.6
882.306	4683.66
882.624	4681.63
882.941	4636.66
883.259	4624.23
883.577	4641.86
883.894	4648.63
884.212	4636.88
884.529	4650.22
884.846	4614.96
885.164	4609.09
885.481	4604.57
885.798	4552.59
886.115	4546.49
886.432	4522.31
886.75	4505.59
887.067	4558.24
887.383	4525.93
887.7	4534.51
888.017	4517.56
888.334	4530.9
888.651	4478.7
888.967	4472.82
889.284	4440.5
889.6	4456.78
889.917	4450.67
890.233	4387.17
890.55	4397.34
890.866	4396.21
891.182	4409.09
891.498	4369.09
891.815	4383.11
892.131	4389.43
892.447	4364.8
892.763	4338.59
893.079	4312.15
893.395	4351.24
893.71	4270.79
894.026	4260.4
894.342	4282.54
894.657	4205.26
894.973	4212.04
895.289	4254.52
895.604	4211.81
895.92	4166.39
896.235	4188.53
896.55	4158.03
896.865	4190.34
897.181	4159.61
897.496	4168.42
897.811	4136.78
898.126	4091.14
898.441	4079.38
898.756	4111.7
899.071	4052.72
899.386	4112.83
899.7	4047.29
900.015	3980.63
900.33	4001.42
900.644	4000.06
900.959	3998.03
901.273	3955.77
901.588	3955.77
901.902	3919.61
902.216	3934.98
902.531	3927.07
902.845	3949.9
903.159	3899.73
903.473	3913.29
903.787	3875.32
904.101	3850.01
904.415	3848.2
904.729	3871.48
905.042	3805.95
905.356	3798.04
905.67	3774.31
905.984	3781.76
906.297	3770.47
906.611	3750.35
906.924	3752.61
907.237	3730.01
907.551	3693.41
907.864	3678.49
908.177	3677.81
908.491	3660.64
908.804	3663.58
909.117	3646.18
909.43	3648.66
909.743	3651.6
910.056	3591.04
910.368	3617.93
910.681	3573.86
910.994	3559.85
911.307	3509.68
911.619	3527.08
911.932	3522.11
912.244	3504.26
912.557	3533.18
912.869	3463.81
913.181	3483.02
913.494	3484.82
913.806	3423.13
914.118	3433.53
914.43	3431.49
914.742	3424.26
915.054	3429.46
915.366	3395.56
915.678	3379.97
915.99	3376.8
916.302	3328.22
916.613	3322.79
916.925	3321.21
917.236	3332.96
917.548	3258.84
917.859	3264.72
918.171	3265.85
918.482	3258.16
918.794	3187.66
919.105	3230.82
919.416	3236.47
919.727	3180.65
920.038	3202.8
920.349	3182.46
920.66	3144.04
920.971	3124.38
921.282	3161.22
921.593	3128.45
921.903	3102.46
922.214	3106.75
922.525	3074.89
922.835	3066.08
923.146	3083.48
923.456	3057.94
923.767	3027.43
924.077	3038.06
924.387	2996.02
924.697	3011.16
925.008	3015.91
925.318	2972.07
925.628	2960.77
925.938	2937.72
926.248	2929.81
926.558	2925.06
926.867	2951.96
927.177	2854.11
927.487	2872.86
927.796	2903.37
928.106	2884.61
928.416	2858.63
928.725	2854.56
929.034	2833.32
929.344	2835.12
929.653	2815.69
929.962	2823.37
930.271	2799.87
930.581	2799.42
930.89	2721.23
931.199	2714.22
931.508	2730.04
931.817	2738.18
932.125	2750.38
932.434	2757.39
932.743	2659.08
933.051	2668.8
933.36	2673.55
933.669	2666.09
933.977	2657.05
934.286	2628.12
934.594	2640.78
934.902	2610.95
935.21	2605.52
935.519	2586.32
935.827	2605.98
936.135	2570.95
936.443	2552.87
936.751	2547.9
937.059	2590.84
937.367	2544.28
937.674	2525.75
937.982	2497.96
938.29	2502.48
938.597	2479.43
938.905	2476.49
939.213	2444.62
939.52	2453.89
939.827	2471.74
940.135	2471.74
940.442	2404.4
940.749	2434
941.056	2438.75
941.363	2411.41
941.67	2410.5
941.977	2382.48
942.284	2403.5
942.591	2383.84
942.898	2364.18
943.205	2348.13
943.511	2337.06
943.818	2333.67
944.125	2305.65
944.431	2286.21
944.738	2279.21
945.044	2306.32
945.35	2290.5
945.657	2260.68
945.963	2270.39
946.269	2273.33
946.575	2279.66
946.881	2238.3
947.187	2242.6
947.493	2224.52
947.799	2226.1
948.105	2199.66
948.41	2198.53
948.716	2175.25
949.022	2172.54
949.327	2180
949.633	2180.23
949.938	2183.39
950.244	2161.24
950.549	2115.59
950.854	2150.17
951.16	2134.58
951.465	2137.74
951.77	2089.38
952.075	2113.79
952.38	2118.98
952.685	2080.34
952.99	2095.03
953.294	2061.58
953.599	2072.43
953.904	2056.16
954.209	2055.71
954.513	2040.34
954.818	2037.63
955.122	2027.91
955.426	2031.53
955.731	2019.55
956.035	2007.8
956.339	1979.33
956.643	1987.46
956.948	1951.53
957.252	1969.38
957.556	1973.22
957.86	1930.97
958.163	1969.84
958.467	1949.72
958.771	1929.61
959.075	1918.99
959.378	1926.9
959.682	1896.39
959.985	1903.4
960.289	1862.49
960.592	1895.71
960.896	1869.05
961.199	1870.4
961.502	1864.08
961.805	1845.32
962.108	1856.62
962.411	1817.07
962.714	1820.01
963.017	1816.84
963.32	1816.62
963.623	1804.19
963.926	1814.36
964.228	1820.46
964.531	1787.92
964.833	1773.23
965.136	1796.28
965.438	1778.2
965.741	1778.88
966.043	1728.71
966.345	1741.82
966.648	1737.3
966.95	1736.85
967.252	1683.06
967.554	1709.5
967.856	1732.78
968.158	1690.97
968.46	1693.91
968.761	1698.43
969.063	1693.23
969.365	1682.39
969.666	1688.26
969.968	1655.27
970.269	1663.4
970.571	1627.92
970.872	1655.04
971.174	1643.97
971.475	1635.38
971.776	1634.25
972.077	1610.75
972.378	1632.44
972.679	1631.99
972.98	1616.17
973.281	1591.09
973.582	1605.55
973.883	1589.28
974.183	1589.96
974.484	1567.59
974.785	1583.18
975.085	1571.43
975.386	1551.77
975.686	1545.89
975.986	1531.2
976.287	1524.88
976.587	1518.77
976.887	1505.67
977.187	1500.47
977.487	1532.56
977.787	1492.11
978.087	1481.94
978.387	1485.33
978.687	1480.13
978.987	1500.02
979.286	1495.72
979.586	1467.25
979.885	1478.77
980.185	1461.15
980.484	1447.59
980.784	1438.1
981.083	1474.48
981.382	1443.97
981.682	1447.36
981.981	1428.83
982.28	1396.97
982.579	1406.23
982.878	1424.54
983.177	1420.25
983.475	1410.98
983.774	1389.96
984.073	1388.38
984.372	1387.7
984.67	1363.75
984.969	1363.98
985.267	1355.39
985.566	1372.79
985.864	1342.51
986.162	1361.72
986.461	1328.5
986.759	1340.47
987.057	1351.77
987.355	1318.55
987.653	1326.01
987.951	1321.26
988.249	1301.6
988.547	1330.3
988.844	1316.29
989.142	1303.19
989.44	1292.11
989.737	1304.77
990.035	1281.27
990.332	1296.63
990.63	1271.77
990.927	1286.69
991.224	1236.75
991.521	1235.84
991.819	1257.76
992.116	1252.11
992.413	1219.35
992.71	1226.8
993.006	1232.23
993.303	1230.19
993.6	1227.26
993.897	1221.38
994.193	1205.56
994.49	1218.89
994.787	1217.99
995.083	1216.18
995.379	1198.78
995.676	1197.65
995.972	1185
996.268	1151.1
996.565	1168.73
996.861	1197.43
997.157	1173.92
997.453	1132.8
997.749	1141.16
998.044	1147.03
998.34	1172.12
998.636	1142.29
998.932	1127.15
999.227	1137.54
999.523	1114.26
999.818	1126.92
1000.114	1130.54
1000.409	1123.3
1000.704	1124.89
1001	1119.46
1001.295	1113.59
1001.59	1079.24
1001.885	1079.69
1002.18	1075.4
1002.475	1066.81
1002.77	1067.94
1003.065	1063.19
1003.359	1080.59
1003.654	1064.77
1003.949	1069.75
1004.243	1063.42
1004.538	1057.54
1004.832	1053.7
1005.127	1019.58
1005.421	1010.31
1005.715	1025.45
1006.009	1033.81
1006.304	1024.55
1006.598	1011.89
1006.892	1013.48
1007.186	1001.05
1007.48	997.88
1007.773	969.86
1008.067	986.36
1008.361	989.97
1008.655	954.95
1008.948	962.63
1009.242	980.48
1009.535	972.35
1009.829	951.33
1010.122	972.35
1010.415	948.17
1010.708	934.38
1011.001	935.74
1011.295	948.62
1011.588	934.38
1011.881	928.28
1012.173	918.34
1012.466	925.57
1012.759	906.59
1013.052	923.99
1013.344	926.7
1013.637	925.34
1013.93	902.74
1014.222	920.15
1014.514	886.25
1014.807	886.7
1015.099	878.79
1015.391	880.37
1015.683	873.37
1015.976	875.4
1016.268	840.83
1016.56	864.78
1016.851	877.66
1017.143	865.46
1017.435	879.24
1017.727	855.74
1018.018	858.9
1018.31	838.34
1018.602	836.31
1018.893	836.53
1019.185	804.67
1019.476	830.66
1019.767	834.27
1020.058	798.11
1020.35	801.05
1020.641	810.77
1020.932	799.92
1021.223	801.73
1021.514	792.24
1021.804	786.59
1022.095	789.98
1022.386	770.09
1022.677	797.21
1022.967	782.52
1023.258	784.78
1023.548	757.89
1023.839	778.91
1024.129	751.11
1024.419	734.84
1024.709	745.69
1025	766.7
1025.29	735.29
1025.58	744.78
1025.87	749.3
1026.16	752.24
1026.449	731.22
1026.739	726.25
1027.029	715.18
1027.319	716.99
1027.608	716.31
1027.898	720.15
1028.187	714.5
1028.477	717.89
1028.766	688.51
1029.055	691.9
1029.344	697.78
1029.634	707.27
1029.923	698
1030.212	685.35
1030.501	688.29
1030.79	673.6
1031.078	665.24
1031.367	681.06
1031.656	676.31
1031.945	663.65
1032.233	653.94
1032.522	662.98
1032.81	652.36
1033.099	663.65
1033.387	646.03
1033.675	620.49
1033.963	656.88
1034.251	632.02
1034.54	628.63
1034.828	606.03
1035.116	622.53
1035.403	638.8
1035.691	641.73
1035.979	623.2
1036.267	641.73
1036.554	611.45
1036.842	606.71
1037.129	603.54
1037.417	614.62
1037.704	610.32
1037.992	605.35
1038.279	603.32
1038.566	609.42
1038.853	609.42
1039.14	609.42
