Data from foam_black_FLMS001491_00062.txt Node
Date: Wed Feb 08 10:44:24 GMT 2017
User: dcchb
Spectrometer: FLMS00149
Trigger mode: 0
Integration Time (sec): 2.000000E-2
Scans to average: 10
Electric dark correction enabled: true
Nonlinearity correction enabled: false
Boxcar width: 0
XAxis mode: Wavelengths
Number of Pixels in Spectrum: 2048
>>>>>Begin Spectral Data<<<<<
341.393	6.96
341.776	6.96
342.16	6.96
342.543	-64.45
342.927	-63.09
343.31	-71.9
343.693	-68.29
344.077	-56.54
344.46	-38.23
344.843	-44.56
345.226	-66.26
345.61	-15.41
345.993	-28.52
346.376	-22.87
346.759	10.13
347.142	10.58
347.525	41.09
347.908	60.97
348.291	77.24
348.674	113.4
349.057	99.16
349.44	125.6
349.823	138.49
350.206	165.15
350.588	172.83
350.971	201.31
351.354	208.99
351.737	231.82
352.119	223.23
352.502	243.57
352.884	268.43
353.267	251.25
353.65	277.01
354.032	256.67
354.414	303.23
354.797	301.19
355.179	280.18
355.562	295.09
355.944	314.98
356.326	300.51
356.709	309.55
357.091	298.93
357.473	324.92
357.855	337.8
358.238	310.91
358.62	325.6
359.002	323.11
359.384	308.42
359.766	311.14
360.148	321.76
360.53	325.37
360.912	308.65
361.294	301.19
361.676	328.31
362.057	312.94
362.439	320.18
362.821	303.9
363.203	316.79
363.584	303.9
363.966	312.04
364.348	315.43
364.729	276.33
365.111	318.82
365.493	287.86
365.874	308.88
366.256	328.08
366.637	287.86
367.019	294.19
367.4	290.57
367.781	316.33
368.163	313.4
368.544	299.84
368.925	322.66
369.306	305.03
369.688	304.58
370.069	295.54
370.45	292.38
370.831	303.9
371.212	290.8
371.593	292.38
371.974	298.48
372.355	304.36
372.736	295.32
373.117	300.29
373.498	287.63
373.879	300.29
374.26	295.77
374.641	306.84
375.021	291.25
375.402	289.67
375.783	293.96
376.163	307.52
376.544	323.56
376.925	323.56
377.305	306.16
377.686	294.19
378.066	303.68
378.447	323.79
378.827	304.36
379.208	307.29
379.588	318.59
379.968	330.57
380.349	325.6
380.729	317.01
381.109	315.88
381.489	326.05
381.87	326.95
382.25	307.07
382.63	316.11
383.01	319.5
383.39	324.24
383.77	328.54
384.15	333.51
384.53	324.69
384.91	320.18
385.29	330.34
385.67	325.6
386.049	322.44
386.429	320.18
386.809	323.79
387.189	331.25
387.568	331.02
387.948	329.44
388.328	320.18
388.707	313.62
389.087	344.81
389.466	328.99
389.846	345.49
390.225	361.3
390.605	347.52
390.984	346.39
391.363	322.66
391.743	311.59
392.122	353.39
392.501	361.3
392.881	328.76
393.26	350.23
393.639	355.43
394.018	337.8
394.397	349.1
394.776	347.97
395.155	344.58
395.534	348.42
395.913	349.1
396.292	360.63
396.671	350.23
397.05	342.55
397.429	348.2
397.808	373.28
398.186	382.77
398.565	375.09
398.944	358.59
399.323	364.02
399.701	379.16
400.08	358.37
400.458	379.61
400.837	375.09
401.215	366.73
401.594	372.6
401.972	359.04
402.351	346.84
402.729	361.53
403.107	372.38
403.486	371.7
403.864	389.1
404.242	364.24
404.62	391.36
404.999	380.74
405.377	373.28
405.755	383.22
406.133	393.85
406.511	364.47
406.889	387.29
407.267	391.81
407.645	385.03
408.023	399.27
408.401	404.01
408.779	428.42
409.156	407.86
409.534	384.58
409.912	399.04
410.29	432.49
410.667	392.04
411.045	417.57
411.422	420.29
411.8	398.82
412.178	409.66
412.555	446.27
412.933	411.25
413.31	429.32
413.687	418.7
414.065	429.55
414.442	419.61
414.819	429.78
415.197	432.71
415.574	466.84
415.951	442.43
416.328	442.43
416.705	456.67
417.082	437.23
417.46	439.04
417.837	456.67
418.214	443.56
418.591	436.1
418.967	455.54
419.344	436.33
419.721	461.64
420.098	469.32
420.475	452.38
420.852	469.1
421.228	481.75
421.605	465.93
421.982	460.28
422.358	470
422.735	450.12
423.111	475.88
423.488	477.46
423.864	466.84
424.241	500.51
424.617	479.04
424.994	485.37
425.37	492.15
425.746	483.56
426.123	488.76
426.499	492.83
426.875	508.87
427.251	512.49
427.627	501.41
428.003	499.38
428.379	529.21
428.756	524.69
429.132	526.95
429.507	527.85
429.883	538.47
430.259	531.92
430.635	531.7
431.011	524.92
431.387	541.86
431.763	556.33
432.138	539.38
432.514	544.12
432.89	548.19
433.265	538.93
433.641	575.76
434.016	555.65
434.392	558.59
434.767	569.89
435.143	552.49
435.518	584.8
435.894	576.44
436.269	561.98
436.644	588.64
437.02	595.2
437.395	580.06
437.77	588.19
438.145	595.65
438.52	596.33
438.895	606.04
439.271	630.22
439.646	609.43
440.021	583.9
440.395	602.2
440.77	601.3
441.145	607.17
441.52	641.52
441.895	617.12
442.27	627.29
442.645	623.22
443.019	655.53
443.394	640.62
443.769	635.2
444.143	615.53
444.518	659.15
444.892	655.76
445.267	650.79
445.641	657.79
446.016	654.63
446.39	644.23
446.764	644.69
447.139	635.87
447.513	659.83
447.887	680.39
448.262	660.96
448.636	671.8
449.01	686.72
449.384	700.05
449.758	699.37
450.132	667.28
450.506	699.15
450.88	710.9
451.254	680.84
451.628	691.92
452.002	693.27
452.376	706.38
452.75	713.39
453.123	729.88
453.497	729.2
453.871	714.74
454.244	732.14
454.618	719.03
454.992	743.21
455.365	750.67
455.739	732.14
456.112	728.75
456.486	761.97
456.859	779.15
457.232	759.49
457.606	767.85
457.979	776.21
458.352	794.29
458.725	820.5
459.099	795.42
459.472	815.53
459.845	837.22
460.218	828.64
460.591	813.95
460.964	820.73
461.337	828.64
461.71	855.08
462.083	857.11
462.456	857.56
462.829	840.61
463.201	878.8
463.574	857.56
463.947	856.21
464.32	895.53
464.692	907.73
465.065	931.23
465.438	921.74
465.81	923.55
466.183	919.71
466.555	941.18
466.928	968.07
467.3	937.33
467.672	962.87
468.045	970.1
468.417	957.22
468.789	975.75
469.161	978.46
469.534	1027.5
469.906	1008.52
470.278	1023.66
470.65	1030.21
471.022	1041.06
471.394	1077.67
471.766	1072.25
472.138	1072.47
472.51	1120.61
472.882	1121.96
473.253	1111.11
473.625	1128.29
473.997	1148.18
474.369	1131.23
474.74	1145.92
475.112	1143.88
475.484	1162.19
475.855	1201.51
476.227	1234.28
476.598	1240.83
476.97	1227.95
477.341	1258.68
477.713	1279.02
478.084	1288.96
478.455	1320.37
478.827	1300.04
479.198	1359.24
479.569	1338.68
479.94	1378.23
480.311	1363.54
480.682	1398.11
481.053	1433.37
481.424	1445.34
481.795	1441.95
482.166	1459.58
482.537	1497.32
482.908	1503.87
483.279	1523.99
483.65	1566.92
484.021	1551.33
484.391	1566.7
484.762	1605.57
485.133	1599.46
485.503	1620.48
485.874	1655.51
486.244	1639.46
486.615	1686.24
486.985	1699.35
487.356	1711.55
487.726	1706.13
488.097	1771.89
488.467	1770.76
488.837	1801.94
489.207	1791.32
489.578	1843.75
489.948	1880.36
490.318	1840.59
490.688	1879
491.058	1905.67
491.428	1912.22
491.798	1967.14
492.168	1977.08
492.538	1978.66
492.908	1961.49
493.278	2021.6
493.648	2001.49
494.017	2023.41
494.387	2057.3
494.757	2027.47
495.126	2087.36
495.496	2115.61
495.866	2103.63
496.235	2124.2
496.605	2170.97
496.974	2141.6
497.344	2163.29
497.713	2166.68
498.082	2171.65
498.452	2235.15
498.821	2236.06
499.19	2235.61
499.559	2234.93
499.928	2244.19
500.298	2265.43
500.667	2293.46
501.036	2267.92
501.405	2292.33
501.774	2281.93
502.143	2339.56
502.512	2343.17
502.88	2364.64
503.249	2364.19
503.618	2383.85
503.987	2401.7
504.356	2422.94
504.724	2425.2
505.093	2420.01
505.462	2470.4
505.83	2478.54
506.199	2476.73
506.567	2487.35
506.936	2513.34
507.304	2518.31
507.672	2540.46
508.041	2551.98
508.409	2579.55
508.777	2567.57
509.145	2611.41
509.514	2582.94
509.882	2649.83
510.25	2608.25
510.618	2636.27
510.986	2651.41
511.354	2680.11
511.722	2687.57
512.09	2720.56
512.458	2712.88
512.826	2749.26
513.193	2757.85
513.561	2766.21
513.929	2781.13
514.297	2792.2
514.664	2840.56
515.032	2865.64
515.4	2817.74
515.767	2862.71
516.135	2889.37
516.502	2923.27
516.869	2951.07
517.237	2931.41
517.604	2944.06
517.972	3002.14
518.339	3007.11
518.706	2969.15
519.073	3009.14
519.44	3055.02
519.808	3042.59
520.175	3081.68
520.542	3096.37
520.909	3121.23
521.276	3115.36
521.643	3168.01
522.009	3118.97
522.376	3179.76
522.743	3207.56
523.11	3265.63
523.477	3234.67
523.843	3294.56
524.21	3359.87
524.577	3350.38
524.943	3384.28
525.31	3394.44
525.676	3423.37
526.043	3417.95
526.409	3455.23
526.776	3478.74
527.142	3479.19
527.508	3540.43
527.874	3545.18
528.241	3531.62
528.607	3580.43
528.973	3648.45
529.339	3597.15
529.705	3619.3
530.071	3638.96
530.437	3667.66
530.803	3671.27
531.169	3645.51
531.535	3715.11
531.901	3717.83
532.267	3726.41
532.632	3721.22
532.998	3754.89
533.364	3755.79
533.73	3777.49
534.095	3840.31
534.461	3800.08
534.826	3888.67
535.192	3874.66
535.557	3871.95
535.923	3882.12
536.288	3925.96
536.653	3941.55
537.019	3966.86
537.384	3924.6
537.749	3955.79
538.114	3989.68
538.479	4011.83
538.845	4049.79
539.21	4046.86
539.575	4046.18
539.94	4067.87
540.305	4094.54
540.67	4050.92
541.034	4110.81
541.399	4110.36
541.764	4135.44
542.129	4150.13
542.494	4146.06
542.858	4163.69
543.223	4131.6
543.587	4172.73
543.952	4187.42
544.316	4169.34
544.681	4180.86
545.045	4227.64
545.41	4232.39
545.774	4268.77
546.138	4252.95
546.503	4271.26
546.867	4278.04
547.231	4291.37
547.595	4330.01
547.959	4336.34
548.324	4382.22
548.688	4365.94
549.052	4398.26
549.416	4395.55
549.779	4430.35
550.143	4441.2
550.507	4447.07
550.871	4499.27
551.235	4504.92
551.599	4520.29
551.962	4516.9
552.326	4548.99
552.689	4576.79
553.053	4556
553.417	4611.36
553.78	4644.36
554.143	4629.21
554.507	4665.82
554.87	4644.81
555.234	4723.22
555.597	4704.69
555.96	4707.4
556.323	4721.42
556.686	4777.23
557.05	4774.3
557.413	4725.26
557.776	4773.17
558.139	4806.38
558.502	4772.04
558.865	4820.62
559.228	4845.25
559.59	4849.32
559.953	4863.33
560.316	4907.4
560.679	4916.21
561.041	4960.73
561.404	5020.16
561.767	4982.88
562.129	5008.87
562.492	5037.11
562.854	5096.55
563.217	5087.96
563.579	5135.42
563.941	5115.76
564.304	5150.33
564.666	5161.86
565.028	5182.42
565.39	5229.2
565.753	5303.55
566.115	5274.62
566.477	5284.34
566.839	5315.75
567.201	5381.74
567.563	5394.39
567.925	5409.53
568.287	5436.2
568.648	5392.13
569.01	5452.02
569.372	5470.1
569.734	5514.39
570.095	5518
570.457	5536.54
570.819	5541.96
571.18	5579.7
571.542	5594.84
571.903	5640.49
572.265	5596.87
572.626	5617.89
572.987	5619.7
573.349	5627.83
573.71	5659.92
574.071	5624.44
574.432	5665.12
574.794	5750.09
575.155	5680.94
575.516	5666.25
575.877	5737.21
576.238	5792.35
576.599	5716.64
576.96	5761.84
577.32	5780.37
577.681	5788.28
578.042	5841.84
578.403	5802.97
578.763	5811.56
579.124	5866.47
579.485	5874.38
579.845	5895.62
580.206	5846.81
580.566	5876.19
580.927	5907.37
581.287	5856.53
581.648	5902.85
582.008	5964.09
582.368	5950.54
582.728	5959.12
583.089	5924.1
583.449	5978.56
583.809	5941.04
584.169	5981.27
584.529	5992.12
584.889	6018.33
585.249	5996.18
585.609	5950.99
585.969	5999.12
586.329	5951.21
586.688	5970.87
587.048	5940.59
587.408	5999.57
587.768	5976.52
588.127	5927.03
588.487	5905.11
588.846	5997.31
589.206	5948.73
589.565	5920.93
589.925	5916.19
590.284	5915.96
590.643	5934.72
591.003	5941.5
591.362	5943.53
591.721	5934.04
592.08	5954.6
592.44	5945.34
592.799	5935.39
593.158	5980.14
593.517	5921.38
593.876	5936.98
594.235	5936.07
594.593	5937.2
594.952	5942.4
595.311	5956.19
595.67	5976.3
596.029	5990.53
596.387	6009.07
596.746	6023.98
597.104	5977.43
597.463	6034.38
597.822	6011.1
598.18	5991.66
598.538	6008.39
598.897	6074.15
599.255	6024.43
599.613	6073.02
599.972	6045.67
600.33	6056.97
600.688	6012.23
601.046	6008.84
601.404	6080.93
601.762	6066.24
602.12	6074.37
602.478	6096.75
602.836	6130.19
603.194	6073.47
603.552	6028.27
603.91	6039.12
604.268	6097.2
604.625	6013.36
604.983	6045.22
605.341	6063.3
605.698	6088.39
606.056	6090.64
606.413	6082.96
606.771	6094.26
607.128	6119.57
607.485	6054.71
607.843	6047.93
608.2	6089.06
608.557	6122.73
608.914	6076.18
609.272	6114.83
609.629	6111.89
609.986	6129.29
610.343	6108.5
610.7	6134.03
611.057	6174.48
611.414	6168.83
611.771	6217.65
612.127	6222.17
612.484	6179.91
612.841	6222.17
613.198	6195.73
613.554	6212
613.911	6261.49
614.267	6303.07
614.624	6232.34
614.98	6216.07
615.337	6295.84
615.693	6226.23
616.05	6239.34
616.406	6301.71
616.762	6308.49
617.118	6273.46
617.475	6242.73
617.831	6315.27
618.187	6330.41
618.543	6307.36
618.899	6338.1
619.255	6349.62
619.611	6240.02
619.967	6319.34
620.323	6397.98
620.678	6336.29
621.034	6300.81
621.39	6343.97
621.746	6295.61
622.101	6350.53
622.457	6340.81
622.812	6331.54
623.168	6345.33
623.523	6299.45
623.879	6348.72
624.234	6306.91
624.589	6315.95
624.945	6294.03
625.3	6309.85
625.655	6354.37
626.01	6320.47
626.365	6362.5
626.72	6322.5
627.075	6403.41
627.43	6308.27
627.785	6299
628.14	6371.09
628.495	6324.99
628.85	6296.97
629.205	6317.98
629.559	6403.18
629.914	6296.97
630.269	6300.58
630.623	6323.86
630.978	6307.14
631.332	6358.21
631.687	6308.72
632.041	6319.11
632.396	6369.96
632.75	6298.78
633.104	6307.59
633.459	6315.95
633.813	6252.9
634.167	6263.75
634.521	6308.94
634.875	6261.94
635.229	6255.39
635.583	6225.1
635.937	6228.95
636.291	6234.6
636.645	6147.59
636.999	6181.94
637.352	6239.12
637.706	6144.2
638.06	6167.48
638.413	6178.78
638.767	6176.07
639.121	6152.56
639.474	6101.04
639.828	6139.46
640.181	6079.12
640.534	6122.96
640.888	6106.01
641.241	6053.13
641.594	6059.01
641.947	6057.88
642.301	6023.3
642.654	6042.51
643.007	6065.33
643.36	6056.3
643.713	6028.05
644.066	6018.56
644.419	5962.74
644.771	5956.64
645.124	5845.45
645.477	5909.86
645.83	5873.48
646.182	5864.66
646.535	5853.36
646.888	5898.79
647.24	5821.05
647.593	5833.7
647.945	5806.36
648.298	5863.76
648.65	5796.19
649.002	5820.82
649.355	5814.04
649.707	5779.24
650.059	5803.87
650.411	5856.53
650.763	5821.27
651.115	5968.39
651.467	5968.39
651.819	5920.25
652.171	5944.89
652.523	5887.03
652.875	5898.33
653.227	5863.98
653.578	5950.76
653.93	5873.25
654.282	5878.9
654.633	5908.73
654.985	5863.31
655.337	5831.67
655.688	5880.93
656.039	5857.88
656.391	5807.04
656.742	5806.13
657.094	5799.35
657.445	5805
657.796	5819.01
658.147	5803.87
658.498	5784.89
658.849	5817.43
659.2	5765.23
659.551	5789.41
659.902	5826.92
660.253	5761.39
660.604	5777.43
660.955	5770.88
661.306	5772.69
661.656	5753.48
662.007	5770.88
662.358	5770.88
662.708	5791.67
663.059	5739.02
663.409	5698.79
663.76	5730.2
664.11	5788.73
664.461	5717.32
664.811	5753.03
665.161	5781.5
665.511	5725.91
665.862	5764.1
666.212	5796.42
666.562	5786.92
666.912	5751.67
667.262	5756.42
667.612	5748.73
667.962	5765.68
668.312	5753.03
668.662	5817.43
669.011	5730.65
669.361	5733.82
669.711	5790.77
670.06	5767.26
670.41	5778.34
670.76	5757.55
671.109	5710.54
671.459	5775.85
671.808	5731.56
672.157	5766.36
672.507	5670.32
672.856	5678.68
673.205	5718.9
673.554	5675.29
673.904	5671.9
674.253	5713.03
674.602	5695.18
674.951	5617.44
675.3	5583.99
675.649	5658.79
675.998	5626.48
676.346	5629.41
676.695	5659.47
677.044	5579.92
677.393	5633.48
677.741	5605.01
678.09	5528.4
678.438	5548.74
678.787	5573.14
679.135	5551.45
679.484	5499.93
679.832	5578.57
680.181	5556.87
680.529	5566.14
680.877	5573.37
681.225	5556.2
681.573	5570.66
681.922	5503.32
682.27	5533.15
682.618	5513.94
682.966	5501.73
683.314	5515.29
683.661	5515.52
684.009	5469.64
684.357	5469.64
684.705	5462.19
685.053	5527.72
685.4	5483.66
685.748	5425.13
686.095	5414.96
686.443	5434.39
686.79	5473.94
687.138	5440.94
687.485	5439.59
687.832	5419.7
688.18	5416.76
688.527	5379.7
688.874	5411.79
689.221	5410.66
689.568	5388.06
689.915	5390.32
690.262	5344.45
690.609	5316.43
690.956	5316.43
691.303	5320.04
691.65	5321.63
691.997	5322.98
692.344	5295.41
692.69	5290.21
693.037	5217.67
693.383	5210.89
693.73	5208.41
694.077	5194.17
694.423	5170.22
694.769	5134.74
695.116	5112.14
695.462	5150.33
695.808	5134.29
696.155	5133.83
696.501	5097.22
696.847	5030.33
697.193	5013.16
697.539	5058.81
697.885	4971.58
698.231	4970.67
698.577	4926.38
698.923	4991.24
699.269	4938.13
699.614	4892.94
699.96	4933.61
700.306	4933.61
700.651	4928.42
700.997	4890.45
701.342	4888.64
701.688	4835.76
702.033	4820.4
702.379	4842.09
702.724	4831.47
703.069	4845.25
703.415	4779.27
703.76	4800.96
704.105	4789.89
704.45	4774.75
704.795	4743.56
705.14	4765.26
705.485	4782.88
705.83	4735.43
706.175	4788.76
706.52	4751.92
706.865	4701.08
707.209	4727.29
707.554	4747.86
707.899	4727.29
708.243	4687.29
708.588	4685.03
708.932	4644.36
709.277	4650
709.621	4639.16
709.966	4596.67
710.31	4659.72
710.654	4625.6
710.998	4627.41
711.342	4619.5
711.687	4624.02
712.031	4582.21
712.375	4593.96
712.719	4591.02
713.063	4551.93
713.407	4569.55
713.75	4576.79
714.094	4553.96
714.438	4531.14
714.782	4543.79
715.125	4471.93
715.469	4487.75
715.812	4496.11
716.156	4461.54
716.499	4473.96
716.843	4445.94
717.186	4421.99
717.53	4433.74
717.873	4426.96
718.216	4398.71
718.559	4401.42
718.902	4333.18
719.246	4379.5
719.589	4380.63
719.932	4365.49
720.275	4362.1
720.617	4310.13
720.96	4314.65
721.303	4357.36
721.646	4321.65
721.989	4286.17
722.331	4281.65
722.674	4274.2
723.016	4295.66
723.359	4234.42
723.701	4256.79
724.044	4223.58
724.386	4274.42
724.729	4219.96
725.071	4237.36
725.413	4242.78
725.755	4253.86
726.097	4208.21
726.439	4163.01
726.782	4200.53
727.124	4201.66
727.465	4193.75
727.807	4185.61
728.149	4214.31
728.491	4149.45
728.833	4174.31
729.175	4196.91
729.516	4168.21
729.858	4155.33
730.199	4131.15
730.541	4151.49
730.882	4157.14
731.224	4134.54
731.565	4144.93
731.906	4129.11
732.248	4191.03
732.589	4130.02
732.93	4103.58
733.271	4119.85
733.612	4122.79
733.953	4162.11
734.294	4081.43
734.635	4089.79
734.976	4115.78
735.317	4088.21
735.658	4082.79
735.999	4085.95
736.339	4092.28
736.68	4075.33
737.021	4102.45
737.361	4055.22
737.702	4083.47
738.042	4035.33
738.383	4066.97
738.723	4094.31
739.063	4062.22
739.404	4019.51
739.744	4059.74
740.084	4053.41
740.424	4061.77
740.764	4015.22
741.104	4051.6
741.444	3966.86
741.784	4013.19
742.124	4024.03
742.464	3968.21
742.804	4000.53
743.143	3984.49
743.483	4000.53
743.823	3948.1
744.162	3922.57
744.502	3958.72
744.841	3926.86
745.181	3941.32
745.52	3903.58
745.86	3926.41
746.199	3880.31
746.538	3878.73
746.877	3877.14
747.216	3883.7
747.556	3864.26
747.895	3881.44
748.234	3860.65
748.573	3823.36
748.911	3783.13
749.25	3795.11
749.589	3807.54
749.928	3793.98
750.267	3813.87
750.605	3851.16
750.944	3778.84
751.283	3768.22
751.621	3775.9
751.96	3726.87
752.298	3726.64
752.636	3717.83
752.975	3740.65
753.313	3773.64
753.651	3750.14
753.989	3695
754.327	3726.19
754.666	3693.42
755.004	3720.76
755.342	3675.34
755.679	3689.13
756.017	3672.63
756.355	3666.3
756.693	3692.74
757.031	3731.61
757.368	3666.53
757.706	3687.54
758.044	3673.99
758.381	3648.68
758.719	3653.87
759.056	3626.08
759.394	3635.34
759.731	3604.16
760.068	3646.87
760.405	3627.88
760.743	3643.93
761.08	3631.05
761.417	3661.56
761.754	3624.04
762.091	3612.52
762.428	3604.16
762.765	3577.72
763.102	3604.83
763.438	3584.95
763.775	3523.71
764.112	3588.34
764.449	3608
764.785	3537.04
765.122	3503.14
765.458	3482.35
765.795	3478.74
766.131	3474.22
766.467	3473.99
766.804	3460.21
767.14	3402.13
767.476	3435.57
767.812	3439.42
768.148	3430.6
768.485	3375.91
768.821	3329.14
769.157	3370.94
769.492	3343.82
769.828	3347.44
770.164	3321
770.5	3299.53
770.836	3295.69
771.171	3286.65
771.507	3277.16
771.842	3211.4
772.178	3240.1
772.513	3258.63
772.849	3226.31
773.184	3192.42
773.519	3208.69
773.855	3181.79
774.19	3152.19
774.525	3142.02
774.86	3112.87
775.195	3144.51
775.53	3126.88
775.865	3124.62
776.2	3060.89
776.535	3102.47
776.87	3092.53
777.205	3049.37
777.539	3059.76
777.874	3056.37
778.209	3025.87
778.543	3000.33
778.878	3034
779.212	3020.9
779.547	2978.18
779.881	2988.13
780.215	2995.36
780.55	2991.07
780.884	2994.23
781.218	2999.65
781.552	2963.72
781.886	2947.22
782.22	2931.86
782.554	2951.52
782.888	2888.92
783.222	2901.8
783.556	2914.46
783.889	2906.32
784.223	2864.29
784.557	2912.42
784.89	2862.71
785.224	2859.77
785.557	2871.07
785.891	2890.73
786.224	2850.05
786.558	2860.67
786.891	2829.94
787.224	2834.69
787.557	2821.13
787.891	2829.71
788.224	2804.4
788.557	2832.88
788.89	2811.64
789.223	2794.69
789.556	2785.65
789.888	2806.89
790.221	2786.1
790.554	2756.95
790.887	2748.59
791.219	2709.94
791.552	2735.93
791.884	2750.17
792.217	2730.73
792.549	2712.88
792.882	2696.38
793.214	2676.27
793.546	2650.74
793.879	2673.56
794.211	2661.58
794.543	2697.06
794.875	2654.8
795.207	2631.3
795.539	2680.34
795.871	2654.58
796.203	2660.9
796.535	2582.49
796.867	2588.82
797.198	2598.31
797.53	2606.22
797.862	2523.73
798.193	2542.04
798.525	2522.38
798.856	2546.78
799.188	2502.94
799.519	2525.31
799.85	2533.45
800.182	2490.97
800.513	2483.06
800.844	2461.81
801.175	2471.31
801.506	2498.87
801.837	2452.77
802.168	2439.67
802.499	2422.27
802.83	2445.32
803.161	2405.32
803.491	2419.33
803.822	2401.7
804.153	2393.57
804.483	2368.26
804.814	2367.8
805.145	2345.43
805.475	2369.61
805.805	2363.74
806.136	2350.4
806.466	2394.47
806.796	2339.78
807.126	2319.9
807.457	2305.89
807.787	2336.17
808.117	2351.99
808.447	2327.13
808.777	2316.96
809.107	2371.65
809.436	2324.64
809.766	2338.88
810.096	2294.59
810.426	2342.72
810.755	2347.47
811.085	2325.32
811.414	2302.5
811.744	2274.47
812.073	2291.2
812.403	2310.86
812.732	2276.73
813.061	2288.03
813.39	2278.54
813.719	2281.25
814.049	2296.62
814.378	2287.36
814.707	2305.66
815.036	2281.71
815.365	2263.17
815.693	2263.17
816.022	2254.81
816.351	2260.24
816.68	2238.99
817.008	2233.57
817.337	2230.41
817.665	2216.62
817.994	2272.67
818.322	2199.9
818.651	2203.97
818.979	2217.3
819.307	2222.27
819.636	2216.4
819.964	2203.06
820.292	2186.34
820.62	2197.87
820.948	2196.28
821.276	2199.45
821.604	2222.27
821.932	2195.38
822.259	2187.24
822.587	2192.44
822.915	2190.41
823.243	2173.46
823.57	2192.89
823.898	2207.81
824.225	2158.32
824.553	2190.41
824.88	2157.19
825.207	2142.73
825.535	2160.35
825.862	2195.38
826.189	2183.4
826.516	2173.46
826.843	2187.47
827.17	2163.52
827.497	2191.54
827.824	2166.45
828.151	2185.44
828.478	2166.45
828.805	2156.51
829.131	2156.06
829.458	2133.91
829.785	2198.09
830.111	2154.25
830.438	2154.48
830.764	2139.34
831.09	2160.8
831.417	2148.6
831.743	2130.07
832.069	2177.3
832.395	2111.54
832.722	2125.1
833.048	2127.81
833.374	2112.67
833.7	2165.55
834.026	2133.69
834.351	2145.21
834.677	2123.52
835.003	2116.51
835.329	2127.81
835.654	2133.23
835.98	2140.69
836.306	2119.9
836.631	2126.68
836.956	2131.65
837.282	2125.33
837.607	2104.76
837.932	2103.18
838.258	2120.58
838.583	2090.07
838.908	2084.42
839.233	2106.12
839.558	2092.78
839.883	2056.17
840.208	2091.65
840.533	2081.71
840.858	2076.29
841.182	2102.73
841.507	2090.07
841.832	2074.25
842.156	2076.06
842.481	2082.16
842.805	2079.45
843.13	2062.73
843.454	2068.15
843.778	2079.45
844.103	2075.61
844.427	2051.66
844.751	2095.27
845.075	2061.15
845.399	2057.3
845.723	2065.44
846.047	2029.28
846.371	2023.18
846.695	2039.45
847.019	2016.18
847.343	2024.09
847.666	1980.47
847.99	2003.97
848.313	1992.67
848.637	1976.4
848.96	1983.18
849.284	1978.44
849.607	1958.78
849.931	1933.01
850.254	1958.32
850.577	1954.93
850.9	1927.82
851.223	1935.73
851.546	1943.41
851.869	1917.42
852.192	1916.07
852.515	1951.09
852.838	1897.08
853.161	1903.64
853.483	1893.69
853.806	1904.99
854.129	1898.44
854.451	1873.58
854.774	1878.78
855.096	1873.58
855.419	1876.97
855.741	1839.23
856.063	1859.12
856.385	1835.39
856.708	1826.12
857.03	1845.11
857.352	1850.3
857.674	1856.63
857.996	1835.39
858.318	1833.36
858.64	1838.55
858.961	1813.92
859.283	1845.33
859.605	1817.08
859.926	1792.23
860.248	1834.94
860.57	1778.22
860.891	1794.26
861.212	1800.14
861.534	1775.73
861.855	1775.05
862.176	1765.56
862.498	1773.02
862.819	1792
863.14	1755.17
863.461	1752
863.782	1787.71
864.103	1773.7
864.424	1726.24
864.745	1758.56
865.065	1738.67
865.386	1745.45
865.707	1756.52
866.027	1716.07
866.348	1742.74
866.668	1731.44
866.989	1744.77
867.309	1696.41
867.63	1680.59
867.95	1706.13
868.27	1729.86
868.59	1718.33
868.91	1717.43
869.23	1726.47
869.55	1670.65
869.87	1683.98
870.19	1714.04
870.51	1676.75
870.83	1672.23
871.15	1679.24
871.469	1678.33
871.789	1678.11
872.109	1697.99
872.428	1665
872.748	1660.48
873.067	1648.95
873.386	1681.95
873.706	1676.3
874.025	1650.99
874.344	1637.43
874.663	1663.19
874.982	1691.21
875.301	1680.14
875.62	1670.42
875.939	1669.74
876.258	1637.88
876.577	1657.32
876.896	1649.86
877.214	1624.77
877.533	1644.21
877.852	1633.14
878.17	1667.03
878.489	1629.75
878.807	1678.33
879.125	1665.9
879.444	1626.13
879.762	1631.78
880.08	1625.68
880.398	1643.3
880.716	1606.02
881.034	1620.71
881.352	1640.59
881.67	1626.36
881.988	1614.15
882.306	1627.94
882.624	1599.69
882.941	1589.52
883.259	1638.33
883.577	1627.71
883.894	1617.32
884.212	1611.89
884.529	1615.06
884.846	1595.17
885.164	1611.67
885.481	1605.57
885.798	1601.5
886.115	1602.63
886.432	1615.06
886.75	1604.21
887.067	1582.97
887.383	1611.89
887.7	1588.39
888.017	1571.22
888.334	1587.03
888.651	1581.16
888.967	1557.88
889.284	1559.46
889.6	1588.84
889.917	1559.24
890.233	1567.15
890.55	1552.23
890.866	1573.7
891.182	1548.84
891.498	1550.43
891.815	1541.39
892.131	1528.96
892.447	1549.07
892.763	1521.05
893.079	1538.67
893.395	1532.35
893.71	1484.89
894.026	1526.25
894.342	1494.83
894.657	1503.87
894.973	1493.03
895.289	1501.16
895.604	1496.64
895.92	1485.12
896.235	1517.43
896.55	1436.98
896.865	1486.25
897.181	1469.07
897.496	1447.83
897.811	1452.35
898.126	1429.52
898.441	1437.89
898.756	1439.92
899.071	1438.79
899.386	1445.57
899.7	1419.81
900.015	1410.09
900.33	1422.07
900.644	1396.76
900.959	1388.4
901.273	1413.93
901.588	1388.17
901.902	1389.75
902.216	1385.01
902.531	1398.56
902.845	1390.2
903.159	1405.8
903.473	1355.63
903.787	1354.95
904.101	1361.96
904.415	1344.78
904.729	1343.43
905.042	1354.05
905.356	1350.66
905.67	1353.14
905.984	1373.93
906.297	1313.6
906.611	1317.89
906.924	1331
907.237	1286.48
907.551	1329.87
907.864	1303.2
908.177	1319.92
908.491	1327.15
908.804	1313.14
909.117	1288.74
909.43	1284.67
909.743	1282.41
910.056	1279.7
910.368	1286.93
910.681	1259.36
910.994	1297.78
911.307	1269.75
911.619	1274.05
911.932	1282.64
912.244	1270.21
912.557	1265.46
912.869	1254.39
913.181	1219.13
913.494	1217.33
913.806	1259.81
914.118	1215.07
914.43	1226.14
914.742	1226.59
915.054	1215.52
915.366	1223.2
915.678	1215.52
915.99	1201.96
916.302	1203.32
916.613	1208.74
916.925	1211
917.236	1221.85
917.548	1184.33
917.859	1193.37
918.171	1199.25
918.482	1203.54
918.794	1184.56
919.105	1216.87
919.416	1189.3
919.727	1187.27
920.038	1182.53
920.349	1151.57
920.66	1139.14
920.971	1164.45
921.282	1177.78
921.593	1158.8
921.903	1181.17
922.214	1164.67
922.525	1181.85
922.835	1149.98
923.146	1147.72
923.456	1156.76
923.767	1124.22
924.077	1151.79
924.387	1126.93
924.697	1112.47
925.008	1123.32
925.318	1112.7
925.628	1112.7
925.938	1108.4
926.248	1085.58
926.558	1090.78
926.867	1116.54
927.177	1081.51
927.487	1090.1
927.796	1050.55
928.106	1092.58
928.416	1063.88
928.725	1089.42
929.034	1051.91
929.344	1092.58
929.653	1075.41
929.962	1064.34
930.271	1056.2
930.581	1049.65
930.89	1053.72
931.199	1048.29
931.508	1044.22
931.817	1025.69
932.125	1020.5
932.434	1020.5
932.743	1022.53
933.051	1027.95
933.36	1021.4
933.669	1003.55
933.977	1022.98
934.286	1010.55
934.594	1021.17
934.902	1003.32
935.21	992.7
935.519	978.24
935.827	1014.39
936.135	1012.81
936.443	1006.26
936.751	978.46
937.059	1012.81
937.367	1003.55
937.674	973.94
937.982	970.78
938.29	969.65
938.597	989.54
938.905	973.49
939.213	964
939.52	934.4
939.827	948.18
940.135	930.78
940.442	967.39
940.749	947.5
941.056	951.57
941.363	915.87
941.67	938.69
941.977	941.4
942.284	922.65
942.591	910.67
942.898	919.71
943.205	935.75
943.511	875.41
943.818	895.98
944.125	930.78
944.431	900.05
944.738	892.36
945.044	907.28
945.35	874.51
945.657	903.66
945.963	863.66
946.269	875.19
946.575	900.5
946.881	877.22
947.187	886.04
947.493	866.83
947.799	874.74
948.105	898.69
948.41	862.31
948.716	859.6
949.022	852.59
949.327	853.95
949.633	873.83
949.938	835.87
950.244	878.35
950.549	862.31
950.854	857.11
951.16	877.67
951.465	833.61
951.77	824.57
952.075	840.61
952.38	811.01
952.685	854.17
952.99	844.68
953.294	834.51
953.599	831.35
953.904	825.47
954.209	826.15
954.513	823.44
954.818	840.39
955.122	823.21
955.426	834.74
955.731	800.16
956.035	807.62
956.339	815.76
956.643	797.45
956.948	820.05
957.252	805.36
957.556	817.79
957.86	793.16
958.163	797.68
958.467	788.41
958.771	787.96
959.075	786.15
959.378	800.39
959.682	796.09
959.985	798.35
960.289	796.77
960.592	781.86
960.896	769.2
961.199	791.8
961.502	766.72
961.805	800.39
962.108	778.02
962.411	790.67
962.714	766.49
963.017	770.78
963.32	771.24
963.623	759.71
963.926	756.32
964.228	743.67
964.531	740.28
964.833	751.8
965.136	754.97
965.438	771.01
965.741	745.7
966.043	751.58
966.345	726.49
966.648	743.67
966.95	744.12
967.252	705.02
967.554	729.43
967.856	729.66
968.158	727.17
968.46	721.52
968.761	717.68
969.063	735.53
969.365	705.7
969.666	718.81
969.968	702.09
970.269	720.62
970.571	719.26
970.872	730.11
971.174	706.61
971.475	716.1
971.776	689.88
972.077	726.49
972.378	740.73
972.679	696.89
972.98	706.38
973.281	676.55
973.582	710.9
973.883	681.52
974.183	682.88
974.484	724.23
974.785	707.96
975.085	679.26
975.386	700.5
975.686	678.81
975.986	700.73
976.287	680.62
976.587	692.14
976.887	657.79
977.187	674.97
977.487	680.84
977.787	655.53
978.087	656.89
978.387	676.32
978.687	677.68
978.987	678.81
979.286	642.2
979.586	630
979.885	650.56
980.185	657.34
980.484	643.78
980.784	660.51
981.083	642.2
981.382	639.04
981.682	637.45
981.981	653.95
982.28	642.65
982.579	644.46
982.878	631.58
983.177	612.37
983.475	637.45
983.774	638.58
984.073	595.87
984.372	636.55
984.67	637.91
984.969	637.45
985.267	608.53
985.566	610.11
985.864	586.16
986.162	612.82
986.461	602.43
986.759	602.88
987.057	615.08
987.355	585.93
987.653	604.69
987.951	597.91
988.249	608.08
988.547	604.46
988.844	612.14
989.142	592.03
989.44	597.46
989.737	603.11
990.035	614.63
990.332	589.32
990.63	593.84
990.927	604.01
991.224	574.41
991.521	581.86
991.819	603.56
992.116	595.65
992.413	570.79
992.71	604.24
993.006	588.64
993.303	569.21
993.6	580.96
993.897	573.5
994.193	573.28
994.49	573.73
994.787	566.95
995.083	573.95
995.379	550.9
995.676	572.6
995.972	584.8
996.268	548.42
996.565	581.86
996.861	560.17
997.157	559.49
997.453	549.1
997.749	571.47
998.044	566.72
998.34	561.07
998.636	555.65
998.932	563.11
999.227	582.09
999.523	565.82
999.818	559.49
1000.114	552.26
1000.409	552.26
1000.704	558.81
1001	534.41
1001.295	532.37
1001.59	529.66
1001.885	548.19
1002.18	536.89
1002.475	560.62
1002.77	546.84
1003.065	536.44
1003.359	542.77
1003.654	520.17
1003.949	546.84
1004.243	538.47
1004.538	520.85
1004.832	549.1
1005.127	541.19
1005.421	529.44
1005.715	527.4
1006.009	532.37
1006.304	516.33
1006.598	516.33
1006.892	511.36
1007.186	517.46
1007.48	493.96
1007.773	535.31
1008.067	531.02
1008.361	512.03
1008.655	510.45
1008.948	518.36
1009.242	508.19
1009.535	512.26
1009.829	510.23
1010.122	508.64
1010.415	505.48
1010.708	496.22
1011.001	517.01
1011.295	483.33
1011.588	489.66
1011.881	496.89
1012.173	508.64
1012.466	496.22
1012.759	509.55
1013.052	471.81
1013.344	516.1
1013.637	496.67
1013.93	492.15
1014.222	505.03
1014.514	477.01
1014.807	477.91
1015.099	475.2
1015.391	477.01
1015.683	510.23
1015.976	463.45
1016.268	457.12
1016.56	488.31
1016.851	470.68
1017.143	483.79
1017.435	468.19
1017.727	485.59
1018.018	485.37
1018.31	471.81
1018.602	471.13
1018.893	478.14
1019.185	449.44
1019.476	472.71
1019.767	466.61
1020.058	453.73
1020.35	477.46
1020.641	460.06
1020.932	487.63
1021.223	441.08
1021.514	451.25
1021.804	434.52
1022.095	448.31
1022.386	472.94
1022.677	438.59
1022.967	452.38
1023.258	472.49
1023.548	453.05
1023.839	456.44
1024.129	451.25
1024.419	457.8
1024.709	436.33
1025	444.47
1025.29	428.65
1025.58	446.95
1025.87	450.12
1026.16	435.65
1026.449	427.97
1026.739	431.13
1027.029	439.72
1027.319	421.42
1027.608	414.86
1027.898	428.42
1028.187	446.95
1028.477	418.25
1028.766	433.62
1029.055	424.13
1029.344	424.58
1029.634	426.84
1029.923	425.03
1030.212	429.55
1030.501	428.19
1030.79	428.42
1031.078	415.77
1031.367	410.57
1031.656	420.29
1031.945	421.64
1032.233	427.07
1032.522	425.26
1032.81	407.4
1033.099	398.37
1033.387	402.88
1033.675	419.38
1033.963	397.46
1034.251	408.31
1034.54	404.92
1034.828	410.79
1035.116	409.44
1035.403	406.73
1035.691	406.95
1035.979	409.66
1036.267	411.02
1036.554	373.51
1036.842	402.43
1037.129	410.79
1037.417	397.69
1037.704	401.98
1037.992	401.08
1038.279	411.02
1038.566	398.59
1038.853	398.59
1039.14	398.59
