Data from foam1_polythene_foam_FLMS001491_00083.txt Node
Date: Wed Feb 08 10:55:30 GMT 2017
User: dcchb
Spectrometer: FLMS00149
Trigger mode: 0
Integration Time (sec): 2.000000E-2
Scans to average: 10
Electric dark correction enabled: true
Nonlinearity correction enabled: false
Boxcar width: 0
XAxis mode: Wavelengths
Number of Pixels in Spectrum: 2048
>>>>>Begin Spectral Data<<<<<
341.393	4.72
341.776	4.72
342.16	4.72
342.543	-43.64
342.927	-57.65
343.31	-83.19
343.693	-63.08
344.077	-79.8
344.46	-52.68
344.843	-71.44
345.226	-34.6
345.61	-31.44
345.993	-9.29
346.376	2.46
346.759	18.05
347.142	20.76
347.525	35
347.908	51.72
348.291	95.34
348.674	90.59
349.057	111.61
349.44	120.65
349.823	124.94
350.206	164.94
350.588	189.35
350.971	186.63
351.354	214.88
351.737	212.62
352.119	241.32
352.502	260.76
352.884	260.98
353.267	289.91
353.65	276.57
354.032	291.04
354.414	305.27
354.797	295.56
355.179	322.45
355.562	315.22
355.944	307.31
356.326	336.01
356.709	319.96
357.091	333.97
357.473	310.25
357.855	310.92
358.238	325.84
358.62	299.17
359.002	325.39
359.384	336.46
359.766	324.26
360.148	311.6
360.53	315.44
360.912	335.1
361.294	314.54
361.676	324.71
362.057	318.61
362.439	323.81
362.821	326.74
363.203	314.99
363.584	325.16
363.966	318.16
364.348	307.31
364.729	311.83
365.111	300.3
365.493	300.98
365.874	322.68
366.256	298.27
366.637	288.78
367.019	311.6
367.4	297.82
367.781	287.65
368.163	289
368.544	320.64
368.925	303.47
369.306	301.43
369.688	290.36
370.069	303.01
370.45	311.6
370.831	279.06
371.212	311.15
371.593	312.73
371.974	306.86
372.355	323.58
372.736	305.5
373.117	313.86
373.498	309.34
373.879	307.76
374.26	297.37
374.641	296.69
375.021	316.35
375.402	299.4
375.783	313.18
376.163	316.12
376.544	326.29
376.925	311.6
377.305	309.12
377.686	321.09
378.066	310.02
378.447	320.42
378.827	305.27
379.208	328.1
379.588	311.38
379.968	317.03
380.349	324.71
380.729	336.91
381.109	339.85
381.489	300.75
381.87	311.15
382.25	326.29
382.63	331.94
383.01	341.21
383.39	347.08
383.77	350.92
384.15	322
384.53	334.2
384.91	356.8
385.29	329.68
385.67	320.64
386.049	348.66
386.429	335.56
386.809	341.21
387.189	349.34
387.568	332.62
387.948	362.9
388.328	341.66
388.707	364.48
389.087	353.18
389.466	348.21
389.846	356.57
390.225	344.37
390.605	379.17
390.984	345.73
391.363	371.71
391.743	356.12
392.122	350.7
392.501	364.93
392.881	377.14
393.26	390.47
393.639	366.06
394.018	398.15
394.397	363.8
394.776	365.16
395.155	388.89
395.534	390.7
395.913	376.69
396.292	352.96
396.671	380.98
397.05	406.51
397.429	389.79
397.808	398.83
398.186	375.33
398.565	389.34
398.944	401.09
399.323	388.21
399.701	369.91
400.08	391.37
400.458	409.45
400.837	393.18
401.215	403.8
401.594	392.73
401.972	384.82
402.351	416.91
402.729	415.33
403.107	402.67
403.486	401.54
403.864	397.02
404.242	421.88
404.62	416.01
404.999	427.76
405.377	447.42
405.755	427.31
406.133	437.7
406.511	429.34
406.889	441.99
407.267	427.08
407.645	456.68
408.023	475.44
408.401	452.62
408.779	445.16
409.156	440.41
409.534	440.86
409.912	445.61
410.29	463.46
410.667	450.13
411.045	461.88
411.422	468.89
411.8	460.07
412.178	474.76
412.555	471.15
412.933	488.55
413.31	469.56
413.687	456.68
414.065	481.77
414.442	499.85
414.819	492.61
415.197	505.5
415.574	520.41
415.951	492.84
416.328	529.68
416.705	505.5
417.082	521.31
417.46	519.51
417.837	507.53
418.214	516.12
418.591	526.96
418.967	542.1
419.344	525.16
419.721	541.43
420.098	550.92
420.475	511.82
420.852	532.39
421.228	549.11
421.605	562.44
421.982	555.44
422.358	527.42
422.735	532.84
423.111	555.66
423.488	559.73
423.864	560.18
424.241	567.41
424.617	561.09
424.994	574.87
425.37	582.1
425.746	590.01
426.123	588.66
426.499	590.92
426.875	594.98
427.251	642.44
427.627	606.06
428.003	629.11
428.379	630.24
428.756	616.68
429.132	627.3
429.507	658.49
429.883	641.76
430.259	655.77
430.635	646.73
431.011	651.48
431.387	653.29
431.763	686.73
432.138	668.2
432.514	689.67
432.89	691.93
433.265	692.16
433.641	722.44
434.016	701.87
434.392	734.64
434.767	735.09
435.143	734.87
435.518	738.48
435.894	749.1
436.269	741.42
436.644	756.11
437.02	763.12
437.395	776.45
437.77	770.35
438.145	789.33
438.52	790.46
438.895	824.81
439.271	779.39
439.646	817.8
440.021	814.19
440.395	829.78
440.77	838.14
441.145	816.45
441.52	838.37
441.895	828.2
442.27	845.6
442.645	832.04
443.019	861.42
443.394	895.77
443.769	872.04
444.143	872.27
444.518	876.56
444.892	912.04
445.267	909.78
445.641	901.87
446.016	899.61
446.39	917.01
446.764	921.08
447.139	917.24
447.513	933.28
447.887	924.02
448.262	948.87
448.636	937.57
449.01	978.93
449.384	945.03
449.758	968.53
450.132	967.63
450.506	999.04
450.88	989.32
451.254	990.45
451.628	969.44
452.002	1047.85
452.376	1032.26
452.75	1024.35
453.123	1032.04
453.497	1058.93
453.871	1058.93
454.244	1048.31
454.618	1097.34
454.992	1081.75
455.365	1115.42
455.739	1077.46
456.112	1109.32
456.486	1133.95
456.859	1086.27
457.232	1121.52
457.606	1146.83
457.979	1130.56
458.352	1140.73
458.725	1180.28
459.099	1157
459.472	1225.48
459.845	1211.92
460.218	1188.87
460.591	1214.63
460.964	1225.02
461.337	1215.76
461.71	1253.72
462.083	1266.61
462.456	1251.46
462.829	1249.66
463.201	1276.55
463.574	1315.87
463.947	1311.58
464.32	1334.63
464.692	1333.72
465.065	1319.03
465.438	1350.9
465.81	1362.42
466.183	1374.85
466.555	1384.57
466.928	1392.03
467.3	1407.62
467.672	1421.63
468.045	1426.83
468.417	1442.87
468.789	1455.3
469.161	1469.31
469.534	1506.6
469.906	1490.78
470.278	1533.49
470.65	1519.93
471.022	1560.61
471.394	1593.6
471.766	1579.82
472.138	1620.27
472.51	1631.34
472.882	1641.74
473.253	1658.46
473.625	1672.7
473.997	1680.61
474.369	1739.36
474.74	1705.01
475.112	1750.21
475.484	1777.33
475.855	1806.48
476.227	1835.86
476.598	1879.24
476.97	1865.01
477.341	1927.6
477.713	1952.46
478.084	1958.11
478.455	1986.81
478.827	2001.05
479.198	2091.44
479.569	2047.38
479.94	2091.44
480.311	2139.58
480.682	2170.54
481.053	2180.25
481.424	2234.72
481.795	2217.54
482.166	2298.67
482.537	2279.69
482.908	2336.86
483.279	2373.24
483.65	2352
484.021	2466.12
484.391	2462.96
484.762	2490.08
485.133	2494.6
485.503	2572.11
485.874	2617.76
486.244	2572.56
486.615	2631.77
486.985	2637.87
487.356	2691.88
487.726	2762.84
488.097	2805.77
488.467	2794.25
488.837	2845.32
489.207	2857.98
489.578	2951.08
489.948	2986.11
490.318	2993.34
490.688	2998.54
491.058	3045.32
491.428	3070.63
491.798	3088.7
492.168	3173.22
492.538	3153.11
492.908	3189.72
493.278	3248.25
493.648	3305.87
494.017	3289.15
494.387	3356.95
494.757	3390.62
495.126	3382.26
495.496	3414.12
495.866	3433.55
496.235	3438.3
496.605	3492.54
496.974	3509.71
497.344	3499.31
497.713	3517.17
498.082	3647.11
498.452	3647.56
498.821	3658.18
499.19	3706.99
499.559	3737.73
499.928	3746.99
500.298	3779.76
500.667	3792.19
501.036	3794.45
501.405	3833.09
501.774	3816.37
502.143	3824.05
502.512	3871.73
502.88	3964.84
503.249	3951.51
503.618	3999.64
503.987	4018.4
504.356	4045.06
504.724	4052.52
505.093	4089.13
505.462	4094.33
505.83	4118.96
506.199	4131.39
506.567	4181.1
506.936	4205.96
507.304	4266.3
507.672	4273.08
508.041	4282.12
508.409	4370.03
508.777	4420.87
509.145	4410.25
509.514	4388.1
509.882	4441.66
510.25	4444.83
510.618	4447.54
510.986	4444.83
511.354	4538.16
511.722	4560.76
512.09	4567.31
512.458	4640.75
512.826	4680.07
513.193	4753.97
513.561	4755.1
513.929	4831.48
514.297	4866.51
514.664	4816.57
515.032	4857.92
515.4	4909
515.767	4911.26
516.135	4957.36
516.502	4876
516.869	5082.78
517.237	5035.09
517.604	5038.03
517.972	5097.24
518.339	5180.17
518.706	5205.94
519.073	5189.89
519.44	5318.48
519.808	5300.4
520.175	5327.29
520.542	5350.79
520.909	5354.41
521.276	5390.11
521.643	5444.8
522.009	5479.6
522.376	5583.1
522.743	5601.63
523.11	5705.81
523.477	5717.79
523.843	5738.8
524.21	5854.28
524.577	5866.94
524.943	5877.11
525.31	5865.58
525.676	5941.28
526.043	5948.29
526.409	6029.64
526.776	6027.16
527.142	6100.15
527.508	6112.35
527.874	6115.52
528.241	6188.74
528.607	6241.39
528.973	6332.23
529.339	6322.52
529.705	6408.39
530.071	6467.6
530.437	6460.37
530.803	6474.38
531.169	6507.15
531.535	6457.66
531.901	6532.46
532.267	6536.52
532.632	6611.32
532.998	6660.14
533.364	6746.01
533.73	6763.86
534.095	6806.35
534.461	6809.28
534.826	6906.91
535.192	6904.2
535.557	6948.04
535.923	6953.69
536.288	6918.66
536.653	7010.18
537.019	6954.14
537.384	7041.14
537.749	7063.06
538.114	7035.04
538.479	7101.25
538.845	7203.85
539.21	7160.69
539.575	7228.26
539.94	7245.2
540.305	7336.28
540.67	7268.03
541.034	7293.11
541.399	7350.06
541.764	7378.53
542.129	7368.14
542.494	7377.86
542.858	7383.05
543.223	7405.2
543.587	7489.94
543.952	7494.69
544.316	7565.87
544.681	7511.41
545.045	7593.9
545.41	7619.21
545.774	7702.82
546.138	7702.82
546.503	7706.89
546.867	7711.63
547.231	7761.58
547.595	7793.67
547.959	7789.82
548.324	7774.46
548.688	7809.94
549.052	7851.06
549.416	7875.24
549.779	7989.59
550.143	7932.42
550.507	8050.61
550.871	8131.28
551.235	8082.47
551.599	8158.85
551.962	8129.93
552.326	8206.54
552.689	8246.76
553.053	8151.4
553.417	8168.8
553.78	8290.6
554.143	8244.27
554.507	8254.67
554.87	8309.13
555.234	8420.09
555.597	8433.2
555.96	8492.4
556.323	8573.98
556.686	8611.27
557.05	8621.89
557.413	8667.31
557.776	8634.1
558.139	8705.28
558.502	8786.18
558.865	8744.37
559.228	8775.79
559.59	8740.31
559.953	8823.69
560.316	8861.43
560.679	8832.96
561.041	9036.34
561.404	9064.82
561.767	9121.54
562.129	9127.19
562.492	9192.05
562.854	9263.01
563.217	9205.61
563.579	9250.35
563.941	9356.79
564.304	9308.88
564.666	9399.5
565.028	9345.04
565.39	9382.1
565.753	9522.66
566.115	9534.86
566.477	9512.04
566.839	9597.91
567.201	9652.15
567.563	9641.98
567.925	9824.57
568.287	9819.6
568.648	9813.5
569.01	9879.71
569.372	9884.91
569.734	9916.77
570.095	9922.42
570.457	9970.11
570.819	9930.11
571.18	9987.73
571.542	9986.6
571.903	9960.61
572.265	10086.26
572.626	10159.25
572.987	10207.61
573.349	10253.71
573.71	10258.46
574.071	10336.42
574.432	10326.25
574.794	10368.74
575.155	10394.05
575.516	10395.4
575.877	10449.19
576.238	10405.8
576.599	10458.23
576.96	10433.6
577.32	10397.66
577.681	10460.04
578.042	10548.62
578.403	10521.5
578.763	10569.41
579.124	10567.15
579.485	10620.94
579.845	10681.05
580.206	10622.97
580.566	10673.59
580.927	10665.23
581.287	10672.01
581.648	10693.25
582.008	10683.08
582.368	10631.33
582.728	10688.05
583.089	10633.59
583.449	10687.15
583.809	10615.74
584.169	10699.35
584.529	10668.62
584.889	10704.55
585.249	10716.53
585.609	10730.54
585.969	10782.74
586.329	10718.33
586.688	10861.16
587.048	10760.82
587.408	10810.08
587.768	10789.29
588.127	10723.08
588.487	10745.68
588.846	10836.3
589.206	10771.89
589.565	10663.42
589.925	10705.9
590.284	10740.93
590.643	10686.02
591.003	10754.27
591.362	10803.53
591.721	10791.55
592.08	10789.97
592.44	10825
592.799	10934.15
593.158	10771.67
593.517	10899.12
593.876	10909.97
594.235	10827.71
594.593	10883.3
594.952	10852.79
595.311	10834.04
595.67	10787.48
596.029	10860.48
596.387	10840.14
596.746	10835.39
597.104	10798.78
597.463	10827.26
597.822	10875.84
598.18	10836.52
598.538	10909.97
598.897	10958.78
599.255	10874.49
599.613	11036.29
599.972	10989.51
600.33	10990.19
600.688	10894.37
601.046	10961.27
601.404	10992.68
601.762	10972.11
602.12	10998.55
602.478	10971.43
602.836	10952.68
603.194	10886.47
603.552	10891.89
603.91	10867.48
604.268	10976.18
604.625	10896.41
604.983	10939.12
605.341	10984.77
605.698	11090.53
606.056	11117.65
606.413	11088.95
606.771	11127.59
607.128	11202.84
607.485	11088.27
607.843	11085.33
608.2	11142.73
608.557	11116.52
608.914	11144.76
609.272	11154.71
609.629	11140.92
609.986	11171.43
610.343	11096.63
610.7	11204.65
611.057	11164.42
611.414	11204.65
611.771	11280.35
612.127	11205.78
612.484	11298.21
612.841	11255.95
613.198	11250.3
613.554	11269.51
613.911	11312.67
614.267	11293.01
614.624	11317.64
614.98	11271.31
615.337	11369.39
615.693	11351.31
616.05	11349.73
616.406	11369.84
616.762	11312.89
617.118	11279.9
617.475	11276.06
617.831	11322.16
618.187	11335.49
618.543	11402.16
618.899	11406.9
619.255	11462.27
619.611	11427.24
619.967	11462.04
620.323	11513.34
620.678	11386.34
621.034	11470.18
621.39	11505.88
621.746	11480.12
622.101	11509.95
622.457	11376.17
622.812	11445.32
623.168	11483.06
623.523	11409.16
623.879	11463.4
624.234	11359.67
624.589	11423.85
624.945	11428.15
625.3	11392.44
625.655	11446.68
626.01	11435.6
626.365	11469.95
626.72	11440.35
627.075	11442.16
627.43	11428.6
627.785	11419.33
628.14	11509.27
628.495	11544.75
628.85	11516.05
629.205	11454.81
629.559	11425.43
629.914	11390.41
630.269	11399.45
630.623	11342.95
630.978	11254.59
631.332	11247.59
631.687	11303.18
632.041	11253.46
632.396	11289.84
632.75	11282.84
633.104	11294.36
633.459	11179.56
633.813	11226.57
634.167	11290.75
634.521	11231.77
634.875	11293.91
635.229	11243.74
635.583	11274.93
635.937	11200.81
636.291	11171.66
636.645	11161.26
636.999	11174.59
637.352	11182.5
637.706	11158.55
638.06	11107.7
638.413	11048.04
638.767	11007.37
639.121	11004.43
639.474	10968.27
639.828	10949.97
640.181	10901.15
640.534	10914.49
640.888	10880.82
641.241	10931.21
641.594	10965.79
641.947	10954.26
642.301	10930.98
642.654	10965.56
643.007	11008.04
643.36	10971.21
643.713	10895.96
644.066	10890.31
644.419	10925.11
644.771	10825
645.124	10719.24
645.477	10683.08
645.83	10522.63
646.182	10431.56
646.535	10419.36
646.888	10373.71
647.24	10432.47
647.593	10486.48
647.945	10387.72
648.298	10369.87
648.65	10346.82
649.002	10311.79
649.355	10361.51
649.707	10314.05
650.059	10384.56
650.411	10521.95
650.763	10622.52
651.115	10650.99
651.467	10630.2
651.819	10628.17
652.171	10584.1
652.523	10562.41
652.875	10561.28
653.227	10546.36
653.578	10562.86
653.93	10583.42
654.282	10412.13
654.633	10436.08
654.985	10443.09
655.337	10390.43
655.688	10307.5
656.039	10442.86
656.391	10327.38
656.742	10333.26
657.094	10394.05
657.445	10392.69
657.796	10392.01
658.147	10430.88
658.498	10309.98
658.849	10433.37
659.2	10332.58
659.551	10408.06
659.902	10412.35
660.253	10463.43
660.604	10440.83
660.955	10323.09
661.306	10390.66
661.656	10256.88
662.007	10326.93
662.358	10323.54
662.708	10302.3
663.059	10232.47
663.409	10145.92
663.76	10242.19
664.11	10178.46
664.461	10185.92
664.811	10185.92
665.161	10136.88
665.511	10167.84
665.862	10181.17
666.212	10223.43
666.562	10226.82
666.912	10187.05
667.262	10266.37
667.612	10313.6
667.962	10304.56
668.312	10277.89
668.662	10242.19
669.011	10301.62
669.361	10223.88
669.711	10268.4
670.06	10242.19
670.41	10143.21
670.76	10126.71
671.109	10142.08
671.459	10091.01
671.808	10141.4
672.157	10129.2
672.507	10046.49
672.856	10069.31
673.205	10021.4
673.554	10037.9
673.904	9982.31
674.253	10085.36
674.602	10062.08
674.951	9943.21
675.3	9905.7
675.649	10037.22
675.998	10052.36
676.346	10033.61
676.695	10126.03
677.044	9989.99
677.393	10144.34
677.741	10169.42
678.09	10125.58
678.438	10042.42
678.787	10011.23
679.135	9989.54
679.484	9966.94
679.832	9953.83
680.181	9860.73
680.529	9957
680.877	9849.88
681.225	9821.18
681.573	9918.13
681.922	9807.85
682.27	9728.3
682.618	9751.81
682.966	9674.97
683.314	9763.78
683.661	9725.59
684.009	9719.04
684.357	9730.56
684.705	9759.72
685.053	9753.84
685.4	9773.27
685.748	9721.75
686.095	9713.84
686.443	9702.32
686.79	9622.32
687.138	9671.13
687.485	9662.99
687.832	9621.87
688.18	9637.23
688.527	9562.66
688.874	9484.24
689.221	9452.83
689.568	9497.58
689.915	9369.44
690.262	9423
690.609	9277.47
690.956	9252.84
691.303	9263.91
691.65	9187.3
691.997	9187.3
692.344	9159.28
692.69	9221.88
693.037	9235.21
693.383	9170.8
693.73	9237.47
694.077	9165.83
694.423	9216.45
694.769	9180.97
695.116	9180.75
695.462	9160.41
695.808	9157.25
696.155	9150.01
696.501	9085.16
696.847	9045.61
697.193	8863.02
697.539	9016.23
697.885	8907.76
698.231	8879.29
698.577	8811.49
698.923	8781.66
699.269	8807.65
699.614	8730.59
699.96	8691.49
700.306	8720.42
700.651	8629.8
700.997	8601.1
701.342	8620.08
701.688	8633.19
702.033	8555.68
702.379	8587.32
702.724	8540.76
703.069	8568.33
703.415	8602.91
703.76	8561.55
704.105	8607.88
704.45	8570.59
704.795	8490.14
705.14	8536.92
705.485	8462.57
705.83	8443.14
706.175	8435
706.52	8442.69
706.865	8321.79
707.209	8376.25
707.554	8305.97
707.899	8385.74
708.243	8235.24
708.588	8270.49
708.932	8122.7
709.277	8169.93
709.621	8139.19
709.966	8113.43
710.31	8160.89
710.654	7989.82
710.998	8031.17
711.342	8017.84
711.687	8051.06
712.031	8017.61
712.375	8028.24
712.719	8028.24
713.063	8018.74
713.407	8080.21
713.75	8092.64
714.094	8036.37
714.438	7989.59
714.782	7987.11
715.125	7933.1
715.469	7997.28
715.812	7976.71
716.156	7880.22
716.499	7937.84
716.843	7960.21
717.186	7854
717.53	7834.57
717.873	7776.49
718.216	7785.76
718.559	7786.43
718.902	7664.18
719.246	7645.19
719.589	7616.95
719.932	7555.48
720.275	7560.22
720.617	7587.79
720.96	7631.41
721.303	7600.45
721.646	7515.71
721.989	7551.19
722.331	7536.72
722.674	7538.98
723.016	7640
723.359	7604.74
723.701	7647.23
724.044	7528.14
724.386	7543.5
724.729	7592.54
725.071	7587.34
725.413	7620.79
725.755	7545.08
726.097	7535.37
726.439	7505.54
726.782	7496.27
727.124	7486.33
727.465	7490.62
727.807	7411.75
728.149	7435.03
728.491	7332.66
728.833	7416.73
729.175	7270.06
729.516	7278.2
729.858	7288.82
730.199	7289.05
730.541	7267.35
730.882	7212.66
731.224	7248.82
731.565	7130.86
731.906	7218.99
732.248	7182.16
732.589	7214.25
732.93	7180.8
733.271	7189.39
733.612	7214.7
733.953	7229.61
734.294	7214.25
734.635	7177.86
734.976	7286.56
735.317	7247.69
735.658	7179.67
735.999	7184.64
736.339	7137.86
736.68	7230.52
737.021	7139.9
737.361	7117.98
737.702	7158.65
738.042	7098.54
738.383	7063.51
738.723	7043.4
739.063	6965.66
739.404	7014.48
739.744	7023.29
740.084	7006.57
740.424	6980.81
740.764	6960.69
741.104	6929.96
741.444	6924.54
741.784	6848.61
742.124	6867.36
742.464	6875.72
742.804	6907.81
743.143	6863.52
743.483	6823.07
743.823	6907.81
744.162	6870.98
744.502	6847.7
744.841	6878.43
745.181	6919.11
745.52	6857.42
745.86	6894.93
746.199	6918.66
746.538	6960.24
746.877	6891.77
747.216	6924.76
747.556	6859.68
747.895	6862.39
748.234	6771.09
748.573	6730.87
748.911	6750.3
749.25	6712.56
749.589	6618.78
749.928	6612.23
750.267	6700.36
750.605	6586.24
750.944	6634.15
751.283	6593.7
751.621	6602.96
751.96	6601.15
752.298	6561.16
752.636	6582.62
752.975	6503.53
753.313	6502.63
753.651	6482.51
753.989	6564.09
754.327	6547.6
754.666	6489.07
755.004	6527.03
755.342	6533.59
755.679	6581.49
756.017	6492.91
756.355	6546.24
756.693	6499.01
757.031	6518.67
757.368	6496.3
757.706	6457.2
758.044	6454.04
758.381	6397.77
758.719	6417.43
759.056	6414.72
759.394	6370.43
759.731	6334.27
760.068	6332.91
760.405	6257.43
760.743	6259.47
761.08	6205.68
761.417	6199.13
761.754	6094.05
762.091	6081.85
762.428	6113.71
762.765	6077.55
763.102	6083.2
763.438	6113.03
763.775	6031.45
764.112	6047.95
764.449	6073.94
764.785	5980.61
765.122	6043.88
765.458	5960.04
765.795	5969.08
766.131	6007.5
766.467	5980.38
766.804	5924.11
767.14	5897.22
767.476	5934.28
767.812	5946.48
768.148	5921.4
768.485	5905.13
768.821	5885.92
769.157	5884.56
769.492	5846.6
769.828	5824
770.164	5741.06
770.5	5789.65
770.836	5716.66
771.171	5678.47
771.507	5675.75
771.842	5639.82
772.178	5676.88
772.513	5612.48
772.849	5587.17
773.184	5522.31
773.519	5558.02
773.855	5537.45
774.19	5490.67
774.525	5444.35
774.86	5463.33
775.195	5461.75
775.53	5441.41
775.865	5443.67
776.2	5372.49
776.535	5349.21
776.87	5379.94
777.205	5370.68
777.539	5368.19
777.874	5373.39
778.209	5358.25
778.543	5348.76
778.878	5268.08
779.212	5282.09
779.547	5288.19
779.881	5335.42
780.215	5280.51
780.55	5231.47
780.884	5231.25
781.218	5234.64
781.552	5188.08
781.886	5147.18
782.22	5116.67
782.554	5115.32
782.888	5076.67
783.222	5037.35
783.556	5021.99
783.889	4996.9
784.223	5014.98
784.557	4948.09
784.89	4949.9
785.224	4887.3
785.557	4955.55
785.891	4844.59
786.224	4850.47
786.558	4890.92
786.891	4812.95
787.224	4825.61
787.557	4802.78
787.891	4796.46
788.224	4791.03
788.557	4776.12
788.89	4796.68
789.223	4786.74
789.556	4757.81
789.888	4738.38
790.221	4752.84
790.554	4748.55
790.887	4727.76
791.219	4716.91
791.552	4666.29
791.884	4637.82
792.217	4646.18
792.549	4649.57
792.882	4589
793.214	4569.34
793.546	4574.99
793.879	4581.09
794.211	4568.89
794.543	4540.42
794.875	4529.57
795.207	4476.92
795.539	4493.19
795.871	4492.96
796.203	4451.15
796.535	4372.51
796.867	4371.16
797.198	4381.78
797.53	4361.44
797.862	4333.19
798.193	4381.55
798.525	4340.42
798.856	4332.51
799.188	4296.36
799.519	4274.89
799.85	4299.52
800.182	4259.75
800.513	4285.51
800.844	4271.5
801.175	4273.08
801.506	4293.64
801.837	4254.1
802.168	4225.4
802.499	4230.14
802.83	4194.44
803.161	4200.54
803.491	4219.97
803.822	4238.96
804.153	4184.95
804.483	4146.08
804.814	4149.69
805.145	4157.15
805.475	4156.47
805.805	4094.55
806.136	4080.09
806.466	4109.02
806.796	4062.69
807.126	4049.58
807.457	4026.98
807.787	4050.71
808.117	4020.66
808.447	4021.79
808.777	4002.58
809.107	3987.89
809.436	3926.42
809.766	3946.31
810.096	3992.64
810.426	3913.54
810.755	3936.37
811.085	3943.6
811.414	3868.57
811.744	3880.77
812.073	3906.99
812.403	3902.47
812.732	3881.9
813.061	3881.9
813.39	3833.32
813.719	3860.66
814.049	3907.44
814.378	3845.07
814.707	3849.59
815.036	3850.94
815.365	3815.01
815.693	3806.2
816.022	3823.83
816.351	3821.11
816.68	3817.27
817.008	3803.94
817.337	3795.8
817.665	3774.56
817.994	3809.59
818.322	3789.48
818.651	3759.65
818.979	3748.12
819.307	3704.28
819.636	3705.64
819.964	3704.06
820.292	3717.16
820.62	3700.67
820.948	3682.59
821.276	3639.42
821.604	3712.87
821.932	3659.76
822.259	3696.6
822.587	3674.68
822.915	3632.42
823.243	3628.8
823.57	3642.14
823.898	3662.47
824.225	3606.66
824.553	3618.41
824.88	3642.59
825.207	3678.29
825.535	3629.71
825.862	3696.15
826.189	3657.73
826.516	3671.51
826.843	3714.45
827.17	3709.48
827.497	3684.17
827.824	3693.89
828.151	3690.95
828.478	3686.65
828.805	3699.76
829.131	3693.66
829.458	3723.04
829.785	3654.79
830.111	3695.02
830.438	3721.91
830.764	3692.53
831.09	3671.97
831.417	3642.81
831.743	3665.64
832.069	3664.51
832.395	3694.56
832.722	3661.8
833.048	3647.56
833.374	3648.01
833.7	3612.31
834.026	3619.09
834.351	3624.51
834.677	3587.67
835.003	3649.82
835.329	3631.06
835.654	3571.18
835.98	3553.78
836.306	3586.77
836.631	3573.44
836.956	3552.65
837.282	3579.99
837.607	3547.22
837.932	3545.42
838.258	3552.42
838.583	3502.7
838.908	3541.8
839.233	3566.21
839.558	3513.78
839.883	3521.91
840.208	3516.04
840.533	3524.85
840.858	3514.23
841.182	3550.61
841.507	3536.15
841.832	3531.4
842.156	3496.38
842.481	3482.59
842.805	3502.93
843.13	3492.08
843.454	3489.15
843.778	3510.39
844.103	3487.56
844.427	3468.81
844.751	3483.27
845.075	3449.82
845.399	3434.01
845.723	3438.3
846.047	3441.24
846.371	3389.04
846.695	3387.23
847.019	3390.62
847.343	3344.52
847.666	3329.38
847.99	3311.98
848.313	3259.32
848.637	3291.18
848.96	3250.06
849.284	3260
849.607	3248.47
849.931	3260.9
850.254	3218.64
850.577	3214.12
850.9	3213.67
851.223	3184.07
851.546	3141.13
851.869	3114.92
852.192	3214.12
852.515	3114.92
852.838	3130.96
853.161	3108.59
853.483	3128.25
853.806	3124.41
854.129	3106.33
854.451	3101.59
854.774	3103.17
855.096	3084.64
855.419	3096.61
855.741	3110.17
856.063	3078.31
856.385	3074.47
856.708	3087.57
857.03	3065.2
857.352	3098.87
857.674	3085.99
857.996	3071.76
858.318	3034.24
858.64	3055.94
858.961	3031.53
859.283	2986.33
859.605	2985.66
859.926	3028.37
860.248	2962.38
860.57	2987.69
860.891	2965.09
861.212	2956.28
861.534	2967.58
861.855	2921.93
862.176	2881.7
862.498	2921.02
862.819	2898.2
863.14	2922.83
863.461	2879.9
863.782	2884.87
864.103	2857.3
864.424	2840.58
864.745	2867.92
865.065	2837.19
865.386	2848.71
865.707	2810.07
866.027	2838.32
866.348	2831.08
866.668	2844.87
866.989	2850.07
867.309	2854.13
867.63	2803.29
867.95	2831.54
868.27	2814.14
868.59	2819.56
868.91	2801.93
869.23	2841.48
869.55	2848.71
869.87	2840.8
870.19	2842.83
870.51	2848.26
870.83	2808.26
871.15	2804.42
871.469	2784.08
871.789	2825.89
872.109	2812.78
872.428	2831.54
872.748	2801.71
873.067	2773.46
873.386	2766
873.706	2786.79
874.025	2786.79
874.344	2747.47
874.663	2773.68
874.982	2743.4
875.301	2749.05
875.62	2692.78
875.939	2733.69
876.258	2734.59
876.577	2716.96
876.896	2723.52
877.214	2698.66
877.533	2700.01
877.852	2668.83
878.17	2657.53
878.489	2690.07
878.807	2705.89
879.125	2684.87
879.444	2685.1
879.762	2680.81
880.08	2667.47
880.398	2654.82
880.716	2667.92
881.034	2619.34
881.352	2664.76
881.67	2648.49
881.988	2626.8
882.306	2674.03
882.624	2625.44
882.941	2632.44
883.259	2641.71
883.577	2640.58
883.894	2639.68
884.212	2614.82
884.529	2615.27
884.846	2611.43
885.164	2618.21
885.481	2596.51
885.798	2605.55
886.115	2630.19
886.432	2596.97
886.75	2578.21
887.067	2590.86
887.383	2587.47
887.7	2603.52
888.017	2564.2
888.334	2582.5
888.651	2586.12
888.967	2570.98
889.284	2566.46
889.6	2550.87
889.917	2504.99
890.233	2538.44
890.55	2527.59
890.866	2509.28
891.182	2492.34
891.498	2531.43
891.815	2466.12
892.131	2458.44
892.447	2454.82
892.763	2468.61
893.079	2429.96
893.395	2469.51
893.71	2419.12
894.026	2458.21
894.342	2422.96
894.657	2432
894.973	2396.74
895.289	2403.52
895.604	2411.89
895.92	2349.29
896.235	2344.99
896.55	2375.95
896.865	2382.73
897.181	2378.21
897.496	2380.25
897.811	2330.53
898.126	2349.74
898.441	2348.61
898.756	2323.3
899.071	2352.45
899.386	2387.48
899.7	2346.8
900.015	2323.07
900.33	2312.45
900.644	2308.39
900.959	2337.76
901.273	2303.64
901.588	2326.01
901.902	2297.76
902.216	2286.47
902.531	2303.41
902.845	2244.88
903.159	2258.67
903.473	2248.27
903.787	2230.87
904.101	2250.99
904.415	2269.97
904.729	2224.32
905.042	2185.68
905.356	2209.18
905.67	2214.15
905.984	2199.24
906.297	2184.32
906.611	2189.29
906.924	2139.58
907.237	2145.9
907.551	2118.33
907.864	2158.79
908.177	2112.68
908.491	2118.33
908.804	2093.25
909.117	2100.26
909.43	2101.16
909.743	2079.92
910.056	2062.52
910.368	2065.45
910.681	2076.3
910.994	2068.62
911.307	2060.48
911.619	2065.68
911.932	2028.17
912.244	2008.73
912.557	2027.72
912.869	2017.55
913.181	2020.26
913.494	1997.66
913.806	2008.96
914.118	1979.13
914.43	1985.46
914.742	2008.28
915.054	1978.9
915.366	1986.36
915.678	1996.3
915.99	1969.41
916.302	1914.95
916.613	1928.73
916.925	1940.03
917.236	1950.65
917.548	1929.86
917.859	1946.36
918.171	1956.98
918.482	1912.01
918.794	1880.37
919.105	1883.09
919.416	1868.4
919.727	1889.41
920.038	1880.83
920.349	1904.33
920.66	1854.39
920.971	1894.61
921.282	1882.86
921.593	1817.1
921.903	1846.48
922.214	1804.22
922.525	1848.28
922.835	1826.82
923.146	1801.05
923.456	1790.89
923.767	1810.09
924.077	1778
924.387	1776.42
924.697	1775.74
925.008	1745.91
925.318	1740.72
925.628	1752.69
925.938	1747.95
926.248	1725.35
926.558	1719.25
926.867	1689.42
927.177	1703.66
927.487	1713.6
927.796	1675.18
928.106	1720.38
928.416	1695.97
928.725	1688.29
929.034	1691.68
929.344	1671.79
929.653	1659.82
929.962	1665.01
930.271	1661.4
930.581	1669.98
930.89	1669.98
931.199	1645.58
931.508	1644.67
931.817	1666.37
932.125	1636.99
932.434	1641.06
932.743	1640.38
933.051	1628.86
933.36	1615.3
933.669	1596.99
933.977	1592.25
934.286	1615.52
934.594	1582.08
934.902	1617.1
935.21	1581.4
935.519	1586.82
935.827	1586.6
936.135	1564.45
936.443	1548.41
936.751	1571.46
937.059	1553.38
937.367	1538.69
937.674	1574.17
937.982	1540.27
938.29	1538.46
938.597	1521.29
938.905	1523.1
939.213	1498.24
939.52	1494.85
939.827	1484.68
940.135	1446.71
940.442	1505.92
940.749	1483.77
941.056	1469.54
941.363	1462.08
941.67	1474.28
941.977	1466.83
942.284	1413.49
942.591	1444.68
942.898	1433.83
943.205	1434.96
943.511	1427.5
943.818	1416.66
944.125	1405.81
944.431	1418.69
944.738	1407.84
945.044	1422.99
945.35	1422.76
945.657	1408.3
945.963	1403.78
946.269	1393.16
946.575	1392.48
946.881	1382.99
947.187	1363.78
947.493	1408.75
947.799	1379.14
948.105	1337.34
948.41	1360.39
948.716	1385.25
949.022	1355.19
949.327	1358.81
949.633	1345.02
949.938	1352.48
950.244	1363.55
950.549	1320.61
950.854	1352.48
951.16	1332.14
951.465	1317.23
951.77	1293.5
952.075	1320.61
952.38	1282.2
952.685	1279.26
952.99	1296.43
953.294	1312.03
953.599	1284.46
953.904	1282.65
954.209	1240.62
954.513	1278.36
954.818	1277.45
955.122	1242.42
955.426	1262.54
955.731	1251.24
956.035	1234.97
956.339	1281.29
956.643	1227.06
956.948	1240.84
957.252	1234.29
957.556	1213.5
957.86	1222.31
958.163	1228.19
958.467	1188.42
958.771	1216.89
959.075	1205.59
959.378	1192.93
959.682	1171.24
959.985	1191.35
960.289	1207.4
960.592	1170.34
960.896	1164.23
961.199	1174.86
961.502	1172.6
961.805	1193.16
962.108	1140.73
962.411	1172.37
962.714	1133.28
963.017	1157.68
963.32	1141.41
963.623	1147.06
963.926	1142.09
964.228	1150.68
964.531	1149.32
964.833	1153.16
965.136	1121.98
965.438	1125.82
965.741	1105.03
966.043	1115.87
966.345	1112.71
966.648	1104.35
966.95	1085.59
967.252	1090.56
967.554	1121.3
967.856	1108.64
968.158	1089.66
968.46	1072.03
968.761	1059.15
969.063	1085.37
969.365	1088.98
969.666	1089.43
969.968	1053.28
970.269	1042.88
970.571	1045.59
970.872	1057.35
971.174	1059.83
971.475	1056.89
971.776	1065.03
972.077	1072.03
972.378	1055.09
972.679	1045.59
972.98	1023.67
973.281	1018.93
973.582	1033.16
973.883	1035.88
974.183	1013.5
974.484	1017.35
974.785	1005.6
975.085	1004.24
975.386	1015.31
975.686	991.36
975.986	996.33
976.287	1012.83
976.587	975.77
976.887	981.64
977.187	985.71
977.487	1000.62
977.787	997.23
978.087	949.1
978.387	959.04
978.687	963.56
978.987	939.61
979.286	953.62
979.586	968.99
979.885	966.73
980.185	950.68
980.484	943.22
980.784	966.73
981.083	960.4
981.382	963.11
981.682	950.68
981.981	931.7
982.28	949.33
982.579	905.94
982.878	944.35
983.177	956.56
983.475	914.52
983.774	924.69
984.073	926.05
984.372	919.04
984.67	903.9
984.969	919.72
985.267	913.62
985.566	943.22
985.864	912.49
986.162	905.71
986.461	917.46
986.759	900.51
987.057	861.42
987.355	871.81
987.653	884.69
987.951	882.21
988.249	881.08
988.547	878.37
988.844	905.48
989.142	872.72
989.44	833.4
989.737	874.07
990.035	889.44
990.332	855.77
990.63	858.93
990.927	840.18
991.224	821.65
991.521	808.09
991.819	852.83
992.116	829.33
992.413	835.2
992.71	840.85
993.006	856.9
993.303	815.54
993.6	813.06
993.897	829.33
994.193	832.94
994.49	824.81
994.787	817.35
995.083	803.11
995.379	810.57
995.676	808.31
995.972	796.56
996.268	798.82
996.565	810.35
996.861	780.74
997.157	789.33
997.453	782.32
997.749	781.65
998.044	803.79
998.34	756.11
998.636	778.26
998.932	775.09
999.227	789.78
999.523	767.86
999.818	765.83
1000.114	781.19
1000.409	777.35
1000.704	769.44
1001	746.17
1001.295	764.47
1001.59	758.37
1001.885	773.51
1002.18	752.49
1002.475	749.56
1002.77	736.68
1003.065	745.49
1003.359	738.94
1003.654	728.09
1003.949	732.16
1004.243	719.95
1004.538	733.06
1004.832	737.13
1005.127	748.2
1005.421	737.35
1005.715	723.79
1006.009	731.7
1006.304	713.4
1006.598	719.5
1006.892	706.85
1007.186	688.32
1007.48	689.9
1007.773	711.59
1008.067	697.58
1008.361	687.19
1008.655	698.94
1008.948	690.35
1009.242	701.2
1009.535	695.32
1009.829	691.25
1010.122	657.13
1010.415	668.2
1010.708	691.93
1011.001	655.77
1011.295	663.91
1011.588	666.39
1011.881	660.97
1012.173	667.75
1012.466	650.12
1012.759	630.01
1013.052	641.99
1013.344	668.88
1013.637	637.92
1013.93	631.14
1014.222	623.91
1014.514	629.33
1014.807	638.6
1015.099	650.8
1015.391	649.9
1015.683	637.24
1015.976	626.4
1016.268	625.94
1016.56	651.48
1016.851	618.71
1017.143	611.26
1017.435	632.27
1017.727	624.81
1018.018	632.05
1018.31	623.01
1018.602	620.75
1018.893	593.4
1019.185	590.46
1019.476	604.25
1019.767	600.41
1020.058	592.72
1020.35	620.07
1020.641	622.55
1020.932	581.65
1021.223	606.74
1021.514	596.34
1021.804	601.76
1022.095	569.45
1022.386	586.62
1022.677	569.45
1022.967	574.19
1023.258	580.3
1023.548	580.07
1023.839	561.99
1024.129	570.58
1024.419	573.97
1024.709	571.48
1025	578.49
1025.29	583.23
1025.58	568.54
1025.87	561.99
1026.16	549.79
1026.449	554.99
1026.739	559.96
1027.029	542.78
1027.319	529.9
1027.608	549.79
1027.898	542.33
1028.187	538.49
1028.477	540.75
1028.766	528.55
1029.055	528.09
1029.344	532.16
1029.634	510.69
1029.923	519.96
1030.212	538.71
1030.501	534.87
1030.79	529.9
1031.078	512.95
1031.367	520.86
1031.656	511.37
1031.945	538.04
1032.233	543.01
1032.522	531.48
1032.81	506.17
1033.099	511.82
1033.387	504.59
1033.675	499.17
1033.963	488.77
1034.251	499.39
1034.54	493.97
1034.828	511.6
1035.116	500.98
1035.403	490.35
1035.691	476.34
1035.979	488.32
1036.267	496.23
1036.554	499.62
1036.842	475.67
1037.129	460.52
1037.417	489
1037.704	468.66
1037.992	488.55
1038.279	474.76
1038.566	493.07
1038.853	493.07
1039.14	493.07
