Data from foam_black_FLMS001491_00100.txt Node
Date: Wed Feb 08 10:45:06 GMT 2017
User: dcchb
Spectrometer: FLMS00149
Trigger mode: 0
Integration Time (sec): 2.000000E-2
Scans to average: 10
Electric dark correction enabled: true
Nonlinearity correction enabled: false
Boxcar width: 0
XAxis mode: Wavelengths
Number of Pixels in Spectrum: 2048
>>>>>Begin Spectral Data<<<<<
341.393	-6.72
341.776	-6.72
342.16	-6.72
342.543	-59.6
342.927	-32.94
343.31	-72.94
343.693	-60.73
344.077	-64.57
344.46	-34.29
344.843	-46.27
345.226	-32.03
345.61	-44.46
345.993	-24.35
346.376	-6.72
346.759	9.77
347.142	32.82
347.525	41.86
347.908	39.83
348.291	72.37
348.674	89.09
349.057	100.62
349.44	116.44
349.823	146.72
350.206	146.72
350.588	179.03
350.971	196.21
351.354	210.22
351.737	224.23
352.119	227.17
352.502	240.05
352.884	240.28
353.267	237.34
353.65	260.84
354.032	264.68
354.414	276.43
354.797	264
355.179	301.97
355.562	305.36
355.944	298.13
356.326	301.29
356.709	308.07
357.091	301.74
357.473	321.63
357.855	309.88
358.238	309.88
358.62	311.46
359.002	301.74
359.384	328.41
359.766	335.19
360.148	317.79
360.53	306.72
360.912	308.3
361.294	300.39
361.676	302.2
362.057	296.09
362.439	290.67
362.821	306.26
363.203	294.29
363.584	287.73
363.966	316.43
364.348	311.23
364.729	278.24
365.111	299.71
365.493	284.34
365.874	286.6
366.256	279.37
366.637	289.77
367.019	263.78
367.4	277.11
367.781	288.86
368.163	277.79
368.544	276.89
368.925	278.92
369.306	277.34
369.688	260.61
370.069	276.66
370.45	268.98
370.831	287.28
371.212	271.24
371.593	284.34
371.974	285.47
372.355	281.86
372.736	286.38
373.117	288.41
373.498	293.38
373.879	280.05
374.26	265.13
374.641	283.44
375.021	279.82
375.402	288.64
375.783	270.78
376.163	287.51
376.544	282.08
376.925	296.32
377.305	271.24
377.686	289.77
378.066	302.87
378.447	297.9
378.827	294.96
379.208	292.93
379.588	278.47
379.968	293.38
380.349	281.63
380.729	277.34
381.109	276.43
381.489	305.81
381.87	296.77
382.25	299.71
382.63	314.85
383.01	293.83
383.39	286.38
383.77	288.41
384.15	300.61
384.53	300.61
384.91	288.64
385.29	303.1
385.67	296.55
386.049	307.85
386.429	286.83
386.809	287.51
387.189	294.96
387.568	326.38
387.948	314.62
388.328	301.29
388.707	297
389.087	305.36
389.466	310.78
389.846	321.18
390.225	320.5
390.605	306.72
390.984	292.93
391.363	300.84
391.743	303.55
392.122	318.92
392.501	300.16
392.881	303.55
393.26	296.77
393.639	311.69
394.018	319.14
394.397	314.4
394.776	308.3
395.155	317.34
395.534	301.29
395.913	314.85
396.292	328.64
396.671	320.5
397.05	307.85
397.429	320.27
397.808	312.82
398.186	324.34
398.565	314.4
398.944	320.95
399.323	312.59
399.701	316.66
400.08	315.53
400.458	328.41
400.837	337.45
401.215	316.88
401.594	307.85
401.972	316.66
402.351	308.97
402.729	316.88
403.107	299.03
403.486	339.03
403.864	312.36
404.242	323.89
404.62	334.96
404.999	321.63
405.377	332.03
405.755	325.7
406.133	343.55
406.511	334.74
406.889	329.09
407.267	333.61
407.645	318.69
408.023	319.14
408.401	341.74
408.779	359.37
409.156	351.23
409.534	354.4
409.912	337.45
410.29	338.13
410.667	335.19
411.045	348.52
411.422	346.71
411.8	337
412.178	318.69
412.555	344.91
412.933	365.24
413.31	356.43
413.687	340.39
414.065	365.47
414.442	351.01
414.819	353.04
415.197	373.61
415.574	362.53
415.951	348.75
416.328	344.45
416.705	362.98
417.082	353.04
417.46	344.45
417.837	375.64
418.214	362.76
418.591	359.82
418.967	350.56
419.344	351.46
419.721	357.11
420.098	373.38
420.475	363.89
420.852	367.5
421.228	342.87
421.605	374.06
421.982	364.34
422.358	373.61
422.735	371.57
423.111	361.18
423.488	382.87
423.864	374.96
424.241	394.4
424.617	360.05
424.994	388.29
425.37	383.1
425.746	395.53
426.123	377
426.499	360.05
426.875	372.93
427.251	371.35
427.627	372.48
428.003	391.46
428.379	399.82
428.756	379.03
429.132	375.64
429.507	383.55
429.883	384.45
430.259	382.87
430.635	388.75
431.011	382.65
431.387	366.6
431.763	383.55
432.138	383.55
432.514	396.66
432.89	377.67
433.265	402.53
433.641	419.03
434.016	396.66
434.392	418.12
434.767	421.74
435.143	383.32
435.518	414.73
435.894	385.36
436.269	411.8
436.644	410.89
437.02	426.49
437.395	410.89
437.77	413.6
438.145	408.18
438.52	421.29
438.895	419.25
439.271	403.21
439.646	405.47
440.021	427.39
440.395	419.03
440.77	430.55
441.145	448.86
441.52	443.89
441.895	446.82
442.27	437.56
442.645	441.85
443.019	431.68
443.394	434.62
443.769	440.95
444.143	433.27
444.518	455.64
444.892	431.01
445.267	439.82
445.641	434.4
446.016	454.73
446.39	448.18
446.764	446.15
447.139	426.49
447.513	466.94
447.887	424
448.262	463.32
448.636	456.54
449.01	412.48
449.384	450.89
449.758	466.03
450.132	458.35
450.506	472.36
450.88	471.23
451.254	475.75
451.628	453.15
452.002	468.29
452.376	491.57
452.75	456.32
453.123	482.3
453.497	456.77
453.871	472.81
454.244	473.04
454.618	501.51
454.992	482.3
455.365	480.27
455.739	455.41
456.112	482.76
456.486	467.61
456.859	482.76
457.232	483.43
457.606	491.12
457.979	488.18
458.352	506.03
458.725	512.81
459.099	504.22
459.472	507.39
459.845	511.91
460.218	514.17
460.591	492.7
460.964	529.31
461.337	522.53
461.71	536.09
462.083	524.56
462.456	518.69
462.829	518.01
463.201	515.75
463.574	526.14
463.947	512.13
464.32	527.95
464.692	506.71
465.065	553.49
465.438	569.31
465.81	547.84
466.183	552.81
466.555	570.89
466.928	584.45
467.3	583.32
467.672	556.43
468.045	566.37
468.417	571.34
468.789	576.99
469.161	579.25
469.534	573.83
469.906	596.2
470.278	598.23
470.65	596.42
471.022	570.89
471.394	613.15
471.766	594.17
472.138	624.22
472.51	625.12
472.882	598.01
473.253	617.22
473.625	624.45
473.997	627.84
474.369	628.06
474.74	603.66
475.112	640.49
475.484	652.92
475.855	649.53
476.227	662.64
476.598	672.81
476.97	670.55
477.341	661.96
477.713	677.33
478.084	691.79
478.455	697.44
478.827	709.64
479.198	695.18
479.569	714.61
479.94	724.56
480.311	722.3
480.682	747.83
481.053	732.01
481.424	745.57
481.795	748.29
482.166	745.8
482.537	743.99
482.908	762.97
483.279	801.39
483.65	786.93
484.021	800.26
484.391	816.31
484.762	814.5
485.133	812.46
485.503	804.33
485.874	829.87
486.244	827.61
486.615	824.22
486.985	841.84
487.356	830.54
487.726	883.65
488.097	891.33
488.467	898.11
488.837	882.07
489.207	906.02
489.578	932.24
489.948	932.01
490.318	914.16
490.688	926.36
491.058	965.68
491.428	952.35
491.798	947.83
492.168	981.95
492.538	1002.97
492.908	992.57
493.278	997.54
493.648	990.99
494.017	994.38
494.387	969.75
494.757	1007.04
495.126	1015.85
495.496	1033.02
495.866	1019.46
496.235	1002.74
496.605	1050.2
496.974	1036.19
497.344	1021.27
497.713	1015.4
498.082	1055.17
498.452	1065.79
498.821	1090.2
499.19	1052.01
499.559	1049.29
499.928	1081.84
500.298	1083.87
500.667	1087.49
501.036	1081.61
501.405	1052.46
501.774	1085.9
502.143	1082.97
502.512	1099.46
502.88	1088.16
503.249	1099.91
503.618	1080.25
503.987	1142.4
504.356	1132.68
504.724	1126.81
505.093	1138.11
505.462	1125.45
505.83	1152.57
506.199	1141.27
506.567	1156.41
506.936	1164.09
507.304	1186.01
507.672	1185.79
508.041	1179.46
508.409	1177.65
508.777	1202.51
509.145	1196.18
509.514	1212.45
509.882	1254.03
510.25	1220.36
510.618	1221.72
510.986	1246.13
511.354	1248.61
511.722	1267.14
512.09	1268.72
512.458	1277.99
512.826	1247.48
513.193	1281.15
513.561	1295.39
513.929	1315.28
514.297	1277.76
514.664	1330.87
515.032	1311.43
515.4	1335.61
515.767	1323.86
516.135	1358.21
516.502	1353.02
516.869	1333.81
517.237	1371.77
517.604	1373.13
517.972	1367.25
518.339	1382.84
518.706	1418.1
519.073	1412.67
519.44	1421.26
519.808	1404.99
520.175	1407.03
520.542	1445.44
520.909	1467.36
521.276	1440.7
521.643	1439.79
522.009	1456.29
522.376	1471.88
522.743	1438.44
523.11	1460.58
523.477	1485.22
523.843	1493.58
524.21	1509.4
524.577	1512.11
524.943	1501.49
525.31	1516.4
525.676	1523.41
526.043	1534.03
526.409	1526.57
526.776	1538.77
527.142	1535.16
527.508	1540.81
527.874	1544.42
528.241	1547.81
528.607	1591.2
528.973	1573.8
529.339	1593.01
529.705	1593.01
530.071	1588.49
530.437	1595.04
530.803	1618.09
531.169	1623.29
531.535	1607.92
531.901	1625.32
532.267	1638.88
532.632	1640.92
532.998	1651.76
533.364	1646.79
533.73	1651.54
534.095	1672.78
534.461	1722.27
534.826	1711.2
535.192	1723.63
535.557	1692.89
535.923	1698.77
536.288	1725.21
536.653	1718.66
537.019	1717.98
537.384	1753.23
537.749	1750.52
538.114	1781.03
538.479	1778.31
538.845	1774.25
539.21	1777.18
539.575	1817.64
539.94	1780.35
540.305	1798.2
540.67	1820.12
541.034	1825.32
541.399	1845.21
541.764	1825.32
542.129	1837.52
542.494	1837.75
542.858	1854.02
543.223	1893.57
543.587	1858.09
543.952	1885.88
544.316	1898.54
544.681	1898.76
545.045	1899.44
545.41	1896.96
545.774	1890.85
546.138	1913.45
546.503	1898.99
546.867	1916.16
547.231	1944.19
547.595	1939.89
547.959	1971.76
548.324	1950.51
548.688	1964.98
549.052	1964.07
549.416	1947.12
549.779	1966.33
550.143	1939.44
550.507	1983.06
550.871	1992.09
551.235	1999.55
551.599	1983.28
551.962	1986.67
552.326	2003.17
552.689	2014.47
553.053	2000
553.417	1994.81
553.78	2008.82
554.143	2020.34
554.507	2003.85
554.87	2000
555.234	2022.15
555.597	2015.6
555.96	2025.77
556.323	2065.99
556.686	2050.85
557.05	2077.74
557.413	2051.3
557.776	2061.02
558.139	2063.51
558.502	2072.54
558.865	2068.25
559.228	2073.22
559.59	2074.35
559.953	2079.55
560.316	2136.05
560.679	2108.48
561.041	2143.5
561.404	2124.97
561.767	2121.36
562.129	2164.97
562.492	2150.96
562.854	2141.7
563.217	2184.41
563.579	2140.11
563.941	2177.63
564.304	2195.7
564.666	2207.91
565.028	2239.09
565.39	2216.27
565.753	2262.37
566.115	2265.08
566.477	2286.55
566.839	2260.79
567.201	2286.78
567.563	2287.91
567.925	2320
568.287	2329.49
568.648	2331.07
569.01	2378.98
569.372	2382.59
569.734	2337.4
570.095	2367.23
570.457	2416.04
570.819	2449.71
571.18	2406.77
571.542	2427.56
571.903	2442.7
572.265	2488.13
572.626	2467.79
572.987	2442.93
573.349	2470.73
573.71	2482.48
574.071	2487
574.432	2477.05
574.794	2486.09
575.155	2512.53
575.516	2539.65
575.877	2527
576.238	2562.93
576.599	2525.41
576.96	2556.6
577.32	2571.51
577.681	2579.88
578.042	2555.92
578.403	2592.08
578.763	2599.08
579.124	2590.04
579.485	2590.5
579.845	2581.01
580.206	2600.21
580.566	2592.08
580.927	2574.23
581.287	2604.06
581.648	2593.66
582.008	2572.42
582.368	2560.89
582.728	2582.14
583.089	2560.22
583.449	2566.09
583.809	2588.24
584.169	2564.73
584.529	2587.33
584.889	2550.72
585.249	2587.56
585.609	2548.01
585.969	2557.5
586.329	2529.03
586.688	2576.49
587.048	2498.75
587.408	2535.36
587.768	2510.27
588.127	2536.71
588.487	2519.99
588.846	2514.79
589.206	2522.7
589.565	2526.32
589.925	2536.94
590.284	2541.68
590.643	2516.37
591.003	2547.79
591.362	2519.54
591.721	2520.89
592.08	2517.5
592.44	2505.75
592.799	2512.98
593.158	2524.06
593.517	2521.12
593.876	2535.13
594.235	2525.41
594.593	2531.06
594.952	2515.7
595.311	2531.97
595.67	2502.82
596.029	2539.2
596.387	2550.5
596.746	2538.29
597.104	2543.27
597.463	2532.42
597.822	2562.7
598.18	2511.18
598.538	2555.02
598.897	2576.71
599.255	2547.33
599.613	2580.78
599.972	2567.22
600.33	2585.53
600.688	2562.93
601.046	2533.1
601.404	2592.53
601.762	2588.91
602.12	2604.28
602.478	2595.24
602.836	2594.79
603.194	2582.81
603.552	2646.09
603.91	2615.58
604.268	2663.49
604.625	2609.48
604.983	2630.95
605.341	2643.6
605.698	2635.47
606.056	2657.16
606.413	2658.97
606.771	2659.42
607.128	2657.16
607.485	2656.71
607.843	2704.17
608.2	2700.78
608.557	2727.89
608.914	2706.65
609.272	2712.08
609.629	2726.54
609.986	2740.55
610.343	2709.59
610.7	2728.57
611.057	2745.52
611.414	2722.47
611.771	2730.83
612.127	2743.71
612.484	2766.09
612.841	2753.88
613.198	2725.86
613.554	2751.85
613.911	2772.86
614.267	2771.96
614.624	2734.45
614.98	2751.62
615.337	2766.54
615.693	2765.63
616.05	2745.52
616.406	2803.37
616.762	2752.3
617.118	2767.44
617.475	2760.21
617.831	2795.46
618.187	2774.45
618.543	2743.26
618.899	2747.1
619.255	2771.74
619.611	2721.34
619.967	2767.44
620.323	2741.91
620.678	2733.54
621.034	2729.7
621.39	2730.15
621.746	2732.64
622.101	2752.98
622.457	2698.97
622.812	2710.04
623.168	2742.13
623.523	2696.48
623.879	2771.28
624.234	2712.53
624.589	2714.34
624.945	2726.54
625.3	2721.57
625.655	2724.28
626.01	2743.71
626.365	2750.49
626.72	2722.7
627.075	2711.85
627.43	2726.54
627.785	2732.64
628.14	2719.08
628.495	2698.74
628.85	2693.54
629.205	2691.51
629.559	2707.78
629.914	2662.36
630.269	2735.8
630.623	2637.73
630.978	2672.08
631.332	2714.79
631.687	2665.07
632.041	2637.95
632.396	2681.79
632.75	2683.38
633.104	2696.93
633.459	2679.31
633.813	2667.56
634.167	2689.7
634.521	2672.3
634.875	2637.05
635.229	2657.61
635.583	2619.65
635.937	2656.71
636.291	2663.72
636.645	2658.74
636.999	2665.3
637.352	2673.43
637.706	2690.61
638.06	2664.85
638.413	2655.81
638.767	2631.63
639.121	2633.43
639.474	2647.9
639.828	2623.04
640.181	2647.22
640.534	2652.42
640.888	2657.39
641.241	2646.09
641.594	2654.9
641.947	2684.73
642.301	2657.39
642.654	2626.2
643.007	2657.16
643.36	2665.07
643.713	2683.6
644.066	2644.28
644.419	2629.37
644.771	2630.95
645.124	2645.64
645.477	2555.7
645.83	2568.58
646.182	2575.36
646.535	2593.21
646.888	2620.33
647.24	2586.88
647.593	2593.89
647.945	2612.19
648.298	2555.47
648.65	2587.11
649.002	2537.16
649.355	2597.73
649.707	2545.3
650.059	2569.93
650.411	2566.09
650.763	2593.43
651.115	2628.24
651.467	2635.02
651.819	2635.69
652.171	2623.26
652.523	2604.96
652.875	2615.58
653.227	2598.86
653.578	2620.55
653.93	2610.38
654.282	2578.07
654.633	2570.16
654.985	2606.77
655.337	2612.64
655.688	2583.04
656.039	2578.75
656.391	2537.39
656.742	2581.23
657.094	2552.53
657.445	2566.54
657.796	2594.11
658.147	2548.24
658.498	2548.46
658.849	2562.25
659.2	2550.72
659.551	2546.66
659.902	2535.13
660.253	2561.57
660.604	2556.15
660.955	2550.95
661.306	2547.11
661.656	2547.56
662.007	2524.28
662.358	2535.81
662.708	2551.85
663.059	2544.85
663.409	2534.91
663.76	2529.71
664.11	2538.07
664.461	2539.2
664.811	2531.97
665.161	2527.22
665.511	2539.88
665.862	2514.57
666.212	2518.41
666.562	2505.98
666.912	2514.11
667.262	2543.27
667.612	2499.88
667.962	2510.27
668.312	2528.8
668.662	2528.8
669.011	2519.31
669.361	2494
669.711	2502.59
670.06	2499.88
670.41	2502.36
670.76	2508.24
671.109	2510.27
671.459	2492.19
671.808	2501.23
672.157	2500.1
672.507	2475.02
672.856	2495.36
673.205	2517.73
673.554	2492.42
673.904	2470.73
674.253	2472.76
674.602	2483.16
674.951	2450.61
675.3	2471.18
675.649	2515.92
675.998	2533.78
676.346	2536.49
676.695	2491.29
677.044	2481.8
677.393	2474.57
677.741	2460.56
678.09	2447.68
678.438	2459.43
678.787	2506.66
679.135	2500.56
679.484	2454.46
679.832	2491.06
680.181	2467.79
680.529	2475.92
680.877	2503.95
681.225	2497.39
681.573	2478.41
681.922	2454
682.27	2489.26
682.618	2483.83
682.966	2408.35
683.314	2436.83
683.661	2486.77
684.009	2467.11
684.357	2430.05
684.705	2425.76
685.053	2419.88
685.4	2425.76
685.748	2401.12
686.095	2425.98
686.443	2355.7
686.79	2384.63
687.138	2425.76
687.485	2400.67
687.832	2411.52
688.18	2382.14
688.527	2388.02
688.874	2427.79
689.221	2388.02
689.568	2367.68
689.915	2352.99
690.262	2352.54
690.609	2390.95
690.956	2367.9
691.303	2383.04
691.65	2364.29
691.997	2348.02
692.344	2350.28
692.69	2351.41
693.037	2348.7
693.383	2308.92
693.73	2344.18
694.077	2325.87
694.423	2298.98
694.769	2311.63
695.116	2276.38
695.462	2256.04
695.808	2265.99
696.155	2310.05
696.501	2268.47
696.847	2236.83
697.193	2234.12
697.539	2283.16
697.885	2247
698.231	2261.47
698.577	2217.85
698.923	2226.21
699.269	2204.29
699.614	2230.51
699.96	2229.38
700.306	2220.79
700.651	2226.66
700.997	2250.62
701.342	2227.34
701.688	2188.7
702.033	2177.63
702.379	2181.69
702.724	2162.49
703.069	2167.68
703.415	2159.1
703.76	2181.47
704.105	2179.21
704.45	2152.54
704.795	2143.28
705.14	2152.54
705.485	2184.18
705.83	2142.6
706.175	2136.72
706.52	2128.36
706.865	2122.26
707.209	2136.05
707.554	2099.89
707.899	2147.12
708.243	2124.07
708.588	2059.21
708.932	2086.1
709.277	2091.75
709.621	2112.32
709.966	2045.65
710.31	2079.55
710.654	2092.66
710.998	2101.24
711.342	2106.22
711.687	2080.23
712.031	2077.06
712.375	2043.62
712.719	2072.32
713.063	2044.3
713.407	2109.61
713.75	2062.38
714.094	2054.01
714.438	2049.27
714.782	2025.54
715.125	2018.08
715.469	2035.71
715.812	2048.14
716.156	2026.22
716.499	2047.91
716.843	2018.31
717.186	2009.27
717.53	2044.07
717.873	2040.68
718.216	2049.49
718.559	1995.48
718.902	2004.52
719.246	1999.78
719.589	1997.97
719.932	2005.65
720.275	2020.57
720.617	1998.87
720.96	2010.85
721.303	2004.52
721.646	2032.77
721.989	1990.74
722.331	1990.29
722.674	2011.98
723.016	2020.79
723.359	1981.93
723.701	1987.35
724.044	1979.67
724.386	1963.85
724.729	1992.09
725.071	1981.25
725.413	1986.67
725.755	1940.8
726.097	1964.52
726.439	1948.03
726.782	1951.64
727.124	1983.96
727.465	1937.86
727.807	1931.76
728.149	1947.58
728.491	1963.62
728.833	1938.76
729.175	1918.65
729.516	1925.2
729.858	1911.64
730.199	1934.92
730.541	1947.35
730.882	1959.55
731.224	1939.67
731.565	1927.24
731.906	1897.41
732.248	1915.26
732.589	1912.55
732.93	1887.69
733.271	1907.12
733.612	1920.91
733.953	1914.81
734.294	1891.53
734.635	1920.46
734.976	1902.15
735.317	1918.65
735.658	1904.87
735.999	1885.2
736.339	1880.01
736.68	1895.6
737.021	1930.85
737.361	1893.34
737.702	1885.66
738.042	1896.05
738.383	1882.49
738.723	1887.69
739.063	1871.87
739.404	1895.83
739.744	1848.6
740.084	1861.02
740.424	1887.24
740.764	1843.17
741.104	1871.87
741.444	1888.82
741.784	1833
742.124	1840.01
742.464	1863.96
742.804	1871.65
743.143	1833
743.483	1824.87
743.823	1809.5
744.162	1817.64
744.502	1793.91
744.841	1803.17
745.181	1792.1
745.52	1840.46
745.86	1860.8
746.199	1790.07
746.538	1795.49
746.877	1797.3
747.216	1780.12
747.556	1842.72
747.895	1798.43
748.234	1783.51
748.573	1786.68
748.911	1756.17
749.25	1791.42
749.589	1792.78
749.928	1797.98
750.267	1805.43
750.605	1749.39
750.944	1769.73
751.283	1758.43
751.621	1762.27
751.96	1775.15
752.298	1759.11
752.636	1739.45
752.975	1739.22
753.313	1746.68
753.651	1749.39
753.989	1743.06
754.327	1735.38
754.666	1720.69
755.004	1706.9
755.342	1734.02
755.679	1725.89
756.017	1731.08
756.355	1700.58
756.693	1698.77
757.031	1713.68
757.368	1732.21
757.706	1683.18
758.044	1705.77
758.381	1708.26
758.719	1675.04
759.056	1666.68
759.394	1702.16
759.731	1684.31
760.068	1693.8
760.405	1692.44
760.743	1662.61
761.08	1671.88
761.417	1644.98
761.754	1661.93
762.091	1661.26
762.428	1657.41
762.765	1642.05
763.102	1654.02
763.438	1653.12
763.775	1620.35
764.112	1648.37
764.449	1624.19
764.785	1607.25
765.122	1613.35
765.458	1619.22
765.795	1642.5
766.131	1620.8
766.467	1618.77
766.804	1614.7
767.14	1568.6
767.476	1607.25
767.812	1574.48
768.148	1599.11
768.485	1575.38
768.821	1585.1
769.157	1575.38
769.492	1560.92
769.828	1574.93
770.164	1543.07
770.5	1566.57
770.836	1564.54
771.171	1548.94
771.507	1539.68
771.842	1555.72
772.178	1582.39
772.513	1556.85
772.849	1531.77
773.184	1542.61
773.519	1527.02
773.855	1543.52
774.19	1524.76
774.525	1524.76
774.86	1514.37
775.195	1501.94
775.53	1508.04
775.865	1507.14
776.2	1505.33
776.535	1496.74
776.87	1464.42
777.205	1472.33
777.539	1503.52
777.874	1489.96
778.209	1490.19
778.543	1463.07
778.878	1475.5
779.212	1456.52
779.547	1459.45
779.881	1459.45
780.215	1457.65
780.55	1464.88
780.884	1439.57
781.218	1417.42
781.552	1452
781.886	1445.89
782.22	1418.1
782.554	1442.5
782.888	1425.56
783.222	1401.6
783.556	1404.54
783.889	1426.01
784.223	1395.95
784.557	1420.13
784.89	1388.95
785.224	1385.56
785.557	1418.1
785.891	1375.16
786.224	1388.49
786.558	1403.18
786.891	1373.58
787.224	1368.83
787.557	1389.62
787.891	1364.99
788.224	1350.98
788.557	1383.52
788.89	1357.53
789.223	1367.7
789.556	1364.77
789.888	1339.68
790.221	1341.04
790.554	1339.46
790.887	1319.34
791.219	1352.34
791.552	1331.77
791.884	1367.93
792.217	1329.74
792.549	1354.6
792.882	1294.71
793.214	1315.05
793.546	1321.83
793.879	1325.22
794.211	1325.9
794.543	1333.58
794.875	1318.89
795.207	1322.51
795.539	1323.19
795.871	1287.93
796.203	1278.44
796.535	1287.25
796.867	1317.76
797.198	1294.71
797.53	1296.29
797.862	1271.44
798.193	1262.85
798.525	1285.9
798.856	1277.76
799.188	1291.1
799.519	1242.51
799.85	1243.19
800.182	1265.11
800.513	1261.27
800.844	1260.81
801.175	1282.96
801.506	1266.01
801.837	1264.2
802.168	1236.18
802.499	1219.69
802.83	1242.51
803.161	1225.56
803.491	1229.18
803.822	1262.62
804.153	1233.02
804.483	1194.15
804.814	1244.32
805.145	1188.05
805.475	1230.08
805.805	1208.16
806.136	1204.09
806.466	1205.22
806.796	1203.64
807.126	1215.62
807.457	1197.54
807.787	1193.92
808.117	1207.26
808.447	1199.8
808.777	1184.43
809.107	1201.15
809.436	1188.95
809.766	1200.25
810.096	1193.25
810.426	1175.84
810.755	1166.13
811.085	1189.86
811.414	1180.82
811.744	1169.07
812.073	1192.57
812.403	1186.69
812.732	1160.93
813.061	1164.77
813.39	1160.48
813.719	1169.74
814.049	1167.48
814.378	1150.99
814.707	1157.54
815.036	1141.95
815.365	1133.36
815.693	1135.39
816.022	1128.16
816.351	1130.65
816.68	1120.48
817.008	1143.98
817.337	1121.16
817.665	1128.16
817.994	1129.29
818.322	1109.41
818.651	1125.9
818.979	1121.16
819.307	1100.14
819.636	1132.23
819.964	1097.88
820.292	1118.45
820.62	1103.76
820.948	1109.86
821.276	1112.8
821.604	1107.82
821.932	1097.43
822.259	1113.93
822.587	1102.85
822.915	1090.2
823.243	1098.56
823.57	1110.08
823.898	1094.72
824.225	1091.1
824.553	1105.56
824.88	1112.8
825.207	1090.88
825.535	1096.98
825.862	1094.27
826.189	1087.03
826.516	1101.72
826.843	1095.62
827.17	1085.45
827.497	1080.03
827.824	1105.56
828.151	1089.07
828.478	1095.39
828.805	1108.28
829.131	1090.42
829.458	1090.88
829.785	1095.17
830.111	1090.2
830.438	1086.13
830.764	1092.91
831.09	1089.75
831.417	1070.08
831.743	1082.51
832.069	1074.83
832.395	1101.27
832.722	1104.21
833.048	1093.36
833.374	1073.25
833.7	1089.07
834.026	1076.19
834.351	1071.89
834.677	1072.12
835.003	1065.79
835.329	1061.72
835.654	1089.29
835.98	1078.9
836.306	1090.2
836.631	1064.44
836.956	1072.57
837.282	1066.47
837.607	1070.99
837.932	1064.89
838.258	1079.35
838.583	1049.29
838.908	1079.35
839.233	1059.92
839.558	1062.63
839.883	1063.53
840.208	1049.07
840.533	1082.97
840.858	1041.16
841.182	1049.52
841.507	1057.66
841.832	1028.05
842.156	1069.86
842.481	1044.77
842.805	1059.46
843.13	1054.04
843.454	1031.44
843.778	1044.55
844.103	1019.24
844.427	1013.59
844.751	1043.87
845.075	1040.48
845.399	1034.83
845.723	1004.32
846.047	1020.59
846.371	1013.82
846.695	1040.26
847.019	1030.99
847.343	1009.3
847.666	1014.72
847.99	995.96
848.313	988.96
848.637	1008.39
848.96	1018.33
849.284	1005.23
849.607	1001.84
849.931	1018.56
850.254	1015.62
850.577	968.84
850.9	1002.06
851.223	952.35
851.546	988.73
851.869	1002.29
852.192	974.95
852.515	979.92
852.838	993.25
853.161	973.14
853.483	978.79
853.806	991.44
854.129	996.19
854.451	977.21
854.774	971.56
855.096	968.39
855.419	970.43
855.741	994.83
856.063	945.34
856.385	948.28
856.708	965.23
857.03	979.69
857.352	963.65
857.674	949.64
857.996	964.78
858.318	971.33
858.64	943.31
858.961	945.79
859.283	958.68
859.605	950.77
859.926	931.11
860.248	940.14
860.57	948.05
860.891	962.74
861.212	974.04
861.534	948.96
861.855	950.54
862.176	950.77
862.498	941.95
862.819	941.73
863.14	905.8
863.461	968.17
863.782	946.25
864.103	942.4
864.424	955.51
864.745	953.48
865.065	927.49
865.386	935.17
865.707	929.3
866.027	913.48
866.348	937.88
866.668	914.61
866.989	944.44
867.309	923.87
867.63	913.48
867.95	943.31
868.27	915.29
868.59	935.17
868.91	930.65
869.23	954.38
869.55	925.91
869.87	936.3
870.19	937.66
870.51	934.27
870.83	943.76
871.15	929.3
871.469	937.43
871.789	925.23
872.109	911.67
872.428	930.2
872.748	939.92
873.067	941.95
873.386	913.03
873.706	912.8
874.025	915.51
874.344	912.12
874.663	910.54
874.982	909.19
875.301	900.82
875.62	908.51
875.939	914.83
876.258	914.16
876.577	923.65
876.896	903.31
877.214	902.63
877.533	919.58
877.852	912.8
878.17	923.65
878.489	933.82
878.807	901.73
879.125	895.4
879.444	906.7
879.762	931.78
880.08	894.95
880.398	901.28
880.716	890.88
881.034	891.11
881.352	908.51
881.67	879.58
881.988	889.07
882.306	882.75
882.624	900.6
882.941	864.44
883.259	894.72
883.577	874.38
883.894	874.84
884.212	851.33
884.529	901.28
884.846	872.8
885.164	875.29
885.481	891.11
885.798	861.73
886.115	885.68
886.432	876.87
886.75	867.6
887.067	868.73
887.383	866.47
887.7	849.98
888.017	883.42
888.334	832.13
888.651	871.9
888.967	846.36
889.284	839.81
889.6	834.61
889.917	849.07
890.233	833.25
890.55	840.71
890.866	824.89
891.182	853.82
891.498	841.39
891.815	845.91
892.131	859.24
892.447	833.25
892.763	838.68
893.079	850.2
893.395	824.22
893.71	832.13
894.026	824.67
894.342	813.59
894.657	833.48
894.973	808.85
895.289	823.99
895.604	812.92
895.92	815.85
896.235	808.62
896.55	793.93
896.865	815.85
897.181	812.46
897.496	791.67
897.811	809.3
898.126	801.62
898.441	793.93
898.756	800.71
899.071	796.42
899.386	779.7
899.7	779.7
900.015	775.63
900.33	776.08
900.644	779.92
900.959	763.65
901.273	769.98
901.588	748.06
901.902	761.62
902.216	779.7
902.531	755.06
902.845	764.1
903.159	758
903.473	761.62
903.787	754.39
904.101	759.58
904.415	729.53
904.729	742.41
905.042	758.45
905.356	740.83
905.67	735.86
905.984	724.33
906.297	726.14
906.611	736.99
906.924	753.03
907.237	734.05
907.551	708.96
907.864	726.14
908.177	734.73
908.491	752.35
908.804	736.53
909.117	729.75
909.43	727.95
909.743	729.3
910.056	728.62
910.368	687.27
910.681	722.98
910.994	708.51
911.307	724.11
911.619	718
911.932	696.76
912.244	702.41
912.557	726.59
912.869	714.84
913.181	725.24
913.494	690.89
913.806	692.69
914.118	695.41
914.43	686.59
914.742	681.39
915.054	701.73
915.366	682.52
915.678	707.38
915.99	652.24
916.302	673.49
916.613	687.5
916.925	684.11
917.236	659.02
917.548	685.24
917.859	671.9
918.171	689.53
918.482	669.42
918.794	665.35
919.105	681.17
919.416	672.13
919.727	659.02
920.038	650.21
920.349	648.63
920.66	645.92
920.971	641.4
921.282	661.06
921.593	675.74
921.903	655.41
922.214	637.78
922.525	652.92
922.835	633.49
923.146	646.82
923.456	635.52
923.767	651.11
924.077	633.26
924.387	635.07
924.697	635.97
925.008	644.33
925.318	666.71
925.628	653.82
925.938	660.15
926.248	654.05
926.558	649.08
926.867	650.66
927.177	628.74
927.487	639.59
927.796	651.11
928.106	633.94
928.416	628.74
928.725	621.51
929.034	612.24
929.344	626.71
929.653	629.87
929.962	633.26
930.271	644.33
930.581	618.35
930.89	643.2
931.199	612.47
931.508	619.02
931.817	602.75
932.125	629.64
932.434	615.86
932.743	597.1
933.051	622.86
933.36	608.63
933.669	608.85
933.977	610.66
934.286	598.46
934.594	609.76
934.902	610.44
935.21	622.41
935.519	605.01
935.827	589.42
936.135	586.93
936.443	597.33
936.751	603.2
937.059	612.02
937.367	611.34
937.674	627.84
937.982	622.64
938.29	582.41
938.597	595.52
938.905	566.82
939.213	576.76
939.52	561.62
939.827	598.01
940.135	590.78
940.442	603.43
940.749	579.48
941.056	589.19
941.363	588.52
941.67	598.68
941.977	594.84
942.284	559.82
942.591	582.87
942.898	598.68
943.205	583.54
943.511	589.65
943.818	608.63
944.125	580.38
944.431	585.58
944.738	601.4
945.044	588.06
945.35	583.77
945.657	589.19
945.963	578.8
946.269	601.17
946.575	565.01
946.881	593.04
947.187	577.44
947.493	562.3
947.799	547.16
948.105	575.86
948.41	562.53
948.716	559.36
949.022	570.21
949.327	557.78
949.633	540.38
949.938	574.73
950.244	563.66
950.549	545.13
950.854	573.15
951.16	573.15
951.465	552.36
951.77	562.3
952.075	559.59
952.38	560.95
952.685	569.76
952.99	589.65
953.294	541.74
953.599	574.28
953.904	548.97
954.209	541.96
954.513	548.97
954.818	567.05
955.122	572.02
955.426	549.19
955.731	543.55
956.035	554.39
956.339	539.25
956.643	536.09
956.948	537.44
957.252	545.8
957.556	557.1
957.86	542.87
958.163	541.51
958.467	532.02
958.771	543.32
959.075	527.05
959.378	543.09
959.682	547.61
959.985	548.97
960.289	518.01
960.592	534.28
960.896	534.05
961.199	528.86
961.502	532.02
961.805	517.78
962.108	507.84
962.411	504
962.714	518.46
963.017	513.49
963.32	536.77
963.623	516.43
963.926	517.78
964.228	522.3
964.531	535.64
964.833	521.4
965.136	536.31
965.438	509.87
965.741	511.23
966.043	497.9
966.345	523.66
966.648	492.47
966.95	525.92
967.252	493.83
967.554	508.97
967.856	500.83
968.158	508.07
968.46	504.9
968.761	503.77
969.063	508.97
969.365	491.57
969.666	503.77
969.968	513.72
970.269	477.11
970.571	511.46
970.872	467.84
971.174	492.02
971.475	490.44
971.776	480.04
972.077	501.74
972.378	498.8
972.679	494.05
972.98	487.95
973.281	503.77
973.582	480.04
973.883	494.96
974.183	482.53
974.484	500.61
974.785	486.15
975.085	479.59
975.386	476.65
975.686	496.77
975.986	474.39
976.287	497.22
976.587	487.5
976.887	463.77
977.187	478.69
977.487	487.5
977.787	474.17
978.087	487.05
978.387	455.19
978.687	470.78
978.987	461.74
979.286	451.12
979.586	454.06
979.885	471
980.185	473.26
980.484	457.22
980.784	479.59
981.083	450.44
981.382	466.71
981.682	465.81
981.981	451.57
982.28	459.48
982.579	470.33
982.878	451.8
983.177	459.93
983.475	458.58
983.774	452.02
984.073	436.66
984.372	447.95
984.67	465.35
984.969	456.32
985.267	432.36
985.566	462.87
985.864	419.48
986.162	472.81
986.461	441.85
986.759	437.56
987.057	448.86
987.355	442.53
987.653	424.23
987.951	441.17
988.249	440.95
988.547	473.04
988.844	436.2
989.142	452.02
989.44	439.59
989.737	451.57
990.035	438.92
990.332	435.07
990.63	441.4
990.927	453.6
991.224	410.22
991.521	422.87
991.819	429.65
992.116	435.07
992.413	438.69
992.71	415.19
993.006	432.81
993.303	428.52
993.6	435.3
993.897	420.16
994.193	426.49
994.49	433.94
994.787	413.83
995.083	433.04
995.379	409.54
995.676	427.84
995.972	396.88
996.268	427.62
996.565	426.26
996.861	405.02
997.157	414.73
997.453	415.19
997.749	410.89
998.044	419.03
998.34	443.89
998.636	416.77
998.932	433.04
999.227	409.09
999.523	395.98
999.818	416.09
1000.114	430.55
1000.409	400.05
1000.704	400.27
1001	407.28
1001.295	415.86
1001.59	421.06
1001.885	395.53
1002.18	429.42
1002.475	421.29
1002.77	418.12
1003.065	377.22
1003.359	395.07
1003.654	391.68
1003.949	401.18
1004.243	407.73
1004.538	411.12
1004.832	402.98
1005.127	384.23
1005.421	379.71
1005.715	407.73
1006.009	384.23
1006.304	373.61
1006.598	405.24
1006.892	386.04
1007.186	366.6
1007.48	399.82
1007.773	381.06
1008.067	388.29
1008.361	395.07
1008.655	395.98
1008.948	393.94
1009.242	404.57
1009.535	404.79
1009.829	381.52
1010.122	396.2
1010.415	390.55
1010.708	382.87
1011.001	391.01
1011.295	384.68
1011.588	374.28
1011.881	385.81
1012.173	390.33
1012.466	399.59
1012.759	395.3
1013.052	387.62
1013.344	400.05
1013.637	403.89
1013.93	373.38
1014.222	373.83
1014.514	361.18
1014.807	383.1
1015.099	365.24
1015.391	397.56
1015.683	376.54
1015.976	377.22
1016.268	377.67
1016.56	374.96
1016.851	371.8
1017.143	392.36
1017.435	392.59
1017.727	367.05
1018.018	369.31
1018.31	379.48
1018.602	384
1018.893	363.89
1019.185	381.52
1019.476	375.64
1019.767	386.04
1020.058	377
1020.35	368.63
1020.641	375.19
1020.932	373.15
1021.223	365.02
1021.514	357.11
1021.804	378.58
1022.095	352.82
1022.386	378.58
1022.677	384.68
1022.967	374.51
1023.258	369.31
1023.548	374.96
1023.839	372.02
1024.129	366.37
1024.419	376.54
1024.709	349.88
1025	373.61
1025.29	377.45
1025.58	367.73
1025.87	366.83
1026.16	354.85
1026.449	385.13
1026.739	352.82
1027.029	359.37
1027.319	381.74
1027.608	359.37
1027.898	353.04
1028.187	357.11
1028.477	355.3
1028.766	379.03
1029.055	365.02
1029.344	349.88
1029.634	351.46
1029.923	366.83
1030.212	375.41
1030.501	371.8
1030.79	359.14
1031.078	359.82
1031.367	344.45
1031.656	358.47
1031.945	357.34
1032.233	369.31
1032.522	352.59
1032.81	348.75
1033.099	362.53
1033.387	359.82
1033.675	338.8
1033.963	371.8
1034.251	367.05
1034.54	352.82
1034.828	367.05
1035.116	348.3
1035.403	362.31
1035.691	371.12
1035.979	380.16
1036.267	353.49
1036.554	355.53
1036.842	348.97
1037.129	338.13
1037.417	359.6
1037.704	356.88
1037.992	361.85
1038.279	346.04
1038.566	353.04
1038.853	353.04
1039.14	353.04
