Data from foam2_polystyrene_foam_FLMS001491_00021.txt Node
Date: Wed Feb 08 10:57:43 GMT 2017
User: dcchb
Spectrometer: FLMS00149
Trigger mode: 0
Integration Time (sec): 2.000000E-2
Scans to average: 10
Electric dark correction enabled: true
Nonlinearity correction enabled: false
Boxcar width: 0
XAxis mode: Wavelengths
Number of Pixels in Spectrum: 2048
>>>>>Begin Spectral Data<<<<<
341.393	-5.71
341.776	-5.71
342.16	-5.71
342.543	-59.49
342.927	-80.73
343.31	-70.56
343.693	-61.52
344.077	-60.62
344.46	-53.84
344.843	-50.9
345.226	-43.67
345.61	-26.95
345.993	-24.01
346.376	-4.35
346.759	18.93
347.142	8.76
347.525	46.04
347.908	52.15
348.291	59.83
348.674	112.48
349.057	98.25
349.44	125.14
349.823	154.97
350.206	158.58
350.588	210.56
350.971	220.05
351.354	241.97
351.737	245.13
352.119	253.27
352.502	265.02
352.884	289.65
353.267	294.4
353.65	290.78
354.032	310.67
354.414	324.68
354.797	317.22
355.179	333.72
355.562	330.56
355.944	355.87
356.326	334.62
356.709	349.76
357.091	358.35
357.473	367.39
357.855	346.38
358.238	360.61
358.62	363.1
359.002	369.65
359.384	369.2
359.766	370.33
360.148	367.62
360.53	356.77
360.912	383.66
361.294	357.22
361.676	369.65
362.057	371.46
362.439	358.13
362.821	357.45
363.203	367.17
363.584	352.48
363.966	354.74
364.348	372.59
364.729	366.94
365.111	370.78
365.493	369.88
365.874	363.55
366.256	352.25
366.637	353.38
367.019	360.39
367.4	331.01
367.781	361.52
368.163	347.05
368.544	345.47
368.925	368.52
369.306	379.37
369.688	350.67
370.069	353.61
370.45	369.65
370.831	366.04
371.212	364.23
371.593	366.71
371.974	350.89
372.355	384.11
372.736	368.75
373.117	362.42
373.498	357.22
373.879	372.82
374.26	364.45
374.641	346.6
375.021	382.98
375.402	396.32
375.783	385.92
376.163	423.44
376.544	418.69
376.925	398.58
377.305	399.71
377.686	394.28
378.066	393.38
378.447	409.42
378.827	392.02
379.208	410.33
379.588	415.53
379.968	418.24
380.349	425.47
380.729	433.38
381.109	417.33
381.489	421.4
381.87	437.67
382.25	418.46
382.63	435.41
383.01	445.81
383.39	441.74
383.77	458.46
384.15	435.19
384.53	441.29
384.91	456.65
385.29	471.34
385.67	450.33
386.049	458.69
386.429	473.38
386.809	474.28
387.189	496.2
387.568	479.25
387.948	488.29
388.328	479.93
388.707	493.26
389.087	487.39
389.466	490.78
389.846	515.18
390.225	519.03
390.605	515.41
390.984	540.95
391.363	533.26
391.743	530.33
392.122	538.23
392.501	546.6
392.881	536.43
393.26	554.96
393.639	529.65
394.018	549.99
394.397	561.51
394.776	565.58
395.155	564.9
395.534	556.77
395.913	565.8
396.292	598.8
396.671	585.69
397.05	601.06
397.429	584.33
397.808	594.73
398.186	601.28
398.565	595.63
398.944	603.54
399.323	603.77
399.701	629.31
400.08	624.56
400.458	634.5
400.837	653.71
401.215	659.59
401.594	654.84
401.972	661.4
402.351	666.59
402.729	669.53
403.107	651.45
403.486	681.06
403.864	690.77
404.242	696.2
404.62	678.34
404.999	703.2
405.377	694.16
405.755	684.22
406.133	737.55
406.511	754.5
406.889	761.05
407.267	760.38
407.645	784.78
408.023	759.47
408.401	772.13
408.779	794.5
409.156	790.43
409.534	820.49
409.912	802.18
410.29	816.19
410.667	847.15
411.045	829.53
411.422	846.02
411.8	855.97
412.178	854.61
412.555	888.06
412.933	895.29
413.31	876.53
413.687	909.07
414.065	913.82
414.442	932.8
414.819	947.04
415.197	928.28
415.574	963.31
415.951	969.41
416.328	984.55
416.705	970.77
417.082	985.91
417.46	1008.5
417.837	1001.5
418.214	1002.85
418.591	997.43
418.967	1020.93
419.344	1035.62
419.721	1051.67
420.098	1050.54
420.475	1084.89
420.852	1072.01
421.228	1092.34
421.605	1107.94
421.982	1127.82
422.358	1120.37
422.735	1142.74
423.111	1144.77
423.488	1183.19
423.864	1170.76
424.241	1199.69
424.617	1168.5
424.994	1175.28
425.37	1201.95
425.746	1222.06
426.123	1236.52
426.499	1233.13
426.875	1272.9
427.251	1262.74
427.627	1305.45
428.003	1314.26
428.379	1335.28
428.756	1338.21
429.132	1351.32
429.507	1388.61
429.883	1380.7
430.259	1416.18
430.635	1406.91
431.011	1430.87
431.387	1471.77
431.763	1475.16
432.138	1504.99
432.514	1515.61
432.89	1539.56
433.265	1549.28
433.641	1577.3
434.016	1621.82
434.392	1580.69
434.767	1631.54
435.143	1619.11
435.518	1660.01
435.894	1689.39
436.269	1714.47
436.644	1728.03
437.02	1723.06
437.395	1730.52
437.77	1768.48
438.145	1801.03
438.52	1836.96
438.895	1841.48
439.271	1818.2
439.646	1862.49
440.021	1902.72
440.395	1890.52
440.77	1900.46
441.145	1930.06
441.52	1939.78
441.895	1964.86
442.27	1967.8
442.645	1989.72
443.019	1983.62
443.394	1990.4
443.769	2001.47
444.143	2013
444.518	2069.04
444.892	2042.6
445.267	2101.81
445.641	2069.72
446.016	2107.23
446.39	2119.44
446.764	2159.21
447.139	2148.81
447.513	2187
447.887	2167.34
448.262	2192.2
448.636	2230.85
449.01	2233.11
449.384	2230.17
449.758	2290.5
450.132	2300.22
450.506	2303.39
450.88	2410.95
451.254	2298.41
451.628	2386.77
452.002	2389.94
452.376	2433.78
452.75	2435.13
453.123	2459.99
453.497	2488.69
453.871	2520.33
454.244	2549.48
454.618	2588.8
454.992	2627.67
455.365	2607.33
455.739	2666.31
456.112	2690.49
456.486	2737.95
456.859	2753.32
457.232	2823.6
457.606	2800.32
457.979	2837.83
458.352	2893.2
458.725	2924.61
459.099	2937.95
459.472	2943.14
459.845	3036.02
460.218	3050.48
460.591	3066.76
460.964	3081.44
461.337	3169.58
461.71	3193.31
462.083	3204.15
462.456	3247.77
462.829	3232.17
463.201	3321.21
463.574	3337.26
463.947	3381.32
464.32	3453.41
464.692	3457.48
465.065	3490.7
465.438	3520.08
465.81	3565.95
466.183	3614.76
466.555	3724.14
466.928	3700.64
467.3	3732.95
467.672	3793.52
468.045	3876.68
468.417	3852.5
468.789	3903.34
469.161	3958.94
469.534	4014.98
469.906	4120.97
470.278	4153.73
470.65	4193.73
471.022	4275.54
471.394	4311.69
471.766	4356.44
472.138	4422.43
472.51	4504.01
472.882	4579.26
473.253	4609.09
473.625	4688.86
473.997	4780.38
474.369	4773.83
474.74	4870.55
475.112	4982.41
475.484	5040.04
475.855	5120.49
476.227	5146.7
476.598	5318.45
476.97	5388.28
477.341	5504.88
477.713	5519.57
478.084	5605.9
478.455	5751.2
478.827	5818.77
479.198	5946.45
479.569	5965.66
479.94	6075.72
480.311	6164.3
480.682	6329.95
481.053	6437.74
481.424	6584.18
481.795	6589.6
482.166	6646.55
482.537	6799.09
482.908	6948.01
483.279	7009.02
483.65	7155.01
484.021	7251.28
484.391	7369.47
484.762	7468.22
485.133	7408.79
485.503	7642.91
485.874	7782.79
486.244	7853.97
486.615	8003.8
486.985	8016
487.356	8233.63
487.726	8328.09
488.097	8470.91
488.467	8455.77
488.837	8670.9
489.207	8828.64
489.578	9030.21
489.948	8973.49
490.318	9107.05
490.688	9136.65
491.058	9300.49
491.428	9400.83
491.798	9543.42
492.168	9641.27
492.538	9761.27
492.908	9794.49
493.278	9952.45
493.648	9933.69
494.017	10180.01
494.387	10176.85
494.757	10293.68
495.126	10435.83
495.496	10509.5
495.866	10567.12
496.235	10693.67
496.605	10802.6
496.974	10836.04
497.344	11019.99
497.713	11003.5
498.082	11066.09
498.452	11238.07
498.821	11176.37
499.19	11318.74
499.559	11427.89
499.928	11504.27
500.298	11565.29
500.667	11726.41
501.036	11745.4
501.405	11824.04
501.774	11777.49
502.143	11906.07
502.512	12095.67
502.88	12163.01
503.249	12196.23
503.618	12231.03
503.987	12328.21
504.356	12403.91
504.724	12516.45
505.093	12500.86
505.462	12662.66
505.83	12700.4
506.199	12830.79
506.567	12940.85
506.936	12955.31
507.304	13125.47
507.672	13167.51
508.041	13324.56
508.409	13356.2
508.777	13522.98
509.145	13637.78
509.514	13602.98
509.882	13726.14
510.25	13844.78
510.618	13881.16
510.986	13979.69
511.354	14152.34
511.722	14251.55
512.09	14452.67
512.458	14448.15
512.826	14589.16
513.193	14640.46
513.561	14645.66
513.929	14851.53
514.297	14983.5
514.664	15039.77
515.032	15119.55
515.4	15318.86
515.767	15310.95
516.135	15414.68
516.502	15471.4
516.869	15780.55
517.237	15809.25
517.604	15818.28
517.972	16050.82
518.339	16093.53
518.706	16140.31
519.073	16314.99
519.44	16417.36
519.808	16562.9
520.175	16504.59
520.542	16853.06
520.909	16962.21
521.276	16952.04
521.643	17110.45
522.009	17320.84
522.376	17424.57
522.743	17475.19
523.11	17725.58
523.477	17783.43
523.843	17990.88
524.21	18168.51
524.577	18330.08
524.943	18366.01
525.31	18443.3
525.676	18630.64
526.043	18697.3
526.409	18835.15
526.776	19058.2
527.142	19043.74
527.508	19224.97
527.874	19329.6
528.241	19527.79
528.607	19661.35
528.973	19783.6
529.339	19808.69
529.705	20181.79
530.071	20290.71
530.437	20361.22
530.803	20445.51
531.169	20611.6
531.535	20530.03
531.901	20683.69
532.267	20773.18
532.632	20844.37
532.998	20880.75
533.364	21162.32
533.73	21164.13
534.095	21303.34
534.461	21403.22
534.826	21555.99
535.192	21655.19
535.557	21815.64
535.923	21815.19
536.288	21838.47
536.653	22044.34
537.019	21984.68
537.384	22032.13
537.749	22310.54
538.114	22285.01
538.479	22308.74
538.845	22515.28
539.21	22516.41
539.575	22607.03
539.94	22867.14
540.305	22829.4
540.67	22969.96
541.034	22924.99
541.399	23063.29
541.764	23179.22
542.129	23197.98
542.494	23282.04
542.858	23346.67
543.223	23442.26
543.587	23618.08
543.952	23549.38
544.316	23750.05
544.681	23643.62
545.045	23761.58
545.41	23899.65
545.774	24002.93
546.138	24106.65
546.503	24168.35
546.867	24232.98
547.231	24459.87
547.595	24520.43
547.959	24654.44
548.324	24664.38
548.688	24769.01
549.052	24886.97
549.416	24868.67
549.779	25022.11
550.143	25033.41
550.507	25104.82
550.871	25292.61
551.235	25199.51
551.599	25492.38
551.962	25488.76
552.326	25554.07
552.689	25739.15
553.053	25641.98
553.417	25820.73
553.78	26192.25
554.143	26095.75
554.507	26180.27
554.87	26329.65
555.234	26494.39
555.597	26487.83
555.96	26645.34
556.323	26686.47
556.686	26747.26
557.05	27029.97
557.413	27007.59
557.776	27074.49
558.139	27303.63
558.502	27444.42
558.865	27503.63
559.228	27708.82
559.59	27729.61
559.953	27893.45
560.316	28163.95
560.679	28061.58
561.041	28395.58
561.404	28483.71
561.767	28561.68
562.129	28508.12
562.492	28887.09
562.854	28879.18
563.217	28934.32
563.579	29096.81
563.941	29325.05
564.304	29416.57
564.666	29562.1
565.028	29679.16
565.39	29761.19
565.753	29971.58
566.115	29981.3
566.477	30218.58
566.839	30286.83
567.201	30430.56
567.563	30582.19
567.925	30713.94
568.287	30725.92
568.648	30791.68
569.01	31023.31
569.372	31125.68
569.734	31033.93
570.095	31406.58
570.457	31390.98
570.819	31368.38
571.18	31534.48
571.542	31650.18
571.903	31764.31
572.265	31859.44
572.626	31962.27
572.987	32014.69
573.349	32154.35
573.71	32274.35
574.071	32345.08
574.432	32323.61
574.794	32743.72
575.155	32633.21
575.516	32498.75
575.877	32656.26
576.238	32678.63
576.599	32935.35
576.96	32793.43
577.32	32957.5
577.681	33082.46
578.042	33101.45
578.403	33034.56
578.763	33228
579.124	33324.27
579.485	33282.01
579.845	33375.79
580.206	33270.48
580.566	33289.69
580.927	33310.71
581.287	33414.88
581.648	33456.46
582.008	33635.67
582.368	33602.45
582.728	33696.01
583.089	33488.55
583.449	33600.64
583.809	33635.44
584.169	33729
584.529	33647.42
584.889	34009.22
585.249	33766.29
585.609	33672.96
585.969	33859.62
586.329	33786.85
586.688	33949.79
587.048	33902.78
587.408	33729
587.768	33760.86
588.127	33721.54
588.487	33884.7
588.846	34008.54
589.206	33754.76
589.565	33899.62
589.925	33982.33
590.284	33887.41
590.643	33912.27
591.003	33899.84
591.362	34070.01
591.721	33816
592.08	33804.25
592.44	33992.5
592.799	33954.3
593.158	33770.13
593.517	33964.02
593.876	34001.76
594.235	33999.28
594.593	33921.54
594.952	34105.94
595.311	33937.13
595.67	34059.61
596.029	34193.85
596.387	34156.11
596.746	34274.75
597.104	34079.27
597.463	34111.14
597.822	34425.25
598.18	34228.42
598.538	34199.27
598.897	34435.87
599.255	34016.68
599.613	34573.95
599.972	34278.59
600.33	34503.22
600.688	34234.52
601.046	34454.86
601.404	34507.96
601.762	34422.54
602.12	34667.05
602.478	34709.99
602.836	34668.18
603.194	34477.46
603.552	34535.31
603.91	34422.32
604.268	34763.55
604.625	34597.9
604.983	34661.41
605.341	34589.54
605.698	34812.14
606.056	34736.21
606.413	34845.58
606.771	34844.9
607.128	34974.17
607.485	34691.01
607.843	34960.83
608.2	35124.67
608.557	35201.28
608.914	35041.73
609.272	35209.19
609.629	35186.36
609.986	35477.65
610.343	35217.1
610.7	35420.26
611.057	35331.22
611.414	35290.09
611.771	35286.25
612.127	35505
612.484	35427.49
612.841	35599.46
613.198	35440.37
613.554	35498.22
613.911	35587.93
614.267	35596.52
614.624	35625
614.98	35674.26
615.337	35717.87
615.693	35687.82
616.05	35732.34
616.406	35881.94
616.762	35867.02
617.118	35806.01
617.475	35811.43
617.831	36066.11
618.187	36052.55
618.543	36068.83
618.899	36146.34
619.255	36154.7
619.611	36257.75
619.967	36246.45
620.323	36360.12
620.678	36116.96
621.034	36089.39
621.39	36189.05
621.746	36034.93
622.101	36406.44
622.457	36221.14
622.812	36305.88
623.168	36408.7
623.523	36356.95
623.879	36413.22
624.234	36334.81
624.589	36320.12
624.945	36453.67
625.3	36484.86
625.655	36327.8
626.01	36383.85
626.365	36500.45
626.72	36373.45
627.075	36452.77
627.43	36345.65
627.785	36198.99
628.14	36315.15
628.495	36313.34
628.85	36323.73
629.205	36207.58
629.559	36425.88
629.914	36297.52
630.269	36351.98
630.623	36196.28
630.978	36130.07
631.332	36127.58
631.687	36222.95
632.041	35977.53
632.396	36027.7
632.75	35883.97
633.104	35899.56
633.459	35785.22
633.813	35707.71
634.167	35727.14
634.521	35705.22
634.875	35628.16
635.229	35711.77
635.583	35508.61
635.937	35519.69
636.291	35475.39
636.645	35514.94
636.999	35463.42
637.352	35705.67
637.706	35341.84
638.06	35407.6
638.413	35396.98
638.767	35300.03
639.121	35365.57
639.474	35160.15
639.828	35148.62
640.181	35173.71
640.534	35187.72
640.888	35047.84
641.241	34804.68
641.594	35045.35
641.947	35019.81
642.301	34965.35
642.654	34829.31
643.007	34698.69
643.36	34717.67
643.713	34722.19
644.066	34830.21
644.419	34497.57
644.771	34282.21
645.124	33926.51
645.477	33764.03
645.83	33755.67
646.182	33502.34
646.535	33475.45
646.888	33648.78
647.24	33484.26
647.593	33652.39
647.945	33482.23
648.298	33426.41
648.65	33321.1
649.002	33224.15
649.355	33428.67
649.707	33269.58
650.059	33286.98
650.411	33863.91
650.763	33742.11
651.115	34204.24
651.467	33997.69
651.819	34053.74
652.171	33839.05
652.523	33844.25
652.875	33785.95
653.227	33717.48
653.578	33927.64
653.93	33822.56
654.282	33616.01
654.633	33590.25
654.985	33685.39
655.337	33671.6
655.688	33610.59
656.039	33813.74
656.391	33456.24
656.742	33420.53
657.094	33476.58
657.445	33550.7
657.796	33461.66
658.147	33531.72
658.498	33392.29
658.849	33442
659.2	33352.74
659.551	33325.85
659.902	33416.92
660.253	33372.85
660.604	33326.3
660.955	33133.54
661.306	33329.91
661.656	33286.3
662.007	33115.68
662.358	33143.25
662.708	33199.3
663.059	33167.88
663.409	32899.42
663.76	33204.04
664.11	33054.22
664.461	33094.89
664.811	33058.51
665.161	33029.13
665.511	32972.64
665.862	32997.04
666.212	33054.67
666.562	32961.56
666.912	33035.01
667.262	32949.13
667.612	32777.61
667.962	32856.25
668.312	32815.35
668.662	32905.74
669.011	32800.89
669.361	32767.67
669.711	32882.47
670.06	32825.75
670.41	32820.1
670.76	32715.69
671.109	32804.28
671.459	32608.58
671.808	32720.67
672.157	32662.36
672.507	32542.36
672.856	32469.82
673.205	32490.61
673.554	32568.58
673.904	32399.77
674.253	32612.65
674.602	32476.83
674.951	31865.55
675.3	31832.33
675.649	32178.31
675.998	32244.97
676.346	32244.29
676.695	32318.87
677.044	31999.78
677.393	32078.87
677.741	32098.99
678.09	32022.6
678.438	31987.8
678.787	31963.17
679.135	32022.6
679.484	31915.94
679.832	31858.09
680.181	31798.2
680.529	31975.6
680.877	31756.85
681.225	31737.87
681.573	32071.42
681.922	31701.71
682.27	31602.73
682.618	31794.81
682.966	31586.23
683.314	31765.21
683.661	31598.89
684.009	31492.22
684.357	31487.93
684.705	31458.33
685.053	31381.72
685.4	31354.83
685.748	31263.53
686.095	31230.99
686.443	30967.49
686.79	30960.49
687.138	31044.1
687.485	30917.77
687.832	30758.23
688.18	30776.54
688.527	30632.81
688.874	30649.76
689.221	30596.2
689.568	30421.29
689.915	30482.76
690.262	30310.11
690.609	30148.08
690.956	30207.74
691.303	30226.27
691.65	30086.84
691.997	30011.58
692.344	29999.15
692.69	29891.81
693.037	29889.1
693.383	29711.25
693.73	29789.22
694.077	29668.77
694.423	29654.98
694.769	29536.12
695.116	29424.25
695.462	29424.48
695.808	29256.58
696.155	29311.49
696.501	29152.62
696.847	29090.25
697.193	28951.05
697.539	29093.19
697.885	28824.5
698.231	28801.67
698.577	28879.41
698.923	28662.01
699.269	28657.5
699.614	28376.6
699.96	28342.48
700.306	28336.6
700.651	28182.25
700.997	28087.34
701.342	28088.24
701.688	28115.59
702.033	27963.28
702.379	27831.98
702.724	27770.51
703.069	27890.74
703.415	27547.47
703.76	27557.41
704.105	27542.5
704.45	27383.18
704.795	27226.57
705.14	27172.34
705.485	26986.35
705.83	27048.95
706.175	27198.78
706.52	27014.6
706.865	26828.62
707.209	26919.24
707.554	26721.5
707.899	26802.85
708.243	26594.5
708.588	26750.65
708.932	26476.31
709.277	26437.44
709.621	26527.83
709.966	26376.2
710.31	26483.99
710.654	26201.97
710.998	26267.05
711.342	26185.24
711.687	26143.66
712.031	26090.33
712.375	25985.7
712.719	26161.06
713.063	25901.18
713.407	26105.47
713.75	25753.16
714.094	25777.57
714.438	25547.97
714.782	25650.57
715.125	25609.44
715.469	25511.14
715.812	25342.33
716.156	25347.75
716.499	25253.74
716.843	25274.53
717.186	25084.48
717.53	25246.96
717.873	25294.65
718.216	25038.83
718.559	24976.69
718.902	24820.53
719.246	24903.24
719.589	24868.44
719.932	24727.2
720.275	24868.22
720.617	24747.99
720.96	24693.08
721.303	24712.29
721.646	24696.02
721.989	24583.48
722.331	24642.46
722.674	24493.31
723.016	24627.32
723.359	24612.18
723.701	24618.05
724.044	24233.66
724.386	24235.24
724.729	24370.6
725.071	24389.36
725.413	24312.75
725.755	24246.54
726.097	24179.19
726.439	24077.5
726.782	24177.84
727.124	24207.89
727.465	24121.57
727.807	24053.77
728.149	23914.12
728.491	23808.36
728.833	23916.6
729.175	23705.08
729.516	23696.72
729.858	23635.71
730.199	23632.09
730.541	23630.51
730.882	23652.2
731.224	23665.31
731.565	23470.51
731.906	23542.83
732.248	23549.83
732.589	23536.27
732.93	23329.27
733.271	23267.81
733.612	23296.96
733.953	23349.16
734.294	23141.03
734.635	23160.24
734.976	23207.24
735.317	23008.83
735.658	23025.33
735.999	23073.69
736.339	23055.38
736.68	23113.69
737.021	23058.77
737.361	22990.3
737.702	22986.68
738.042	22899.91
738.383	22824.88
738.723	22860.59
739.063	22807.93
739.404	22821.49
739.744	22732.68
740.084	22727.26
740.424	22631.89
740.764	22594.6
741.104	22753.92
741.444	22493.82
741.784	22581.27
742.124	22623.3
742.464	22529.07
742.804	22591.67
743.143	22442.07
743.483	22372.01
743.823	22453.14
744.162	22248.17
744.502	22504.66
744.841	22372.69
745.181	22393.48
745.52	22123.43
745.86	22252.01
746.199	22279.58
746.538	22168.17
746.877	22100.83
747.216	22067.16
747.556	22153.71
747.895	22061.06
748.234	21923.66
748.573	21859.26
748.911	21962.08
749.25	21720.28
749.589	21680.73
749.928	21766.15
750.267	21794.17
750.605	21693.84
750.944	21612.71
751.283	21562.54
751.621	21579.94
751.96	21424.69
752.298	21452.49
752.636	21427.4
752.975	21243
753.313	21221.53
753.651	21323.68
753.989	21101.31
754.327	21181.53
754.666	20968.43
755.004	21148.31
755.342	21000.52
755.679	21004.36
756.017	20891.82
756.355	20968.88
756.693	20831.49
757.031	20849.11
757.368	20746.74
757.706	20736.35
758.044	20605.5
758.381	20637.37
758.719	20470.14
759.056	20497.94
759.394	20469.01
759.731	20240.54
760.068	20269.02
760.405	20076.7
760.743	20062.69
761.08	20122.58
761.417	20032.19
761.754	20006.88
762.091	19841.23
762.428	19772.53
762.765	19803.04
763.102	19881.23
763.438	19807.56
763.775	19586.77
764.112	19569.37
764.449	19677.84
764.785	19515.14
765.122	19412.99
765.458	19337.29
765.795	19263.17
766.131	19171.87
766.467	19185.43
766.804	19130.97
767.14	19059.78
767.476	19055.04
767.812	18991.08
768.148	18977.75
768.485	18819.34
768.821	18749.96
769.157	18673.12
769.492	18644.65
769.828	18671.77
770.164	18398.1
770.5	18462.51
770.836	18379.35
771.171	18323.3
771.507	18270.2
771.842	18099.81
772.178	18128.51
772.513	18149.52
772.849	18047.6
773.184	17924.67
773.519	17873.6
773.855	17853.94
774.19	17760.61
774.525	17696.2
774.86	17694.17
775.195	17625.92
775.53	17568.07
775.865	17453.72
776.2	17349.32
776.535	17294.4
776.87	17189.32
777.205	17176.44
777.539	17041.08
777.874	17140.74
778.209	16920.18
778.543	16920.4
778.878	16755.89
779.212	16867.52
779.547	16700.52
779.881	16823
780.215	16654.65
780.55	16624.14
780.884	16519.51
781.218	16416.91
781.552	16474.09
781.886	16388.89
782.22	16324.71
782.554	16247.65
782.888	15993.87
783.222	16022.57
783.556	15933.08
783.889	15925.17
784.223	15810.6
784.557	15799.98
784.89	15745.74
785.224	15666.2
785.557	15646.99
785.891	15619.42
786.224	15544.62
786.558	15524.73
786.891	15365.19
787.224	15380.56
787.557	15325.19
787.891	15296.72
788.224	15300.56
788.557	15224.4
788.89	15195.48
789.223	15131.75
789.556	15044.07
789.888	15028.7
790.221	14944.18
790.554	14897.86
790.887	14919.78
791.219	14827.12
791.552	14757.97
791.884	14670.52
792.217	14666.22
792.549	14614.93
792.882	14503.74
793.214	14431.43
793.546	14471.88
793.879	14351.43
794.211	14336.06
794.543	14296.97
794.875	14285.44
795.207	14278.66
795.539	14097.65
795.871	14139.23
796.203	14040.7
796.535	13939.69
796.867	13946.24
797.198	13825.57
797.53	13827.83
797.862	13766.59
798.193	13800.26
798.525	13677.78
798.856	13687.04
799.188	13535.18
799.519	13569.3
799.85	13418.57
800.182	13464.45
800.513	13439.36
800.844	13299.25
801.175	13511.9
801.506	13456.31
801.837	13381.29
802.168	13235.3
802.499	13326.6
802.83	13159.37
803.161	13141.07
803.491	13078.24
803.822	13169.09
804.153	13017
804.483	13005.25
804.814	12916.44
805.145	12920.06
805.475	12811.36
805.805	12792.83
806.136	12846.61
806.466	12773.62
806.796	12765.71
807.126	12697.46
807.457	12631.7
807.787	12651.14
808.117	12650.01
808.447	12503.57
808.777	12579.27
809.107	12514.64
809.436	12465.15
809.766	12504.93
810.096	12442.55
810.426	12279.62
810.755	12277.81
811.085	12211.83
811.414	12279.62
811.744	12188.32
812.073	12127.08
812.403	12161.21
812.732	12102.22
813.061	12036.46
813.39	11984.94
813.719	11972.28
814.049	12019.97
814.378	11973.41
814.707	11954.43
815.036	11937.48
815.365	11916.01
815.693	11758.05
816.022	11813.42
816.351	11685.29
816.68	11610.03
817.008	11705.62
817.337	11565.97
817.665	11546.98
817.994	11639.64
818.322	11584.05
818.651	11565.29
818.979	11459.08
819.307	11512.64
819.636	11489.81
819.964	11486.87
820.292	11430.38
820.62	11469.02
820.948	11434.9
821.276	11461.11
821.604	11410.49
821.932	11390.15
822.259	11403.71
822.587	11471.73
822.915	11393.77
823.243	11420.43
823.57	11431.28
823.898	11443.94
824.225	11443.94
824.553	11403.03
824.88	11402.36
825.207	11379.98
825.535	11357.84
825.862	11487.78
826.189	11401.45
826.516	11383.6
826.843	11398.97
827.17	11395.12
827.497	11370.04
827.824	11421.56
828.151	11380.89
828.478	11411.17
828.805	11396.48
829.131	11424.73
829.458	11348.8
829.785	11320.55
830.111	11358.29
830.438	11423.37
830.764	11327.33
831.09	11339.76
831.417	11309.02
831.743	11384.28
832.069	11322.13
832.395	11294.34
832.722	11312.19
833.048	11225.41
833.374	11226.09
833.7	11223.15
834.026	11249.14
834.351	11224.96
834.677	11212.76
835.003	11224.96
835.329	11168.24
835.654	11218.18
835.98	11151.06
836.306	11150.84
836.631	11133.21
836.956	11132.76
837.282	11113.78
837.607	11160.78
837.932	11050.95
838.258	11022.03
838.583	11030.16
838.908	11020.22
839.233	11034.68
839.558	10984.29
839.883	10953.1
840.208	11026.09
840.533	10996.26
840.858	10949.26
841.182	10928.7
841.507	10963.95
841.832	10909.49
842.156	10830.62
842.481	10855.93
842.805	10848.92
843.13	10858.64
843.454	10801.24
843.778	10759.89
844.103	10740.68
844.427	10746.78
844.751	10769.38
845.075	10686.67
845.399	10624.75
845.723	10550.17
846.047	10576.39
846.371	10488.71
846.695	10501.14
847.019	10365.55
847.343	10391.08
847.666	10387.69
847.99	10330.75
848.313	10279.67
848.637	10131.43
848.96	10167.81
849.284	10160.58
849.607	10100.92
849.931	10087.81
850.254	9984.77
850.577	9898.89
850.9	9852.79
851.223	9825.67
851.546	9811.89
851.869	9725.34
852.192	9808.27
852.515	9717.2
852.838	9683.76
853.161	9671.55
853.483	9555.85
853.806	9557.43
854.129	9506.81
854.451	9485.34
854.774	9484.89
855.096	9426.59
855.419	9457.55
855.741	9395.4
856.063	9376.65
856.385	9370.77
856.708	9376.19
857.03	9244.45
857.352	9291.9
857.674	9230.89
857.996	9249.87
858.318	9187.05
858.64	9220.72
858.961	9135.52
859.283	9176.88
859.605	9071.12
859.926	9093.94
860.248	9131.68
860.57	9060.5
860.891	9068.86
861.212	8982.08
861.534	8947.96
861.855	8975.3
862.176	8972.14
862.498	8935.98
862.819	8981.85
863.14	8907.96
863.461	8860.28
863.782	8811.69
864.103	8803.1
864.424	8865.02
864.745	8833.38
865.065	8811.01
865.386	8775.76
865.707	8801.29
866.027	8803.33
866.348	8713.16
866.668	8735.98
866.989	8733.27
867.309	8553.84
867.63	8657.57
867.95	8659.38
868.27	8638.81
868.59	8664.57
868.91	8636.55
869.23	8594.52
869.55	8531.92
869.87	8587.97
870.19	8596.78
870.51	8555.88
870.83	8533.28
871.15	8537.57
871.469	8490.79
871.789	8555.65
872.109	8447.41
872.428	8385.03
872.748	8442.66
873.067	8435.88
873.386	8437.01
873.706	8416.22
874.025	8375.32
874.344	8262.1
874.663	8394.53
874.982	8386.39
875.301	8309.33
875.62	8314.98
875.939	8345.26
876.258	8303.91
876.577	8300.97
876.896	8248.99
877.214	8245.15
877.533	8276.79
877.852	8184.14
878.17	8220.74
878.489	8152.05
878.807	8200.63
879.125	8145.04
879.444	8216.22
879.762	8103.23
880.08	8103.46
880.398	8104.59
880.716	8079.96
881.034	8064.36
881.352	8093.74
881.67	8090.13
881.988	8055.1
882.306	8044.25
882.624	8050.35
882.941	7932.39
883.259	8016.46
883.577	7896.23
883.894	7923.35
884.212	7893.07
884.529	7930.81
884.846	7849
885.164	7797.25
885.481	7788.21
885.798	7823.24
886.115	7742.34
886.432	7765.16
886.75	7796.12
887.067	7719.97
887.383	7719.51
887.7	7750.02
888.017	7673.19
888.334	7682.45
888.651	7635.22
888.967	7641.1
889.284	7594.55
889.6	7554.55
889.917	7554.32
890.233	7530.37
890.55	7460.54
890.866	7511.61
891.182	7516.58
891.498	7519.97
891.815	7422.8
892.131	7392.29
892.447	7387.55
892.763	7396.36
893.079	7329.69
893.395	7367.89
893.71	7297.38
894.026	7245.63
894.342	7298.73
894.657	7238.62
894.973	7232.07
895.289	7157.27
895.604	7166.31
895.92	7135.12
896.235	7118.17
896.55	7145.29
896.865	7110.27
897.181	7051.06
897.496	7028.01
897.811	7021.45
898.126	6974
898.441	6991.62
898.756	6934.68
899.071	6941.23
899.386	6909.14
899.7	6874.57
900.015	6812.65
900.33	6837.96
900.644	6767.68
900.959	6748.69
901.273	6769.48
901.588	6632.54
901.902	6681.8
902.216	6698.98
902.531	6707.11
902.845	6577.62
903.159	6595.25
903.473	6602.03
903.787	6522.26
904.101	6531.98
904.415	6555.48
904.729	6440.68
905.042	6412.2
905.356	6469.6
905.67	6440.9
905.984	6419.89
906.297	6378.31
906.611	6356.39
906.924	6347.12
907.237	6353.45
907.551	6318.65
907.864	6312.32
908.177	6221.47
908.491	6196.39
908.804	6257.41
909.117	6223.51
909.43	6192.78
909.743	6107.58
910.056	6162.27
910.368	6048.37
910.681	6058.77
910.994	6004.31
911.307	5985.77
911.619	5911.88
911.932	5976.28
912.244	5922.5
912.557	5882.05
912.869	5919.34
913.181	5835.27
913.494	5837.98
913.806	5801.37
914.118	5814.93
914.43	5778.1
914.742	5748.04
915.054	5743.52
915.366	5729.74
915.678	5643.86
915.99	5670.98
916.302	5572.68
916.613	5589.63
916.925	5567.03
917.236	5530.87
917.548	5541.94
917.859	5487.93
918.171	5473.47
918.482	5485.45
918.794	5437.54
919.105	5390.08
919.416	5386.92
919.727	5366.58
920.038	5334.04
920.349	5349.63
920.66	5352.57
920.971	5306.47
921.282	5252.91
921.593	5210.65
921.903	5201.16
922.214	5153.25
922.525	5152.12
922.835	5143.99
923.146	5101.96
923.456	5091.79
923.767	5077.78
924.077	5068.96
924.387	5042.75
924.697	5006.82
925.008	5005.91
925.318	4975.63
925.628	4952.81
925.938	4957.33
926.248	4858.57
926.558	4886.59
926.867	4888.85
927.177	4839.82
927.487	4827.84
927.796	4796.2
928.106	4784.45
928.416	4791.23
928.725	4723.44
929.034	4709.65
929.344	4742.64
929.653	4683.44
929.962	4735.41
930.271	4649.09
930.581	4672.59
930.89	4639.82
931.199	4572.7
931.508	4585.13
931.817	4564.57
932.125	4550.56
932.434	4509.88
932.743	4481.86
933.051	4453.16
933.36	4409.55
933.669	4435.76
933.977	4407.29
934.286	4393.95
934.594	4379.94
934.902	4330
935.21	4331.58
935.519	4355.99
935.827	4305.59
936.135	4308.3
936.443	4241.87
936.751	4228.08
937.059	4259.72
937.367	4232.15
937.674	4229.66
937.982	4196.9
938.29	4196.67
938.597	4176.33
938.905	4106.5
939.213	4113.06
939.52	4071.25
939.827	4083.68
940.135	4057.69
940.442	4069.44
940.749	3986.96
941.056	4064.7
941.363	4008.2
941.67	4001.65
941.977	3971.36
942.284	3998.03
942.591	3960.07
942.898	3920.07
943.205	3911.93
943.511	3917.35
943.818	3892.04
944.125	3860.41
944.431	3823.8
944.738	3847.98
945.044	3790.35
945.35	3849.79
945.657	3774.76
945.963	3776.57
946.269	3739.73
946.575	3767.75
946.881	3718.04
947.187	3712.39
947.493	3726.85
947.799	3694.54
948.105	3672.84
948.41	3699.96
948.716	3690.92
949.022	3624.48
949.327	3606.18
949.633	3570.7
949.938	3557.14
950.244	3569.34
950.549	3557.82
950.854	3555.1
951.16	3484.15
951.465	3503.35
951.77	3515.33
952.075	3483.92
952.38	3457.93
952.685	3427.42
952.99	3442.79
953.294	3404.37
953.599	3380.87
953.904	3379.97
954.209	3373.64
954.513	3362.57
954.818	3343.36
955.122	3335.68
955.426	3336.35
955.731	3283.92
956.035	3299.97
956.339	3286.64
956.643	3277.6
956.948	3251.61
957.252	3219.07
957.556	3220.42
957.86	3217.26
958.163	3179.75
958.467	3132.52
958.771	3184.72
959.075	3166.19
959.378	3126.87
959.682	3146.08
959.985	3129.13
960.289	3113.99
960.592	3085.51
960.896	3092.29
961.199	3048.22
961.502	3036.25
961.805	3012.29
962.108	3023.14
962.411	2996.25
962.714	2974.78
963.017	2970.71
963.32	2976.59
963.623	2939.53
963.926	2924.84
964.228	2907.21
964.531	2889.36
964.833	2927.78
965.136	2893.2
965.438	2871.28
965.741	2851.85
966.043	2874.22
966.345	2875.12
966.648	2844.16
966.95	2838.51
967.252	2801.23
967.554	2814.56
967.856	2800.55
968.158	2760.1
968.46	2805.29
968.761	2729.14
969.063	2709.25
969.365	2735.24
969.666	2737.95
969.968	2691.62
970.269	2705.41
970.571	2687.1
970.872	2666.77
971.174	2648.46
971.475	2629.7
971.776	2638.52
972.077	2625.41
972.378	2638.52
972.679	2631.74
972.98	2612.53
973.281	2577.5
973.582	2579.31
973.883	2540.67
974.183	2553.77
974.484	2521.46
974.785	2509.26
975.085	2551.51
975.386	2546.77
975.686	2486.88
975.986	2508.35
976.287	2454.79
976.587	2472.19
976.887	2448.24
977.187	2464.74
977.487	2452.76
977.787	2460.44
978.087	2434.23
978.387	2418.19
978.687	2363.27
978.987	2407.79
979.286	2361.46
979.586	2360.33
979.885	2337.96
980.185	2327.57
980.484	2349.71
980.784	2339.54
981.083	2313.55
981.382	2316.94
981.682	2314.46
981.981	2318.07
982.28	2278.08
982.579	2295.7
982.878	2268.58
983.177	2233.33
983.475	2233.56
983.774	2196.04
984.073	2225.87
984.372	2223.16
984.67	2201.69
984.969	2203.95
985.267	2181.13
985.566	2151.53
985.864	2162.37
986.162	2116.27
986.461	2147.91
986.759	2167.57
987.057	2088.7
987.355	2131.64
987.653	2127.8
987.951	2080.57
988.249	2076.5
988.547	2056.39
988.844	2038.76
989.142	2076.5
989.44	2038.53
989.737	2021.13
990.035	2010.51
990.332	2011.87
990.63	2029.49
990.927	1996.73
991.224	2002.38
991.521	1994.24
991.819	1977.74
992.116	1965.09
992.413	1970.06
992.71	1965.32
993.006	1949.72
993.303	1909.27
993.6	1949.72
993.897	1889.61
994.193	1914.02
994.49	1895.03
994.787	1921.7
995.083	1859.33
995.379	1859.56
995.676	1876.5
995.972	1832.89
996.268	1843.51
996.565	1857.07
996.861	1806.9
997.157	1825.66
997.453	1818.43
997.749	1791.99
998.044	1782.04
998.34	1792.44
998.636	1768.26
998.932	1775.04
999.227	1766
999.523	1747.24
999.818	1747.47
1000.114	1724.87
1000.409	1714.25
1000.704	1727.13
1001	1719.22
1001.295	1688.49
1001.59	1688.94
1001.885	1693.68
1002.18	1669.05
1002.475	1676.96
1002.77	1653.01
1003.065	1628.83
1003.359	1668.37
1003.654	1639.9
1003.949	1627.25
1004.243	1624.76
1004.538	1595.61
1004.832	1584.31
1005.127	1609.17
1005.421	1582.5
1005.715	1548.6
1006.009	1580.24
1006.304	1582.73
1006.598	1545.67
1006.892	1558.77
1007.186	1512.22
1007.48	1517.42
1007.773	1504.54
1008.067	1507.02
1008.361	1532.33
1008.655	1487.36
1008.948	1450.98
1009.242	1480.13
1009.535	1489.17
1009.829	1441.71
1010.122	1447.59
1010.415	1464.54
1010.708	1423.41
1011.001	1446.23
1011.295	1417.31
1011.588	1424.76
1011.881	1393.35
1012.173	1411.88
1012.466	1403.75
1012.759	1402.17
1013.052	1369.63
1013.344	1383.64
1013.637	1358.1
1013.93	1372.34
1014.222	1333.69
1014.514	1333.47
1014.807	1329.17
1015.099	1322.39
1015.391	1281.27
1015.683	1304.09
1015.976	1290.31
1016.268	1292.79
1016.56	1308.38
1016.851	1283.3
1017.143	1294.15
1017.435	1274.49
1017.727	1268.38
1018.018	1257.76
1018.31	1232.91
1018.602	1236.07
1018.893	1220.02
1019.185	1218.67
1019.476	1198.78
1019.767	1194.26
1020.058	1212.34
1020.35	1166.47
1020.641	1159.91
1020.932	1154.94
1021.223	1165.79
1021.514	1156.07
1021.804	1150.42
1022.095	1148.16
1022.386	1135.28
1022.677	1120.14
1022.967	1113.36
1023.258	1132.8
1023.548	1105.45
1023.839	1089.18
1024.129	1101.38
1024.419	1049.18
1024.709	1092.34
1025	1083.08
1025.29	1051.44
1025.58	1038.33
1025.87	1054.61
1026.16	1041.72
1026.449	1046.24
1026.739	1040.14
1027.029	1036.75
1027.319	1010.99
1027.608	1036.98
1027.898	1006.24
1028.187	1007.37
1028.477	1000.6
1028.766	987.49
1029.055	1001.05
1029.344	977.54
1029.634	974.16
1029.923	993.59
1030.212	972.8
1030.501	960.14
1030.79	939.35
1031.078	945
1031.367	933.03
1031.656	953.59
1031.945	934.38
1032.233	946.81
1032.522	910.43
1032.81	907.72
1033.099	892.12
1033.387	901.61
1033.675	904.78
1033.963	893.48
1034.251	893.25
1034.54	884.44
1034.828	867.94
1035.116	837.66
1035.403	862.75
1035.691	858.23
1035.979	833.14
1036.267	873.82
1036.554	829.53
1036.842	839.24
1037.129	831.56
1037.417	838.57
1037.704	824.78
1037.992	805.57
1038.279	832.69
1038.566	812.8
1038.853	812.8
1039.14	812.8
