Data from foam1_polythene_foam_FLMS001491_00095.txt Node
Date: Wed Feb 08 10:55:39 GMT 2017
User: dcchb
Spectrometer: FLMS00149
Trigger mode: 0
Integration Time (sec): 2.000000E-2
Scans to average: 10
Electric dark correction enabled: true
Nonlinearity correction enabled: false
Boxcar width: 0
XAxis mode: Wavelengths
Number of Pixels in Spectrum: 2048
>>>>>Begin Spectral Data<<<<<
341.393	-1.62
341.776	-1.62
342.16	-1.62
342.543	-62.64
342.927	-74.39
343.31	-78.46
343.693	-65.13
344.077	-66.03
344.46	-56.76
344.843	-23.32
345.226	-55.63
345.61	-41.62
345.993	-2.53
346.376	-10.21
346.759	13.06
347.142	28.88
347.525	32.73
347.908	60.07
348.291	70.46
348.674	97.36
349.057	97.13
349.44	108.66
349.823	133.74
350.206	147.75
350.588	181.2
350.971	171.03
351.354	219.16
351.737	195.66
352.119	232.72
352.502	224.13
352.884	248.76
353.267	259.39
353.65	284.02
354.032	274.3
354.414	286.28
354.797	287.41
355.179	298.93
355.562	333.51
355.944	298.93
356.326	307.52
356.709	312.49
357.091	319.27
357.473	347.75
357.855	331.7
358.238	322.21
358.62	311.59
359.002	300.97
359.384	322.66
359.766	299.38
360.148	312.04
360.53	313.62
360.912	319.72
361.294	305.94
361.676	313.4
362.057	305.49
362.439	300.06
362.821	291.02
363.203	309.55
363.584	300.97
363.966	317.69
364.348	310.01
364.729	300.74
365.111	327.18
365.493	320.18
365.874	306.62
366.256	293.74
366.637	286.96
367.019	300.74
367.4	299.38
367.781	309.78
368.163	273.62
368.544	324.47
368.925	279.5
369.306	303
369.688	276.56
370.069	299.61
370.45	306.84
370.831	298.93
371.212	300.97
371.593	281.76
371.974	289.89
372.355	295.77
372.736	294.87
373.117	305.03
373.498	290.35
373.879	299.16
374.26	303.45
374.641	298.03
375.021	303.68
375.402	292.15
375.783	303.68
376.163	309.1
376.544	320.63
376.925	307.29
377.305	301.19
377.686	313.4
378.066	314.3
378.447	292.83
378.827	300.51
379.208	300.97
379.588	308.42
379.968	315.43
380.349	317.92
380.729	320.4
381.109	330.12
381.489	308.65
381.87	313.85
382.25	320.85
382.63	316.79
383.01	333.28
383.39	322.44
383.77	329.21
384.15	331.7
384.53	323.79
384.91	331.93
385.29	327.86
385.67	346.62
386.049	344.13
386.429	318.14
386.809	337.58
387.189	329.89
387.568	341.64
387.948	328.99
388.328	351.81
388.707	345.26
389.087	346.16
389.466	343.9
389.846	355.65
390.225	356.11
390.605	349.78
390.984	346.84
391.363	350.91
391.743	363.34
392.122	338.48
392.501	357.91
392.881	360.85
393.26	378.93
393.639	367.86
394.018	362.43
394.397	355.43
394.776	373.28
395.155	387.52
395.534	355.2
395.913	360.85
396.292	371.25
396.671	364.24
397.05	396.56
397.429	386.61
397.808	382.32
398.186	405.6
398.565	370.8
398.944	386.16
399.323	394.98
399.701	358.37
400.08	368.99
400.458	399.95
400.837	403.11
401.215	403.11
401.594	383.68
401.972	382.09
402.351	414.41
402.729	408.31
403.107	417.8
403.486	400.4
403.864	412.6
404.242	407.18
404.62	403.34
404.999	406.95
405.377	406.95
405.755	433.62
406.133	421.42
406.511	431.36
406.889	424.58
407.267	426.16
407.645	421.64
408.023	417.57
408.401	417.8
408.779	422.32
409.156	420.96
409.534	428.87
409.912	424.13
410.29	452.83
410.667	447.63
411.045	455.99
411.422	453.05
411.8	443.56
412.178	437.01
412.555	450.57
412.933	467.29
413.31	477.23
413.687	460.96
414.065	475.2
414.442	458.02
414.819	476.56
415.197	488.31
415.574	486.72
415.951	495.31
416.328	481.75
416.705	493.05
417.082	517.01
417.46	509.77
417.837	510.68
418.214	481.53
418.591	499.38
418.967	501.19
419.344	512.49
419.721	516.55
420.098	528.98
420.475	518.14
420.852	537.34
421.228	528.31
421.605	538.93
421.982	548.42
422.358	526.95
422.735	556.78
423.111	531.02
423.488	574.63
423.864	550.9
424.241	553.16
424.617	535.54
424.994	558.36
425.37	552.94
425.746	572.82
426.123	594.52
426.499	589.32
426.875	589.55
427.251	564.24
427.627	599.26
428.003	584.58
428.379	594.74
428.756	592.48
429.132	623.9
429.507	629.09
429.883	608.08
430.259	619.15
430.635	655.08
431.011	641.3
431.387	643.56
431.763	672.03
432.138	647.4
432.514	668.19
432.89	654.86
433.265	664.35
433.641	666.61
434.016	686.04
434.392	708.87
434.767	687.4
435.143	722.88
435.518	734.18
435.894	720.62
436.269	729.2
436.644	727.62
437.02	720.16
437.395	746.83
437.77	758.58
438.145	742.54
438.52	776.43
438.895	781.86
439.271	781.41
439.646	813.27
440.021	794.51
440.395	779.15
440.77	804
441.145	793.38
441.52	830.67
441.895	827.05
442.27	820.05
442.645	829.31
443.019	847.17
443.394	832.48
443.769	858.01
444.143	844.23
444.518	875.19
444.892	876.32
445.267	881.52
445.641	861.63
446.016	893.95
446.39	889.43
446.764	904.34
447.139	911.57
447.513	920.39
447.887	905.24
448.262	942.08
448.636	944.79
449.01	929.2
449.384	943.21
449.758	952.47
450.132	964.23
450.506	947.05
450.88	977.79
451.254	1001.51
451.628	992.93
452.002	1020.95
452.376	1020.5
452.75	1002.42
453.123	1024.56
453.497	1044.9
453.871	1036.09
454.244	1046.48
454.618	1059.82
454.992	1047.16
455.365	1048.74
455.739	1091.91
456.112	1107.05
456.486	1091.45
456.859	1088.06
457.232	1111.57
457.606	1097.78
457.979	1100.72
458.352	1143.43
458.725	1146.14
459.099	1170.77
459.472	1166.48
459.845	1169.19
460.218	1188.63
460.591	1191.56
460.964	1178.91
461.337	1185.24
461.71	1215.07
462.083	1233.37
462.456	1233.82
462.829	1246.7
463.201	1255.52
463.574	1257.1
463.947	1262.07
464.32	1276.76
464.692	1304.78
465.065	1278.12
465.438	1337.55
465.81	1345.68
466.183	1347.04
466.555	1349.98
466.928	1371
467.3	1378.68
467.672	1421.16
468.045	1399.02
468.417	1418.68
468.789	1422.29
469.161	1443.99
469.534	1448.06
469.906	1491.22
470.278	1492.35
470.65	1533.48
471.022	1539.13
471.394	1542.74
471.766	1579.13
472.138	1538.22
472.51	1608.28
472.882	1614.38
473.253	1621.16
473.625	1653.7
473.997	1676.3
474.369	1689.4
474.74	1716.97
475.112	1707.26
475.484	1744.77
475.855	1791.1
476.227	1789.52
476.598	1839.91
476.97	1823.64
477.341	1881.04
477.713	1874.03
478.084	1926.69
478.455	1956.29
478.827	1961.71
479.198	2017.76
479.569	2021.15
479.94	2076.97
480.311	2093.69
480.682	2136.62
481.053	2201.26
481.424	2205.55
481.795	2227.24
482.166	2241.93
482.537	2272.21
482.908	2295.72
483.279	2312.67
483.65	2411.65
484.021	2442.15
484.391	2461.14
484.762	2448.25
485.133	2514.92
485.503	2510.17
485.874	2571.19
486.244	2605.76
486.615	2650.28
486.985	2676.72
487.356	2702.26
487.726	2705.88
488.097	2750.85
488.467	2796.95
488.837	2864.06
489.207	2902.71
489.578	2903.84
489.948	2937.28
490.318	2990.84
490.688	3012.76
491.058	3058.41
491.428	3059.76
491.798	3073.78
492.168	3183.38
492.538	3133.89
492.908	3220.89
493.278	3199.65
493.648	3302.92
494.017	3337.5
494.387	3302.7
494.757	3339.76
495.126	3366.65
495.496	3410.04
495.866	3441
496.235	3465.86
496.605	3470.15
496.974	3537.27
497.344	3553.99
497.713	3566.42
498.082	3584.72
498.452	3627.66
498.821	3613.65
499.19	3657.04
499.559	3706.07
499.928	3723.93
500.298	3786.98
500.667	3731.16
501.036	3745.4
501.405	3869.46
501.774	3815.68
502.143	3861.78
502.512	3850.03
502.88	3925.28
503.249	3924.83
503.618	3956.01
503.987	4002.34
504.356	4005.73
504.724	4032.62
505.093	4068.33
505.462	4074.65
505.83	4117.59
506.199	4138.38
506.567	4203.01
506.936	4222.22
507.304	4225.61
507.672	4245.27
508.041	4299.73
508.409	4373.63
508.777	4361.88
509.145	4451.82
509.514	4426.51
509.882	4425.83
510.25	4450.46
510.618	4489.56
510.986	4532.72
511.354	4589.22
511.722	4597.8
512.09	4614.98
512.458	4569.55
512.826	4671.93
513.193	4673.51
513.561	4692.26
513.929	4789.66
514.297	4823.56
514.664	4838.02
515.032	4831.02
515.4	4893.61
515.767	4925.93
516.135	4953.5
516.502	4955.31
516.869	5027.4
517.237	5000.5
517.604	5046.83
517.972	5087.28
518.339	5148.52
518.706	5158.24
519.073	5213.38
519.44	5292.25
519.808	5238.24
520.175	5292.25
520.542	5361.62
520.909	5407.05
521.276	5388.74
521.643	5442.98
522.009	5492.69
522.376	5560.72
522.743	5576.31
523.11	5668.96
523.477	5687.72
523.843	5715.97
524.21	5857.2
524.577	5820.82
524.943	5877.32
525.31	5892.01
525.676	5941.04
526.043	6024.21
526.409	6034.6
526.776	6095.16
527.142	6098.55
527.508	6138.33
527.874	6185.78
528.241	6184.65
528.607	6256.97
528.973	6317.53
529.339	6318.89
529.705	6409.05
530.071	6466.68
530.437	6467.13
530.803	6456.96
531.169	6574.47
531.535	6527.47
531.901	6544.64
532.267	6625.77
532.632	6594.13
532.998	6720.01
533.364	6799.1
533.73	6788.25
534.095	6803.17
534.461	6809.72
534.826	6819.44
535.192	6853.56
535.557	6929.49
535.923	6896.95
536.288	6979.66
536.653	6961.13
537.019	6925.88
537.384	7017.85
537.749	7025.31
538.114	7087.91
538.479	7096.04
538.845	7176.04
539.21	7167.23
539.575	7254
539.94	7266.89
540.305	7261.24
540.67	7269.82
541.034	7255.13
541.399	7339.43
541.764	7422.14
542.129	7335.13
542.494	7405.86
542.858	7465.75
543.223	7498.52
543.587	7493.32
543.952	7432.08
544.316	7539.87
544.681	7500.1
545.045	7546.65
545.41	7663.94
545.774	7706.2
546.138	7604.73
546.503	7661.9
546.867	7731.73
547.231	7733.09
547.595	7772.41
547.959	7834.1
548.324	7851.28
548.688	7848.11
549.052	7826.87
549.416	7891.05
549.779	7935.34
550.143	7929.47
550.507	8028.9
550.871	8029.58
551.235	8037.26
551.599	8063.93
551.962	8118.61
552.326	8152.96
552.689	8148.67
553.053	8175.56
553.417	8200.42
553.78	8313.64
554.143	8282.68
554.507	8375.78
554.87	8377.59
555.234	8445.61
555.597	8378.04
555.96	8452.62
556.323	8521.32
556.686	8479.28
557.05	8561.31
557.413	8621.88
557.776	8630.47
558.139	8692.84
558.502	8700.52
558.865	8733.29
559.228	8751.82
559.59	8788.43
559.953	8813.06
560.316	8927.41
560.679	8969.21
561.041	8974.41
561.404	8996.11
561.767	9067.06
562.129	8995.2
562.492	9081.98
562.854	9084.01
563.217	9067.29
563.579	9186.38
563.941	9302.09
564.304	9272.48
564.666	9365.81
565.028	9303.67
565.39	9350.22
565.753	9376.43
566.115	9478.8
566.477	9562.87
566.839	9608.74
567.201	9662.08
567.563	9660.27
567.925	9646.26
568.287	9718.12
568.648	9668.18
569.01	9787.5
569.372	9878.34
569.734	9865.01
570.095	9877.44
570.457	9968.74
570.819	9889.42
571.18	9937.32
571.542	10013.48
571.903	9949.07
572.265	10062.74
572.626	10074.49
572.987	10085.12
573.349	10171.67
573.71	10209.86
574.071	10258.67
574.432	10232.46
574.794	10311.78
575.155	10274.04
575.516	10260.93
575.877	10226.36
576.238	10383.64
576.599	10441.27
576.96	10437.2
577.32	10533.01
577.681	10465.67
578.042	10492.56
578.403	10375.5
578.763	10456.41
579.124	10479.68
579.485	10573.92
579.845	10507.93
580.206	10536.63
580.566	10600.13
580.927	10581.6
581.287	10562.62
581.648	10567.82
582.008	10630.41
582.368	10556.97
582.728	10660.92
583.089	10654.37
583.449	10600.13
583.809	10624.54
584.169	10687.13
584.529	10668.38
584.889	10722.84
585.249	10693.91
585.609	10619.57
585.969	10708.38
586.329	10644.2
586.688	10709.28
587.048	10725.1
587.408	10736.17
587.768	10686.91
588.127	10709.51
588.487	10675.16
588.846	10694.14
589.206	10663.18
589.565	10613.92
589.925	10694.14
590.284	10724.65
590.643	10765.55
591.003	10760.13
591.362	10805.55
591.721	10710.64
592.08	10728.26
592.44	10758.77
592.799	10765.78
593.158	10743.86
593.517	10738.88
593.876	10783.63
594.235	10737.53
594.593	10716.06
594.952	10746.12
595.311	10702.95
595.67	10669.06
596.029	10795.15
596.387	10777.3
596.746	10799.45
597.104	10753.12
597.463	10816.85
597.822	10806.23
598.18	10837.41
598.538	10742.27
598.897	10883.51
599.255	10836.96
599.613	10942.04
599.972	10812.78
600.33	10881.03
600.688	10770.52
601.046	10863.4
601.404	10878.09
601.762	10922.61
602.12	10922.83
602.478	10930.29
602.836	10916.05
603.194	10853.01
603.552	10886.23
603.91	10807.81
604.268	10972.32
604.625	10899.56
604.983	10901.14
605.341	10883.29
605.698	10981.59
606.056	11090.29
606.413	11034.47
606.771	11002.38
607.128	10950.86
607.485	10927.35
607.843	10970.52
608.2	11017.52
608.557	11082.6
608.914	11015.04
609.272	11142.72
609.629	11083.06
609.986	11186.1
610.343	11050.97
610.7	11132.32
611.057	11171.64
611.414	11168.93
611.771	11130.96
612.127	11156.05
612.484	11155.37
612.841	11233.56
613.198	11164.18
613.554	11268.81
613.911	11263.39
614.267	11195.14
614.624	11238.76
614.98	11220.91
615.337	11240.57
615.693	11208.7
616.05	11240.79
616.406	11264.29
616.762	11300
617.118	11255.48
617.475	11211.64
617.831	11384.97
618.187	11296.16
618.543	11278.53
618.899	11260
619.255	11295.25
619.611	11337.74
619.967	11351.52
620.323	11361.69
620.678	11306.55
621.034	11349.49
621.39	11349.04
621.746	11333.22
622.101	11461.35
622.457	11332.54
622.812	11320.11
623.168	11401.69
623.523	11320.34
623.879	11352.65
624.234	11346.1
624.589	11407.79
624.945	11400.79
625.3	11404.86
625.655	11311.98
626.01	11342.71
626.365	11354.01
626.72	11305.88
627.075	11364.86
627.43	11277.63
627.785	11278.31
628.14	11322.82
628.495	11405.99
628.85	11375.48
629.205	11317.85
629.559	11328.25
629.914	11323.5
630.269	11243.96
630.623	11252.32
630.978	11216.16
631.332	11326.44
631.687	11236.05
632.041	11230.17
632.396	11285.08
632.75	11111.08
633.104	11208.02
633.459	11121.7
633.813	11187.91
634.167	11139.1
634.521	11167.57
634.875	11184.52
635.229	11076.05
635.583	11116.73
635.937	11002.83
636.291	11068.37
636.645	11125.77
636.999	11024.98
637.352	11104.52
637.706	11001.93
638.06	10982.72
638.413	11006.9
638.767	10993.57
639.121	10977.3
639.474	10937.3
639.828	10896.17
640.181	10893.23
640.534	10922.61
640.888	10887.58
641.241	10909.5
641.594	10868.6
641.947	10895.04
642.301	10851.2
642.654	10870.63
643.007	10825.44
643.36	10850.75
643.713	10809.39
644.066	10799.9
644.419	10790.86
644.771	10737.08
645.124	10648.49
645.477	10594.26
645.83	10489.63
646.182	10507.93
646.535	10403.75
646.888	10408.95
647.24	10402.62
647.593	10425.9
647.945	10422.06
648.298	10337.31
648.65	10281.5
649.002	10305.45
649.355	10342.28
649.707	10314.26
650.059	10333.92
650.411	10413.7
650.763	10503.86
651.115	10569.4
651.467	10580.02
651.819	10523.52
652.171	10449.85
652.523	10408.5
652.875	10380.48
653.227	10427.93
653.578	10509.96
653.93	10477.2
654.282	10453.02
654.633	10344.09
654.985	10416.63
655.337	10448.72
655.688	10375.5
656.039	10375.73
656.391	10320.59
656.742	10366.92
657.094	10315.39
657.445	10403.75
657.796	10415.73
658.147	10405.79
658.498	10313.36
658.849	10372.79
659.2	10269.74
659.551	10284.43
659.902	10305.22
660.253	10295.28
660.604	10287.14
660.955	10304.77
661.306	10257.77
661.656	10345.67
662.007	10321.49
662.358	10242.63
662.708	10320.82
663.059	10213.93
663.409	10215.28
663.76	10240.59
664.11	10245.56
664.461	10251.67
664.811	10158.33
665.161	10186.58
665.511	10189.75
665.862	10265.68
666.212	10220.48
666.562	10182.06
666.912	10152.69
667.262	10195.62
667.612	10182.29
667.962	10179.58
668.312	10118.79
668.662	10138.67
669.011	10121.05
669.361	10105
669.711	10106.13
670.06	10053.03
670.41	10099.81
670.76	10029.75
671.109	10131.22
671.459	10140.26
671.808	10142.29
672.157	10095.51
672.507	10017.1
672.856	10007.83
673.205	9996.3
673.554	10008.28
673.904	10004.89
674.253	10027.49
674.602	9983.65
674.951	9874.73
675.3	9884.9
675.649	10004.67
675.998	9943.88
676.346	10018.68
676.695	10014.61
677.044	9908.4
677.393	9936.65
677.741	9979.36
678.09	9967.15
678.438	9872.92
678.787	9953.37
679.135	9912.47
679.484	9846.7
679.832	9834.95
680.181	9851.9
680.529	9889.87
680.877	9875.4
681.225	9824.78
681.573	9904.33
681.922	9814.61
682.27	9774.16
682.618	9787.04
682.966	9759.25
683.314	9827.5
683.661	9726.93
684.009	9683.09
684.357	9676.77
684.705	9644
685.053	9610.55
685.4	9593.15
685.748	9613.49
686.095	9567.84
686.443	9616.88
686.79	9550.67
687.138	9597.22
687.485	9626.6
687.832	9483.78
688.18	9579.37
688.527	9449.65
688.874	9427.73
689.221	9410.11
689.568	9401.29
689.915	9331.46
690.262	9383.21
690.609	9289.66
690.956	9307.96
691.303	9298.92
691.65	9290.56
691.997	9335.31
692.344	9285.14
692.69	9121.07
693.037	9199.04
693.383	9188.87
693.73	9192.48
694.077	9098.48
694.423	9064.8
694.769	9021.87
695.116	9027.97
695.462	9002.88
695.808	8976.44
696.155	9041.53
696.501	9003.79
696.847	9016.22
697.193	8928.31
697.539	8938.71
697.885	8778.94
698.231	8783.68
698.577	8830.69
698.923	8806.96
699.269	8699.62
699.614	8624.82
699.96	8668.2
700.306	8689.67
700.651	8640.18
700.997	8589.34
701.342	8627.75
701.688	8625.72
702.033	8612.16
702.379	8564.25
702.724	8598.83
703.069	8526.97
703.415	8460.75
703.76	8455.55
704.105	8369.23
704.45	8463.24
704.795	8346.4
705.14	8357.03
705.485	8385.5
705.83	8390.92
706.175	8422.56
706.52	8402.22
706.865	8255.33
707.209	8380.3
707.554	8324.48
707.899	8251.27
708.243	8208.78
708.588	8245.16
708.932	8155
709.277	8107.09
709.621	8086.07
709.966	8060.76
710.31	8092.85
710.654	8003.81
710.998	8057.82
711.342	7989.13
711.687	8079.52
712.031	8040.42
712.375	8025.51
712.719	8049.69
713.063	8010.82
713.407	7989.8
713.75	7916.81
714.094	7841.79
714.438	7867.55
714.782	7832.52
715.125	7789.36
715.469	7837.27
715.812	7858.28
716.156	7811.73
716.499	7764.5
716.843	7810.15
717.186	7765.86
717.53	7785.52
717.873	7785.06
718.216	7786.65
718.559	7704.16
718.902	7708.68
719.246	7672.07
719.589	7666.2
719.932	7622.81
720.275	7641.56
720.617	7579.42
720.96	7566.09
721.303	7609.48
721.646	7598.18
721.989	7558.18
722.331	7625.07
722.674	7592.75
723.016	7621.68
723.359	7609.93
723.701	7500.78
724.044	7519.99
724.386	7433.89
724.729	7489.03
725.071	7414
725.413	7428.46
725.755	7471.63
726.097	7416.03
726.439	7403.83
726.782	7351.63
727.124	7415.13
727.465	7401.57
727.807	7364.74
728.149	7290.84
728.491	7281.57
728.833	7361.8
729.175	7309.14
729.516	7290.16
729.858	7298.3
730.199	7275.02
730.541	7260.78
730.882	7270.73
731.224	7248.13
731.565	7203.16
731.906	7237.28
732.248	7193.21
732.589	7192.54
732.93	7147.57
733.271	7188.92
733.612	7181.69
733.953	7175.36
734.294	7195.7
734.635	7156.15
734.976	7212.2
735.317	7134.01
735.658	7109.15
735.999	7077.29
736.339	7081.35
736.68	7094.01
737.021	7064.4
737.361	7014.91
737.702	7082.71
738.042	7022.37
738.383	7008.36
738.723	6969.72
739.063	7001.81
739.404	7001.13
739.744	6999.1
740.084	6944.41
740.424	7010.85
740.764	6931.3
741.104	6984.86
741.444	6886.56
741.784	6923.84
742.124	6957.51
742.464	6818.31
742.804	6890.62
743.143	6786.9
743.483	6864.41
743.823	6822.83
744.162	6823.73
744.502	6819.67
744.841	6790.97
745.181	6808.59
745.52	6822.15
745.86	6773.56
746.199	6776.5
746.538	6795.26
746.877	6767.46
747.216	6770.63
747.556	6765.66
747.895	6741.48
748.234	6710.52
748.573	6661.93
748.911	6668.03
749.25	6677.3
749.589	6618.09
749.928	6641.36
750.267	6684.08
750.605	6671.42
750.944	6630.07
751.283	6596.17
751.621	6569.73
751.96	6502.16
752.298	6663.74
752.636	6604.08
752.975	6557.53
753.313	6525.44
753.651	6520.69
753.989	6472.56
754.327	6529.5
754.666	6417.64
755.004	6460.35
755.342	6449.96
755.679	6419.45
756.017	6372.67
756.355	6408.38
756.693	6350.07
757.031	6399.11
757.368	6343.07
757.706	6324.09
758.044	6301.03
758.381	6300.13
758.719	6343.29
759.056	6313.24
759.394	6271.21
759.731	6250.64
760.068	6207.93
760.405	6154.37
760.743	6159.12
761.08	6167.03
761.417	6103.53
761.754	6142.39
762.091	6089.06
762.428	6118.89
762.765	6093.13
763.102	6079.57
763.438	6073.24
763.775	6084.09
764.112	6079.8
764.449	6089.74
764.785	6021.95
765.122	6027.82
765.458	5948.5
765.795	5879.8
766.131	5939.69
766.467	5887.03
766.804	5885.23
767.14	5854.49
767.476	5799.81
767.812	5789.18
768.148	5821.73
768.485	5748.06
768.821	5716.42
769.157	5763.2
769.492	5774.27
769.828	5778.11
770.164	5711.22
770.5	5713.48
770.836	5727.49
771.171	5680.49
771.507	5654.95
771.842	5662.63
772.178	5562.75
772.513	5608.17
772.849	5540.15
773.184	5483.66
773.519	5461.73
773.855	5462.64
774.19	5466.25
774.525	5438.91
774.86	5412.92
775.195	5453.37
775.53	5460.61
775.865	5371.57
776.2	5388.97
776.535	5353.04
776.87	5351.46
777.205	5384.22
777.539	5327.5
777.874	5365.69
778.209	5264.68
778.543	5243.89
778.878	5223.32
779.212	5187.17
779.547	5178.58
779.881	5150.56
780.215	5120.05
780.55	5130.9
780.884	5065.81
781.218	5115.3
781.552	5108.98
781.886	5087.28
782.22	5072.59
782.554	5077.34
782.888	4958.7
783.222	5009.09
783.556	5019.03
783.889	5007.96
784.223	4979.26
784.557	4936.78
784.89	4928.19
785.224	4876.67
785.557	4869.89
785.891	4853.84
786.224	4809.55
786.558	4816.1
786.891	4786.27
787.224	4748.99
787.557	4721.64
787.891	4744.24
788.224	4736.1
788.557	4791.7
788.89	4759.15
789.223	4738.36
789.556	4779.49
789.888	4744.01
790.221	4722.09
790.554	4652.49
790.887	4664.92
791.219	4643.23
791.552	4597.58
791.884	4573.62
792.217	4546.73
792.549	4545.15
792.882	4521.19
793.214	4512.38
793.546	4485.72
793.879	4442.55
794.211	4450.91
794.543	4483.68
794.875	4438.03
795.207	4539.27
795.539	4500.18
795.871	4452.95
796.203	4444.36
796.535	4418.6
796.867	4384.25
797.198	4388.09
797.53	4366.17
797.862	4365.27
798.193	4343.12
798.525	4304.03
798.856	4353.74
799.188	4268.55
799.519	4239.39
799.85	4238.72
800.182	4225.61
800.513	4228.32
800.844	4227.64
801.175	4180.41
801.506	4240.98
801.837	4212.73
802.168	4207.53
802.499	4167.53
802.83	4191.49
803.161	4180.41
803.491	4180.86
803.822	4203.24
804.153	4174.09
804.483	4127.31
804.814	4094.09
805.145	4113.52
805.475	4070.36
805.805	4022.9
806.136	4030.59
806.466	4007.76
806.796	4012.73
807.126	3987.65
807.457	4005.95
807.787	3965.05
808.117	3982.23
808.447	3972.51
808.777	4009.12
809.107	3982
809.436	3972.06
809.766	3921.66
810.096	3972.51
810.426	3906.07
810.755	3926.18
811.085	3937.26
811.414	3941.32
811.744	3848.44
812.073	3822.23
812.403	3850.93
812.732	3817.94
813.061	3784.26
813.39	3796.47
813.719	3814.55
814.049	3830.37
814.378	3777.71
814.707	3765.51
815.036	3766.64
815.365	3788.56
815.693	3764.6
816.022	3794.21
816.351	3761.67
816.68	3740.65
817.008	3780.65
817.337	3715.34
817.665	3693.19
817.994	3675.57
818.322	3699.97
818.651	3666.08
818.979	3714.89
819.307	3668.56
819.636	3648.9
819.964	3598.51
820.292	3610.94
820.62	3658.62
820.948	3633.31
821.276	3629.01
821.604	3651.84
821.932	3673.08
822.259	3646.19
822.587	3680.09
822.915	3655.68
823.243	3699.97
823.57	3641.9
823.898	3676.47
824.225	3679.63
824.553	3666.75
824.88	3660.65
825.207	3692.97
825.535	3633.53
825.862	3655.68
826.189	3587.43
826.516	3657.26
826.843	3606.42
827.17	3640.09
827.497	3569.13
827.824	3615.23
828.151	3636.25
828.478	3638.96
828.805	3592.41
829.131	3639.86
829.458	3637.6
829.785	3622.46
830.111	3618.85
830.438	3658.39
830.764	3640.09
831.09	3659.3
831.417	3625.85
831.743	3610.03
832.069	3660.65
832.395	3601.67
832.722	3598.51
833.048	3554.89
833.374	3590.82
833.7	3560.54
834.026	3593.76
834.351	3583.59
834.677	3572.97
835.003	3582.24
835.329	3586.76
835.654	3559.19
835.98	3595.34
836.306	3574.78
836.631	3554.89
836.956	3539.75
837.282	3580.88
837.607	3573.87
837.932	3533.2
838.258	3534.78
838.583	3559.86
838.908	3557.38
839.233	3528.23
839.558	3512.18
839.883	3482.8
840.208	3465.4
840.533	3469.47
840.858	3492.07
841.182	3439.64
841.507	3427.44
841.832	3460.21
842.156	3455.23
842.481	3433.77
842.805	3404.16
843.13	3426.99
843.454	3412.75
843.778	3437.16
844.103	3413.88
844.427	3406.42
844.751	3445.52
845.075	3459.3
845.399	3460.88
845.723	3413.43
846.047	3396.93
846.371	3384.73
846.695	3338.63
847.019	3349.25
847.343	3307.22
847.666	3314.67
847.99	3264.05
848.313	3285.97
848.637	3231.29
848.96	3227.9
849.284	3247.78
849.607	3211.4
849.931	3197.39
850.254	3155.13
850.577	3213.43
850.9	3186.54
851.223	3213.66
851.546	3198.74
851.869	3194
852.192	3173.21
852.515	3154.68
852.838	3139.08
853.161	3130.04
853.483	3107.22
853.806	3114
854.129	3115.81
854.451	3062.02
854.774	3053.21
855.096	3039.43
855.419	3015.7
855.741	3014.12
856.063	2984.06
856.385	3010.5
856.708	3023.38
857.03	3000.1
857.352	2987.22
857.674	2975.25
857.996	2956.49
858.318	2965.76
858.64	2947.68
858.961	2963.5
859.283	2950.84
859.605	2954.46
859.926	2964.4
860.248	2958.98
860.57	2929.37
860.891	2934.12
861.212	2919.2
861.534	2882.82
861.855	2900.22
862.176	2905.42
862.498	2892.54
862.819	2879.88
863.14	2887.11
863.461	2853.67
863.782	2836.49
864.103	2874.01
864.424	2846.44
864.745	2840.56
865.065	2850.5
865.386	2845.98
865.707	2830.39
866.027	2809.83
866.348	2816.83
866.668	2850.28
866.989	2843.05
867.309	2803.73
867.63	2832.43
867.95	2807.79
868.27	2803.73
868.59	2824.06
868.91	2815.48
869.23	2804.86
869.55	2799.43
869.87	2801.01
870.19	2761.01
870.51	2763.5
870.83	2751.3
871.15	2772.09
871.469	2743.61
871.789	2724.18
872.109	2752.2
872.428	2726.89
872.748	2701.36
873.067	2718.76
873.386	2706.78
873.706	2728.25
874.025	2720.34
874.344	2732.32
874.663	2733.45
874.982	2688.47
875.301	2706.1
875.62	2698.19
875.939	2706.55
876.258	2695.03
876.577	2684.63
876.896	2732.77
877.214	2694.8
877.533	2715.37
877.852	2690.73
878.17	2680.11
878.489	2664.07
878.807	2640.57
879.125	2617.52
879.444	2668.14
879.762	2673.79
880.08	2639.66
880.398	2624.52
880.716	2620
881.034	2625.43
881.352	2620.91
881.67	2585.2
881.988	2623.17
882.306	2623.39
882.624	2601.25
882.941	2617.97
883.259	2621.81
883.577	2576.84
883.894	2602.6
884.212	2610.96
884.529	2579.55
884.846	2607.57
885.164	2613.22
885.481	2579.78
885.798	2598.08
886.115	2542.72
886.432	2533.45
886.75	2538.65
887.067	2605.31
887.383	2572.55
887.7	2534.35
888.017	2528.7
888.334	2501.81
888.651	2504.52
888.967	2496.84
889.284	2475.37
889.6	2479.89
889.917	2475.82
890.233	2456.84
890.55	2481.93
890.866	2492.77
891.182	2469.27
891.498	2462.94
891.815	2479.21
892.131	2465.2
892.447	2479.44
892.763	2463.4
893.079	2462.49
893.395	2431.98
893.71	2428.82
894.026	2441.48
894.342	2382.27
894.657	2405.77
894.973	2394.92
895.289	2401.25
895.604	2377.07
895.92	2363.29
896.235	2359.67
896.55	2346.56
896.865	2336.17
897.181	2325.09
897.496	2334.36
897.811	2318.54
898.126	2294.13
898.441	2278.99
898.756	2296.62
899.071	2322.38
899.386	2315.83
899.7	2297.07
900.015	2310.63
900.33	2269.95
900.644	2273.8
900.959	2275.6
901.273	2260.46
901.588	2243.74
901.902	2283.97
902.216	2257.3
902.531	2206.45
902.845	2224.31
903.159	2215.27
903.473	2228.15
903.787	2176.85
904.101	2184.31
904.415	2201.26
904.729	2177.75
905.042	2150.86
905.356	2163.97
905.67	2163.97
905.984	2127.81
906.297	2115.61
906.611	2145.21
906.924	2100.92
907.237	2101.6
907.551	2087.59
907.864	2090.75
908.177	2122.61
908.491	2140.01
908.804	2099.79
909.117	2109.96
909.43	2088.49
909.743	2076.51
910.056	2054.82
910.368	2063.41
910.681	2051.2
910.994	2054.14
911.307	2052.33
911.619	2024.09
911.932	2024.09
912.244	1982.28
912.557	1980.47
912.869	2016.85
913.181	1988.83
913.494	1987.7
913.806	1950.64
914.118	1977.08
914.43	1944.31
914.742	1945.67
915.054	1970.98
915.366	1942.73
915.678	1936.86
915.99	1900.7
916.302	1926.46
916.613	1879.68
916.925	1910.64
917.236	1894.6
917.548	1890.3
917.859	1905.44
918.171	1916.74
918.482	1895.73
918.794	1881.49
919.105	1850.98
919.416	1879.23
919.727	1872.22
920.038	1865.22
920.349	1845.56
920.66	1839.46
920.971	1841.49
921.282	1799.46
921.593	1803.53
921.903	1786.58
922.214	1792.9
922.525	1794.26
922.835	1783.41
923.146	1761.49
923.456	1762.17
923.767	1754.26
924.077	1742.28
924.387	1760.36
924.697	1740.02
925.008	1711.78
925.318	1753.36
925.628	1748.39
925.938	1736.41
926.248	1714.71
926.558	1705.68
926.867	1729.63
927.177	1695.28
927.487	1715.62
927.796	1713.81
928.106	1697.31
928.416	1709.74
928.725	1692.57
929.034	1651.44
929.344	1676.3
929.653	1640.37
929.962	1676.3
930.271	1626.36
930.581	1643.3
930.89	1616.19
931.199	1629.07
931.508	1635.17
931.817	1602.18
932.125	1632.01
932.434	1624.77
932.743	1585
933.051	1608.95
933.36	1580.48
933.669	1596.07
933.977	1571.67
934.286	1584.77
934.594	1555.4
934.902	1560.14
935.21	1555.4
935.519	1580.26
935.827	1544.32
936.135	1542.74
936.443	1543.42
936.751	1559.92
937.059	1535.74
937.367	1522.18
937.674	1488.51
937.982	1540.93
938.29	1508.84
938.597	1502.97
938.905	1485.57
939.213	1485.34
939.52	1482.63
939.827	1480.37
940.135	1447.38
940.442	1445.8
940.749	1481.5
941.056	1461.61
941.363	1424.33
941.67	1433.59
941.977	1424.33
942.284	1435.63
942.591	1431.11
942.898	1403.99
943.205	1419.58
943.511	1410.54
943.818	1426.36
944.125	1400.37
944.431	1409.41
944.738	1389.3
945.044	1407.83
945.35	1396.76
945.657	1406.93
945.963	1394.5
946.269	1384.55
946.575	1347.72
946.881	1379.58
947.187	1387.94
947.493	1347.27
947.799	1362.18
948.105	1337.78
948.41	1346.14
948.716	1342.75
949.022	1346.14
949.327	1287.61
949.633	1313.6
949.938	1323.76
950.244	1293.03
950.549	1312.92
950.854	1297.55
951.16	1302.52
951.465	1291
951.77	1282.18
952.075	1290.09
952.38	1281.05
952.685	1271.79
952.99	1269.3
953.294	1275.63
953.599	1281.05
953.904	1270.43
954.209	1272.47
954.513	1261.39
954.818	1255.29
955.122	1264.56
955.426	1279.25
955.731	1245.57
956.035	1226.14
956.339	1232.92
956.643	1241.96
956.948	1246.25
957.252	1209.87
957.556	1212.36
957.86	1196.08
958.163	1213.94
958.467	1233.15
958.771	1202.19
959.075	1209.19
959.378	1190.21
959.682	1184.79
959.985	1182.07
960.289	1159.25
960.592	1149.76
960.896	1161.73
961.199	1173.26
961.502	1175.97
961.805	1151.57
962.108	1138.01
962.411	1162.86
962.714	1170.77
963.017	1139.36
963.32	1149.98
963.623	1128.06
963.926	1153.6
964.228	1159.7
964.531	1120.15
964.833	1143.66
965.136	1138.68
965.438	1134.39
965.741	1092.81
966.043	1086.71
966.345	1117.67
966.648	1092.58
966.95	1104.56
967.252	1082.42
967.554	1095.75
967.856	1086.26
968.158	1108.86
968.46	1078.8
968.761	1044.22
969.063	1055.52
969.365	1037.22
969.666	1091.68
969.968	1044
970.269	1038.12
970.571	1033.15
970.872	1059.36
971.174	1029.08
971.475	1060.04
971.776	1021.4
972.077	1056.2
972.378	1052.13
972.679	1032.47
972.98	1035.64
973.281	997.45
973.582	1011
973.883	1027.95
974.183	1014.85
974.484	1035.41
974.785	998.8
975.085	1047.61
975.386	1003.55
975.686	1003.1
975.986	996.77
976.287	989.54
976.587	964.45
976.887	994.96
977.187	993.38
977.487	962.42
977.787	966.03
978.087	973.04
978.387	937.56
978.687	961.97
978.987	929.65
979.286	959.03
979.586	968.97
979.885	942.08
980.185	953.15
980.484	947.05
980.784	902.98
981.083	931.23
981.382	941.4
981.682	929.65
981.981	935.53
982.28	907.96
982.579	923.32
982.878	925.36
983.177	919.26
983.475	923.1
983.774	904.79
984.073	932.36
984.372	905.47
984.67	919.03
984.969	900.95
985.267	909.99
985.566	882.42
985.864	876.77
986.162	897.56
986.461	896.66
986.759	898.69
987.057	886.26
987.355	861.4
987.653	882.19
987.951	860.95
988.249	868.86
988.547	851.91
988.844	876.09
989.142	838.13
989.44	826.15
989.737	837.68
990.035	851.46
990.332	844.68
990.63	848.97
990.927	830.9
991.224	850.1
991.521	853.27
991.819	856.66
992.116	839.94
992.413	829.31
992.71	792.25
993.006	818.47
993.303	858.69
993.6	841.74
993.897	817.79
994.193	821.18
994.49	808.75
994.787	804.91
995.083	819.15
995.379	813.95
995.676	812.82
995.972	806.04
996.268	795.19
996.565	794.51
996.861	782.99
997.157	808.75
997.453	794.51
997.749	781.18
998.044	777.34
998.34	786.6
998.636	801.29
998.932	756.32
999.227	743.89
999.523	746.15
999.818	751.8
1000.114	775.08
1000.409	737.11
1000.704	771.24
1001	776.66
1001.295	756.55
1001.59	743.44
1001.885	758.36
1002.18	735.76
1002.475	746.83
1002.77	737.11
1003.065	733.95
1003.359	729.66
1003.654	740.96
1003.949	734.18
1004.243	743.21
1004.538	721.75
1004.832	710.45
1005.127	729.88
1005.421	737.57
1005.715	700.96
1006.009	704.35
1006.304	727.4
1006.598	699.37
1006.892	692.14
1007.186	684.91
1007.48	673.39
1007.773	694.85
1008.067	705.93
1008.361	679.26
1008.655	667.74
1008.948	671.58
1009.242	688.08
1009.535	688.53
1009.829	659.6
1010.122	661.64
1010.415	657.12
1010.708	670.45
1011.001	667.96
1011.295	661.64
1011.588	645.36
1011.881	664.57
1012.173	661.86
1012.466	672.93
1012.759	637.68
1013.052	664.8
1013.344	634.29
1013.637	643.33
1013.93	622.77
1014.222	641.07
1014.514	646.72
1014.807	640.62
1015.099	646.95
1015.391	618.92
1015.683	636.78
1015.976	634.74
1016.268	632.26
1016.56	639.49
1016.851	623.22
1017.143	617.12
1017.435	606.72
1017.727	616.66
1018.018	615.08
1018.31	611.92
1018.602	608.76
1018.893	606.72
1019.185	604.69
1019.476	601.98
1019.767	591.58
1020.058	596.1
1020.35	609.89
1020.641	597.68
1020.932	583.9
1021.223	565.82
1021.514	595.42
1021.804	571.69
1022.095	591.13
1022.386	568.76
1022.677	600.62
1022.967	571.47
1023.258	550.9
1023.548	573.5
1023.839	581.64
1024.129	566.72
1024.419	556.78
1024.709	537.8
1025	574.41
1025.29	554.52
1025.58	562.43
1025.87	523.11
1026.16	536.44
1026.449	549.77
1026.739	550.45
1027.029	525.14
1027.319	540.73
1027.608	527.85
1027.898	543.9
1028.187	537.12
1028.477	537.57
1028.766	530.34
1029.055	522.66
1029.344	553.62
1029.634	548.64
1029.923	514.52
1030.212	531.92
1030.501	524.01
1030.79	502.32
1031.078	530.34
1031.367	511.81
1031.656	521.3
1031.945	479.49
1032.233	510.23
1032.522	514.52
1032.81	501.87
1033.099	499.38
1033.387	514.97
1033.675	498.25
1033.963	488.76
1034.251	491.24
1034.54	483.79
1034.828	498.48
1035.116	504.13
1035.403	497.35
1035.691	485.37
1035.979	461.41
1036.267	461.19
1036.554	477.46
1036.842	488.98
1037.129	499.61
1037.417	492.15
1037.704	482.88
1037.992	477.91
1038.279	465.03
1038.566	464.13
1038.853	464.13
1039.14	464.13
