Data from foam2_polystyrene_foam_FLMS001491_00053.txt Node
Date: Wed Feb 08 10:58:09 GMT 2017
User: dcchb
Spectrometer: FLMS00149
Trigger mode: 0
Integration Time (sec): 2.000000E-2
Scans to average: 10
Electric dark correction enabled: true
Nonlinearity correction enabled: false
Boxcar width: 0
XAxis mode: Wavelengths
Number of Pixels in Spectrum: 2048
>>>>>Begin Spectral Data<<<<<
341.393	-11.44
341.776	-11.44
342.16	-11.44
342.543	-44.66
342.927	-71.1
343.31	-57.09
343.693	-65.22
344.077	-59.8
344.46	-60.7
344.843	-40.37
345.226	-31.1
345.61	-37.43
345.993	-26.58
346.376	-8.95
346.759	7.09
347.142	-9.86
347.525	40.76
347.908	67.43
348.291	71.04
348.674	102
349.057	108.78
349.44	111.95
349.823	158.72
350.206	165.05
350.588	205.05
350.971	207.99
351.354	201.44
351.737	252.28
352.119	239.63
352.502	260.19
352.884	272.39
353.267	301.77
353.65	305.61
354.032	296.12
354.414	304.26
354.797	314.88
355.179	334.09
355.562	345.61
355.944	329.79
356.326	339.06
356.709	335.67
357.091	322.79
357.473	335.44
357.855	340.87
358.238	345.39
358.62	339.51
359.002	334.77
359.384	337.48
359.766	347.19
360.148	332.73
360.53	368.66
360.912	348.32
361.294	339.96
361.676	320.98
362.057	339.51
362.439	330.92
362.821	362.11
363.203	347.65
363.584	333.41
363.966	333.64
364.348	326.63
364.729	349.68
365.111	341.09
365.493	330.47
365.874	326.18
366.256	317.36
366.637	323.01
367.019	336.12
367.4	349
367.781	321.88
368.163	332.05
368.544	337.25
368.925	336.57
369.306	340.87
369.688	321.21
370.069	338.61
370.45	324.6
370.831	329.34
371.212	351.94
371.593	356.46
371.974	331.83
372.355	344.26
372.736	349.45
373.117	332.96
373.498	340.87
373.879	349.45
374.26	339.28
374.641	339.96
375.021	339.51
375.402	362.79
375.783	348.32
376.163	373.41
376.544	372.73
376.925	373.63
377.305	361.21
377.686	368.44
378.066	360.3
378.447	367.08
378.827	382.67
379.208	393.97
379.588	379.74
379.968	385.61
380.349	381.54
380.729	365.5
381.109	386.06
381.489	376.57
381.87	396.91
382.25	389.45
382.63	403.92
383.01	392.16
383.39	403.92
383.77	404.37
384.15	415.44
384.53	391.26
384.91	430.58
385.29	403.01
385.67	431.94
386.049	435.33
386.429	422.67
386.809	425.61
387.189	423.12
387.568	429.9
387.948	450.47
388.328	444.82
388.707	458.83
389.087	435.78
389.466	448.21
389.846	457.7
390.225	460.19
390.605	448.43
390.984	464.25
391.363	476
391.743	459.96
392.122	473.97
392.501	483.24
392.881	480.3
393.26	476.23
393.639	477.36
394.018	480.75
394.397	512.61
394.776	472.84
395.155	501.54
395.534	501.54
395.913	501.99
396.292	533.18
396.671	527.3
397.05	523.69
397.429	530.69
397.808	509
398.186	528.88
398.565	548.09
398.944	552.39
399.323	538.38
399.701	530.47
400.08	558.71
400.458	550.58
400.837	577.47
401.215	574.31
401.594	582.89
401.972	571.14
402.351	592.39
402.729	575.89
403.107	586.96
403.486	595.55
403.864	586.74
404.242	583.57
404.62	608.2
404.999	604.59
405.377	603.68
405.755	616.57
406.133	635.55
406.511	608.88
406.889	637.81
407.267	622.22
407.645	623.12
408.023	688.65
408.401	667.41
408.779	671.03
409.156	684.13
409.534	671.71
409.912	719.16
410.29	704.47
410.667	718.94
411.045	730.46
411.422	712.61
411.8	746.51
412.178	739.73
412.555	746.28
412.933	731.14
413.31	751.7
413.687	767.97
414.065	771.59
414.442	778.37
414.819	816.79
415.197	789.44
415.574	815.88
415.951	803.68
416.328	812.27
416.705	818.82
417.082	826.05
417.46	826.5
417.837	845.26
418.214	850.23
418.591	861.76
418.967	862.43
419.344	889.33
419.721	874.86
420.098	884.81
420.475	908.99
420.852	897.69
421.228	920.51
421.605	919.83
421.982	915.54
422.358	942.88
422.735	934.98
423.111	948.99
423.488	974.52
423.864	979.72
424.241	984.69
424.617	984.01
424.994	974.97
425.37	991.7
425.746	1005.26
426.123	1015.2
426.499	1007.97
426.875	1030.34
427.251	1063.79
427.627	1077.57
428.003	1076.44
428.379	1115.54
428.756	1099.72
429.132	1120.06
429.507	1132.03
429.883	1157.79
430.259	1162.54
430.635	1167.06
431.011	1166.61
431.387	1208.41
431.763	1235.98
432.138	1205.7
432.514	1234.63
432.89	1256.32
433.265	1282.31
433.641	1295.42
434.016	1308.3
434.392	1341.74
434.767	1328.64
435.143	1317.11
435.518	1371.8
435.894	1379.71
436.269	1397.34
436.644	1426.94
437.02	1424.45
437.395	1448.18
437.77	1418.8
438.145	1471.23
438.52	1467.84
438.895	1481.63
439.271	1510.1
439.646	1515.53
440.021	1535.41
440.395	1562.08
440.77	1562.3
441.145	1555.52
441.52	1605.01
441.895	1595.07
442.27	1610.66
442.645	1617.67
443.019	1625.8
443.394	1638.01
443.769	1645.69
444.143	1670.78
444.518	1681.4
444.892	1696.54
445.267	1702.41
445.641	1708.97
446.016	1714.16
446.39	1755.97
446.764	1746.03
447.139	1763.88
447.513	1786.93
447.887	1801.62
448.262	1837.1
448.636	1820.83
449.01	1839.13
449.384	1868.51
449.758	1880.49
450.132	1906.02
450.506	1934.27
450.88	1943.31
451.254	1919.36
451.628	1951.22
452.002	1976.76
452.376	1962.07
452.75	2007.04
453.123	2049.3
453.497	2099.24
453.871	2085.68
454.244	2102.4
454.618	2114.38
454.992	2139.46
455.365	2167.03
455.739	2213.81
456.112	2238.9
456.486	2242.06
456.859	2238.9
457.232	2271.89
457.606	2254.94
457.979	2328.39
458.352	2378.1
458.725	2377.88
459.099	2379.91
459.472	2447.48
459.845	2437.08
460.218	2466.69
460.591	2496.29
460.964	2523.86
461.337	2544.2
461.71	2572.22
462.083	2654.7
462.456	2627.81
462.829	2625.55
463.201	2677.75
463.574	2702.61
463.947	2725.66
464.32	2794.81
464.692	2768.6
465.065	2823.51
465.438	2867.13
465.81	2869.61
466.183	2948.03
466.555	2958.88
466.928	2980.57
467.3	2984.19
467.672	3043.17
468.045	3108.03
468.417	3138.76
468.789	3154.13
469.161	3186.67
469.534	3212.2
469.906	3293.33
470.278	3319.32
470.65	3356.15
471.022	3434.8
471.394	3479.09
471.766	3501.01
472.138	3543.04
472.51	3591.18
472.882	3600.67
473.253	3662.81
473.625	3773.32
473.997	3804.73
474.369	3840.89
474.74	3874.56
475.112	3983.26
475.484	4005.63
475.855	4078.62
476.227	4131.73
476.598	4225.28
476.97	4240.43
477.341	4372.63
477.713	4390.03
478.084	4399.74
478.455	4583.92
478.827	4560.87
479.198	4718.38
479.569	4700.07
479.94	4820.3
480.311	4911.14
480.682	4996.79
481.053	5113.17
481.424	5171.7
481.795	5276.56
482.166	5311.13
482.537	5377.34
482.908	5479.04
483.279	5546.83
483.65	5620.28
484.021	5701.18
484.391	5749.99
484.762	5879.93
485.133	5939.14
485.503	5959.02
485.874	6157.66
486.244	6205.57
486.615	6300.48
486.985	6418.67
487.356	6479.24
487.726	6519.46
488.097	6657.31
488.467	6642.17
488.837	6814.37
489.207	6875.61
489.578	6956.29
489.948	7037.87
490.318	7148.15
490.688	7192.89
491.058	7281.48
491.428	7347.24
491.798	7446.67
492.168	7634.23
492.538	7666.78
492.908	7688.92
493.278	7842.14
493.648	7896.37
494.017	7900.44
494.387	8016.6
494.757	8142.7
495.126	8239.87
495.496	8296.82
495.866	8296.36
496.235	8367.1
496.605	8495.23
496.974	8484.38
497.344	8630.59
497.713	8660.87
498.082	8714.43
498.452	8821.77
498.821	8842.79
499.19	8921.21
499.559	8920.98
499.928	9031.71
500.298	9104.48
500.667	9249.33
501.036	9180.18
501.405	9319.39
501.774	9386.28
502.143	9447.75
502.512	9533.17
502.88	9643
503.249	9599.61
503.618	9679.15
503.987	9715.31
504.356	9832.14
504.724	9939.94
505.093	9927.73
505.462	9982.87
505.83	10052.25
506.199	10120.27
506.567	10277.55
506.936	10265.13
507.304	10435.06
507.672	10407.04
508.041	10425.8
508.409	10564.33
508.777	10643.87
509.145	10694.49
509.514	10695.4
509.882	10813.13
510.25	10874.6
510.618	10951.44
510.986	10945.11
511.354	11126.8
511.722	11182.39
512.09	11306.68
512.458	11324.08
512.826	11430.97
513.193	11422.38
513.561	11610.63
513.929	11636.39
514.297	11740.12
514.664	11869.38
515.032	11995.02
515.4	12040.9
515.767	12058.98
516.135	12215.36
516.502	12108.01
516.869	12298.29
517.237	12408.35
517.604	12385.52
517.972	12527.21
518.339	12555.69
518.706	12645.63
519.073	12742.12
519.44	12883.59
519.808	13020.99
520.175	12956.35
520.542	13199.29
520.909	13217.14
521.276	13237.02
521.643	13423.69
522.009	13573.06
522.376	13650.57
522.743	13733.96
523.11	13867.29
523.477	13990.23
523.843	13981.19
524.21	14130.33
524.577	14317.9
524.943	14370.78
525.31	14516.99
525.676	14634.5
526.043	14808.28
526.409	14758.34
526.776	14987.71
527.142	15019.8
527.508	15157.65
527.874	15227.25
528.241	15366.23
528.607	15283.3
528.973	15550.18
529.339	15513.12
529.705	15693.68
530.071	15830.18
530.437	15939.33
530.803	16064.75
531.169	16115.14
531.535	16065.2
531.901	16123.28
532.267	16198.75
532.632	16360.11
532.998	16431.97
533.364	16570.5
533.73	16656.82
534.095	16682.81
534.461	16779.53
534.826	16874.67
535.192	16932.75
535.557	17074.89
535.923	17142.91
536.288	17189.69
536.653	17312.4
537.019	17216.36
537.384	17388.33
537.749	17391.49
538.114	17520.98
538.479	17505.84
538.845	17627.42
539.21	17607.76
539.575	17780.86
539.94	17826.96
540.305	17861.08
540.67	17839.62
541.034	17991.7
541.399	18053.85
541.764	18066.5
542.129	18197.8
542.494	18161.87
542.858	18342.88
543.223	18435.53
543.587	18551.91
543.952	18452.03
544.316	18517.11
544.681	18574.06
545.045	18720.5
545.41	18758.91
545.774	18894.73
546.138	18859.48
546.503	19005.01
546.867	18876.65
547.231	19142.41
547.595	19139.47
547.959	19254.72
548.324	19240.71
548.688	19268.05
549.052	19377.2
549.416	19304.89
549.779	19416.3
550.143	19554.15
550.507	19719.11
550.871	19752.79
551.235	19767.47
551.599	19829.85
551.962	19891.09
552.326	20081.82
552.689	20175.6
553.053	20054.47
553.417	20134.02
553.78	20488.13
554.143	20377.4
554.507	20446.55
554.87	20496.49
555.234	20750.95
555.597	20555.48
555.96	20725.87
556.323	20859.65
556.686	20915.24
557.05	21042.92
557.413	21078.17
557.776	21167.66
558.139	21244.27
558.502	21401.56
558.865	21455.34
559.228	21550.93
559.59	21534.21
559.953	21662.11
560.316	21876.12
560.679	21866.4
561.041	22064.59
561.404	22159.95
561.767	22296.9
562.129	22270.69
562.492	22403.11
562.854	22445.14
563.217	22482.21
563.579	22539.83
563.941	22788.64
564.304	22841.97
564.666	22964.68
565.028	22993.38
565.39	23148.4
565.753	23301.62
566.115	23337.32
566.477	23493.7
566.839	23417.32
567.201	23752.23
567.563	23746.8
567.925	23901.83
568.287	23953.81
568.648	23810.31
569.01	24059.57
569.372	24264.08
569.734	24196.51
570.095	24408.71
570.457	24499.55
570.819	24460.23
571.18	24472.89
571.542	24649.38
571.903	24677.18
572.265	24722.82
572.626	24807.79
572.987	24848.92
573.349	24891.86
573.71	24967.56
574.071	25017.51
574.432	25176.15
574.794	25361.45
575.155	25246.2
575.516	25264.73
575.877	25383.6
576.238	25502.92
576.599	25576.81
576.96	25623.59
577.32	25576.81
577.681	25706.08
578.042	25778.39
578.403	25701.33
578.763	25720.99
579.124	25801.67
579.485	25844.83
579.845	25932.74
580.206	25902.91
580.566	26070.36
580.927	26032.62
581.287	26210.24
581.648	25961.44
582.008	26115.33
582.368	25963.92
582.728	26068.55
583.089	26225.61
583.449	26117.14
583.809	26116.69
584.169	26151.94
584.529	26000.31
584.889	26270.81
585.249	26119.62
585.609	25984.71
585.969	26261.09
586.329	26118.27
586.688	26184.03
587.048	26103.81
587.408	26141.32
587.768	26124.6
588.127	26032.17
588.487	26040.76
588.846	26276.68
589.206	26120.3
589.565	26138.38
589.925	26250.92
590.284	26156.46
590.643	26229.23
591.003	26239.17
591.362	26388.32
591.721	26233.07
592.08	26331.37
592.44	26341.99
592.799	26359.39
593.158	26354.19
593.517	26342.44
593.876	26454.08
594.235	26290.69
594.593	26381.99
594.952	26565.49
595.311	26306.06
595.67	26445.94
596.029	26419.73
596.387	26442.78
596.746	26527.3
597.104	26378.37
597.463	26352.61
597.822	26575.88
598.18	26315.1
598.538	26387.87
598.897	26526.17
599.255	26338.15
599.613	26729.33
599.972	26626.05
600.33	26599.16
600.688	26612.72
601.046	26762.77
601.404	26836.22
601.762	26694.07
602.12	26832.83
602.478	26909.66
602.836	26994.63
603.194	26821.3
603.552	26911.02
603.91	26784.01
604.268	27006.38
604.625	26853.39
604.983	26940.85
605.341	26799.38
605.698	27075.98
606.056	27102.42
606.413	27038.7
606.771	27118.69
607.128	27132.7
607.485	27038.02
607.843	27059.94
608.2	27182.19
608.557	27359.14
608.914	27055.19
609.272	27283.44
609.629	27291.34
609.986	27368.63
610.343	27304.23
610.7	27431.45
611.057	27303.77
611.414	27313.94
611.771	27370.44
612.127	27629.19
612.484	27586.25
612.841	27680.49
613.198	27426.93
613.554	27642.3
613.911	27706.02
614.267	27639.58
614.624	27608.85
614.98	27652.01
615.337	27905.79
615.693	27711.67
616.05	27726.36
616.406	27963.19
616.762	27789.64
617.118	27824.21
617.475	27788.51
617.831	28024.66
618.187	27891.55
618.543	27879.8
618.899	28091.1
619.255	28101.94
619.611	28071.89
619.967	28144.66
620.323	28124.99
620.678	27912.35
621.034	27988.5
621.39	27981.5
621.746	27947.82
622.101	28278.21
622.457	27972.91
622.812	28093.81
623.168	28194.82
623.523	28120.48
623.879	28076.18
624.234	28000.03
624.589	28054.04
624.945	28106.92
625.3	28101.04
625.655	28044.32
626.01	28057.88
626.365	28160.93
626.72	28001.38
627.075	28040.03
627.43	27994.6
627.785	28042.74
628.14	27934.94
628.495	28034.83
628.85	27992.12
629.205	27865.11
629.559	28082.06
629.914	27988.73
630.269	27960.25
630.623	27918.22
630.978	27760.26
631.332	27989.41
631.687	27868.05
632.041	27764.1
632.396	27872.12
632.75	27675.52
633.104	27765.23
633.459	27607.04
633.813	27663.99
634.167	27616.99
634.521	27696.76
634.875	27649.53
635.229	27546.71
635.583	27467.84
635.937	27472.36
636.291	27358.69
636.645	27318.01
636.999	27276.66
637.352	27372.02
637.706	27265.81
638.06	27295.64
638.413	27267.62
638.767	27165.47
639.121	27255.87
639.474	27038.7
639.828	27057.9
640.181	27032.14
640.534	26970.9
640.888	27024.91
641.241	26770
641.594	26917.34
641.947	26881.41
642.301	26825.59
642.654	26810
643.007	26763.22
643.36	26825.14
643.713	26647.29
644.066	26707.86
644.419	26516.9
644.771	26391.03
645.124	26117.36
645.477	26077.59
645.83	25894.32
646.182	25737.49
646.535	25747.88
646.888	25815.23
647.24	25704.27
647.593	25816.58
647.945	25731.61
648.298	25643.93
648.65	25579.3
649.002	25562.58
649.355	25557.83
649.707	25661.78
650.059	25631.28
650.411	25932.06
650.763	25927.09
651.115	26178.61
651.467	26101.77
651.819	26111.94
652.171	26042.56
652.523	25920.08
652.875	25972.28
653.227	25811.61
653.578	26035.78
653.93	25959.18
654.282	25796.47
654.633	25840.08
654.985	25777.94
655.337	25846.86
655.688	25850.93
656.039	25970.93
656.391	25616.36
656.742	25745.62
657.094	25689.35
657.445	25802.34
657.796	25662.91
658.147	25644.83
658.498	25720.31
658.849	25653.42
659.2	25603.03
659.551	25576.14
659.902	25549.92
660.253	25568
660.604	25558.96
660.955	25547.21
661.306	25579.75
661.656	25521
662.007	25422.69
662.358	25345.63
662.708	25473.99
663.059	25447.1
663.409	25284.62
663.76	25405.29
664.11	25409.36
664.461	25528.23
664.811	25487.55
665.161	25377.04
665.511	25286.88
665.862	25327.33
666.212	25397.84
666.562	25348.8
666.912	25299.76
667.262	25373.65
667.612	25371.4
667.962	25339.53
668.312	25218.18
668.662	25394.45
669.011	25292.3
669.361	25227.67
669.711	25123.04
670.06	25168.46
670.41	25032.42
670.76	25116.03
671.109	25226.31
671.459	25151.74
671.808	25129.82
672.157	25143.6
672.507	24926.66
672.856	25027.22
673.205	24980.9
673.554	25060.22
673.904	25019.77
674.253	25128.69
674.602	25000.33
674.951	24714.46
675.3	24481.47
675.649	24958.3
675.998	24893.67
676.346	24945.64
676.695	24959.88
677.044	24748.59
677.393	24866.78
677.741	24902.71
678.09	24850.28
678.438	24738.87
678.787	24761.69
679.135	24869.26
679.484	24719.89
679.832	24806.89
680.181	24630.62
680.529	24764.86
680.877	24566.44
681.225	24543.62
681.573	24675.14
681.922	24530.74
682.27	24498.88
682.618	24407.13
682.966	24370.29
683.314	24405.54
683.661	24342.95
684.009	24354.02
684.357	24212.33
684.705	24268.15
685.053	24216.4
685.4	24118.77
685.748	24027.7
686.095	24057.08
686.443	23922.85
686.79	23883.98
687.138	23901.15
687.485	23900.7
687.832	23770.99
688.18	23784.32
688.527	23643.98
688.874	23570.99
689.221	23674.49
689.568	23543.65
689.915	23554.49
690.262	23483.99
690.609	23516.53
690.956	23320.15
691.303	23336.65
691.65	23196.09
691.997	23245.12
692.344	23205.8
692.69	23014.17
693.037	23029.76
693.383	22881.97
693.73	22938.24
694.077	22830.67
694.423	22865.25
694.769	22674.06
695.116	22653.73
695.462	22621.64
695.808	22511.13
696.155	22571.92
696.501	22418.03
696.847	22476.56
697.193	22256.45
697.539	22327.63
697.885	22100.29
698.231	22098.71
698.577	21954.31
698.923	21978.49
699.269	21931.49
699.614	21815.78
699.96	21715.67
700.306	21796.57
700.651	21731.04
700.997	21531.72
701.342	21546.41
701.688	21506.41
702.033	21555.45
702.379	21527.2
702.724	21423.7
703.069	21459.18
703.415	21228.45
703.76	21210.6
704.105	21192.75
704.45	21125.86
704.795	21104.39
705.14	21009.02
705.485	20995.24
705.83	20786.66
706.175	20828.69
706.52	20775.13
706.865	20663.27
707.209	20670.28
707.554	20576.72
707.899	20657.62
708.243	20541.01
708.588	20505.53
708.932	20411.75
709.277	20291.3
709.621	20406.33
709.966	20174.47
710.31	20298.53
710.654	20079.78
710.998	20186.45
711.342	20047.92
711.687	19957.07
712.031	19993.01
712.375	19802.73
712.719	19857.19
713.063	19798.66
713.407	19927.47
713.75	19725.44
714.094	19777.42
714.438	19641.38
714.782	19606.35
715.125	19558.67
715.469	19589.63
715.812	19553.24
716.156	19388.95
716.499	19445.22
716.843	19440.93
717.186	19322.97
717.53	19443.87
717.873	19375.17
718.216	19377.2
718.559	19170.65
718.902	19194.16
719.246	19144.44
719.589	19056.08
719.932	19039.13
720.275	19001.39
720.617	19023.99
720.96	18909.64
721.303	19053.6
721.646	18982.86
721.989	18821.96
722.331	18833.94
722.674	18736.99
723.016	18898.57
723.359	18728.63
723.701	18673.49
724.044	18602.99
724.386	18570.44
724.729	18628.07
725.071	18528.19
725.413	18563.21
725.755	18495.19
726.097	18424.91
726.439	18363.44
726.782	18389.88
727.124	18323.22
727.465	18254.75
727.807	18311.02
728.149	18291.36
728.491	18145.14
728.833	18290.68
729.175	18085.26
729.516	18027.86
729.858	18044.13
730.199	17934.3
730.541	18008.65
730.882	17930.23
731.224	18005.49
731.565	17827.64
731.906	17877.35
732.248	17901.99
732.589	17826.51
732.93	17713.29
733.271	17758.04
733.612	17713.07
733.953	17741.31
734.294	17684.37
734.635	17693.4
734.976	17670.58
735.317	17534.99
735.658	17552.62
735.999	17512.39
736.339	17603.46
736.68	17633.29
737.021	17511.49
737.361	17482.11
737.702	17455.67
738.042	17533.18
738.383	17398.72
738.723	17481.66
739.063	17369.12
739.404	17356.24
739.744	17276.24
740.084	17296.35
740.424	17283.92
740.764	17229.91
741.104	17324.6
741.444	17209.35
741.784	17070.14
742.124	17139.52
742.464	17112.4
742.804	17036.47
743.143	17080.31
743.483	16965.74
743.823	16824.95
744.162	16881
744.502	16941.79
744.841	16797.84
745.181	16913.31
745.52	16698.18
745.86	16844.39
746.199	16730.49
746.538	16670.61
746.877	16713.09
747.216	16673.09
747.556	16689.59
747.895	16624.96
748.234	16532.53
748.573	16469.71
748.911	16517.39
749.25	16482.36
749.589	16335.47
749.928	16394.23
750.267	16439.88
750.605	16368.69
750.944	16257.28
751.283	16275.14
751.621	16302.71
751.96	16097.97
752.298	16149.94
752.636	16233.78
752.975	16108.36
753.313	16060.45
753.651	16137.06
753.989	15955.15
754.327	15976.16
754.666	15884.64
755.004	15876.96
755.342	15821.82
755.679	15854.81
756.017	15756.51
756.355	15803.29
756.693	15740.01
757.031	15766.22
757.368	15614.59
757.706	15599
758.044	15500.24
758.381	15599.9
758.719	15490.75
759.056	15449.85
759.394	15455.95
759.731	15330.08
760.068	15319.91
760.405	15268.16
760.743	15240.14
761.08	15302.96
761.417	15096.41
761.754	15121.95
762.091	15092.57
762.428	15149.74
762.765	14923.08
763.102	15068.84
763.438	14936.19
763.775	14844.67
764.112	14880.37
764.449	14805.57
764.785	14806.93
765.122	14705.46
765.458	14501.85
765.795	14614.39
766.131	14580.49
766.467	14476.54
766.804	14378.01
767.14	14320.61
767.476	14327.39
767.812	14275.42
768.148	14334.4
768.485	14158.81
768.821	14098.47
769.157	14067.51
769.492	14063.44
769.828	13979.15
770.164	13896.89
770.5	13832.49
770.836	13853.73
771.171	13808.99
771.507	13732.38
771.842	13567.86
772.178	13611.93
772.513	13560.63
772.849	13608.09
773.184	13494.19
773.519	13479.05
773.855	13416
774.19	13316.12
774.525	13232.51
774.86	13312.96
775.195	13175.11
775.53	13177.59
775.865	13127.2
776.2	13032.96
776.535	12903.7
776.87	12940.54
777.205	12918.39
777.539	12819.18
777.874	12919.29
778.209	12784.38
778.543	12717.04
778.878	12656.93
779.212	12663.71
779.547	12595.23
779.881	12662.12
780.215	12452.86
780.55	12468.91
780.884	12368.57
781.218	12366.54
781.552	12358.4
781.886	12297.61
782.22	12270.72
782.554	12244.06
782.888	12081.57
783.222	12016.27
783.556	12013.33
783.889	12007.23
784.223	11885.65
784.557	11922.48
784.89	11861.24
785.224	11852.2
785.557	11709.16
785.891	11745.09
786.224	11770.62
786.558	11656.5
786.891	11554.58
787.224	11569.05
787.557	11514.36
787.891	11583.06
788.224	11446.11
788.557	11487.47
788.89	11505.32
789.223	11427.81
789.556	11339.22
789.888	11276.4
790.221	11263.74
790.554	11196.85
790.887	11197.08
791.219	11149.62
791.552	11082.51
791.884	11060.81
792.217	11061.71
792.549	10924.32
792.882	10896.75
793.214	10860.14
793.546	10960.7
793.879	10781.27
794.211	10739.69
794.543	10775.17
794.875	10784.43
795.207	10825.79
795.539	10673.48
795.871	10687.26
796.203	10632.35
796.535	10541.28
796.867	10515.74
797.198	10482.97
797.53	10522.97
797.862	10404.1
798.193	10446.36
798.525	10356.87
798.856	10387.83
799.188	10313.94
799.519	10262.87
799.85	10255.86
800.182	10178.57
800.513	10215.64
800.844	10169.76
801.175	10133.6
801.506	10107.84
801.837	10098.8
802.168	10057.45
802.499	9975.87
802.83	9975.64
803.161	9915.98
803.491	9870.79
803.822	9856.1
804.153	9819.94
804.483	9720.96
804.814	9762.54
805.145	9703.56
805.475	9719.83
805.805	9694.29
806.136	9696.33
806.466	9614.52
806.796	9605.48
807.126	9499.27
807.457	9490.91
807.787	9505.82
808.117	9499.95
808.447	9423.57
808.777	9440.74
809.107	9481.19
809.436	9389.22
809.766	9400.29
810.096	9398.71
810.426	9377.24
810.755	9381.08
811.085	9290.24
811.414	9283
811.744	9198.94
812.073	9193.29
812.403	9147.87
812.732	9106.74
813.061	9163.01
813.39	9108.77
813.719	9045.5
814.049	9020.41
814.378	9059.06
814.707	8983.35
815.036	8953.07
815.365	8966.18
815.693	8904.94
816.022	8900.42
816.351	8854.09
816.68	8889.12
817.008	8861.77
817.337	8798.95
817.665	8758.72
817.994	8798.5
818.322	8751.27
818.651	8679.63
818.979	8646.86
819.307	8698.16
819.636	8730.48
819.964	8587.66
820.292	8664.94
820.62	8616.81
820.948	8633.08
821.276	8572.06
821.604	8570.48
821.932	8611.38
822.259	8622
822.587	8583.81
822.915	8567.54
823.243	8620.88
823.57	8568.22
823.898	8542.46
824.225	8528.67
824.553	8569.58
824.88	8587.88
825.207	8607.09
825.535	8606.41
825.862	8574.55
826.189	8567.09
826.516	8594.21
826.843	8608.67
827.17	8588.56
827.497	8583.81
827.824	8569.35
828.151	8605.96
828.478	8548.56
828.805	8557.15
829.131	8498.62
829.458	8545.85
829.785	8465.85
830.111	8505.85
830.438	8546.3
830.764	8550.82
831.09	8534.55
831.417	8484.61
831.743	8576.36
832.069	8539.07
832.395	8538.62
832.722	8511.05
833.048	8511.95
833.374	8488.9
833.7	8452.07
834.026	8530.93
834.351	8549.46
834.677	8453.42
835.003	8461.11
835.329	8502.01
835.654	8471.05
835.98	8408.23
836.306	8395.34
836.631	8379.3
836.956	8390.15
837.282	8419.98
837.607	8394.67
837.932	8350.37
838.258	8313.09
838.583	8280.54
838.908	8231.28
839.233	8313.76
839.558	8262.01
839.883	8211.39
840.208	8233.77
840.533	8273.99
840.858	8190.15
841.182	8208
841.507	8204.84
841.832	8069.25
842.156	8180.66
842.481	8131.17
842.805	8158.29
843.13	8138.85
843.454	8095.47
843.778	8045.3
844.103	8010.04
844.427	8035.58
844.751	7971.17
845.075	7927.79
845.399	7891.4
845.723	7904.06
846.047	7886.88
846.371	7858.86
846.695	7855.92
847.019	7819.77
847.343	7782.25
847.666	7694.35
847.99	7675.14
848.313	7744.29
848.637	7669.71
848.96	7655.48
849.284	7662.26
849.607	7543.16
849.931	7585.65
850.254	7508.14
850.577	7487.12
850.9	7449.61
851.223	7413
851.546	7358.08
851.869	7351.53
852.192	7385.88
852.515	7320.8
852.838	7322.38
853.161	7268.59
853.483	7235.37
853.806	7216.62
854.129	7159.22
854.451	7157.86
854.774	7179.56
855.096	7177.07
855.419	7046.91
855.741	7108.15
856.063	7032.67
856.385	7084.19
856.708	6986.79
857.03	6931.88
857.352	6943.86
857.674	6902.73
857.996	6855.27
858.318	6928.72
858.64	6898.43
858.961	6890.07
859.283	6890.07
859.605	6825.67
859.926	6812.11
860.248	6729.85
860.57	6748.61
860.891	6728.72
861.212	6717.42
861.534	6729.85
861.855	6656.86
862.176	6667.48
862.498	6702.28
862.819	6763.07
863.14	6626.35
863.461	6645.33
863.782	6590.65
864.103	6618.89
864.424	6683.3
864.745	6654.15
865.065	6616.86
865.386	6578.44
865.707	6582.06
866.027	6567.82
866.348	6563.53
866.668	6584.54
866.989	6527.82
867.309	6474.04
867.63	6509.74
867.95	6485.34
868.27	6436.53
868.59	6453.7
868.91	6466.13
869.23	6421.61
869.55	6400.59
869.87	6475.17
870.19	6428.16
870.51	6429.52
870.83	6371.89
871.15	6366.02
871.469	6385.23
871.789	6385
872.109	6296.42
872.428	6349.07
872.748	6311.78
873.067	6328.96
873.386	6293.48
873.706	6313.14
874.025	6232.69
874.344	6264.1
874.663	6242.63
874.982	6202.18
875.301	6230.66
875.62	6232.92
875.939	6210.54
876.258	6205.8
876.577	6158.11
876.896	6192.69
877.214	6173.03
877.533	6193.59
877.852	6173.48
878.17	6194.72
878.489	6157.89
878.807	6151.11
879.125	6146.59
879.444	6198.11
879.762	6089.64
880.08	6076.54
880.398	6084.67
880.716	6067.95
881.034	6072.47
881.352	6043.09
881.67	6013.26
881.988	6060.49
882.306	6046.71
882.624	5986.37
882.941	5984.11
883.259	5978.91
883.577	5964.22
883.894	5964.22
884.212	5888.74
884.529	5917.22
884.846	5890.55
885.164	5885.81
885.481	5914.28
885.798	5888.74
886.115	5827.28
886.432	5869.08
886.75	5818.91
887.067	5794.51
887.383	5771.91
887.7	5761.97
888.017	5789.09
888.334	5797.67
888.651	5751.12
888.967	5744.11
889.284	5676.09
889.6	5695.75
889.917	5658.92
890.233	5656.66
890.55	5633.61
890.866	5573.95
891.182	5611.24
891.498	5569.88
891.815	5592.93
892.131	5572.37
892.447	5535.76
892.763	5583.89
893.079	5538.47
893.395	5459.15
893.71	5493.27
894.026	5461.64
894.342	5506.61
894.657	5458.25
894.973	5408.08
895.289	5413.05
895.604	5418.93
895.92	5350.45
896.235	5325.37
896.55	5376.67
896.865	5340.06
897.181	5317.23
897.496	5299.83
897.811	5282.88
898.126	5254.18
898.441	5267.52
898.756	5204.69
899.071	5222.77
899.386	5254.18
899.7	5173.06
900.015	5218.25
900.33	5097.8
900.644	5075.66
900.959	5117.92
901.273	5100.74
901.588	5011.93
901.902	5053.51
902.216	5004.47
902.531	5020.74
902.845	5015.09
903.159	4957.47
903.473	4967.19
903.787	4912.72
904.101	4913.63
904.415	4890.13
904.729	4871.82
905.042	4852.39
905.356	4854.19
905.67	4826.85
905.984	4805.83
906.297	4805.38
906.611	4773.97
906.924	4782.56
907.237	4752.28
907.551	4708.66
907.864	4727.87
908.177	4703.24
908.491	4672.73
908.804	4662.11
909.117	4643.35
909.43	4656.23
909.743	4624.37
910.056	4615.33
910.368	4581.66
910.681	4553.64
910.994	4520.42
911.307	4507.54
911.619	4457.82
911.932	4523.81
912.244	4451.95
912.557	4434.77
912.869	4445.39
913.181	4407.88
913.494	4403.81
913.806	4368.33
914.118	4372.85
914.43	4365.62
914.742	4338.73
915.054	4301.89
915.366	4260.76
915.678	4292.4
915.99	4301.44
916.302	4203.36
916.613	4194.32
916.925	4185.51
917.236	4204.95
917.548	4140.99
917.859	4207.66
918.171	4133.99
918.482	4101.9
918.794	4102.58
919.105	4084.27
919.416	4082.46
919.727	4076.36
920.038	4048.34
920.349	4058.74
920.66	4013.54
920.971	4002.69
921.282	3969.7
921.593	3967.89
921.903	3931.05
922.214	3949.13
922.525	3920.43
922.835	3904.39
923.146	3867.78
923.456	3900.77
923.767	3855.8
924.077	3831.4
924.387	3808.57
924.697	3807.67
925.008	3757.05
925.318	3746.88
925.628	3751.4
925.938	3773.32
926.248	3754.34
926.558	3696.03
926.867	3737.39
927.177	3661.46
927.487	3612.87
927.796	3648.12
928.106	3675.69
928.416	3655.36
928.725	3656.03
929.034	3607.67
929.344	3616.49
929.653	3598.41
929.962	3503.5
930.271	3552.53
930.581	3566.09
930.89	3566.54
931.199	3482.25
931.508	3517.73
931.817	3496.49
932.125	3467.11
932.434	3485.19
932.743	3419.88
933.051	3409.71
933.36	3380.79
933.669	3388.47
933.977	3345.53
934.286	3337.17
934.594	3360
934.902	3326.55
935.21	3308.7
935.519	3316.61
935.827	3296.27
936.135	3295.59
936.443	3259.21
936.751	3243.84
937.059	3224.41
937.367	3236.61
937.674	3232.09
937.982	3168.81
938.29	3188.02
938.597	3180.34
938.905	3156.16
939.213	3153.67
939.52	3110.96
939.827	3136.05
940.135	3124.75
940.442	3110.96
940.749	3070.06
941.056	3096.95
941.363	3047.46
941.67	3026.22
941.977	3024.41
942.284	3021.25
942.591	2989.16
942.898	2993.68
943.205	2970.63
943.511	2973.79
943.818	2997.07
944.125	2948.48
944.431	2887.01
944.738	2909.16
945.044	2910.29
945.35	2889.05
945.657	2907.8
945.963	2860.8
946.269	2817.64
946.575	2880.46
946.881	2841.37
947.187	2802.5
947.493	2806.11
947.799	2834.36
948.105	2816.28
948.41	2734.7
948.716	2753.91
949.022	2727.92
949.327	2744.19
949.633	2726.11
949.938	2736.96
950.244	2707.58
950.549	2694.7
950.854	2656.06
951.16	2681.37
951.465	2638.66
951.77	2637.3
952.075	2612.9
952.38	2602.28
952.685	2623.74
952.99	2617.19
953.294	2632.33
953.599	2560.24
953.904	2603.41
954.209	2584.88
954.513	2548.72
954.818	2560.47
955.122	2507.36
955.426	2530.41
955.731	2496.74
956.035	2529.96
956.339	2484.99
956.643	2512.79
956.948	2474.37
957.252	2474.6
957.556	2465.78
957.86	2440.47
958.163	2430.53
958.467	2430.3
958.771	2419.46
959.075	2407.71
959.378	2427.37
959.682	2386.91
959.985	2400.93
960.289	2368.38
960.592	2372.45
960.896	2351.44
961.199	2343.07
961.502	2341.04
961.805	2331.32
962.108	2296.52
962.411	2287.26
962.714	2290.42
963.017	2296.07
963.32	2263.98
963.623	2299.01
963.926	2244.32
964.228	2246.13
964.531	2218.11
964.833	2243.64
965.136	2264.43
965.438	2210.2
965.741	2211.55
966.043	2192.57
966.345	2175.62
966.648	2201.38
966.95	2181.27
967.252	2139.01
967.554	2123.87
967.856	2148.5
968.158	2146.02
968.46	2136.07
968.761	2115.51
969.063	2110.99
969.365	2099.46
969.666	2110.09
969.968	2066.92
970.269	2079.8
970.571	2101.72
970.872	2051.56
971.174	2061.73
971.475	2078.67
971.776	2003.2
972.077	2034.38
972.378	2007.49
972.679	2051.33
972.98	2000.94
973.281	1989.64
973.582	1985.8
973.883	1977.21
974.183	1995.96
974.484	1974.72
974.785	1971.11
975.085	1941.5
975.386	1968.62
975.686	1944.44
975.986	1950.54
976.287	1922.52
976.587	1895.63
976.887	1900.15
977.187	1880.26
977.487	1864.67
977.787	1873.26
978.087	1876.42
978.387	1867.83
978.687	1843.65
978.987	1861.73
979.286	1823.31
979.586	1795.52
979.885	1849.98
980.185	1800.94
980.484	1804.33
980.784	1768.85
981.083	1769.08
981.382	1779.02
981.682	1758.68
981.981	1771.34
982.28	1753.94
982.579	1760.72
982.878	1762.07
983.177	1757.55
983.475	1721.62
983.774	1710.77
984.073	1693.15
984.372	1696.76
984.67	1699.02
984.969	1706.93
985.267	1706.25
985.566	1708.06
985.864	1670.1
986.162	1671
986.461	1635.52
986.759	1646.14
987.057	1628.52
987.355	1610.89
987.653	1612.25
987.951	1631.91
988.249	1651.11
988.547	1614.28
988.844	1624.45
989.142	1609.99
989.44	1582.87
989.737	1610.21
990.035	1586.03
990.332	1568.41
990.63	1562.08
990.927	1534.73
991.224	1539.71
991.521	1534.96
991.819	1532.93
992.116	1533.83
992.413	1548.97
992.71	1527.05
993.006	1527.28
993.303	1503.1
993.6	1506.26
993.897	1527.28
994.193	1480.5
994.49	1482.08
994.787	1469.2
995.083	1482.53
995.379	1466.26
995.676	1431.69
995.972	1437.79
996.268	1439.14
996.565	1440.27
996.861	1431.69
997.157	1445.47
997.453	1433.27
997.749	1398.01
998.044	1391.91
998.34	1414.96
998.636	1378.81
998.932	1396.43
999.227	1398.69
999.523	1380.84
999.818	1379.03
1000.114	1332.25
1000.409	1342.2
1000.704	1334.06
1001	1305.36
1001.295	1308.98
1001.59	1334.74
1001.885	1316.89
1002.18	1347.17
1002.475	1311.46
1002.77	1268.07
1003.065	1293.38
1003.359	1275.98
1003.654	1273.05
1003.949	1273.72
1004.243	1266.94
1004.538	1262.42
1004.832	1244.35
1005.127	1286.83
1005.421	1259.03
1005.715	1265.36
1006.009	1252.48
1006.304	1261.07
1006.598	1231.01
1006.892	1218.13
1007.186	1243.44
1007.48	1224.01
1007.773	1214.06
1008.067	1180.17
1008.361	1165.7
1008.655	1175.2
1008.948	1172.94
1009.242	1174.07
1009.535	1160.05
1009.829	1168.42
1010.122	1146.04
1010.415	1162.09
1010.708	1127.51
1011.001	1134.07
1011.295	1129.77
1011.588	1129.32
1011.881	1108.3
1012.173	1120.06
1012.466	1132.03
1012.759	1097.91
1013.052	1111.69
1013.344	1081.41
1013.637	1093.16
1013.93	1103.33
1014.222	1071.02
1014.514	1086.84
1014.807	1048.87
1015.099	1012.71
1015.391	1025.37
1015.683	1062.66
1015.976	1048.19
1016.268	1051.13
1016.56	1029.89
1016.851	1021.53
1017.143	1028.76
1017.435	1026.05
1017.727	1033.28
1018.018	1022.66
1018.31	1009.1
1018.602	1003
1018.893	1004.13
1019.185	1012.71
1019.476	1004.8
1019.767	969.78
1020.058	988.53
1020.35	964.13
1020.641	960.74
1020.932	939.95
1021.223	940.62
1021.514	947.63
1021.804	927.74
1022.095	929.33
1022.386	921.64
1022.677	914.64
1022.967	904.47
1023.258	931.81
1023.548	915.77
1023.839	907.18
1024.129	915.99
1024.419	908.54
1024.709	880.51
1025	893.85
1025.29	873.06
1025.58	875.77
1025.87	881.64
1026.16	869.89
1026.449	850.23
1026.739	854.07
1027.029	846.84
1027.319	847.07
1027.608	849.1
1027.898	835.09
1028.187	840.51
1028.477	817.92
1028.766	822.66
1029.055	797.13
1029.344	819.72
1029.634	786.96
1029.923	793.28
1030.212	791.7
1030.501	787.63
1030.79	794.41
1031.078	809.78
1031.367	771.36
1031.656	771.14
1031.945	767.07
1032.233	746.05
1032.522	749.67
1032.81	789.22
1033.099	738.82
1033.387	751.48
1033.675	741.99
1033.963	750.57
1034.251	744.7
1034.54	716.9
1034.828	726.17
1035.116	745.38
1035.403	721.2
1035.691	713.06
1035.979	712.16
1036.267	710.57
1036.554	712.61
1036.842	717.81
1037.129	696.11
1037.417	678.26
1037.704	724.81
1037.992	657.24
1038.279	694.3
1038.566	666.06
1038.853	666.06
1039.14	666.06
