Data from foam2_polystyrene_foam_FLMS001491_00057.txt Node
Date: Wed Feb 08 10:58:10 GMT 2017
User: dcchb
Spectrometer: FLMS00149
Trigger mode: 0
Integration Time (sec): 2.000000E-2
Scans to average: 10
Electric dark correction enabled: true
Nonlinearity correction enabled: false
Boxcar width: 0
XAxis mode: Wavelengths
Number of Pixels in Spectrum: 2048
>>>>>Begin Spectral Data<<<<<
341.393	-13.52
341.776	-13.52
342.16	-13.52
342.543	-62.55
342.927	-66.62
343.31	-59.84
343.693	-76.79
344.077	-41.54
344.46	-63.46
344.843	-49.22
345.226	-48.32
345.61	-33.63
345.993	-1.31
346.376	-11.03
346.759	11.57
347.142	26.48
347.525	44.11
347.908	24
348.291	66.26
348.674	82.3
349.057	130.43
349.44	130.21
349.823	139.25
350.206	166.14
350.588	187.61
350.971	211.56
351.354	240.04
351.737	237.55
352.119	247.27
352.502	272.13
352.884	242.52
353.267	284.55
353.65	305.8
354.032	314.84
354.414	308.51
354.797	320.03
355.179	314.84
355.562	357.1
355.944	330.2
356.326	347.6
356.709	336.98
357.091	328.17
357.473	333.59
357.855	345.8
358.238	355.51
358.62	347.38
359.002	366.81
359.384	344.67
359.766	342.63
360.148	358
360.53	370.88
360.912	352.8
361.294	360.03
361.676	362.07
362.057	335.4
362.439	347.38
362.821	340.6
363.203	341.73
363.584	348.73
363.966	330.88
364.348	345.34
364.729	340.82
365.111	329.53
365.493	342.18
365.874	329.3
366.256	334.5
366.637	353.93
367.019	348.51
367.4	321.39
367.781	343.31
368.163	324.1
368.544	343.99
368.925	343.76
369.306	365.68
369.688	348.51
370.069	329.53
370.45	341.28
370.831	322.97
371.212	330.43
371.593	343.76
371.974	364.1
372.355	345.34
372.736	358.68
373.117	360.71
373.498	358.68
373.879	345.12
374.26	352.12
374.641	339.24
375.021	341.5
375.402	362.52
375.783	371.78
376.163	386.02
376.544	400.26
376.925	376.76
377.305	346.47
377.686	371.78
378.066	374.04
378.447	362.97
378.827	383.08
379.208	364.33
379.588	389.41
379.968	395.06
380.349	411.11
380.729	382.18
381.109	380.37
381.489	386.02
381.87	410.88
382.25	388.05
382.63	381.73
383.01	407.04
383.39	398.45
383.77	402.52
384.15	399.81
384.53	413.59
384.91	416.3
385.29	435.51
385.67	426.7
386.049	424.21
386.429	441.84
386.809	423.53
387.189	412.91
387.568	428.51
387.948	426.25
388.328	444.78
388.707	460.14
389.087	465.34
389.466	447.94
389.846	432.12
390.225	458.79
390.605	454.49
390.984	449.3
391.363	439.35
391.743	460.82
392.122	478.9
392.501	477.09
392.881	473.7
393.26	494.04
393.639	488.39
394.018	482.97
394.397	497.2
394.776	491.1
395.155	487.04
395.534	511.44
395.913	517.99
396.292	509.63
396.671	524.77
397.05	523.19
397.429	527.94
397.808	528.62
398.186	509.63
398.565	521.61
398.944	534.27
399.323	550.31
399.701	534.49
400.08	534.94
400.458	556.86
400.837	566.81
401.215	562.74
401.594	553.25
401.972	565.68
402.351	570.87
402.729	576.07
403.107	596.41
403.486	605.45
403.864	603.42
404.242	612
404.62	592.34
404.999	601.61
405.377	622.85
405.755	600.25
406.133	601.16
406.511	626.69
406.889	643.87
407.267	644.55
407.645	684.09
408.023	645.9
408.401	691.1
408.779	678.44
409.156	680.7
409.534	673.02
409.912	682.74
410.29	702.85
410.667	714.37
411.045	722.28
411.422	721.15
411.8	716.86
412.178	727.25
412.555	746.24
412.933	750.08
413.31	769.97
413.687	786.69
414.065	780.59
414.442	780.36
414.819	800.47
415.197	807.25
415.574	830.53
415.951	812
416.328	823.07
416.705	825.11
417.082	831.21
417.46	857.19
417.837	846.8
418.214	855.16
418.591	863.97
418.967	841.6
419.344	849.29
419.721	896.29
420.098	860.13
420.475	877.08
420.852	897.65
421.228	908.04
421.605	900.36
421.982	909.85
422.358	948.72
422.735	943.07
423.111	954.14
423.488	954.37
423.864	970.64
424.241	1000.24
424.617	1000.47
424.994	1009.06
425.37	1025.1
425.746	1029.62
426.123	1002.73
426.499	1031.65
426.875	1053.8
427.251	1049.05
427.627	1092.22
428.003	1071.2
428.379	1108.49
428.756	1107.36
429.132	1134.7
429.507	1128.83
429.883	1173.34
430.259	1180.8
430.635	1169.05
431.011	1183.29
431.387	1179.9
431.763	1224.42
432.138	1241.37
432.514	1276.62
432.89	1267.13
433.265	1257.64
433.641	1268.48
434.016	1315.26
434.392	1328.14
434.767	1346
435.143	1360.01
435.518	1371.31
435.894	1375.6
436.269	1400.23
436.644	1403.85
437.02	1394.36
437.395	1425.09
437.77	1426.67
438.145	1454.24
438.52	1480.46
438.895	1518.42
439.271	1483.17
439.646	1526.1
440.021	1563.84
440.395	1555.26
440.77	1546.89
441.145	1576.95
441.52	1577.18
441.895	1606.1
442.27	1643.84
442.645	1630.51
443.019	1649.26
443.394	1627.8
443.769	1684.07
444.143	1658.76
444.518	1713.22
444.892	1694.69
445.267	1673.22
445.641	1764.29
446.016	1727.45
446.39	1750.05
446.764	1766.78
447.139	1755.25
447.513	1780.11
447.887	1801.35
448.262	1807
448.636	1809.26
449.01	1854.23
449.384	1861.01
449.758	1848.13
450.132	1910.27
450.506	1904.4
450.88	1923.83
451.254	1942.14
451.628	1969.71
452.002	1976.04
452.376	2004.74
452.75	2007
453.123	2042.47
453.497	2028.69
453.871	2062.59
454.244	2089.93
454.618	2128.12
454.992	2137.84
455.365	2148.69
455.739	2185.3
456.112	2219.65
456.486	2270.27
456.859	2240.89
457.232	2293.09
457.606	2278.85
457.979	2309.81
458.352	2383.93
458.725	2394.78
459.099	2392.3
459.472	2408.11
459.845	2466.42
460.218	2490.37
460.591	2503.03
460.964	2526.53
461.337	2561.1
461.71	2588.67
462.083	2642.01
462.456	2624.38
462.829	2660.54
463.201	2695.11
463.574	2708.45
463.947	2715.9
464.32	2776.24
464.692	2805.62
465.065	2840.42
465.438	2825.73
465.81	2926.75
466.183	2936.91
466.555	2980.98
466.928	3012.39
467.3	3008.32
467.672	3073.86
468.045	3135.33
468.417	3130.58
468.789	3166.74
469.161	3235.44
469.534	3234.76
469.906	3320.18
470.278	3303.46
470.65	3389.11
471.022	3451.48
471.394	3443.12
471.766	3494.41
472.138	3557.46
472.51	3591.81
472.882	3699.61
473.253	3699.83
473.625	3713.84
473.997	3862.77
474.369	3849.88
474.74	3911.35
475.112	3986.83
475.484	4043.1
475.855	4069.99
476.227	4081.97
476.598	4233.6
476.97	4212.81
477.341	4375.07
477.713	4380.04
478.084	4423.43
478.455	4534.16
478.827	4600.6
479.198	4734.38
479.569	4741.84
479.94	4857.09
480.311	4885.79
480.682	5029.29
481.053	5084.88
481.424	5215.5
481.795	5214.14
482.166	5308.6
482.537	5379.11
482.908	5484.87
483.279	5551.53
483.65	5643.74
484.021	5752.43
484.391	5823.62
484.762	5899.1
485.133	5933.22
485.503	5993.11
485.874	6145.19
486.244	6153.33
486.615	6297.96
486.985	6388.35
487.356	6476.03
487.726	6574.78
488.097	6676.93
488.467	6641
488.837	6814.1
489.207	6871.5
489.578	7013.19
489.948	7044.6
490.318	7149.46
490.688	7223.58
491.058	7285.95
491.428	7372.5
491.798	7462.9
492.168	7618.6
492.538	7633.51
492.908	7754.19
493.278	7817.01
493.648	7838.71
494.017	8024.69
494.387	8033.5
494.757	8116.44
495.126	8228.75
495.496	8261.29
495.866	8272.37
496.235	8416.54
496.605	8500.84
496.974	8525.02
497.344	8637.56
497.713	8655.63
498.082	8711.9
498.452	8804.1
498.821	8858.11
499.19	8912.12
499.559	8990.09
499.928	9065.57
500.298	9169.74
500.667	9203.87
501.036	9211.1
501.405	9317.09
501.774	9410.64
502.143	9460.13
502.512	9513.24
502.88	9573.12
503.249	9571.32
503.618	9680.92
503.987	9772.21
504.356	9780.58
504.724	9854.92
505.093	9938.09
505.462	10011.3
505.83	10050.4
506.199	10173.79
506.567	10256.04
506.936	10250.85
507.304	10334.91
507.672	10428.69
508.041	10461.91
508.409	10526.09
508.777	10587.11
509.145	10710.5
509.514	10686.09
509.882	10790.72
510.25	10895.35
510.618	10950.49
510.986	10994.56
511.354	11056.7
511.722	11265.51
512.09	11291.5
512.458	11222.12
512.826	11436.35
513.193	11507.31
513.561	11566.29
513.929	11646.29
514.297	11724.93
514.664	11887.19
515.032	11860.97
515.4	12051.25
515.767	12047.41
516.135	12157.69
516.502	12130.57
516.869	12317.91
517.237	12430.22
517.604	12400.85
517.972	12566.04
518.339	12546.83
518.706	12727.62
519.073	12750.67
519.44	12854.62
519.808	12975.75
520.175	13003.77
520.542	13206.7
520.909	13282.18
521.276	13325.34
521.643	13456.41
522.009	13604.2
522.376	13672
522.743	13709.29
523.11	13862.95
523.477	14028.83
523.843	14048.94
524.21	14284.86
524.577	14358.08
524.943	14471.07
525.31	14485.76
525.676	14657.06
526.043	14746.55
526.409	14757.39
526.776	14994.22
527.142	15072.64
527.508	15180.43
527.874	15250.49
528.241	15393.31
528.607	15364.38
528.973	15542.91
529.339	15425.17
529.705	15746.07
530.071	15807.08
530.437	15906.74
530.803	15983.8
531.169	16050.69
531.535	16109
531.901	16199.39
532.267	16249.56
532.632	16323.23
532.998	16412.94
533.364	16563.22
533.73	16634.63
534.095	16699.72
534.461	16728.42
534.826	16928.64
535.192	16967.28
535.557	17005.47
535.923	17050.22
536.288	17149.42
536.653	17211.12
537.019	17226.03
537.384	17417.89
537.749	17394.84
538.114	17497.89
538.479	17526.81
538.845	17601.61
539.21	17709.63
539.575	17769.52
539.94	17788.73
540.305	17935.16
540.67	17953.24
541.034	18007.25
541.399	18050.87
541.764	18077.08
542.129	18188.49
542.494	18215.61
542.858	18382.38
543.223	18338.77
543.587	18472.1
543.952	18491.53
544.316	18515.94
544.681	18603.17
545.045	18706.67
545.41	18854.91
545.774	18778.76
546.138	18849.26
546.503	18875.7
546.867	19007.9
547.231	19175.58
547.595	19206.54
547.959	19210.16
548.324	19263.49
548.688	19322.47
549.052	19301.68
549.416	19372.41
549.779	19518.4
550.143	19566.76
550.507	19616.25
550.871	19712.97
551.235	19715.68
551.599	19902.34
551.962	19939.41
552.326	20014.66
552.689	20213.07
553.053	20171.49
553.417	20103.69
553.78	20486.74
554.143	20293.75
554.507	20473.4
554.87	20532.61
555.234	20750.01
555.597	20771.25
555.96	20620.07
556.323	20827.97
556.686	20913.39
557.05	21078.81
557.413	20946.16
557.776	21174.17
558.139	21317.45
558.502	21362.64
558.865	21332.36
559.228	21626.14
559.59	21633.15
559.953	21706.82
560.316	21905.46
560.679	21966.02
561.041	22009.86
561.404	22198.1
561.767	22274.26
562.129	22275.16
562.492	22466.57
562.854	22431.09
563.217	22526.46
563.579	22600.8
563.941	22703.17
564.304	22877.18
564.666	23038.98
565.028	23079.44
565.39	23158.76
565.753	23225.42
566.115	23301.35
566.477	23439.43
566.839	23576.6
567.201	23684.62
567.563	23735.01
567.925	23902.24
568.287	23810.72
568.648	23942.92
569.01	24180.2
569.372	24271.95
569.734	24176.81
570.095	24433.98
570.457	24552.84
570.819	24536.12
571.18	24528.44
571.542	24648.66
571.903	24761.2
572.265	24760.3
572.626	24887.98
572.987	24918.26
573.349	24920.74
573.71	24937.69
574.071	25077.58
574.432	25186.95
574.794	25224.92
575.155	25181.53
575.516	25245.25
575.877	25414.97
576.238	25501.97
576.599	25600.5
576.96	25586.04
577.32	25588.52
577.681	25689.31
578.042	25761.17
578.403	25790.55
578.763	25788.97
579.124	25960.26
579.485	25913.71
579.845	25869.87
580.206	25891.56
580.566	25973.14
580.927	26039.13
581.287	26222.4
581.648	26061.96
582.008	26070.77
582.368	26146.02
582.728	26214.49
583.089	26013.14
583.449	26188.05
583.809	26158.9
584.169	26215.17
584.529	26071
584.889	26407.94
585.249	26117.77
585.609	26011.11
585.969	26243.42
586.329	26121.16
586.688	26257.43
587.048	26280.93
587.408	26167.04
587.768	26191.22
588.127	26070.09
588.487	26063.09
588.846	26301.27
589.206	26078.68
589.565	26087.94
589.925	26179.02
590.284	26207.94
590.643	26217.21
591.003	26303.98
591.362	26429.86
591.721	26273.48
592.08	26261.27
592.44	26435.73
592.799	26270.31
593.158	26463.98
593.517	26414.72
593.876	26405.9
594.235	26303.98
594.593	26383.76
594.952	26397.31
595.311	26292.23
595.67	26416.97
596.029	26443.19
596.387	26491.78
596.746	26552.56
597.104	26434.83
597.463	26419.01
597.822	26460.82
598.18	26390.08
598.538	26447.48
598.897	26639.34
599.255	26325
599.613	26717.53
599.972	26730.64
600.33	26739.45
600.688	26677.98
601.046	26705.78
601.404	26802.05
601.762	26744.42
602.12	26983.06
602.478	26900.13
602.836	26880.01
603.194	26800.92
603.552	27000.01
603.91	26783.97
604.268	26951.65
604.625	26936.06
604.983	27163.62
605.341	26942.84
605.698	27077.07
606.056	27124.98
606.413	27102.83
606.771	27123.62
607.128	27134.92
607.485	27035.26
607.843	27035.49
608.2	27191.42
608.557	27305.09
608.914	27109.16
609.272	27278.87
609.629	27373.56
609.986	27442.03
610.343	27212.21
610.7	27581.01
611.057	27408.81
611.414	27369.94
611.771	27403.62
612.127	27602.93
612.484	27590.28
612.841	27612.2
613.198	27573.1
613.554	27554.35
613.911	27602.93
614.267	27636.15
614.624	27635.25
614.98	27642.48
615.337	27844.73
615.693	27706.66
616.05	27741.91
616.406	27971.96
616.762	27914.56
617.118	27767
617.475	27892.64
617.831	28029.59
618.187	27829.82
618.543	28058.74
618.899	28174.67
619.255	28082.24
619.611	28003.83
619.967	28109.13
620.323	28166.08
620.678	28141.68
621.034	28026.2
621.39	27956.82
621.746	27991.62
622.101	28306.19
622.457	28056.93
622.812	28175.57
623.168	28166.99
623.523	28261.67
623.879	28115.69
624.234	27844.73
624.589	28124.73
624.945	28033.2
625.3	28045.86
625.655	28063.03
626.01	28161.34
626.365	28035.01
626.72	28062.81
627.075	28148
627.43	28150.71
627.785	28012.64
628.14	28044.5
628.495	28024.39
628.85	27978.52
629.205	28043.37
629.559	28103.03
629.914	27955.47
630.269	28008.8
630.623	27868.01
630.978	27795.7
631.332	27917.73
631.687	28008.8
632.041	27780.78
632.396	27812.87
632.75	27754.79
633.104	27794.34
633.459	27670.73
633.813	27697.85
634.167	27481.13
634.521	27567.23
634.875	27667.56
635.229	27525.42
635.583	27419.21
635.937	27520.45
636.291	27447.91
636.645	27339.89
636.999	27421.69
637.352	27481.13
637.706	27271.87
638.06	27342.15
638.413	27224.86
638.767	27225.99
639.121	27160.91
639.474	27045.66
639.828	27111.87
640.181	27099.67
640.534	27018.32
640.888	26966.34
641.241	26790.3
641.594	26889.5
641.947	26967.69
642.301	26856.96
642.654	26875.95
643.007	26809.51
643.36	26714.37
643.713	26667.36
644.066	26703.97
644.419	26574.26
644.771	26444.54
645.124	26154.83
645.477	26014.27
645.83	25946.7
646.182	25727.95
646.535	25759.82
646.888	25768.18
647.24	25623.78
647.593	25812.25
647.945	25707.84
648.298	25636.88
648.65	25597.79
649.002	25308.3
649.355	25515.08
649.707	25454.97
650.059	25661.74
650.411	25879.36
650.763	25986.93
651.115	26201.84
651.467	26089.75
651.819	26085.68
652.171	26059.7
652.523	25933.15
652.875	25945.35
653.227	25868.51
653.578	26074.84
653.93	25919.81
654.282	25808.86
654.633	25815.63
654.985	25871
655.337	25873.49
655.688	25828.06
656.039	25951.22
656.391	25729.54
656.742	25683.66
657.094	25720.5
657.445	25799.82
657.796	25731.12
658.147	25640.27
658.498	25577.9
658.849	25739.25
659.2	25733.15
659.551	25485.02
659.902	25617.45
660.253	25712.81
660.604	25636.43
660.955	25450.45
661.306	25645.47
661.656	25506.26
662.007	25474.85
662.358	25481.86
662.708	25524.12
663.059	25418.81
663.409	25268.98
663.76	25508.98
664.11	25372.48
664.461	25411.35
664.811	25435.76
665.161	25520.28
665.511	25387.17
665.862	25419.04
666.212	25456.77
666.562	25456.77
666.912	25317.79
667.262	25262.2
667.612	25410.45
667.962	25362.31
668.312	25336.1
668.662	25511.24
669.011	25297.23
669.361	25298.13
669.711	25247.06
670.06	25219.94
670.41	25179.95
670.76	25124.58
671.109	25248.87
671.459	25192.15
671.808	25155.09
672.157	25186.5
672.507	25011.14
672.856	25056.33
673.205	24956.67
673.554	25129.55
673.904	24919.61
674.253	25152.6
674.602	24952.38
674.951	24686.85
675.3	24488.89
675.649	25010.46
675.998	24886.17
676.346	24936.11
676.695	24967.3
677.044	24866.06
677.393	24916.9
677.741	24848.88
678.09	24929.1
678.438	24843
678.787	24951.93
679.135	24799.62
679.484	24690.47
679.832	24835.32
680.181	24728.43
680.529	24777.7
680.877	24609.11
681.225	24574.54
681.573	24612.73
681.922	24451.38
682.27	24406.41
682.618	24456.57
682.966	24412.06
683.314	24469.46
683.661	24400.53
684.009	24196.47
684.357	24260.65
684.705	24128.67
685.053	24238.05
685.4	24055.68
685.748	24025.63
686.095	23992.63
686.443	23905.63
686.79	23861.11
687.138	23876.48
687.485	23973.42
687.832	23743.6
688.18	23779.98
688.527	23538.41
688.874	23747.67
689.221	23586.09
689.568	23535.92
689.915	23406.66
690.262	23487.33
690.609	23410.73
690.956	23354
691.303	23315.81
691.65	23289.6
691.997	23201.01
692.344	23166.89
692.69	23096.16
693.037	23129.38
693.383	22840.8
693.73	22978.2
694.077	22891.42
694.423	22913.56
694.769	22789.73
695.116	22720.57
695.462	22590.86
695.808	22630.86
696.155	22585.21
696.501	22370.3
696.847	22395.16
697.193	22327.59
697.539	22262.96
697.885	22205.11
698.231	22062.06
698.577	22068.16
698.923	22131.44
699.269	21992.01
699.614	21811.9
699.96	21830.43
700.306	21734.84
700.651	21618.91
700.997	21651
701.342	21531
701.688	21566.93
702.033	21418.01
702.379	21456.88
702.724	21466.82
703.069	21477.22
703.415	21241.52
703.76	21203.55
704.105	21230.44
704.45	21140.28
704.795	21033.39
705.14	21006.04
705.485	21070.22
705.83	20924.69
706.175	20943.9
706.52	20914.52
706.865	20787.52
707.209	20744.13
707.554	20659.61
707.899	20622.1
708.243	20504.59
708.588	20575.55
708.932	20407.42
709.277	20388.88
709.621	20448.32
709.966	20139.4
710.31	20306.85
710.654	20118.61
710.998	20150.47
711.342	20126.52
711.687	20000.65
712.031	19979.4
712.375	19845.85
712.719	19853.53
713.063	19836.58
713.407	19834.1
713.75	19670.49
714.094	19804.72
714.438	19712.97
714.782	19766.98
715.125	19670.26
715.469	19672.07
715.812	19513.88
716.156	19343.04
716.499	19489.47
716.843	19438.85
717.186	19399.76
717.53	19404.96
717.873	19442.24
718.216	19354.11
718.559	19246.09
718.902	19126.09
719.246	19068.69
719.589	19068.92
719.932	18999.09
720.275	19040.45
720.617	19095.81
720.96	19039.77
721.303	18953.89
721.646	18978.98
721.989	18786.22
722.331	18862.82
722.674	18669.83
723.016	18848.36
723.359	18849.49
723.701	18701.7
724.044	18631.19
724.386	18569.27
724.729	18714.13
725.071	18540.35
725.413	18554.58
725.755	18509.16
726.097	18411.76
726.439	18350.75
726.782	18405.89
727.124	18447.24
727.465	18355.04
727.807	18303.29
728.149	18246.34
728.491	18194.59
728.833	18242.73
729.175	18129.28
729.516	18010.64
729.858	18089.06
730.199	18000.25
730.541	17969.74
730.882	17874.37
731.224	17982.85
731.565	17906.46
731.906	17880.48
732.248	17858.56
732.589	17784.66
732.93	17719.35
733.271	17725.68
733.612	17714.83
733.953	17790.08
734.294	17691.33
734.635	17611.33
734.976	17667.83
735.317	17626.47
735.658	17637.09
735.999	17520.71
736.339	17583.08
736.68	17551.9
737.021	17423.54
737.361	17454.27
737.702	17581.5
738.042	17518.68
738.383	17402.75
738.723	17459.92
739.063	17257.67
739.404	17467.15
739.744	17375.63
740.084	17341.06
740.424	17278.68
740.764	17212.47
741.104	17197.78
741.444	17205.01
741.784	17103.55
742.124	17141.96
742.464	17181.51
742.804	17041.85
743.143	16986.94
743.483	16955.53
743.823	16899.26
744.162	16866.04
744.502	16929.54
744.841	16828.75
745.181	16839.83
745.52	16862.88
745.86	16847.73
746.199	16737
746.538	16775.19
746.877	16679.38
747.216	16762.09
747.556	16643.67
747.895	16657.46
748.234	16585.14
748.573	16600.96
748.911	16480.74
749.25	16600.96
749.589	16335.43
749.928	16481.19
750.267	16385.6
750.605	16408.88
750.944	16338.82
751.283	16202.55
751.621	16307.41
751.96	16187.19
752.298	16151.26
752.636	16196.45
752.975	16089.11
753.313	16074.42
753.651	16097.7
753.989	15902.68
754.327	16011.82
754.666	15848.21
755.004	15843.92
755.342	15918.72
755.679	15842.79
756.017	15732.51
756.355	15866.52
756.693	15761.21
757.031	15785.39
757.368	15676.24
757.706	15609.58
758.044	15563.47
758.381	15531.61
758.719	15515.79
759.056	15518.73
759.394	15431.95
759.731	15360.54
760.068	15356.02
760.405	15273.54
760.743	15168.23
761.08	15296.82
761.417	15109.25
761.754	15140.44
762.091	15120.77
762.428	15030.38
762.765	14971.63
763.102	15005.98
763.438	14975.47
763.775	14949.25
764.112	14902.7
764.449	14902.48
764.785	14741.12
765.122	14679.88
765.458	14595.59
765.795	14648.02
766.131	14613.44
766.467	14464.07
766.804	14454.8
767.14	14303.85
767.476	14331.64
767.812	14295.71
768.148	14263.17
768.485	14143.63
768.821	14106.79
769.157	14068.37
769.492	14054.81
769.828	14035.83
770.164	13916.06
770.5	13838.55
770.836	13803.07
771.171	13715.39
771.507	13641.27
771.842	13588.39
772.178	13634.94
772.513	13552
772.849	13500.48
773.184	13500.93
773.519	13510.87
773.855	13436.3
774.19	13365.57
774.525	13370.76
774.86	13311.56
775.195	13210.32
775.53	13137.1
775.865	13177.77
776.2	12977.55
776.535	13019.14
776.87	12919.02
777.205	12980.27
777.539	12855.98
777.874	12837.67
778.209	12778.24
778.543	12717.67
778.878	12627.96
779.212	12633.16
779.547	12464.57
779.881	12618.47
780.215	12524.01
780.55	12577.79
780.884	12418.92
781.218	12427.06
781.552	12372.6
781.886	12296.89
782.22	12230.46
782.554	12181.87
782.888	12061.42
783.222	12100.29
783.556	11967.41
783.889	11987.3
784.223	11908.43
784.557	11927.19
784.89	11890.58
785.224	11879.28
785.557	11744.14
785.891	11811.94
786.224	11693.97
786.558	11692.16
786.891	11573.75
787.224	11559.74
787.557	11514.77
787.891	11508.44
788.224	11513.41
788.557	11545.05
788.89	11506.86
789.223	11354.55
789.556	11297.15
789.888	11314.77
790.221	11237.04
790.554	11177.83
790.887	11206.08
791.219	11177.38
791.552	11108
791.884	11077.49
792.217	10982.13
792.549	10945.29
792.882	10915.24
793.214	10869.14
793.546	10916.14
793.879	10826.65
794.211	10802.24
794.543	10809.48
794.875	10750.04
795.207	10752.75
795.539	10731.06
795.871	10723.15
796.203	10632.08
796.535	10583.72
796.867	10485.64
797.198	10523.38
797.53	10481.35
797.862	10433.44
798.193	10478.41
798.525	10403.16
798.856	10406.55
799.188	10261.02
799.519	10310.96
799.85	10190.73
800.182	10263.5
800.513	10156.39
800.844	10062.6
801.175	10204.29
801.506	10181.24
801.837	10100.34
802.168	10025.99
802.499	9947.35
802.83	9875.94
803.161	9993.45
803.491	9906.45
803.822	9852.66
804.153	9787.36
804.483	9808.15
804.814	9777.86
805.145	9738.54
805.475	9745.32
805.805	9690.86
806.136	9706.45
806.466	9697.64
806.796	9557.08
807.126	9574.03
807.457	9482.73
807.787	9540.36
808.117	9460.13
808.447	9437.31
808.777	9496.52
809.107	9382.39
809.436	9366.58
809.766	9394.15
810.096	9402.73
810.426	9374.94
810.755	9285.67
811.085	9334.49
811.414	9307.59
811.744	9211.55
812.073	9177.2
812.403	9147.6
812.732	9112.35
813.061	9147.82
813.39	9040.93
813.719	9031.22
814.049	9066.24
814.378	8986.25
814.707	9020.82
815.036	9002.52
815.365	8938.79
815.693	8900.15
816.022	8989.86
816.351	8844.33
816.68	8786.25
817.008	8878
817.337	8757.1
817.665	8746.93
817.994	8779.7
818.322	8807.72
818.651	8774.27
818.979	8716.88
819.307	8767.5
819.636	8648.63
819.964	8656.99
820.292	8674.39
820.62	8635.52
820.948	8613.6
821.276	8654.28
821.604	8590.32
821.932	8595.3
822.259	8554.62
822.587	8577.67
822.915	8540.61
823.243	8536.99
823.57	8579.03
823.898	8562.76
824.225	8593.71
824.553	8573.15
824.88	8531.57
825.207	8573.38
825.535	8527.95
825.862	8581.96
826.189	8595.75
826.516	8599.82
826.843	8564.11
827.17	8632.58
827.497	8571.34
827.824	8578.57
828.151	8596.65
828.478	8607.73
828.805	8602.98
829.131	8592.81
829.458	8541.74
829.785	8536.54
830.111	8565.01
830.438	8586.26
830.764	8570.89
831.09	8585.35
831.417	8501.06
831.743	8585.35
832.069	8569.99
832.395	8499.48
832.722	8586.71
833.048	8508.75
833.374	8513.72
833.7	8489.54
834.026	8477.56
834.351	8515.52
834.677	8459.25
835.003	8458.35
835.329	8436.88
835.654	8440.95
835.98	8426.26
836.306	8444.57
836.631	8419.93
836.956	8443.89
837.282	8449.09
837.607	8342.42
837.932	8334.06
838.258	8381.97
838.583	8250.67
838.908	8204.35
839.233	8294.29
839.558	8271.01
839.883	8194.86
840.208	8216.32
840.533	8195.53
840.858	8189.88
841.182	8198.47
841.507	8200.73
841.832	8207.51
842.156	8146.72
842.481	8186.27
842.805	8183.78
843.13	8087.29
843.454	8131.13
843.778	8054.97
844.103	8045.71
844.427	7986.5
844.751	7955.99
845.075	7981.53
845.399	7972.26
845.723	7884.81
846.047	7903.34
846.371	7902.43
846.695	7852.27
847.019	7850.01
847.343	7825.83
847.666	7744.7
847.99	7775.88
848.313	7692.04
848.637	7672.16
848.96	7580.63
849.284	7637.36
849.607	7616.34
849.931	7535.21
850.254	7527.08
850.577	7539.51
850.9	7466.29
851.223	7404.37
851.546	7387.64
851.869	7326.63
852.192	7392.62
852.515	7303.35
852.838	7251.38
853.161	7256.12
853.483	7254.54
853.806	7187.42
854.129	7185.16
854.451	7183.58
854.774	7166.63
855.096	7100.19
855.419	7143.13
855.741	7081.89
856.063	7060.42
856.385	7024.26
856.708	7003.25
857.03	7003.25
857.352	7020.2
857.674	6945.17
857.996	6924.15
858.318	6934.55
858.64	6932.52
858.961	6845.74
859.283	6833.08
859.605	6848.22
859.926	6866.75
860.248	6805.97
860.57	6751.73
860.891	6747.44
861.212	6782.46
861.534	6735.91
861.855	6690.26
862.176	6742.69
862.498	6737.04
862.819	6724.39
863.14	6734.1
863.461	6664.95
863.782	6668.12
864.103	6645.74
864.424	6613.43
864.745	6607.78
865.065	6593.54
865.386	6602.81
865.707	6583.6
866.027	6550.83
866.348	6605.97
866.668	6550.38
866.989	6557.61
867.309	6513.54
867.63	6493.43
867.95	6454.34
868.27	6452.53
868.59	6468.35
868.91	6449.14
869.23	6424.96
869.55	6414.79
869.87	6477.61
870.19	6425.86
870.51	6419.31
870.83	6432.87
871.15	6372.3
871.469	6393.32
871.789	6370.04
872.109	6376.37
872.428	6273.78
872.748	6301.35
873.067	6295.92
873.386	6278.52
873.706	6309.03
874.025	6266.32
874.344	6233.55
874.663	6266.77
874.982	6301.8
875.301	6245.53
875.62	6221.35
875.939	6184.74
876.258	6209.82
876.577	6217.73
876.896	6170.5
877.214	6163.27
877.533	6170.05
877.852	6190.39
878.17	6142.25
878.489	6145.87
878.807	6154.23
879.125	6143.84
879.444	6107.9
879.762	6112.2
880.08	6143.38
880.398	6139.09
880.716	6078.75
881.034	6057.74
881.352	6048.7
881.67	6028.36
881.988	6029.26
882.306	6064.52
882.624	6028.36
882.941	5970.73
883.259	5943.61
883.577	5956.72
883.894	5955.59
884.212	5973.44
884.529	5929.83
884.846	5930.06
885.164	5936.16
885.481	5852.54
885.798	5897.97
886.115	5856.61
886.432	5850.96
886.75	5831.08
887.067	5849.15
887.383	5785.88
887.7	5731.19
888.017	5734.13
888.334	5767.35
888.651	5802.38
888.967	5711.3
889.284	5710.4
889.6	5684.19
889.917	5636.96
890.233	5647.35
890.55	5678.99
890.866	5663.62
891.182	5620.46
891.498	5586.79
891.815	5587.24
892.131	5608.93
892.447	5583.85
892.763	5521.93
893.079	5543.17
893.395	5539.33
893.71	5481.25
894.026	5488.26
894.342	5498.88
894.657	5457.75
894.973	5454.36
895.289	5404.42
895.604	5430.41
895.92	5359.9
896.235	5366.91
896.55	5359
896.865	5302.95
897.181	5291.2
897.496	5316.96
897.811	5268.83
898.126	5298.89
898.441	5256.18
898.756	5208.27
899.071	5201.71
899.386	5199.45
899.7	5187.25
900.015	5176.4
900.33	5094.6
900.644	5114.26
900.959	5154.71
901.273	5070.19
901.588	5065.45
901.902	5054.15
902.216	5010.76
902.531	5000.14
902.845	4991.32
903.159	4985
903.473	4998.1
903.787	4960.14
904.101	4932.79
904.415	4973.7
904.729	4896.18
905.042	4885.11
905.356	4885.34
905.67	4836.75
905.984	4803.76
906.297	4864.1
906.611	4766.02
906.924	4759.01
907.237	4755.4
907.551	4753.82
907.864	4759.47
908.177	4697.55
908.491	4660.48
908.804	4653.93
909.117	4668.39
909.43	4643.54
909.743	4564.22
910.056	4611.67
910.368	4573.03
910.681	4523.54
910.994	4621.84
911.307	4496.42
911.619	4489.42
911.932	4549.98
912.244	4477.66
912.557	4434.28
912.869	4396.54
913.181	4454.39
913.494	4409.87
913.806	4394.28
914.118	4404.9
914.43	4341.4
914.742	4354.96
915.054	4325.58
915.366	4300.04
915.678	4306.82
915.99	4305.47
916.302	4254.85
916.613	4215.52
916.925	4168.52
917.236	4175.98
917.548	4161.51
917.859	4194.73
918.171	4157.22
918.482	4133.72
918.794	4108.63
919.105	4112.02
919.416	4072.93
919.727	4084
920.038	4093.95
920.349	3995.64
920.66	4021.41
920.971	4015.3
921.282	3989.09
921.593	4018.24
921.903	3929.88
922.214	3936.66
922.525	3873.39
922.835	3902.76
923.146	3900.73
923.456	3865.48
923.767	3888.08
924.077	3848.08
924.387	3846.27
924.697	3822.09
925.008	3787.97
925.318	3762.66
925.628	3745.93
925.938	3747.06
926.248	3733.28
926.558	3697.12
926.867	3740.73
927.177	3696.44
927.487	3656.44
927.796	3641.75
928.106	3635.2
928.416	3630.91
928.725	3634.52
929.034	3595.2
929.344	3565.15
929.653	3551.36
929.962	3575.54
930.271	3559.27
930.581	3536.22
930.89	3505.49
931.199	3449.9
931.508	3501.65
931.817	3450.12
932.125	3472.27
932.434	3458.03
932.743	3454.41
933.051	3414.87
933.36	3381.42
933.669	3358.82
933.977	3324.25
934.286	3345.72
934.594	3350.69
934.902	3343.68
935.21	3318.37
935.519	3313.18
935.827	3312.5
936.135	3313.85
936.443	3296
936.751	3256
937.059	3238.15
937.367	3199.05
937.674	3244.48
937.982	3221.43
938.29	3190.01
938.597	3178.26
938.905	3133.52
939.213	3149.79
939.52	3145.72
939.827	3109.79
940.135	3098.27
940.442	3063.92
940.749	3082.9
941.056	3085.38
941.363	3067.76
941.67	3077.7
941.977	3086.51
942.284	3021.66
942.591	3022.56
942.898	2999.96
943.205	3012.17
943.511	2943.02
943.818	2955.44
944.125	2933.3
944.431	2931.04
944.738	2932.62
945.044	2884.71
945.35	2890.36
945.657	2882.23
945.963	2862.57
946.269	2830.93
946.575	2860.08
946.881	2846.75
947.187	2810.59
947.493	2834.32
947.799	2815.34
948.105	2752.96
948.41	2766.52
948.716	2781.89
949.022	2772.62
949.327	2750.03
949.633	2727.65
949.938	2740.99
950.244	2691.72
950.549	2712.29
950.854	2682.91
951.16	2675.68
951.465	2667.09
951.77	2653.98
952.075	2630.26
952.38	2619.18
952.685	2605.4
952.99	2581.22
953.294	2626.64
953.599	2627.09
953.904	2570.6
954.209	2578.28
954.513	2572.63
954.818	2539.18
955.122	2529.92
955.426	2529.02
955.731	2552.74
956.035	2503.93
956.339	2566.98
956.643	2461.67
956.948	2486.08
957.252	2487.89
957.556	2483.14
957.86	2444.72
958.163	2453.54
958.467	2431.39
958.771	2438.4
959.075	2383.03
959.378	2431.16
959.682	2407.21
959.985	2416.25
960.289	2404.27
960.592	2377.83
960.896	2350.04
961.199	2345.29
961.502	2332.18
961.805	2336.93
962.108	2289.25
962.411	2324.28
962.714	2313.65
963.017	2313.88
963.32	2347.55
963.623	2307.33
963.926	2289.02
964.228	2278.4
964.531	2253.09
964.833	2227.1
965.136	2236.82
965.438	2221.23
965.741	2242.47
966.043	2162.25
966.345	2218.52
966.648	2188.46
966.95	2183.04
967.252	2157.95
967.554	2147.78
967.856	2183.49
968.158	2143.94
968.46	2152.53
968.761	2115.92
969.063	2135.58
969.365	2106.2
969.666	2119.31
969.968	2067.33
970.269	2085.19
970.571	2082.02
970.872	2065.3
971.174	2044.06
971.475	2071.63
971.776	2044.96
972.077	2022.14
972.378	2040.89
972.679	2004.74
972.98	1998.86
973.281	1978.75
973.582	1959.09
973.883	1984.85
974.183	1953.66
974.484	1978.07
974.785	1964.06
975.085	1932.19
975.386	1957.05
975.686	1934.91
975.986	1895.59
976.287	1919.09
976.587	1888.58
976.887	1897.39
977.187	1839.99
977.487	1869.37
977.787	1903.5
978.087	1919.31
978.387	1878.64
978.687	1872.08
978.987	1861.01
979.286	1859.2
979.586	1843.61
979.885	1843.61
980.185	1800.45
980.484	1808.58
980.784	1807.45
981.083	1788.7
981.382	1793.22
981.682	1795.7
981.981	1780.33
982.28	1755.93
982.579	1738.08
982.878	1750.73
983.177	1754.57
983.475	1751.18
983.774	1761.13
984.073	1729.26
984.372	1699.43
984.67	1709.38
984.969	1683.16
985.267	1637.97
985.566	1686.1
985.864	1667.12
986.162	1671.64
986.461	1658.76
986.759	1670.28
987.057	1636.16
987.355	1639.1
987.653	1662.6
987.951	1625.54
988.249	1616.95
988.547	1648.36
988.844	1614.92
989.142	1605.88
989.44	1582.37
989.737	1569.49
990.035	1583.5
990.332	1586.67
990.63	1575.37
990.927	1570.62
991.224	1551.64
991.521	1550.06
991.819	1528.36
992.116	1541.7
992.413	1516.84
992.71	1496.5
993.006	1512.32
993.303	1511.64
993.6	1513.22
993.897	1491.53
994.193	1491.75
994.49	1476.61
994.787	1489.04
995.083	1473
995.379	1470.74
995.676	1444.07
995.972	1452.43
996.268	1425.54
996.565	1419.67
996.861	1430.06
997.157	1438.87
997.453	1435.94
997.749	1417.86
998.044	1398.2
998.34	1359.55
998.636	1409.5
998.932	1389.84
999.227	1373.57
999.523	1395.49
999.818	1358.2
1000.114	1367.01
1000.409	1373.34
1000.704	1363.85
1001	1327.24
1001.295	1369.95
1001.59	1358.65
1001.885	1324.08
1002.18	1327.01
1002.475	1314.81
1002.77	1309.61
1003.065	1304.64
1003.359	1297.18
1003.654	1284.08
1003.949	1267.13
1004.243	1291.99
1004.538	1254.02
1004.832	1288.82
1005.127	1267.35
1005.421	1265.09
1005.715	1279.78
1006.009	1222.84
1006.304	1251.76
1006.598	1230.29
1006.892	1222.38
1007.186	1221.25
1007.48	1246.79
1007.773	1187.36
1008.067	1213.12
1008.361	1196.17
1008.655	1202.95
1008.948	1177.19
1009.242	1171.31
1009.535	1146.68
1009.829	1169.5
1010.122	1169.28
1010.415	1171.31
1010.708	1147.58
1011.001	1144.87
1011.295	1142.39
1011.588	1115.95
1011.881	1128.6
1012.173	1115.72
1012.466	1116.4
1012.759	1108.71
1013.052	1112.78
1013.344	1110.75
1013.637	1084.31
1013.93	1106.91
1014.222	1095.15
1014.514	1080.47
1014.807	1089.96
1015.099	1068.94
1015.391	1071.2
1015.683	1078.66
1015.976	1062.16
1016.268	1047.02
1016.56	1032.78
1016.851	1018.32
1017.143	1026.91
1017.435	1011.32
1017.727	1027.59
1018.018	1019.9
1018.31	992.33
1018.602	1017.19
1018.893	990.07
1019.185	990.52
1019.476	985.78
1019.767	973.58
1020.058	977.42
1020.35	966.12
1020.641	971.32
1020.932	959.11
1021.223	941.49
1021.514	962.95
1021.804	963.18
1022.095	922.73
1022.386	912.79
1022.677	922.05
1022.967	922.96
1023.258	905.56
1023.548	912.11
1023.839	901.26
1024.129	901.26
1024.419	881.83
1024.709	877.99
1025	912.33
1025.29	877.08
1025.58	852.68
1025.87	870.53
1026.16	876.4
1026.449	858.1
1026.739	860.13
1027.029	850.87
1027.319	833.01
1027.608	842.96
1027.898	852
1028.187	845.9
1028.477	834.37
1028.766	814.26
1029.055	806.12
1029.344	823.07
1029.634	802.96
1029.923	801.15
1030.212	795.73
1030.501	812.22
1030.79	786.69
1031.078	795.95
1031.367	764.77
1031.656	772
1031.945	774.49
1032.233	772.9
1032.522	781.49
1032.81	765.9
1033.099	775.39
1033.387	761.15
1033.675	741.27
1033.963	749.18
1034.251	740.36
1034.54	729.97
1034.828	717.09
1035.116	736.75
1035.403	730.19
1035.691	735.16
1035.979	730.19
1036.267	732.45
1036.554	714.6
1036.842	696.07
1037.129	713.92
1037.417	704.2
1037.704	711.21
1037.992	694.71
1038.279	711.44
1038.566	689.06
1038.853	689.06
1039.14	689.06
