Data from foam1_polythene_foam_FLMS001491_00043.txt Node
Date: Wed Feb 08 10:54:52 GMT 2017
User: dcchb
Spectrometer: FLMS00149
Trigger mode: 0
Integration Time (sec): 2.000000E-2
Scans to average: 10
Electric dark correction enabled: true
Nonlinearity correction enabled: false
Boxcar width: 0
XAxis mode: Wavelengths
Number of Pixels in Spectrum: 2048
>>>>>Begin Spectral Data<<<<<
341.393	6.06
341.776	6.06
342.16	6.06
342.543	-77.33
342.927	-78.46
343.31	-78.68
343.693	-75.75
344.077	-59.48
344.46	-36.2
344.843	-64.45
345.226	-38.46
345.61	-34.84
345.993	-7.05
346.376	7.87
346.759	-13.15
347.142	10.35
347.525	38.15
347.908	51.93
348.291	90.35
348.674	92.16
349.057	117.24
349.44	108.2
349.823	149.56
350.206	150.46
350.588	197.92
350.971	196.11
351.354	199.05
351.737	223.68
352.119	240.86
352.502	263.68
352.884	258.71
353.267	262.78
353.65	240.86
354.032	273.17
354.414	299.38
354.797	285.6
355.179	311.14
355.562	314.07
355.944	317.01
356.326	319.72
356.709	312.49
357.091	291.02
357.473	346.62
357.855	321.31
358.238	344.58
358.62	313.62
359.002	317.69
359.384	330.12
359.766	316.79
360.148	318.37
360.53	345.94
360.912	329.21
361.294	319.5
361.676	330.34
362.057	318.59
362.439	324.24
362.821	312.94
363.203	298.93
363.584	315.2
363.966	316.79
364.348	311.36
364.729	313.85
365.111	299.16
365.493	299.16
365.874	314.53
366.256	333.96
366.637	299.16
367.019	321.98
367.4	310.23
367.781	290.8
368.163	294.41
368.544	294.64
368.925	303.45
369.306	313.17
369.688	317.24
370.069	324.47
370.45	313.62
370.831	285.15
371.212	303.23
371.593	310.46
371.974	296.67
372.355	308.65
372.736	284.7
373.117	312.94
373.498	291.25
373.879	287.63
374.26	273.85
374.641	309.33
375.021	307.07
375.402	328.99
375.783	297.35
376.163	327.63
376.544	306.16
376.925	308.65
377.305	304.36
377.686	310.01
378.066	297.12
378.447	307.29
378.827	307.97
379.208	320.18
379.588	340.51
379.968	345.03
380.349	314.53
380.729	319.27
381.109	314.75
381.489	303.45
381.87	323.56
382.25	361.08
382.63	332.6
383.01	323.34
383.39	345.03
383.77	330.57
384.15	333.06
384.53	319.5
384.91	340.74
385.29	342.77
385.67	342.1
386.049	328.08
386.429	351.13
386.809	335.77
387.189	352.04
387.568	330.12
387.948	354.3
388.328	350.91
388.707	344.36
389.087	353.62
389.466	338.25
389.846	350.68
390.225	332.15
390.605	354.3
390.984	371.93
391.363	348.88
391.743	347.52
392.122	381.87
392.501	370.57
392.881	368.31
393.26	391.81
393.639	383.22
394.018	360.85
394.397	399.72
394.776	362.89
395.155	369.44
395.534	373.51
395.913	369.21
396.292	374.86
396.671	382.77
397.05	397.24
397.429	394.07
397.808	392.49
398.186	390.23
398.565	393.17
398.944	396.78
399.323	397.01
399.701	398.37
400.08	405.14
400.458	415.09
400.837	407.4
401.215	408.31
401.594	421.87
401.972	390.23
402.351	415.31
402.729	392.72
403.107	399.72
403.486	434.97
403.864	424.13
404.242	395.2
404.62	440.4
404.999	408.53
405.377	439.49
405.755	423.9
406.133	439.72
406.511	439.27
406.889	423.22
407.267	460.06
407.645	447.63
408.023	453.73
408.401	445.6
408.779	461.19
409.156	478.82
409.534	466.16
409.912	473.84
410.29	462.09
410.667	476.33
411.045	456.44
411.422	488.76
411.8	472.71
412.178	507.51
412.555	483.33
412.933	477.46
413.31	504.35
413.687	508.19
414.065	520.17
414.442	503.67
414.819	534.63
415.197	529.21
415.574	533.05
415.951	511.58
416.328	531.47
416.705	506.38
417.082	517.68
417.46	540.51
417.837	545.48
418.214	541.19
418.591	550.68
418.967	561.3
419.344	544.12
419.721	568.3
420.098	542.09
420.475	573.28
420.852	565.14
421.228	582.99
421.605	590.45
421.982	593.61
422.358	591.13
422.735	586.61
423.111	611.92
423.488	604.01
423.864	608.53
424.241	605.82
424.617	619.38
424.994	627.06
425.37	607.4
425.746	621.18
426.123	643.1
426.499	634.29
426.875	643.1
427.251	674.06
427.627	646.72
428.003	655.53
428.379	678.81
428.756	708.19
429.132	686.72
429.507	690.11
429.883	701.63
430.259	707.96
430.635	704.35
431.011	729.43
431.387	733.5
431.763	733.5
432.138	762.88
432.514	739.83
432.89	759.49
433.265	778.47
433.641	789.54
434.016	782.99
434.392	775.98
434.767	783.21
435.143	796.32
435.518	799.94
435.894	833.38
436.269	833.83
436.644	837.45
437.02	845.36
437.395	854.85
437.77	840.84
438.145	863.66
438.52	860.73
438.895	899.37
439.271	895.75
439.646	908.41
440.021	906.15
440.395	933.49
440.77	904.11
441.145	952.25
441.52	947.73
441.895	952.02
442.27	952.47
442.645	949.54
443.019	965.13
443.394	987.5
443.769	989.99
444.143	981.85
444.518	993.15
444.892	1030.66
445.267	1004.68
445.641	1015.52
446.016	1044.9
446.39	1057.56
446.764	997.22
447.139	1062.53
447.513	1060.95
447.887	1063.43
448.262	1100.27
448.636	1075.18
449.01	1115.86
449.384	1081.29
449.758	1114.05
450.132	1137.33
450.506	1132.58
450.88	1159.02
451.254	1134.62
451.628	1161.51
452.002	1173.26
452.376	1205.58
452.75	1173.26
453.123	1203.77
453.497	1169.64
453.871	1204.45
454.244	1265.01
454.618	1236.76
454.992	1258.23
455.365	1248.51
455.739	1275.86
456.112	1295.74
456.486	1291.22
456.859	1324.22
457.232	1338.45
457.606	1325.35
457.979	1344.78
458.352	1345.91
458.725	1389.75
459.099	1373.03
459.472	1416.64
459.845	1416.64
460.218	1404.67
460.591	1404.44
460.964	1415.74
461.337	1443.99
461.71	1485.12
462.083	1507.04
462.456	1518.56
462.829	1524.44
463.201	1529.63
463.574	1531.67
463.947	1557.88
464.32	1589.29
464.692	1552.91
465.065	1592.46
465.438	1600.37
465.81	1625.23
466.183	1639.69
466.555	1692.57
466.928	1656.86
467.3	1708.39
467.672	1716.07
468.045	1753.13
468.417	1742.96
468.789	1778.67
469.161	1814.37
469.534	1813.02
469.906	1861.6
470.278	1864.99
470.65	1906.57
471.022	1898.89
471.394	1945.44
471.766	1975.27
472.138	1990.64
472.51	2009.62
472.882	2051.66
473.253	2056.4
473.625	2101.6
473.997	2098.66
474.369	2129.17
474.74	2109.51
475.112	2155.16
475.484	2221.59
475.855	2271.31
476.227	2302.04
476.598	2318.99
476.97	2366.45
477.341	2376.84
477.713	2430.4
478.084	2413.45
478.455	2492.32
478.827	2519.89
479.198	2594.69
479.569	2595.37
479.94	2683.05
480.311	2689.83
480.682	2769.83
481.053	2801.47
481.424	2897.06
481.795	2851.41
482.166	2893.21
482.537	2956.04
482.908	2985.19
483.279	2998.52
483.65	3090.5
484.021	3106.99
484.391	3182.92
484.762	3207.56
485.133	3245.97
485.503	3230.61
485.874	3326.42
486.244	3354.22
486.615	3430.83
486.985	3495.68
487.356	3549.02
487.726	3581.11
488.097	3610.48
488.467	3641.44
488.837	3673.76
489.207	3780.42
489.578	3818.16
489.948	3845.28
490.318	3902
490.688	3915.79
491.058	3957.14
491.428	4030.81
491.798	4060.87
492.168	4167.98
492.538	4160.07
492.908	4209.34
493.278	4291.37
493.648	4249.79
494.017	4316.45
494.387	4343.35
494.757	4414.53
495.126	4530.01
495.496	4476.9
495.866	4517.8
496.235	4593.51
496.605	4605.49
496.974	4652.26
497.344	4686.16
497.713	4733.17
498.082	4720.29
498.452	4838.47
498.821	4830.79
499.19	4910.11
499.559	4938.81
499.928	4973.61
500.298	5000.05
500.667	5038.7
501.036	5014.52
501.405	5131.8
501.774	5092.71
502.143	5165.7
502.512	5145.81
502.88	5257.67
503.249	5235.07
503.618	5295.64
503.987	5325.02
504.356	5377.9
504.724	5423.09
505.093	5404.11
505.462	5444.11
505.83	5467.38
506.199	5570.43
506.567	5618.11
506.936	5622.18
507.304	5703.08
507.672	5685.01
508.041	5815.62
508.409	5803.87
508.777	5878.9
509.145	5917.09
509.514	5936.98
509.882	5990.76
510.25	6005.68
510.618	6022.17
510.986	6080.93
511.354	6106.92
511.722	6176.97
512.09	6223.75
512.458	6245.44
512.826	6264.88
513.193	6327.7
513.561	6340.58
513.929	6393.24
514.297	6451.54
514.664	6539.67
515.032	6539.9
515.4	6606.34
515.767	6685.21
516.135	6754.36
516.502	6720.46
516.869	6732.21
517.237	6830.96
517.604	6790.29
517.972	6964.29
518.339	6937.4
518.706	7009.04
519.073	7018.53
519.44	7143.05
519.808	7136.49
520.175	7237.06
520.542	7320.9
520.909	7339.43
521.276	7354.57
521.643	7454.68
522.009	7588.23
522.376	7538.06
522.743	7600.66
523.11	7669.81
523.477	7751.62
523.843	7802.01
524.21	7894.44
524.577	7944.61
524.943	7989.13
525.31	8002.91
525.676	8100.99
526.043	8136.24
526.409	8181.89
526.776	8359.74
527.142	8330.36
527.508	8419.85
527.874	8437.02
528.241	8547.53
528.607	8477.93
528.973	8657.13
529.339	8641.76
529.705	8763.79
530.071	8854.87
530.437	8914.3
530.803	8859.16
531.169	8954.3
531.535	8973.73
531.901	9007.18
532.267	9045.82
532.632	9096.89
532.998	9100.96
533.364	9165.14
533.73	9273.61
534.095	9322.65
534.461	9279.94
534.826	9357.9
535.192	9445.58
535.557	9512.48
535.923	9482.42
536.288	9590.67
536.653	9559.48
537.019	9612.13
537.384	9679.7
537.749	9682.87
538.114	9747.95
538.479	9786.59
538.845	9819.13
539.21	9826.82
539.575	9869.08
539.94	9873.6
540.305	9947.72
540.67	9903.43
541.034	10039.02
541.399	10030.2
541.764	10024.78
542.129	10133.02
542.494	10128.73
542.858	10157.43
543.223	10215.51
543.587	10220.25
543.952	10269.97
544.316	10293.7
544.681	10290.53
545.045	10394.03
545.41	10460.47
545.774	10405.33
546.138	10494.6
546.503	10591.77
546.867	10556.06
547.231	10671.32
547.595	10669.06
547.959	10733.69
548.324	10685.33
548.688	10767.81
549.052	10774.59
549.416	10823.18
549.779	10890.07
550.143	10817.98
550.507	10958.09
550.871	10973.68
551.235	10953.79
551.599	11112.89
551.962	11061.59
552.326	11133.9
552.689	11223.62
553.053	11123.28
553.417	11208.48
553.78	11347.68
554.143	11264.29
554.507	11382.26
554.87	11389.04
555.234	11522.14
555.597	11427.68
555.96	11491.41
556.323	11520.33
556.686	11610.5
557.05	11662.02
557.413	11617.05
557.776	11784.96
558.139	11844.84
558.502	11823.83
558.865	11926.2
559.228	12035.8
559.59	12059.75
559.953	12072.41
560.316	12202.57
560.679	12195.12
561.041	12303.81
561.404	12384.04
561.767	12399.18
562.129	12377.71
562.492	12480.53
562.854	12479.18
563.217	12499.52
563.579	12582.23
563.941	12674.88
564.304	12665.16
564.666	12781.09
565.028	12853.4
565.39	12849.56
565.753	12831.03
566.115	12945.61
566.477	12996.68
566.839	13025.15
567.201	13106.05
567.563	13180.4
567.925	13314.41
568.287	13318.25
568.648	13310.34
569.01	13349.44
569.372	13447.74
569.734	13400.74
570.095	13616.77
570.457	13605.02
570.819	13643.67
571.18	13539.49
571.542	13689.32
571.903	13714.17
572.265	13790.33
572.626	13782.87
572.987	13889.54
573.349	13851.57
573.71	13985.13
574.071	13974.96
574.432	13998.69
574.794	14038.01
575.155	14041.85
575.516	14043.43
575.877	14073.03
576.238	14112.58
576.599	14176.31
576.96	14243.65
577.32	14295.63
577.681	14281.39
578.042	14326.36
578.403	14366.36
578.763	14374.27
579.124	14326.59
579.485	14494.49
579.845	14481.61
580.206	14425.57
580.566	14384.89
580.927	14397.09
581.287	14530.65
581.648	14419.01
582.008	14510.99
582.368	14609.74
582.728	14627.14
583.089	14526.81
583.449	14520.93
583.809	14611.55
584.169	14720.02
584.529	14683.19
584.889	14675.73
585.249	14621.72
585.609	14571.33
585.969	14721.6
586.329	14655.39
586.688	14701.49
587.048	14664.43
587.408	14597.54
587.768	14542.85
588.127	14577.88
588.487	14567.71
588.846	14652.91
589.206	14614.71
589.565	14650.87
589.925	14658.78
590.284	14666.92
590.643	14680.7
591.003	14610.87
591.362	14726.8
591.721	14724.09
592.08	14663.98
592.44	14741.49
592.799	14754.6
593.158	14742.62
593.517	14726.35
593.876	14748.5
594.235	14733.58
594.593	14683.19
594.952	14739.01
595.311	14769.51
595.67	14802.96
596.029	14862.84
596.387	14911.43
596.746	14953.69
597.104	14771.55
597.463	14812
597.822	14886.12
598.18	14783.3
598.538	14759.12
598.897	14943.52
599.255	14790.08
599.613	15024.42
599.972	14918.44
600.33	14898.1
600.688	14877.31
601.046	14925.44
601.404	14970.86
601.762	14880.47
602.12	14978.77
602.478	15101.93
602.836	15004.08
603.194	14951.88
603.552	14950.3
603.91	14922.28
604.268	15028.04
604.625	14983.97
604.983	15060.58
605.341	14930.41
605.698	15044.99
606.056	15184.42
606.413	15182.16
606.771	15208.82
607.128	15251.76
607.485	15091.76
607.843	15124.53
608.2	15274.36
608.557	15171.54
608.914	15195.94
609.272	15202.04
609.629	15307.8
609.986	15327.69
610.343	15310.06
610.7	15377.18
611.057	15394.81
611.414	15413.34
611.771	15323.17
612.127	15452.21
612.484	15468.03
612.841	15522.94
613.198	15447.01
613.554	15418.54
613.911	15576.27
614.267	15474.58
614.624	15498.31
614.98	15547.8
615.337	15584.86
615.693	15538.08
616.05	15450.62
616.406	15624.41
616.762	15580.34
617.118	15587.12
617.475	15647.46
617.831	15556.61
618.187	15696.95
618.543	15694.46
618.899	15704.86
619.255	15674.12
619.611	15680
619.967	15729.04
620.323	15771.07
620.678	15683.39
621.034	15742.37
621.39	15648.36
621.746	15687.91
622.101	15838.41
622.457	15685.42
622.812	15684.29
623.168	15708.7
623.523	15742.59
623.879	15770.16
624.234	15660.56
624.589	15783.95
624.945	15721.35
625.3	15724.97
625.655	15770.84
626.01	15721.8
626.365	15776.49
626.72	15710.96
627.075	15695.36
627.43	15643.16
627.785	15656.04
628.14	15694.01
628.495	15794.8
628.85	15742.37
629.205	15698.98
629.559	15729.04
629.914	15660.56
630.269	15639.09
630.623	15646.78
630.978	15617.85
631.332	15588.25
631.687	15619.21
632.041	15572.88
632.396	15580.11
632.75	15570.85
633.104	15542.6
633.459	15479.1
633.813	15507.57
634.167	15422.15
634.521	15465.31
634.875	15439.55
635.229	15405.43
635.583	15363.17
635.937	15344.86
636.291	15323.85
636.645	15438.87
636.999	15408.59
637.352	15340.57
637.706	15327.24
638.06	15314.36
638.413	15391.42
638.767	15196.39
639.121	15233.91
639.474	15137.86
639.828	15317.07
640.181	15174.47
640.534	15254.47
640.888	15116.17
641.241	15056.28
641.594	15205.66
641.947	15159.79
642.301	15082.5
642.654	15112.78
643.007	15203.85
643.36	15125.21
643.713	14941.94
644.066	15040.47
644.419	15026.91
644.771	14986
645.124	14923.63
645.477	14811.55
645.83	14790.53
646.182	14609.29
646.535	14495.4
646.888	14437.77
647.24	14407.04
647.593	14399.8
647.945	14314.61
648.298	14184.67
648.65	14283.42
649.002	14291.56
649.355	14343.76
649.707	14283.88
650.059	14376.75
650.411	14539.24
650.763	14584.43
651.115	14707.82
651.467	14642.96
651.819	14660.82
652.171	14635.05
652.523	14609.74
652.875	14592.12
653.227	14612.45
653.578	14630.53
653.93	14630.99
654.282	14545.56
654.633	14469.18
654.985	14517.99
655.337	14452.91
655.688	14526.13
656.039	14588.27
656.391	14453.81
656.742	14446.36
657.094	14467.6
657.445	14529.07
657.796	14358.9
658.147	14442.06
658.498	14377.66
658.849	14441.61
659.2	14440.26
659.551	14344.21
659.902	14421.95
660.253	14347.15
660.604	14342.41
660.955	14338.34
661.306	14404.78
661.656	14329.3
662.007	14248.85
662.358	14269.64
662.708	14369.07
663.059	14252.92
663.409	14201.39
663.76	14256.76
664.11	14296.76
664.461	14325
664.811	14368.62
665.161	14262.63
665.511	14216.08
665.862	14283.42
666.212	14261.5
666.562	14308.96
666.912	14186.48
667.262	14268.73
667.612	14245.01
667.962	14248.4
668.312	14230.77
668.662	14299.47
669.011	14179.92
669.361	14187.38
669.711	14155.74
670.06	14094.73
670.41	14131.34
670.76	14104.22
671.109	14139.47
671.459	14167.72
671.808	14143.09
672.157	14149.19
672.507	14010.44
672.856	13989.19
673.205	14029.65
673.554	14072.81
673.904	13993.71
674.253	14124.33
674.602	13959.82
674.951	13875.07
675.3	13754.62
675.649	14057.22
675.998	13988.06
676.346	13934.05
676.695	14049.76
677.044	13962.75
677.393	14004.79
677.741	14010.44
678.09	13905.81
678.438	13955.07
678.787	13956.88
679.135	13873.04
679.484	13877.33
679.832	13840.95
680.181	13784.23
680.529	13836.43
680.877	13754.17
681.225	13814.51
681.573	13857.45
681.922	13695.87
682.27	13678.47
682.618	13735.64
682.966	13708.75
683.314	13692.25
683.661	13551.01
684.009	13557.34
684.357	13575.65
684.705	13545.14
685.053	13575.19
685.4	13545.14
685.748	13446.61
686.095	13466.5
686.443	13422.88
686.79	13382.2
687.138	13372.04
687.485	13450.9
687.832	13392.6
688.18	13424.69
688.527	13299.72
688.874	13301.08
689.221	13240.74
689.568	13226.5
689.915	13228.31
690.262	13181.08
690.609	13162.1
690.956	13043.23
691.303	13087.52
691.65	12958.94
691.997	12987.41
692.344	12968.88
692.69	12899.51
693.037	12924.36
693.383	12823.8
693.73	12884.59
694.077	12775.67
694.423	12762.56
694.769	12628.1
695.116	12653.41
695.462	12750.13
695.808	12646.4
696.155	12653.64
696.501	12482.79
696.847	12573.86
697.193	12427.88
697.539	12510.14
697.885	12474.88
698.231	12380.2
698.577	12391.95
698.923	12389.46
699.269	12298.39
699.614	12309.24
699.96	12216.59
700.306	12273.08
700.651	12177.26
700.997	12167.1
701.342	12197.38
701.688	12147.21
702.033	12076.48
702.379	12111.73
702.724	12031.28
703.069	12051.62
703.415	11943.15
703.76	11934.11
704.105	11893.43
704.45	11895.69
704.795	11826.54
705.14	11855.92
705.485	11718.29
705.83	11658.41
706.175	11656.6
706.52	11703.38
706.865	11684.85
707.209	11643.27
707.554	11464.06
707.899	11619.31
708.243	11457.51
708.588	11464.51
708.932	11432.88
709.277	11460.9
709.621	11396.72
709.966	11350.17
710.31	11473.1
710.654	11317.85
710.998	11362.6
711.342	11394.23
711.687	11295.25
712.031	11210.74
712.375	11200.79
712.719	11283.95
713.063	11173
713.407	11152.43
713.75	11084.19
714.094	11176.39
714.438	11114.24
714.782	11203.73
715.125	11082.6
715.469	11130.29
715.812	11031.31
716.156	10994.7
716.499	10907.69
716.843	11016.17
717.186	10904.76
717.53	10938.2
717.873	10966.22
718.216	10873.8
718.559	10853.01
718.902	10760.8
719.246	10870.86
719.589	10766.91
719.932	10715.83
720.275	10723.07
720.617	10696.17
720.96	10722.61
721.303	10634.93
721.646	10633.35
721.989	10552.9
722.331	10601.71
722.674	10600.81
723.016	10576.85
723.359	10558.78
723.701	10588.15
724.044	10506.35
724.386	10435.84
724.729	10518.78
725.071	10479.68
725.413	10475.16
725.755	10444.88
726.097	10447.59
726.439	10369.4
726.782	10381.61
727.124	10417.76
727.465	10375.73
727.807	10334.38
728.149	10386.13
728.491	10322.17
728.833	10312.68
729.175	10232.68
729.516	10322.4
729.858	10237.88
730.199	10277.88
730.541	10197.43
730.882	10194.27
731.224	10226.81
731.565	10185.68
731.906	10138.67
732.248	10158.79
732.589	10100.71
732.93	10083.08
733.271	10072.46
733.612	10155.85
733.953	10089.86
734.294	10012.12
734.635	9991.33
734.976	10069.52
735.317	10061.61
735.658	9964.67
735.999	10014.16
736.339	9970.09
736.68	9987.94
737.021	9950.43
737.361	9899.36
737.702	9920.83
738.042	9902.52
738.383	9913.37
738.723	9898.23
739.063	9925.8
739.404	9808.29
739.744	9800.38
740.084	9736.42
740.424	9767.61
740.764	9790.66
741.104	9804.22
741.444	9744.11
741.784	9696.43
742.124	9750.44
742.464	9672.7
742.804	9660.72
743.143	9625.69
743.483	9611.91
743.823	9634.96
744.162	9645.35
744.502	9589.99
744.841	9559.48
745.181	9641.74
745.52	9488.75
745.86	9566.49
746.199	9564.23
746.538	9495.75
746.877	9582.98
747.216	9563.55
747.556	9415.53
747.895	9510.89
748.234	9499.37
748.573	9428.18
748.911	9493.72
749.25	9414.85
749.589	9364.01
749.928	9416.43
750.267	9373.95
750.605	9415.53
750.944	9346.15
751.283	9243.33
751.621	9340.28
751.96	9284.23
752.298	9262.76
752.636	9306.15
752.975	9247.85
753.313	9206.95
753.651	9267.96
753.989	9181.64
754.327	9122.88
754.666	9212.82
755.004	9158.59
755.342	9167.17
755.679	9053.96
756.017	9053.96
756.355	9102.32
756.693	8996.56
757.031	9043.11
757.368	8940.97
757.706	8938.48
758.044	8834.3
758.381	8835.43
758.719	8828.43
759.056	8901.42
759.394	8805.83
759.731	8780.07
760.068	8742.78
760.405	8705.27
760.743	8663.68
761.08	8655.1
761.417	8580.97
761.754	8600.18
762.091	8581.2
762.428	8610.13
762.765	8491.71
763.102	8569.68
763.438	8566.06
763.775	8525.38
764.112	8450.13
764.449	8521.99
764.785	8460.53
765.122	8418.72
765.458	8440.64
765.795	8395.67
766.131	8382.11
766.467	8324.71
766.804	8300.76
767.14	8192.51
767.476	8313.64
767.812	8249.68
768.148	8256.92
768.485	8217.37
768.821	8106.19
769.157	8174.21
769.492	8117.26
769.828	8182.79
770.164	8024.38
770.5	8025.96
770.836	8025.51
771.171	8044.04
771.507	7953.19
771.842	7913.42
772.178	7938.28
772.513	7902.12
772.849	7862.12
773.184	7879.98
773.519	7813.76
773.855	7755.23
774.19	7728.34
774.525	7678.85
774.86	7706.42
775.195	7683.6
775.53	7652.64
775.865	7555.24
776.2	7574.45
776.535	7500.1
776.87	7532.87
777.205	7448.8
777.539	7433.89
777.874	7424.62
778.209	7298.52
778.543	7306.43
778.878	7283.16
779.212	7283.61
779.547	7266.43
779.881	7239.77
780.215	7191.63
780.55	7195.02
780.884	7150.05
781.218	7211.52
781.552	7127.45
781.886	7169.49
782.22	7085.2
782.554	7059.43
782.888	7000.23
783.222	7059.66
783.556	6930.85
783.889	6884.3
784.223	6905.09
784.557	6909.83
784.89	6890.62
785.224	6871.64
785.557	6790.74
785.891	6797.29
786.224	6839.33
786.558	6747.12
786.891	6763.62
787.224	6722.72
787.557	6655.15
787.891	6719.1
788.224	6642.95
788.557	6664.42
788.89	6602.72
789.223	6608.37
789.556	6622.16
789.888	6596.85
790.221	6479.34
790.554	6481.14
790.887	6490.18
791.219	6468.94
791.552	6436.17
791.884	6390.3
792.217	6427.13
792.549	6375.16
792.882	6366.8
793.214	6315.27
793.546	6330.19
793.879	6237.99
794.211	6228.04
794.543	6282.5
794.875	6308.94
795.207	6290.87
795.539	6219.46
795.871	6218.1
796.203	6143.98
796.535	6073.47
796.867	6081.61
797.198	6080.48
797.53	6049.52
797.862	6047.93
798.193	6055.17
798.525	5945.34
798.856	6030.99
799.188	6005.9
799.519	5979.01
799.85	5925.45
800.182	5901.5
800.513	5926.13
800.844	5867.37
801.175	5849.97
801.506	5876.64
801.837	5836.64
802.168	5825.57
802.499	5797.09
802.83	5751.22
803.161	5761.39
803.491	5731.56
803.822	5744.67
804.153	5695.4
804.483	5670.77
804.814	5577.89
805.145	5653.14
805.475	5623.99
805.805	5565.01
806.136	5615.18
806.466	5588.74
806.796	5613.37
807.126	5580.38
807.457	5582.86
807.787	5546.7
808.117	5572.24
808.447	5492.47
808.777	5465.12
809.107	5496.99
809.436	5484.33
809.766	5496.08
810.096	5422.41
810.426	5457.22
810.755	5453.6
811.085	5408.18
811.414	5378.57
811.744	5321.85
812.073	5393.94
812.403	5409.08
812.732	5309.65
813.061	5299.25
813.39	5317.11
813.719	5274.62
814.049	5314.39
814.378	5280.04
814.707	5327.05
815.036	5278.01
815.365	5264.68
815.693	5210.89
816.022	5160.5
816.351	5222.42
816.68	5169.31
817.008	5178.13
817.337	5142.2
817.665	5101.52
817.994	5128.18
818.322	5127.96
818.651	5128.18
818.979	5076.43
819.307	5061.07
819.636	5049.32
819.964	5062.65
820.292	5122.53
820.62	5075.98
820.948	5062.88
821.276	5094.96
821.604	5086.6
821.932	5078.47
822.259	5034.4
822.587	5059.49
822.915	4942.43
823.243	4988.98
823.57	4995.53
823.898	5018.81
824.225	4986.72
824.553	4982.88
824.88	5023.33
825.207	5042.08
825.535	4982.43
825.862	5016.55
826.189	5024.46
826.516	5048.64
826.843	5024.46
827.17	5032.59
827.497	4986.27
827.824	5007.51
828.151	5017.23
828.478	5024.68
828.805	5045.25
829.131	5085.47
829.458	4997.11
829.785	4942.43
830.111	4997.57
830.438	5014.52
830.764	4961.18
831.09	5025.14
831.417	5008.41
831.743	5045.47
832.069	5064.91
832.395	4987.4
832.722	5078.92
833.048	5017.45
833.374	5038.7
833.7	4993.72
834.026	5054.74
834.351	5021.97
834.677	5000.28
835.003	5001.41
835.329	5005.7
835.654	4969.09
835.98	4979.26
836.306	4973.16
836.631	4932.94
836.956	4954.4
837.282	4913.73
837.607	4911.92
837.932	4964.8
838.258	4909.43
838.583	4873.95
838.908	4896.55
839.233	4939.26
839.558	4882.54
839.883	4847.97
840.208	4810.9
840.533	4858.13
840.858	4854.97
841.182	4793.05
841.507	4868.3
841.832	4839.6
842.156	4773.39
842.481	4809.1
842.805	4756.67
843.13	4782.43
843.454	4761.19
843.778	4761.19
844.103	4730
844.427	4677.35
844.751	4711.25
845.075	4719.61
845.399	4686.84
845.723	4639.61
846.047	4610.68
846.371	4640.51
846.695	4617.46
847.019	4621.31
847.343	4600.74
847.666	4568.65
847.99	4552.61
848.313	4543.57
848.637	4554.87
848.96	4520.29
849.284	4547.18
849.607	4471.03
849.931	4463.12
850.254	4430.8
850.577	4407.3
850.9	4379.73
851.223	4333.63
851.546	4321.65
851.869	4315.32
852.192	4352.16
852.515	4334.53
852.838	4294.08
853.161	4283.91
853.483	4291.37
853.806	4259.51
854.129	4270.58
854.451	4262.22
854.774	4248.66
855.096	4241.43
855.419	4187.87
855.741	4170.7
856.063	4194.2
856.385	4153.29
856.708	4102
857.03	4165.27
857.352	4070.81
857.674	4115.33
857.996	4069.91
858.318	4098.15
858.64	4074.43
858.961	4078.04
859.283	4033.52
859.605	4014.32
859.926	4030.36
860.248	4029
860.57	4025.16
860.891	4028.33
861.212	3986.75
861.534	4022
861.855	3992.4
862.176	4017.93
862.498	4021.09
862.819	4001.21
863.14	3982.68
863.461	3976.35
863.782	3947.65
864.103	3981.1
864.424	3969.57
864.745	3930.7
865.065	3944.03
865.386	3910.36
865.707	3898.16
866.027	3905.17
866.348	3879.4
866.668	3876.24
866.989	3871.04
867.309	3896.58
867.63	3851.83
867.95	3864.26
868.27	3883.25
868.59	3866.75
868.91	3890.93
869.23	3861.33
869.55	3835.56
869.87	3844.83
870.19	3835.56
870.51	3835.11
870.83	3828.11
871.15	3829.01
871.469	3826.52
871.789	3859.29
872.109	3774.55
872.428	3760.08
872.748	3803.02
873.067	3784.49
873.386	3800.99
873.706	3813.19
874.025	3801.89
874.344	3765.51
874.663	3769.58
874.982	3748.33
875.301	3738.16
875.62	3726.64
875.939	3701.78
876.258	3729.58
876.577	3714.44
876.896	3742.01
877.214	3735.23
877.533	3717.6
877.852	3703.59
878.17	3680.31
878.489	3692.29
878.807	3702.23
879.125	3663.14
879.444	3662.01
879.762	3617.49
880.08	3667.43
880.398	3653.65
880.716	3632.86
881.034	3624.72
881.352	3635.12
881.67	3614.78
881.988	3600.77
882.306	3597.15
882.624	3571.62
882.941	3568
883.259	3574.33
883.577	3534.1
883.894	3515.12
884.212	3540.2
884.529	3595.12
884.846	3583.82
885.164	3528.9
885.481	3587.43
885.798	3506.53
886.115	3506.98
886.432	3542.69
886.75	3523.03
887.067	3573.2
887.383	3518.51
887.7	3501.11
888.017	3494.1
888.334	3514.67
888.651	3496.59
888.967	3463.14
889.284	3443.71
889.6	3480.54
889.917	3426.31
890.233	3493.65
890.55	3441.9
890.866	3378.17
891.182	3400.55
891.498	3422.01
891.815	3390.83
892.131	3382.69
892.447	3386.31
892.763	3371.85
893.079	3360.32
893.395	3398.51
893.71	3345.41
894.026	3350.38
894.342	3314.22
894.657	3297.5
894.973	3304.5
895.289	3285.75
895.604	3246.65
895.92	3221.12
896.235	3223.15
896.55	3211.17
896.865	3227.44
897.181	3183.6
897.496	3196.26
897.811	3225.18
898.126	3171.63
898.441	3203.26
898.756	3141.34
899.071	3150.61
899.386	3121.01
899.7	3181.57
900.015	3142.47
900.33	3125.53
900.644	3083.27
900.959	3102.02
901.273	3105.86
901.588	3097.96
901.902	3050.27
902.216	3064.06
902.531	3064.74
902.845	3035.36
903.159	2996.94
903.473	3028.58
903.787	3049.14
904.101	3023.15
904.415	3006.66
904.729	2979.09
905.042	2944.96
905.356	2938.64
905.67	2947.68
905.984	2943.16
906.297	2943.84
906.611	2939.32
906.924	2937.06
907.237	2947.45
907.551	2916.04
907.864	2916.49
908.177	2883.05
908.491	2917.85
908.804	2863.61
909.117	2861.35
909.43	2850.05
909.743	2829.94
910.056	2825.65
910.368	2790.17
910.681	2766.44
910.994	2834.91
911.307	2777.29
911.619	2773.9
911.932	2782.03
912.244	2771.86
912.557	2756.04
912.869	2745.87
913.181	2702.26
913.494	2737.96
913.806	2707.23
914.118	2691.64
914.43	2700.9
914.742	2668.36
915.054	2664.75
915.366	2645.09
915.678	2655.93
915.99	2651.87
916.302	2668.14
916.613	2639.89
916.925	2597.63
917.236	2603.73
917.548	2620.91
917.859	2590.17
918.171	2571.64
918.482	2541.36
918.794	2556.95
919.105	2535.26
919.416	2530.51
919.727	2520.34
920.038	2530.74
920.349	2499.1
920.66	2497.97
920.971	2502.94
921.282	2467.01
921.593	2427.24
921.903	2431.08
922.214	2436.5
922.525	2439.67
922.835	2418.88
923.146	2406
923.456	2408.03
923.767	2393.34
924.077	2385.88
924.387	2369.84
924.697	2363.74
925.008	2383.4
925.318	2369.84
925.628	2351.99
925.938	2358.31
926.248	2332.33
926.558	2355.38
926.867	2358.54
927.177	2330.29
927.487	2302.72
927.796	2269.73
928.106	2294.81
928.416	2268.82
928.725	2302.5
929.034	2248.03
929.344	2258.88
929.653	2246.45
929.962	2224.08
930.271	2211.2
930.581	2227.24
930.89	2210.52
931.199	2176.17
931.508	2191.99
931.817	2180.69
932.125	2187.24
932.434	2222.5
932.743	2180.69
933.051	2150.64
933.36	2153.57
933.669	2151.31
933.977	2107.02
934.286	2117.42
934.594	2115.16
934.902	2114.25
935.21	2113.12
935.519	2070.86
935.827	2067.7
936.135	2086.91
936.443	2070.64
936.751	2042.62
937.059	2063.18
937.367	2023.86
937.674	2062.95
937.982	2052.79
938.29	2012.33
938.597	2017.76
938.905	2014.37
939.213	2012.11
939.52	1985.67
939.827	1984.76
940.135	2013.92
940.442	1963.97
940.749	2013.46
941.056	1970.3
941.363	1955.84
941.67	1960.81
941.977	1930.75
942.284	1925.56
942.591	1899.34
942.898	1914.71
943.205	1900.92
943.511	1870.19
943.818	1890.98
944.125	1886.01
944.431	1877.65
944.738	1858.21
945.044	1832.68
945.35	1862.28
945.657	1860.47
945.963	1851.66
946.269	1814.37
946.575	1836.75
946.881	1816.63
947.187	1827.03
947.493	1844.43
947.799	1800.59
948.105	1788.61
948.41	1791.1
948.716	1797.88
949.022	1784.54
949.327	1760.14
949.633	1757.2
949.938	1763.98
950.244	1750.87
950.549	1731.89
950.854	1733.02
951.16	1739.57
951.465	1715.17
951.77	1722.17
952.075	1725.34
952.38	1723.98
952.685	1695.05
952.99	1696.86
953.294	1712.91
953.599	1646.02
953.904	1686.92
954.209	1670.2
954.513	1668.61
954.818	1661.16
955.122	1648.05
955.426	1630.88
955.731	1660.7
956.035	1666.35
956.339	1662.96
956.643	1603.53
956.948	1603.53
957.252	1625.9
957.556	1585.45
957.86	1625.9
958.163	1612.8
958.467	1573.93
958.771	1561.05
959.075	1577.32
959.378	1554.94
959.682	1588.39
959.985	1548.84
960.289	1562.85
960.592	1553.59
960.896	1517.66
961.199	1512.46
961.502	1530.54
961.805	1519.69
962.108	1512.69
962.411	1515.62
962.714	1483.76
963.017	1495.29
963.32	1490.54
963.623	1467.72
963.926	1471.78
964.228	1445.12
964.531	1454.38
964.833	1459.13
965.136	1444.89
965.438	1480.6
965.741	1449.41
966.043	1451.44
966.345	1453.93
966.648	1413.93
966.95	1424.55
967.252	1435.63
967.554	1437.89
967.856	1413.71
968.158	1396.31
968.46	1394.72
968.761	1400.15
969.063	1377.32
969.365	1395.18
969.666	1357.21
969.968	1370.32
970.269	1335.06
970.571	1369.64
970.872	1389.75
971.174	1351.33
971.475	1358.34
971.776	1363.99
972.077	1360.15
972.378	1353.59
972.679	1346.81
972.98	1340.26
973.281	1346.36
973.582	1341.84
973.883	1331.45
974.183	1301.84
974.484	1306.82
974.785	1300.04
975.085	1307.04
975.386	1305.46
975.686	1317.21
975.986	1302.3
976.287	1291.45
976.587	1276.76
976.887	1277.44
977.187	1281.28
977.487	1267.95
977.787	1234.5
978.087	1246.7
978.387	1262.07
978.687	1279.47
978.987	1265.91
979.286	1255.29
979.586	1237.21
979.885	1238.57
980.185	1215.52
980.484	1235.63
980.784	1213.49
981.083	1245.57
981.382	1226.14
981.682	1208.51
981.981	1197.44
982.28	1194.73
982.579	1192.69
982.878	1192.02
983.177	1159.25
983.475	1192.02
983.774	1168.74
984.073	1169.19
984.372	1163.54
984.67	1174.62
984.969	1154.05
985.267	1176.88
985.566	1152.47
985.864	1158.57
986.162	1147.5
986.461	1129.87
986.759	1125.58
987.057	1105.01
987.355	1125.35
987.653	1131.68
987.951	1083.54
988.249	1116.99
988.547	1094.17
988.844	1076.99
989.142	1126.93
989.44	1084.45
989.737	1084.22
990.035	1075.64
990.332	1067.5
990.63	1075.41
990.927	1074.05
991.224	1059.59
991.521	1074.73
991.819	1075.18
992.116	1055.07
992.413	1079.48
992.71	1053.72
993.006	1048.74
993.303	1034.73
993.6	1024.79
993.897	997.22
994.193	1027.73
994.49	1030.89
994.787	1016.88
995.083	1029.31
995.379	1014.62
995.676	1018.91
995.972	1013.72
996.268	995.86
996.565	1008.29
996.861	985.69
997.157	1025.92
997.453	954.51
997.749	983.43
998.044	986.15
998.34	977.11
998.636	984.56
998.932	953.15
999.227	969.88
999.523	980.95
999.818	993.15
1000.114	959.71
1000.409	972.36
1000.704	951.8
1001	947.28
1001.295	940.95
1001.59	941.4
1001.885	935.75
1002.18	911.57
1002.475	933.27
1002.77	905.24
1003.065	895.3
1003.359	915.41
1003.654	907.96
1003.949	906.83
1004.243	915.87
1004.538	881.97
1004.832	916.32
1005.127	894.85
1005.421	914.06
1005.715	899.59
1006.009	880.61
1006.304	869.54
1006.598	876.32
1006.892	870.67
1007.186	863.66
1007.48	862.31
1007.773	863.21
1008.067	851.23
1008.361	865.47
1008.655	846.26
1008.948	861.63
1009.242	852.36
1009.535	848.52
1009.829	851.91
1010.122	843.1
1010.415	862.31
1010.708	844.91
1011.001	854.62
1011.295	806.49
1011.588	810.33
1011.881	810.11
1012.173	807.85
1012.466	798.13
1012.759	798.58
1013.052	790.45
1013.344	789.32
1013.637	812.37
1013.93	804.68
1014.222	779.15
1014.514	787.73
1014.807	768.52
1015.099	784.57
1015.391	772.59
1015.683	775.76
1015.976	738.7
1016.268	779.15
1016.56	771.46
1016.851	761.52
1017.143	757.45
1017.435	765.59
1017.727	752.03
1018.018	733.05
1018.31	736.21
1018.602	723.33
1018.893	725.59
1019.185	760.16
1019.476	716.32
1019.767	710
1020.058	713.16
1020.35	682.43
1020.641	686.04
1020.932	718.58
1021.223	707.06
1021.514	710.67
1021.804	697.34
1022.095	717
1022.386	686.95
1022.677	694.63
1022.967	685.59
1023.258	682.88
1023.548	686.27
1023.839	672.26
1024.129	666.83
1024.419	674.06
1024.709	659.15
1025	662.54
1025.29	657.12
1025.58	651.01
1025.87	663.89
1026.16	638.58
1026.449	658.25
1026.739	663.22
1027.029	670
1027.319	638.81
1027.608	647.62
1027.898	644.01
1028.187	628.87
1028.477	618.92
1028.766	631.81
1029.055	623.44
1029.344	639.04
1029.634	622.99
1029.923	620.96
1030.212	621.86
1030.501	625.48
1030.79	618.92
1031.078	611.69
1031.367	586.16
1031.656	613.73
1031.945	604.01
1032.233	599.49
1032.522	593.16
1032.81	600.85
1033.099	611.92
1033.387	596.1
1033.675	599.49
1033.963	589.32
1034.251	573.5
1034.54	577.34
1034.828	582.09
1035.116	559.72
1035.403	580.96
1035.691	569.43
1035.979	564.91
1036.267	579.38
1036.554	563.33
1036.842	578.47
1037.129	539.15
1037.417	554.97
1037.704	575.54
1037.992	544.58
1038.279	565.59
1038.566	537.8
1038.853	537.8
1039.14	537.8
