Data from foam_black_FLMS001491_00095.txt Node
Date: Wed Feb 08 10:45:05 GMT 2017
User: dcchb
Spectrometer: FLMS00149
Trigger mode: 0
Integration Time (sec): 2.000000E-2
Scans to average: 10
Electric dark correction enabled: true
Nonlinearity correction enabled: false
Boxcar width: 0
XAxis mode: Wavelengths
Number of Pixels in Spectrum: 2048
>>>>>Begin Spectral Data<<<<<
341.393	-22.39
341.776	-22.39
342.16	-22.39
342.543	-61.03
342.927	-70.75
343.31	-62.39
343.693	-62.61
344.077	-61.26
344.46	-68.03
344.843	-53.57
345.226	-37.53
345.61	-34.14
345.993	-1.14
346.376	-23.74
346.759	7.67
347.142	28.23
347.525	25.97
347.908	39.76
348.291	72.98
348.674	102.81
349.057	126.99
349.44	105.97
349.823	143.26
350.206	150.04
350.588	188.46
350.971	201.79
351.354	178.29
351.737	201.11
352.119	221.22
352.502	244.05
352.884	238.4
353.267	263.48
353.65	267.78
354.032	273.43
354.414	267.55
354.797	284.95
355.179	295.8
355.562	311.39
355.944	300.09
356.326	307.32
356.709	288.79
357.091	319.98
357.473	311.39
357.855	315.01
358.238	312.97
358.62	303.25
359.002	326.53
359.384	334.21
359.766	321.11
360.148	305.51
360.53	309.13
360.912	302.58
361.294	303.48
361.676	292.18
362.057	327.89
362.439	309.81
362.821	297.38
363.203	306.42
363.584	300.77
363.966	298.28
364.348	285.85
364.729	281.79
365.111	293.31
365.493	300.54
365.874	266.65
366.256	287.44
366.637	283.59
367.019	282.46
367.4	291.73
367.781	297.83
368.163	283.59
368.544	267.78
368.925	291.73
369.306	300.99
369.688	285.85
370.069	288.57
370.45	266.65
370.831	278.4
371.212	297.61
371.593	276.81
371.974	278.85
372.355	286.53
372.736	286.31
373.117	270.26
373.498	283.82
373.879	285.85
374.26	287.66
374.641	283.82
375.021	272.3
375.402	281.11
375.783	301.67
376.163	285.85
376.544	296.25
376.925	283.37
377.305	296.7
377.686	295.8
378.066	297.38
378.447	303.25
378.827	282.01
379.208	278.17
379.588	291.5
379.968	301.67
380.349	296.48
380.729	297.61
381.109	294.67
381.489	300.09
381.87	300.09
382.25	307.77
382.63	285.85
383.01	287.89
383.39	295.12
383.77	322.46
384.15	308
384.53	310.03
384.91	302.12
385.29	305.74
385.67	282.92
386.049	308.23
386.429	308.68
386.809	296.25
387.189	298.51
387.568	316.59
387.948	311.84
388.328	299.86
388.707	317.04
389.087	304.38
389.466	300.32
389.846	284.72
390.225	293.54
390.605	302.8
390.984	331.05
391.363	311.39
391.743	284.72
392.122	300.99
392.501	318.4
392.881	329.92
393.26	307.32
393.639	312.75
394.018	314.1
394.397	312.52
394.776	341.9
395.155	319.75
395.534	317.04
395.913	308
396.292	330.15
396.671	344.84
397.05	336.7
397.429	316.14
397.808	316.81
398.186	345.51
398.565	317.27
398.944	344.16
399.323	293.54
399.701	316.14
400.08	329.47
400.458	330.6
400.837	322.46
401.215	322.24
401.594	321.79
401.972	335.12
402.351	323.59
402.729	308.9
403.107	321.56
403.486	322.46
403.864	321.33
404.242	306.42
404.62	323.59
404.999	318.4
405.377	331.95
405.755	354.33
406.133	340.32
406.511	342.8
406.889	340.54
407.267	311.62
407.645	340.32
408.023	348.23
408.401	319.3
408.779	347.1
409.156	334.89
409.534	334.44
409.912	365.4
410.29	345.74
410.667	343.93
411.045	328.34
411.422	325.4
411.8	350.03
412.178	350.94
412.555	357.72
412.933	345.06
413.31	367.21
413.687	350.03
414.065	368.34
414.442	362.69
414.819	350.26
415.197	365.85
415.574	337.38
415.951	356.81
416.328	353.42
416.705	351.16
417.082	346.19
417.46	340.99
417.837	364.95
418.214	358.17
418.591	353.42
418.967	373.76
419.344	364.72
419.721	372.86
420.098	360.88
420.475	362.91
420.852	366.76
421.228	358.39
421.605	382.8
421.982	338.06
422.358	385.74
422.735	382.35
423.111	391.61
423.488	369.47
423.864	377.38
424.241	383.48
424.617	390.26
424.994	382.57
425.37	395.68
425.746	392.52
426.123	386.19
426.499	388.45
426.875	389.81
427.251	389.81
427.627	398.85
428.003	399.52
428.379	405.17
428.756	402.69
429.132	394.33
429.507	402.91
429.883	390.48
430.259	406.08
430.635	376.25
431.011	402.69
431.387	402.91
431.763	424.38
432.138	413.99
432.514	399.98
432.89	399.07
433.265	396.13
433.641	416.25
434.016	406.3
434.392	417.6
434.767	418.51
435.143	418.96
435.518	434.32
435.894	418.51
436.269	413.31
436.644	435.68
437.02	440.88
437.395	422.35
437.77	441.56
438.145	413.99
438.52	409.47
438.895	420.31
439.271	460.09
439.646	444.27
440.021	422.35
440.395	402.69
440.77	434.55
441.145	433.42
441.52	444.04
441.895	444.72
442.27	431.16
442.645	438.17
443.019	434.78
443.394	436.13
443.769	452.86
444.143	454.21
444.518	453.08
444.892	465.06
445.267	472.06
445.641	446.53
446.016	446.53
446.39	461.22
446.764	473.42
447.139	452.4
447.513	460.54
447.887	470.48
448.262	484.27
448.636	451.95
449.01	452.18
449.384	473.87
449.758	468
450.132	468
450.506	480.88
450.88	457.83
451.254	505.28
451.628	477.26
452.002	476.58
452.376	477.26
452.75	479.3
453.123	473.65
453.497	483.36
453.871	482.46
454.244	489.92
454.618	473.19
454.992	490.59
455.365	496.7
455.739	502.35
456.112	509.13
456.486	483.81
456.859	491.72
457.232	503.7
457.606	506.19
457.979	500.09
458.352	510.25
458.725	498.28
459.099	520.88
459.472	541.67
459.845	503.93
460.218	535.79
460.591	518.84
460.964	519.07
461.337	552.06
461.71	524.04
462.083	545.96
462.456	537.37
462.829	553.42
463.201	546.86
463.574	553.64
463.947	566.52
464.32	550.03
464.692	543.93
465.065	549.35
465.438	539.18
465.81	571.04
466.183	606.75
466.555	584.15
466.928	564.72
467.3	570.82
467.672	589.57
468.045	591.83
468.417	594.32
468.789	592.74
469.161	603.59
469.534	620.08
469.906	609.46
470.278	639.74
470.65	617.14
471.022	626.86
471.394	644.49
471.766	635.45
472.138	633.19
472.51	625.51
472.882	660.99
473.253	635
473.625	648.56
473.997	658.95
474.369	658.95
474.74	686.3
475.112	665.28
475.484	654.66
475.855	667.99
476.227	676.13
476.598	704.15
476.97	688.78
477.341	698.72
477.713	715.45
478.084	713.64
478.455	707.76
478.827	753.19
479.198	749.57
479.569	726.97
479.94	748.67
480.311	748.89
480.682	743.02
481.053	783.92
481.424	798.16
481.795	787.76
482.166	780.76
482.537	790.47
482.908	811.49
483.279	812.62
483.65	811.94
484.021	804.26
484.391	842.9
484.762	849
485.133	853.3
485.503	855.1
485.874	905.27
486.244	842
486.615	887.19
486.985	896.01
487.356	909.11
487.726	910.02
488.097	906.18
488.467	909.57
488.837	939.4
489.207	963.12
489.578	966.29
489.948	969
490.318	995.21
490.688	995.21
491.058	993.63
491.428	1011.71
491.798	989.11
492.168	1020.07
492.538	1040.41
492.908	1035.89
493.278	1056
493.648	1013.74
494.017	1040.18
494.387	1049.9
494.757	1070.24
495.126	1079.96
495.496	1063.69
495.866	1091.26
496.235	1090.8
496.605	1096
496.974	1099.62
497.344	1102.78
497.713	1103.01
498.082	1090.8
498.452	1093.29
498.821	1095.1
499.19	1133.74
499.559	1105.72
499.928	1140.52
500.298	1132.39
500.667	1153.63
501.036	1138.26
501.405	1148.2
501.774	1130.35
502.143	1159.05
502.512	1163.57
502.88	1191.37
503.249	1153.4
503.618	1192.04
503.987	1156.79
504.356	1173.29
504.724	1211.03
505.093	1179.84
505.462	1190.69
505.83	1204.7
506.199	1212.84
506.567	1236.11
506.936	1242.21
507.304	1243.79
507.672	1248.54
508.041	1248.09
508.409	1223.91
508.777	1237.47
509.145	1260.07
509.514	1281.76
509.882	1272.49
510.25	1261.42
510.618	1304.81
510.986	1296.22
511.354	1320.86
511.722	1323.34
512.09	1316.34
512.458	1334.19
512.826	1365.83
513.193	1357.69
513.561	1343
513.929	1383.45
514.297	1392.49
514.664	1421.19
515.032	1391.14
515.4	1427.97
515.767	1405.37
516.135	1431.81
516.502	1417.8
516.869	1443.34
517.237	1448.76
517.604	1456.22
517.972	1460.96
518.339	1472.49
518.706	1491.92
519.073	1504.81
519.44	1501.64
519.808	1500.06
520.175	1509.32
520.542	1516.56
520.909	1532.15
521.276	1529.66
521.643	1531.92
522.009	1559.72
522.376	1571.47
522.743	1556.1
523.11	1579.15
523.477	1606.95
523.843	1566.05
524.21	1583.22
524.577	1609.21
524.943	1610.79
525.31	1609.21
525.676	1620.73
526.043	1614.41
526.409	1647.17
526.776	1633.84
527.142	1628.87
527.508	1663.9
527.874	1646.04
528.241	1700.28
528.607	1666.38
528.973	1680.85
529.339	1678.59
529.705	1690.79
530.071	1674.07
530.437	1695.99
530.803	1720.39
531.169	1755.42
531.535	1694.63
531.901	1731.47
532.267	1707.96
532.632	1728.3
532.998	1772.59
533.364	1748.41
533.73	1747.96
534.095	1775.31
534.461	1765.36
534.826	1787.96
535.192	1798.81
535.557	1807.4
535.923	1808.3
536.288	1842.2
536.653	1842.88
537.019	1855.76
537.384	1829.99
537.749	1848.52
538.114	1861.18
538.479	1882.65
538.845	1884.91
539.21	1872.93
539.575	1907.28
539.94	1893.5
540.305	1895.53
540.67	1917.9
541.034	1946.15
541.399	1970.33
541.764	1933.72
542.129	1991.8
542.494	1936.43
542.858	1990.22
543.223	1985.47
543.587	2010.78
543.952	2001.74
544.316	1991.35
544.681	1990.67
545.045	2004.9
545.41	2050.1
545.774	2045.81
546.138	2020.72
546.503	2045.81
546.867	2039.03
547.231	2036.54
547.595	2069.76
547.959	2082.19
548.324	2080.84
548.688	2105.92
549.052	2076.09
549.416	2087.39
549.779	2080.38
550.143	2110.21
550.507	2130.1
550.871	2111.12
551.235	2113.38
551.599	2120.83
551.962	2107.28
552.326	2119.25
552.689	2114.96
553.053	2149.53
553.417	2126.48
553.78	2143.66
554.143	2127.84
554.507	2147.05
554.87	2118.8
555.234	2131.46
555.597	2136.88
555.96	2182.75
556.323	2142.3
556.686	2178.01
557.05	2191.34
557.413	2160.61
557.776	2180.49
558.139	2205.35
558.502	2200.38
558.865	2197.89
559.228	2215.97
559.59	2248.29
559.953	2228.85
560.316	2286.48
560.679	2273.37
561.041	2242.41
561.404	2253.49
561.767	2273.15
562.129	2259.36
562.492	2316.99
562.854	2307.72
563.217	2324.44
563.579	2305.69
563.941	2321.05
564.304	2343.88
564.666	2367.83
565.028	2364.22
565.39	2391.56
565.753	2372.13
566.115	2375.06
566.477	2431.56
566.839	2409.19
567.201	2435.85
567.563	2433.37
567.925	2446.7
568.287	2461.39
568.648	2500.49
569.01	2501.16
569.372	2520.15
569.734	2526.25
570.095	2520.37
570.457	2564.21
570.819	2546.13
571.18	2604.21
571.542	2614.15
571.903	2593.14
572.265	2634.04
572.626	2597.21
572.987	2583.19
573.349	2644.21
573.71	2663.64
574.071	2678.33
574.432	2689.41
574.794	2726.24
575.155	2683.08
575.516	2665.68
575.877	2674.72
576.238	2678.11
576.599	2707.94
576.96	2681.27
577.32	2714.04
577.681	2746.58
578.042	2706.58
578.403	2769.4
578.763	2735.28
579.124	2716.07
579.485	2727.82
579.845	2779.57
580.206	2756.07
580.566	2776.64
580.927	2733.47
581.287	2762.63
581.648	2740.7
582.008	2748.61
582.368	2757.43
582.728	2738.67
583.089	2744.55
583.449	2730.54
583.809	2738.9
584.169	2751.1
584.529	2780.7
584.889	2764.88
585.249	2720.14
585.609	2725.11
585.969	2712.23
586.329	2757.65
586.688	2752
587.048	2696.41
587.408	2730.31
587.768	2706.36
588.127	2685.34
588.487	2733.93
588.846	2718.11
589.206	2741.38
589.565	2698.45
589.925	2714.26
590.284	2739.57
590.643	2683.08
591.003	2691.44
591.362	2717.88
591.721	2679.01
592.08	2711.55
592.44	2719.01
592.799	2703.87
593.158	2655.06
593.517	2723.98
593.876	2659.58
594.235	2675.17
594.593	2685.79
594.952	2698.67
595.311	2679.01
595.67	2697.32
596.029	2718.78
596.387	2723.98
596.746	2743.87
597.104	2721.72
597.463	2697.99
597.822	2735.51
598.18	2751.55
598.538	2715.85
598.897	2714.26
599.255	2727.15
599.613	2751.55
599.972	2716.52
600.33	2778.9
600.688	2708.16
601.046	2781.38
601.404	2770.99
601.762	2797.65
602.12	2746.35
602.478	2768.5
602.836	2791.55
603.194	2803.3
603.552	2753.59
603.91	2819.57
604.268	2801.95
604.625	2799.46
604.983	2766.24
605.341	2777.54
605.698	2857.54
606.056	2846.01
606.413	2824.09
606.771	2849.63
607.128	2822.96
607.485	2844.2
607.843	2855.5
608.2	2877.42
608.557	2894.83
608.914	2874.26
609.272	2903.64
609.629	2893.02
609.986	2902.73
610.343	2900.02
610.7	2933.92
611.057	2862.74
611.414	2896.63
611.771	2915.62
612.127	2926.91
612.484	2920.36
612.841	2927.82
613.198	2923.3
613.554	2928.5
613.911	2932.11
614.267	2928.27
614.624	2957.42
614.98	2926.91
615.337	2949.74
615.693	2959.91
616.05	2953.35
616.406	2961.26
616.762	2961.04
617.118	2945.9
617.475	2897.08
617.831	2938.21
618.187	2949.06
618.543	2974.14
618.899	2958.33
619.255	2962.39
619.611	2945.22
619.967	2957.2
620.323	2954.26
620.678	2909.74
621.034	2913.36
621.39	2930.08
621.746	2878.33
622.101	2920.14
622.457	2938.67
622.812	2959.23
623.168	2876.07
623.523	2923.07
623.879	2940.25
624.234	2932.56
624.589	2942.96
624.945	2935.28
625.3	2903.86
625.655	2901.83
626.01	2893.02
626.365	2870.19
626.72	2914.94
627.075	2914.49
627.43	2935.5
627.785	2904.99
628.14	2901.15
628.495	2886.01
628.85	2908.84
629.205	2884.2
629.559	2896.86
629.914	2879.91
630.269	2875.39
630.623	2902.06
630.978	2871.55
631.332	2885.56
631.687	2873.58
632.041	2854.6
632.396	2864.09
632.75	2852.79
633.104	2876.52
633.459	2831.55
633.813	2850.31
634.167	2850.76
634.521	2822.96
634.875	2851.21
635.229	2863.41
635.583	2850.08
635.937	2854.37
636.291	2825
636.645	2812.34
636.999	2847.14
637.352	2841.49
637.706	2808.5
638.06	2862.51
638.413	2805.56
638.767	2829.52
639.121	2811.89
639.474	2810.76
639.828	2821.83
640.181	2796.97
640.534	2805.79
640.888	2797.43
641.241	2808.5
641.594	2843.98
641.947	2795.84
642.301	2775.51
642.654	2851.44
643.007	2849.18
643.36	2862.28
643.713	2833.36
644.066	2868.61
644.419	2787.94
644.771	2793.13
645.124	2723.3
645.477	2747.71
645.83	2770.08
646.182	2721.95
646.535	2749.07
646.888	2767.37
647.24	2730.99
647.593	2733.93
647.945	2749.29
648.298	2744.77
648.65	2747.03
649.002	2736.86
649.355	2711.55
649.707	2748.61
650.059	2775.05
650.411	2786.58
650.763	2799.91
651.115	2800.36
651.467	2800.36
651.819	2771.89
652.171	2803.3
652.523	2822.06
652.875	2810.08
653.227	2777.77
653.578	2777.77
653.93	2743.87
654.282	2732.12
654.633	2761.5
654.985	2767.82
655.337	2806.92
655.688	2799.91
656.039	2784.32
656.391	2733.02
656.742	2752.23
657.094	2740.03
657.445	2767.6
657.796	2762.17
658.147	2744.32
658.498	2737.32
658.849	2801.72
659.2	2750.87
659.551	2754.72
659.902	2722.4
660.253	2721.72
660.604	2738.67
660.955	2737.32
661.306	2739.8
661.656	2709.75
662.007	2701.38
662.358	2723.98
662.708	2721.72
663.059	2701.16
663.409	2684.21
663.76	2699.8
664.11	2697.09
664.461	2715.62
664.811	2726.69
665.161	2686.24
665.511	2665.68
665.862	2705.68
666.212	2687.37
666.562	2686.24
666.912	2686.69
667.262	2689.41
667.612	2644.21
667.962	2681.27
668.312	2710.65
668.662	2676.07
669.011	2664.77
669.361	2685.11
669.711	2702.06
670.06	2643.53
670.41	2682.63
670.76	2658.67
671.109	2694.6
671.459	2656.87
671.808	2679.69
672.157	2672.68
672.507	2670.88
672.856	2644.89
673.205	2625.23
673.554	2665.9
673.904	2632.46
674.253	2650.54
674.602	2660.25
674.951	2630.65
675.3	2602.86
675.649	2663.42
675.998	2652.12
676.346	2623.87
676.695	2598.56
677.044	2612.12
677.393	2626.13
677.741	2651.22
678.09	2641.95
678.438	2642.63
678.787	2615.96
679.135	2644.89
679.484	2609.86
679.832	2626.58
680.181	2631.78
680.529	2648.05
680.877	2629.52
681.225	2620.93
681.573	2635.62
681.922	2639.01
682.27	2636.07
682.618	2616.87
682.966	2608.5
683.314	2621.39
683.661	2606.7
684.009	2602.18
684.357	2579.13
684.705	2578.68
685.053	2561.73
685.4	2606.7
685.748	2582.52
686.095	2598.11
686.443	2573.48
686.79	2574.16
687.138	2591.78
687.485	2522.63
687.832	2540.03
688.18	2578.68
688.527	2547.94
688.874	2535.06
689.221	2538
689.568	2530.09
689.915	2509.07
690.262	2533.93
690.609	2529.41
690.956	2528.05
691.303	2519.92
691.65	2532.8
691.997	2484.21
692.344	2502.07
692.69	2502.74
693.037	2505.23
693.383	2478.34
693.73	2458.9
694.077	2476.08
694.423	2465.23
694.769	2487.15
695.116	2433.59
695.462	2445.35
695.808	2463.65
696.155	2468.62
696.501	2436.53
696.847	2416.19
697.193	2442.18
697.539	2400.6
697.885	2412.58
698.231	2391.56
698.577	2409.41
698.923	2394.95
699.269	2398.79
699.614	2385.01
699.96	2346.36
700.306	2319.25
700.651	2376.65
700.997	2359.92
701.342	2359.25
701.688	2339.59
702.033	2363.31
702.379	2345.01
702.724	2364.67
703.069	2356.53
703.415	2322.64
703.76	2332.81
704.105	2323.31
704.45	2318.12
704.795	2279.02
705.14	2304.78
705.485	2278.8
705.83	2279.25
706.175	2265.91
706.52	2306.82
706.865	2251.23
707.209	2276.08
707.554	2258.68
707.899	2286.03
708.243	2269.08
708.588	2253.94
708.932	2229.31
709.277	2240.83
709.621	2257.33
709.966	2255.97
710.31	2208.06
710.654	2212.36
710.998	2238.35
711.342	2187.72
711.687	2188.18
712.031	2202.41
712.375	2220.49
712.719	2237.67
713.063	2216.88
713.407	2188.63
713.75	2171.68
714.094	2202.87
714.438	2188.4
714.782	2201.28
715.125	2169.65
715.469	2168.52
715.812	2158.8
716.156	2141.62
716.499	2144.79
716.843	2182.3
717.186	2153.83
717.53	2159.03
717.873	2159.25
718.216	2163.32
718.559	2133.72
718.902	2164
719.246	2133.94
719.589	2144.34
719.932	2136.65
720.275	2137.1
720.617	2125.58
720.96	2140.27
721.303	2134.17
721.646	2102.53
721.989	2095.52
722.331	2114.51
722.674	2138.91
723.016	2134.62
723.359	2116.09
723.701	2102.08
724.044	2107.28
724.386	2068.18
724.729	2114.28
725.071	2096.43
725.413	2118.8
725.755	2076.77
726.097	2056.88
726.439	2047.62
726.782	2062.3
727.124	2087.39
727.465	2065.69
727.807	2074.51
728.149	2056.2
728.491	2063.66
728.833	2053.04
729.175	2055.98
729.516	2080.84
729.858	2079.25
730.199	2033.15
730.541	2036.77
730.882	2017.79
731.224	2064.79
731.565	2054.85
731.906	2009.88
732.248	2035.64
732.589	2022.98
732.93	1999.03
733.271	2021.18
733.612	2034.06
733.953	2031.8
734.294	2027.5
734.635	1974.85
734.976	2013.94
735.317	2014.4
735.658	1989.99
735.999	2006.03
736.339	2006.94
736.68	1987.05
737.021	1996.77
737.361	1975.08
737.702	2016.88
738.042	1978.46
738.383	1979.14
738.723	1966.04
739.063	1972.82
739.404	1994.28
739.744	1940.5
740.084	1940.05
740.424	1960.61
740.764	1954.74
741.104	1956.32
741.444	1931.46
741.784	1922.2
742.124	1965.58
742.464	1987.05
742.804	1971.46
743.143	1919.26
743.483	1954.51
743.823	1945.47
744.162	1917
744.502	1931.91
744.841	1960.84
745.181	1953.38
745.52	1919.26
745.86	1908.18
746.199	1911.57
746.538	1921.52
746.877	1945.02
747.216	1941.4
747.556	1930.56
747.895	1935.98
748.234	1921.07
748.573	1896.89
748.911	1904.79
749.25	1916.32
749.589	1891.69
749.928	1905.02
750.267	1900.05
750.605	1901.63
750.944	1894.63
751.283	1877.68
751.621	1884.68
751.96	1884.68
752.298	1867.06
752.636	1855.53
752.975	1867.96
753.313	1868.64
753.651	1873.61
753.989	1881.07
754.327	1872.7
754.666	1837.23
755.004	1862.08
755.342	1847.17
755.679	1813.27
756.017	1860.05
756.355	1848.98
756.693	1836.55
757.031	1827.51
757.368	1818.92
757.706	1868.86
758.044	1834.06
758.381	1805.14
758.719	1835.19
759.056	1819.83
759.394	1813.27
759.731	1788.64
760.068	1778.7
760.405	1777.11
760.743	1801.29
761.08	1780.28
761.417	1785.7
761.754	1764.01
762.091	1775.53
762.428	1790.22
762.765	1744.35
763.102	1747.28
763.438	1775.53
763.775	1748.19
764.112	1753.84
764.449	1747.74
764.785	1748.87
765.122	1713.61
765.458	1708.64
765.795	1741.63
766.131	1693.73
766.467	1702.31
766.804	1718.81
767.14	1680.85
767.476	1701.18
767.812	1717.91
768.148	1698.47
768.485	1695.08
768.821	1681.3
769.157	1688.3
769.492	1653.5
769.828	1663.67
770.164	1681.07
770.5	1627.29
770.836	1654.41
771.171	1650.79
771.507	1666.16
771.842	1622.77
772.178	1652.15
772.513	1654.18
772.849	1640.39
773.184	1617.57
773.519	1621.19
773.855	1612.6
774.19	1626.84
774.525	1596.1
774.86	1596.1
775.195	1606.27
775.53	1604.46
775.865	1604.24
776.2	1582.77
776.535	1578.02
776.87	1567.4
777.205	1555.65
777.539	1580.51
777.874	1563.33
778.209	1529.21
778.543	1565.59
778.878	1538.48
779.212	1549.32
779.547	1537.12
779.881	1537.8
780.215	1537.12
780.55	1521.98
780.884	1549.78
781.218	1527.86
781.552	1524.24
781.886	1517.91
782.22	1493.51
782.554	1515.2
782.888	1487.18
783.222	1484.69
783.556	1485.6
783.889	1483.11
784.223	1480.4
784.557	1491.47
784.89	1496.67
785.224	1487.4
785.557	1473.62
785.891	1450.8
786.224	1452.6
786.558	1431.13
786.891	1452.15
787.224	1436.56
787.557	1456.22
787.891	1441.08
788.224	1434.75
788.557	1430.23
788.89	1437.69
789.223	1442.89
789.556	1458.93
789.888	1451.25
790.221	1419.16
790.554	1414.41
790.887	1408.54
791.219	1420.51
791.552	1402.66
791.884	1429.1
792.217	1410.12
792.549	1413.51
792.882	1389.1
793.214	1387.29
793.546	1387.97
793.879	1383.9
794.211	1367.63
794.543	1364.7
794.875	1354.3
795.207	1363.79
795.539	1385.71
795.871	1357.01
796.203	1349.33
796.535	1372.15
796.867	1360.63
797.198	1338.71
797.53	1375.54
797.862	1327.18
798.193	1343.45
798.525	1336.9
798.856	1350.91
799.188	1330.35
799.519	1336.45
799.85	1346.39
800.182	1347.97
800.513	1328.09
800.844	1334.41
801.175	1319.05
801.506	1345.26
801.837	1323.57
802.168	1307.3
802.499	1326.73
802.83	1296.45
803.161	1326.05
803.491	1304.36
803.822	1312.04
804.153	1302.55
804.483	1295.09
804.814	1304.13
805.145	1303.91
805.475	1287.41
805.805	1306.39
806.136	1276.11
806.466	1267.75
806.796	1278.6
807.126	1267.75
807.457	1265.49
807.787	1272.95
808.117	1263.46
808.447	1243.79
808.777	1251.48
809.107	1263.23
809.436	1240.18
809.766	1256.9
810.096	1249.67
810.426	1255.77
810.755	1253.51
811.085	1222.33
811.414	1269.11
811.744	1214.19
812.073	1239.5
812.403	1229.33
812.732	1235.21
813.061	1236.56
813.39	1202.44
813.719	1223.68
814.049	1213.29
814.378	1249.9
814.707	1232.5
815.036	1230.01
815.365	1205.15
815.693	1219.84
816.022	1236.79
816.351	1205.15
816.68	1178.71
817.008	1204.02
817.337	1231.14
817.665	1234.08
817.994	1183.01
818.322	1196.11
818.651	1189.33
818.979	1186.4
819.307	1156.57
819.636	1185.49
819.964	1167.64
820.292	1189.33
820.62	1161.76
820.948	1163.57
821.276	1186.62
821.604	1178.71
821.932	1179.84
822.259	1181.88
822.587	1145.72
822.915	1185.04
823.243	1148.88
823.57	1155.21
823.898	1137.58
824.225	1146.4
824.553	1167.64
824.88	1170.35
825.207	1156.34
825.535	1161.76
825.862	1160.63
826.189	1146.4
826.516	1160.41
826.843	1154.53
827.17	1158.15
827.497	1136.91
827.824	1158.15
828.151	1164.7
828.478	1161.99
828.805	1141.88
829.131	1169.22
829.458	1150.46
829.785	1148.43
830.111	1150.01
830.438	1160.18
830.764	1150.69
831.09	1174.19
831.417	1156.79
831.743	1165.38
832.069	1157.7
832.395	1179.62
832.722	1154.76
833.048	1150.92
833.374	1159.73
833.7	1140.29
834.026	1146.4
834.351	1145.72
834.677	1140.75
835.003	1128.09
835.329	1150.92
835.654	1138.26
835.98	1125.83
836.306	1113.63
836.631	1133.74
836.956	1130.58
837.282	1084.48
837.607	1125.61
837.932	1137.58
838.258	1128.32
838.583	1120.63
838.908	1131.93
839.233	1135.55
839.558	1111.14
839.883	1117.92
840.208	1110.92
840.533	1091.93
840.858	1110.01
841.182	1103.69
841.507	1110.47
841.832	1113.18
842.156	1124.7
842.481	1113.85
842.805	1111.6
843.13	1101.43
843.454	1105.72
843.778	1105.49
844.103	1078.15
844.427	1088.54
844.751	1091.03
845.075	1083.57
845.399	1096.45
845.723	1093.74
846.047	1085.83
846.371	1087.87
846.695	1115.89
847.019	1062.56
847.343	1064.59
847.666	1077.25
847.99	1053.29
848.313	1077.02
848.637	1058.94
848.96	1051.26
849.284	1054.65
849.607	1066.4
849.931	1054.65
850.254	1043.35
850.577	1065.27
850.9	1036.12
851.223	1050.58
851.546	1020.98
851.869	1048.09
852.192	1039.96
852.515	1032.05
852.838	1034.99
853.161	1040.86
853.483	1023.24
853.806	1036.34
854.129	1030.24
854.451	1023.91
854.774	1016.23
855.096	1005.38
855.419	999.96
855.741	1006.74
856.063	1019.39
856.385	1014.87
856.708	1001.77
857.03	1023.01
857.352	1022.78
857.674	1009.45
857.996	1011.48
858.318	1002.45
858.64	1008.32
858.961	1014.87
859.283	1024.82
859.605	988.66
859.926	977.14
860.248	973.07
860.57	956.12
860.891	1007.42
861.212	978.72
861.534	1007.64
861.855	1002.67
862.176	1014.2
862.498	984.82
862.819	999.73
863.14	989.34
863.461	1010.13
863.782	968.1
864.103	977.59
864.424	981.43
864.745	996.57
865.065	995.44
865.386	974.88
865.707	969.68
866.027	973.75
866.348	1001.32
866.668	977.81
866.989	977.81
867.309	973.75
867.63	1006.51
867.95	987.08
868.27	969.23
868.59	975.78
868.91	986.4
869.23	971.94
869.55	993.18
869.87	981.88
870.19	974.88
870.51	977.59
870.83	966.74
871.15	982.11
871.469	975.1
871.789	954.54
872.109	981.88
872.428	990.92
872.748	982.78
873.067	944.59
873.386	975.55
873.706	963.12
874.025	996.57
874.344	979.4
874.663	970.58
874.982	944.82
875.301	969.45
875.62	955.89
875.939	952.5
876.258	937.36
876.577	957.47
876.896	941.88
877.214	968.32
877.533	948.89
877.852	962.45
878.17	963.58
878.489	941.2
878.807	924.71
879.125	960.64
879.444	968.1
879.762	967.87
880.08	945.72
880.398	922
880.716	933.52
881.034	926.52
881.352	961.54
881.67	948.44
881.988	919.96
882.306	930.13
882.624	936.68
882.941	924.71
883.259	953.63
883.577	919.96
883.894	930.36
884.212	934.88
884.529	933.29
884.846	913.63
885.164	933.97
885.481	907.98
885.798	918.61
886.115	928.55
886.432	948.89
886.75	919.51
887.067	913.41
887.383	915.22
887.7	906.18
888.017	913.18
888.334	936.23
888.651	906.63
888.967	927.65
889.284	915.89
889.6	908.89
889.917	882.9
890.233	886.74
890.55	896.69
890.866	901.43
891.182	900.98
891.498	891.94
891.815	889.45
892.131	888.1
892.447	896.23
892.763	880.41
893.079	866.4
893.395	879.28
893.71	848.78
894.026	876.57
894.342	893.75
894.657	870.25
894.973	822.79
895.289	851.71
895.604	842
895.92	879.06
896.235	865.5
896.55	856.46
896.865	827.53
897.181	847.2
897.496	832.96
897.811	854.2
898.126	856.23
898.441	869.34
898.756	838.16
899.071	836.8
899.386	833.64
899.7	832.96
900.015	820.76
900.33	830.92
900.644	818.04
900.959	826.4
901.273	830.25
901.588	816.46
901.902	801.32
902.216	805.84
902.531	802
902.845	811.49
903.159	785.73
903.473	802.68
903.787	782.79
904.101	783.02
904.415	773.3
904.729	803.58
905.042	780.53
905.356	790.25
905.67	778.5
905.984	760.64
906.297	790.47
906.611	772.62
906.924	787.08
907.237	780.98
907.551	768.78
907.864	741.44
908.177	803.35
908.491	755.45
908.804	786.63
909.117	747.99
909.43	761.1
909.743	765.84
910.056	773.07
910.368	748.21
910.681	751.83
910.994	738.05
911.307	738.5
911.619	746.18
911.932	743.24
912.244	740.08
912.557	743.7
912.869	727.65
913.181	713.41
913.494	716.8
913.806	712.06
914.118	746.18
914.43	737.37
914.742	738.5
915.054	720.64
915.366	701.21
915.678	727.2
915.99	731.04
916.302	727.42
916.613	707.76
916.925	686.3
917.236	688.1
917.548	686.07
917.859	711.15
918.171	715.67
918.482	696.24
918.794	699.85
919.105	709.35
919.416	686.75
919.727	696.69
920.038	693.75
920.349	690.82
920.66	684.49
920.971	690.82
921.282	713.41
921.593	681.78
921.903	678.16
922.214	677.48
922.525	677.48
922.835	697.37
923.146	654.43
923.456	671.15
923.767	695.11
924.077	681.55
924.387	667.09
924.697	653.98
925.008	668.89
925.318	697.59
925.628	663.47
925.938	651.72
926.248	665.73
926.558	639.52
926.867	637.03
927.177	652.62
927.487	651.72
927.796	655.56
928.106	653.53
928.416	669.35
928.725	648.1
929.034	651.49
929.344	625.73
929.653	649.69
929.962	637.26
930.271	640.87
930.581	664.38
930.89	639.07
931.199	653.08
931.508	647.2
931.817	639.52
932.125	651.49
932.434	638.61
932.743	634.09
933.051	631.61
933.36	633.64
933.669	635.22
933.977	628.67
934.286	622.34
934.594	621.89
934.902	634.55
935.21	640.87
935.519	634.77
935.827	617.14
936.135	618.05
936.443	618.95
936.751	638.84
937.059	659.18
937.367	604.04
937.674	626.86
937.982	609.69
938.29	640.42
938.597	615.11
938.905	621.66
939.213	638.61
939.52	588.44
939.827	614.21
940.135	601.55
940.442	634.77
940.749	625.28
941.056	627.31
941.363	620.76
941.67	615.11
941.977	596.13
942.284	595.45
942.591	610.37
942.898	602.23
943.205	633.64
943.511	612.4
943.818	575.34
944.125	609.69
944.431	607.65
944.738	598.16
945.044	594.55
945.35	604.72
945.657	588.22
945.963	611.5
946.269	587.09
946.575	595.45
946.881	602.46
947.187	594.09
947.493	587.32
947.799	592.51
948.105	598.84
948.41	583.25
948.716	574.43
949.022	585.28
949.327	566.52
949.633	590.03
949.938	580.54
950.244	584.6
950.549	572.4
950.854	590.7
951.16	564.26
951.465	576.02
951.77	570.14
952.075	591.83
952.38	559.97
952.685	576.47
952.99	583.02
953.294	593.42
953.599	592.96
953.904	581.44
954.209	576.69
954.513	573.98
954.818	561.55
955.122	550.93
955.426	575.34
955.731	559.52
956.035	562.23
956.339	557.49
956.643	571.95
956.948	550.48
957.252	546.86
957.556	567.43
957.86	585.28
958.163	562.68
958.467	556.13
958.771	541.44
959.075	545.28
959.378	569.46
959.682	565.17
959.985	578.05
960.289	544.38
960.592	552.06
960.896	553.19
961.199	533.76
961.502	566.75
961.805	542.8
962.108	548.22
962.411	547.54
962.714	557.26
963.017	526.75
963.32	552.51
963.623	535.57
963.926	529.46
964.228	538.28
964.531	527.43
964.833	538.28
965.136	517.03
965.438	533.76
965.741	549.8
966.043	528.56
966.345	544.38
966.648	523.59
966.95	516.81
967.252	501.67
967.554	505.74
967.856	505.96
968.158	526.3
968.46	531.5
968.761	534.66
969.063	504.61
969.365	509.8
969.666	504.61
969.968	509.35
970.269	527.88
970.571	520.2
970.872	531.72
971.174	530.14
971.475	524.49
971.776	514.77
972.077	499.86
972.378	519.52
972.679	510.48
972.98	496.47
973.281	513.42
973.582	506.64
973.883	521.78
974.183	494.66
974.484	518.39
974.785	493.31
975.085	511.16
975.386	477.94
975.686	479.97
975.986	498.5
976.287	491.05
976.587	496.92
976.887	503.48
977.187	469.35
977.487	511.38
977.787	495.34
978.087	500.09
978.387	511.38
978.687	496.7
978.987	454.21
979.286	484.72
979.586	468.9
979.885	488.79
980.185	470.71
980.484	476.36
980.784	501.89
981.083	458.28
981.382	466.87
981.682	473.42
981.981	474.78
982.28	468.9
982.579	489.46
982.878	470.93
983.177	479.75
983.475	458.28
983.774	474.1
984.073	454.66
984.372	475
984.67	459.63
984.969	478.62
985.267	466.41
985.566	469.35
985.864	483.14
986.162	456.7
986.461	483.36
986.759	454.21
987.057	468.45
987.355	468.22
987.653	458.5
987.951	436.58
988.249	452.4
988.547	446.3
988.844	460.31
989.142	449.01
989.44	450.37
989.737	469.58
990.035	445.17
990.332	448.79
990.63	443.14
990.927	432.52
991.224	467.32
991.521	437.49
991.819	418.05
992.116	433.65
992.413	445.62
992.71	447.21
993.006	453.76
993.303	456.47
993.6	455.12
993.897	435
994.193	464.38
994.49	449.01
994.787	437.94
995.083	438.39
995.379	414.21
995.676	427.77
995.972	429.35
996.268	435.91
996.565	416.02
996.861	420.99
997.157	426.42
997.453	435.68
997.749	430.71
998.044	423.25
998.34	432.06
998.636	415.57
998.932	436.13
999.227	452.18
999.523	430.03
999.818	432.52
1000.114	423.7
1000.409	440.43
1000.704	425.51
1001	427.32
1001.295	427.32
1001.59	406.53
1001.885	432.52
1002.18	446.3
1002.475	423.03
1002.77	412.18
1003.065	417.6
1003.359	416.02
1003.654	415.34
1003.949	409.69
1004.243	407.43
1004.538	402.69
1004.832	431.16
1005.127	406.53
1005.421	396.13
1005.715	418.73
1006.009	401.78
1006.304	414.44
1006.598	420.77
1006.892	399.98
1007.186	416.92
1007.48	394.1
1007.773	416.25
1008.067	414.89
1008.361	411.5
1008.655	406.75
1008.948	383.03
1009.242	406.75
1009.535	404.27
1009.829	403.82
1010.122	390.48
1010.415	409.24
1010.708	400.43
1011.001	419.41
1011.295	406.08
1011.588	393.65
1011.881	391.16
1012.173	412.4
1012.466	398.85
1012.759	387.09
1013.052	394.33
1013.344	394.1
1013.637	384.38
1013.93	391.39
1014.222	361.56
1014.514	379.86
1014.807	385.29
1015.099	389.58
1015.391	391.61
1015.683	375.34
1015.976	387.55
1016.268	352.52
1016.56	380.99
1016.851	402.69
1017.143	388.9
1017.435	399.07
1017.727	386.42
1018.018	393.65
1018.31	387.55
1018.602	374.67
1018.893	375.8
1019.185	390.48
1019.476	389.58
1019.767	366.76
1020.058	370.6
1020.35	383.03
1020.641	398.62
1020.932	381.44
1021.223	383.93
1021.514	370.6
1021.804	384.61
1022.095	393.65
1022.386	359.52
1022.677	366.3
1022.967	369.92
1023.258	378.06
1023.548	382.12
1023.839	372.86
1024.129	379.18
1024.419	385.29
1024.709	372.18
1025	363.82
1025.29	367.66
1025.58	345.06
1025.87	365.63
1026.16	366.08
1026.449	385.96
1026.739	379.86
1027.029	379.86
1027.319	365.63
1027.608	355.68
1027.898	356.13
1028.187	346.19
1028.477	364.5
1028.766	374.44
1029.055	355.46
1029.344	371.73
1029.634	368.79
1029.923	355.23
1030.212	372.63
1030.501	377.6
1030.79	362.91
1031.078	358.17
1031.367	372.41
1031.656	377.38
1031.945	344.38
1032.233	357.04
1032.522	355
1032.81	379.86
1033.099	361.78
1033.387	374.44
1033.675	355.68
1033.963	346.42
1034.251	377.15
1034.54	352.97
1034.828	373.99
1035.116	369.92
1035.403	344.16
1035.691	371.95
1035.979	376.25
1036.267	371.28
1036.554	340.77
1036.842	364.95
1037.129	345.29
1037.417	360.65
1037.704	353.65
1037.992	374.21
1038.279	360.88
1038.566	333.54
1038.853	333.54
1039.14	333.54
