Data from foam_black_FLMS001491_00087.txt Node
Date: Wed Feb 08 10:44:51 GMT 2017
User: dcchb
Spectrometer: FLMS00149
Trigger mode: 0
Integration Time (sec): 2.000000E-2
Scans to average: 10
Electric dark correction enabled: true
Nonlinearity correction enabled: false
Boxcar width: 0
XAxis mode: Wavelengths
Number of Pixels in Spectrum: 2048
>>>>>Begin Spectral Data<<<<<
341.393	-12.73
341.776	-12.73
342.16	-12.73
342.543	-58.37
342.927	-64.93
343.31	-76
343.693	-65.38
344.077	-79.84
344.46	-63.35
344.843	-42.33
345.226	-42.1
345.61	-41.65
345.993	-11.82
346.376	-12.05
346.759	12.58
347.142	40.38
347.525	51.91
347.908	39.25
348.291	81.28
348.674	98.46
349.057	110.66
349.44	127.38
349.823	129.42
350.206	146.82
350.588	193.82
350.971	218.68
351.354	219.81
351.737	238.34
352.119	225.69
352.502	262.07
352.884	258.45
353.267	280.6
353.65	283.99
354.032	311.33
354.414	306.14
354.797	294.84
355.179	334.38
355.562	297.55
355.944	326.93
356.326	327.6
356.709	360.37
357.091	343.42
357.473	329.41
357.855	340.71
358.238	338.68
358.62	353.37
359.002	342.07
359.384	321.95
359.766	341.39
360.148	331.45
360.53	328.73
360.912	330.99
361.294	349.07
361.676	326.47
362.057	336.42
362.439	320.82
362.821	313.37
363.203	317.66
363.584	324.44
363.966	335.29
364.348	319.02
364.729	305.91
365.111	319.02
365.493	321.05
365.874	307.27
366.256	325.57
366.637	324.21
367.019	320.82
367.4	320.37
367.781	327.6
368.163	312.01
368.544	300.26
368.925	314.5
369.306	320.37
369.688	325.8
370.069	342.52
370.45	311.33
370.831	310.2
371.212	328.51
371.593	337.32
371.974	319.47
372.355	336.87
372.736	320.37
373.117	319.02
373.498	341.16
373.879	329.19
374.26	318.11
374.641	323.31
375.021	335.74
375.402	325.34
375.783	330.09
376.163	342.75
376.544	341.39
376.925	323.76
377.305	317.21
377.686	347.26
378.066	349.52
378.447	335.74
378.827	321.28
379.208	344.1
379.588	337.55
379.968	344.55
380.349	351.33
380.729	358.56
381.109	369.41
381.489	358.79
381.87	370.32
382.25	349.07
382.63	373.25
383.01	356.3
383.39	364.44
383.77	361.95
384.15	361.95
384.53	363.54
384.91	389.75
385.29	376.42
385.67	387.04
386.049	376.42
386.429	375.96
386.809	374.16
387.189	396.53
387.568	374.16
387.948	385.46
388.328	370.32
388.707	382.29
389.087	379.81
389.466	380.48
389.846	389.75
390.225	394.04
390.605	413.93
390.984	403.53
391.363	403.99
391.743	411.67
392.122	412.12
392.501	425.91
392.881	430.65
393.26	437.66
393.639	423.42
394.018	415.29
394.397	440.82
394.776	421.61
395.155	439.92
395.534	418.68
395.913	435.17
396.292	438.79
396.671	422.07
397.05	437.43
397.429	425.45
397.808	428.62
398.186	448.51
398.565	446.25
398.944	441.05
399.323	438.56
399.701	478.11
400.08	450.99
400.458	455.51
400.837	458
401.215	436.08
401.594	466.58
401.972	479.69
402.351	477.66
402.729	472.23
403.107	472.23
403.486	475.62
403.864	467.71
404.242	480.37
404.62	467.04
404.999	469.3
405.377	499.35
405.755	489.18
406.133	506.81
406.511	514.94
406.889	501.16
407.267	523.08
407.645	514.27
408.023	491.89
408.401	520.59
408.779	519.01
409.156	531.67
409.534	545.9
409.912	542.51
410.29	552.68
410.667	551.78
411.045	551.55
411.422	553.36
411.8	580.93
412.178	568.05
412.555	580.25
412.933	558.11
413.31	546.58
413.687	581.61
414.065	600.14
414.442	576.19
414.819	611.21
415.197	617.09
415.574	615.96
415.951	589.52
416.328	625.68
416.705	589.52
417.082	619.8
417.46	625
417.837	636.3
418.214	631.33
418.591	631.55
418.967	663.41
419.344	653.02
419.721	645.56
420.098	661.83
420.475	663.19
420.852	644.21
421.228	649.18
421.605	686.69
421.982	671.55
422.358	682.85
422.735	709.29
423.111	709.29
423.488	718.78
423.864	714.03
424.241	717.65
424.617	714.94
424.994	720.14
425.37	737.09
425.746	727.82
426.123	745.45
426.499	741.83
426.875	743.19
427.251	756.52
427.627	753.36
428.003	781.38
428.379	777.99
428.756	774.82
429.132	784.99
429.507	800.36
429.883	809.85
430.259	814.15
430.635	796.07
431.011	848.72
431.387	829.51
431.763	841.72
432.138	853.47
432.514	863.41
432.89	838.55
433.265	895.05
433.641	879
434.016	895.05
434.392	880.81
434.767	935.72
435.143	895.73
435.518	905.89
435.894	919
436.269	968.72
436.644	952.9
437.02	967.81
437.395	969.4
437.77	947.93
438.145	1007.59
438.52	986.8
438.895	968.72
439.271	1006.46
439.646	1034.48
440.021	1058.88
440.395	1050.52
440.77	1019.11
441.145	1011.88
441.52	1076.06
441.895	1065.89
442.27	1056.62
442.645	1072.22
443.019	1076.74
443.394	1089.39
443.769	1089.39
444.143	1085.1
444.518	1124.65
444.892	1109.96
445.267	1106.34
445.641	1115.61
446.016	1142.95
446.39	1118.09
446.764	1130.07
447.139	1128.49
447.513	1145.44
447.887	1166.23
448.262	1160.35
448.636	1168.94
449.01	1185.89
449.384	1163.29
449.758	1180.24
450.132	1187.02
450.506	1228.37
450.88	1209.62
451.254	1210.29
451.628	1237.64
452.002	1236.96
452.376	1235.38
452.75	1256.39
453.123	1268.82
453.497	1284.42
453.871	1295.26
454.244	1312.44
454.618	1311.53
454.992	1350.85
455.365	1336.84
455.739	1376.84
456.112	1382.04
456.486	1417.97
456.859	1388.37
457.232	1444.64
457.606	1426.11
457.979	1444.86
458.352	1473.11
458.725	1497.74
459.099	1481.02
459.472	1503.39
459.845	1522.38
460.218	1518.76
460.591	1573
460.964	1580.68
461.337	1583.84
461.71	1599.21
462.083	1615.71
462.456	1617.29
462.829	1636.04
463.201	1681.24
463.574	1687.12
463.947	1715.82
464.32	1703.84
464.692	1706.33
465.065	1739.77
465.438	1773.67
465.81	1777.06
466.183	1818.64
466.555	1817.28
466.928	1863.16
467.3	1859.77
467.672	1840.33
468.045	1916.04
468.417	1931.86
468.789	1939.31
469.161	1951.06
469.534	1992.65
469.906	2032.42
470.278	2024.51
470.65	2041.46
471.022	2087.33
471.394	2097.5
471.766	2149.25
472.138	2123.94
472.51	2172.53
472.882	2188.12
473.253	2253.88
473.625	2273.09
473.997	2304.28
474.369	2347.66
474.74	2356.7
475.112	2386.99
475.484	2452.29
475.855	2430.15
476.227	2498.39
476.598	2537.04
476.97	2578.39
477.341	2638.28
477.713	2615.68
478.084	2642.57
478.455	2716.47
478.827	2769.57
479.198	2820.87
479.569	2829.91
479.94	2889.57
480.311	2946.29
480.682	2998.72
481.053	3016.35
481.424	3111.49
481.795	3107.87
482.166	3141.99
482.537	3148.55
482.908	3215.21
483.279	3267.19
483.65	3340.63
484.021	3370.91
484.391	3411.59
484.762	3408.43
485.133	3416.34
485.503	3509.22
485.874	3560.06
486.244	3619.27
486.615	3660.4
486.985	3700.85
487.356	3746.05
487.726	3805.93
488.097	3887.96
488.467	3855.87
488.837	3939.94
489.207	3991.01
489.578	4014.97
489.948	4093.61
490.318	4149.42
490.688	4144.91
491.058	4190.33
491.428	4219.93
491.798	4246.6
492.168	4347.61
492.538	4399.59
492.908	4413.82
493.278	4480.04
493.648	4504.67
494.017	4539.7
494.387	4542.18
494.757	4630.99
495.126	4675.74
495.496	4612.01
495.866	4694.5
496.235	4747.38
496.605	4776.3
496.974	4793.25
497.344	4848.62
497.713	4887.48
498.082	4849.52
498.452	4960.93
498.821	4986.69
499.19	4974.26
499.559	5047.48
499.928	5079.12
500.298	5102.62
500.667	5149.4
501.036	5107.59
501.405	5191.66
501.774	5192.34
502.143	5240.7
502.512	5230.3
502.88	5339.68
503.249	5334.03
503.618	5312.56
503.987	5404.76
504.356	5438.2
504.724	5431.88
505.093	5505.1
505.462	5465.1
505.83	5493.57
506.199	5644.75
506.567	5627.58
506.936	5640.23
507.304	5724.52
507.672	5721.13
508.041	5740.12
508.409	5785.99
508.777	5848.14
509.145	5904.41
509.514	5914.35
509.882	5952.77
510.25	5955.25
510.618	6107.57
510.986	6053.56
511.354	6138.75
511.722	6146.21
512.09	6172.87
512.458	6214.68
512.826	6254.23
513.193	6276.37
513.561	6313.21
513.929	6410.38
514.297	6399.76
514.664	6416.71
515.032	6519.76
515.4	6503.49
515.767	6590.94
516.135	6651.96
516.502	6602.24
516.869	6760.43
517.237	6773.31
517.604	6719.3
517.972	6830.71
518.339	6832.07
518.706	6871.39
519.073	6882.01
519.44	7032.06
519.808	7035.45
520.175	7069.57
520.542	7084.04
520.909	7240.42
521.276	7234.54
521.643	7297.36
522.009	7337.36
522.376	7362.45
522.743	7430.69
523.11	7510.24
523.477	7595.44
523.843	7649.67
524.21	7737.35
524.577	7709.78
524.943	7855.54
525.31	7876.56
525.676	7942.32
526.043	7956.56
526.409	8031.81
526.776	8118.81
527.142	8146.83
527.508	8200.62
527.874	8289.43
528.241	8311.58
528.607	8312.93
528.973	8408.52
529.339	8439.03
529.705	8570.55
530.071	8574.39
530.437	8642.41
530.803	8707.05
531.169	8759.7
531.535	8754.73
531.901	8764.67
532.267	8822.97
532.632	8927.15
532.998	8952.69
533.364	8938
533.73	8970.77
534.095	9103.19
534.461	9081.95
534.826	9076.98
535.192	9217.31
535.557	9300.7
535.923	9269.06
536.288	9299.8
536.653	9383.41
537.019	9352.23
537.384	9460.47
537.749	9446.91
538.114	9474.03
538.479	9469.06
538.845	9523.75
539.21	9572.56
539.575	9624.31
539.94	9625.66
540.305	9685.1
540.67	9691.65
541.034	9753.8
541.399	9851.2
541.764	9828.6
542.129	9789.05
542.494	9943.85
542.858	9931.42
543.223	9955.15
543.587	10018.2
543.952	10015.49
544.316	10039.67
544.681	10077.4
545.045	10125.31
545.41	10186.1
545.774	10247.12
546.138	10216.38
546.503	10216.61
546.867	10241.47
547.231	10340.45
547.595	10346.1
547.959	10459.54
548.324	10509.03
548.688	10532.53
549.052	10562.59
549.416	10546.32
549.779	10546.09
550.143	10678.52
550.507	10646.88
550.871	10719.87
551.235	10774.11
551.599	10851.4
551.962	10882.81
552.326	10909.47
552.689	11003.03
553.053	10959.64
553.417	11012.97
553.78	11184.04
554.143	11051.62
554.507	11283.93
554.87	11212.97
555.234	11346.75
555.597	11294.32
555.96	11405.05
556.323	11450.02
556.686	11501.77
557.05	11570.25
557.413	11666.74
557.776	11661.54
558.139	11770.69
558.502	11714.65
558.865	11829
559.228	11923.91
559.59	12052.72
559.953	12012.95
560.316	12144.92
560.679	12134.98
561.041	12299.27
561.404	12292.04
561.767	12409.77
562.129	12398.93
562.492	12517.79
562.854	12517.57
563.217	12636.43
563.579	12624.68
563.941	12731.8
564.304	12879.82
564.666	12918.91
565.028	12907.39
565.39	12874.85
565.753	13045.24
566.115	13077.78
566.477	13134.05
566.839	13180.37
567.201	13312.12
567.563	13364.1
567.925	13501.95
568.287	13457.2
568.648	13478.45
569.01	13550.99
569.372	13593.02
569.734	13664.2
570.095	13777.87
570.457	13786.46
570.819	13815.84
571.18	13902.16
571.542	13947.81
571.903	13914.14
572.265	14024.19
572.626	14017.19
572.987	14099.22
573.349	14066.45
573.71	14194.13
574.071	14217.41
574.432	14380.34
574.794	14308.71
575.155	14374.01
575.516	14352.09
575.877	14419.66
576.238	14568.59
576.599	14582.6
576.96	14623.5
577.32	14575.14
577.681	14626.89
578.042	14694.23
578.403	14716.83
578.763	14713.89
579.124	14785.08
579.485	14780.56
579.845	14871.63
580.206	14799.54
580.566	14779.43
580.927	14891.97
581.287	14915.47
581.648	14927.67
582.008	14963.38
582.368	14942.59
582.728	15014.45
583.089	14979.2
583.449	14926.32
583.809	14984.62
584.169	14989.59
584.529	14936.94
584.889	14974
585.249	14961.12
585.609	14962.7
585.969	15117.5
586.329	15104.84
586.688	15110.27
587.048	15185.07
587.408	15143.94
587.768	15142.13
588.127	15036.37
588.487	15060.55
588.846	15206.76
589.206	15160.43
589.565	15102.81
589.925	15190.94
590.284	15233.88
590.643	15211.73
591.003	15185.52
591.362	15255.12
591.721	15261
592.08	15310.26
592.44	15263.93
592.799	15168.12
593.158	15247.89
593.517	15237.49
593.876	15314.55
594.235	15156.14
594.593	15245.4
594.952	15280.21
595.311	15250.83
595.67	15217.38
596.029	15320.2
596.387	15446.98
596.746	15367.66
597.104	15238.17
597.463	15343.03
597.822	15355.91
598.18	15391.39
598.538	15405.63
598.897	15489.24
599.255	15321.11
599.613	15644.26
599.972	15529.92
600.33	15425.74
600.688	15423.03
601.046	15541.67
601.404	15553.64
601.762	15616.24
602.12	15624.38
602.478	15675.68
602.836	15556.58
603.194	15475.91
603.552	15531.72
603.91	15502.12
604.268	15568.33
604.625	15542.35
604.983	15768.33
605.341	15561.1
605.698	15725.62
606.056	15659.18
606.413	15681.55
606.771	15834.99
607.128	15763.36
607.485	15625.73
607.843	15727.88
608.2	15816.69
608.557	15840.64
608.914	15810.14
609.272	15959.74
609.629	15948.21
609.986	15895.56
610.343	15888.78
610.7	16006.29
611.057	15939.62
611.414	15941.88
611.771	16034.99
612.127	16087.42
612.484	16084.25
612.841	16090.81
613.198	15983.69
613.554	16014.65
613.911	16147.53
614.267	16023.69
614.624	16126.96
614.98	16158.37
615.337	16207.19
615.693	16139.62
616.05	16149.11
616.406	16253.74
616.762	16220.52
617.118	16193.18
617.475	16136.45
617.831	16277.02
618.187	16347.07
618.543	16322.44
618.899	16335.55
619.255	16260.97
619.611	16278.6
619.967	16319.05
620.323	16311.36
620.678	16340.97
621.034	16307.07
621.39	16279.28
621.746	16231.14
622.101	16447.18
622.457	16249.22
622.812	16347.07
623.168	16356.11
623.523	16379.61
623.879	16485.6
624.234	16294.19
624.589	16364.24
624.945	16417.8
625.3	16467.07
625.655	16366.5
626.01	16454.86
626.365	16418.25
626.72	16321.08
627.075	16348.65
627.43	16332.16
627.785	16280.41
628.14	16374.41
628.495	16366.5
628.85	16332.38
629.205	16273.4
629.559	16360.63
629.914	16371.02
630.269	16353.17
630.623	16318.82
630.978	16229.79
631.332	16355.43
631.687	16239.73
632.041	16230.92
632.396	16310.91
632.75	16211.03
633.104	16287.64
633.459	16131.03
633.813	16159.96
634.167	16214.19
634.521	16162.44
634.875	16193.4
635.229	16081.54
635.583	16095.78
635.937	16047.42
636.291	16016.68
636.645	16042.45
636.999	16045.38
637.352	16098.49
637.706	16029.56
638.06	16073.41
638.413	15982.56
638.767	15975.78
639.121	15974.65
639.474	15885.16
639.828	15891.26
640.181	15893.97
640.534	15892.17
640.888	15883.58
641.241	15883.35
641.594	15811.04
641.947	15888.1
642.301	15742.11
642.654	15733.75
643.007	15826.63
643.36	15773.75
643.713	15701.21
644.066	15781.44
644.419	15596.81
644.771	15470.48
645.124	15266.42
645.477	15356.14
645.83	15250.6
646.182	15191.17
646.535	15164.28
646.888	15218.74
647.24	15213.77
647.593	15262.35
647.945	15195.24
648.298	15106.65
648.65	15047.67
649.002	15067.78
649.355	15081.34
649.707	15076.14
650.059	15079.98
650.411	15235.69
650.763	15151.17
651.115	15357.72
651.467	15373.08
651.819	15286.31
652.171	15197.5
652.523	15157.27
652.875	15259.87
653.227	15167.67
653.578	15246.31
653.93	15222.35
654.282	15177.16
654.633	15167.21
654.985	15098.29
655.337	15205.41
655.688	15133.99
656.039	15159.3
656.391	15095.58
656.742	15147.1
657.094	15214.9
657.445	15230.72
657.796	15127.22
658.147	15048.8
658.498	15081.57
658.849	15154.56
659.2	15126.31
659.551	15002.47
659.902	15056.93
660.253	14995.92
660.604	14959.76
660.955	15018.74
661.306	14994.34
661.656	15081.57
662.007	14939.2
662.358	14962.25
662.708	14938.97
663.059	15022.13
663.409	14768.13
663.76	14928.35
664.11	14915.7
664.461	14959.54
664.811	14984.85
665.161	14923.83
665.511	14883.61
665.862	14969.25
666.212	14912.08
666.562	14830.95
666.912	14876.15
667.262	14858.3
667.612	14827.11
667.962	14964.28
668.312	14908.24
668.662	14970.16
669.011	14799.31
669.361	14813.33
669.711	14796.83
670.06	14845.19
670.41	14808.81
670.76	14812.87
671.109	14882.93
671.459	14863.04
671.808	14814.68
672.157	14880.67
672.507	14821.69
672.856	14802.25
673.205	14880.89
673.554	14834.12
673.904	14762.48
674.253	14888.35
674.602	14755.25
674.951	14525.2
675.3	14532.2
675.649	14655.82
675.998	14676.83
676.346	14631.18
676.695	14668.92
677.044	14558.64
677.393	14689.94
677.741	14654.69
678.09	14618.3
678.438	14564.74
678.787	14614.01
679.135	14725.42
679.484	14472.77
679.832	14569.04
680.181	14447.23
680.529	14487.01
680.877	14387.12
681.225	14441.36
681.573	14480.45
681.922	14355.03
682.27	14268.71
682.618	14324.98
682.966	14347.12
683.314	14374.24
683.661	14275.49
684.009	14239.55
684.357	14180.35
684.705	14057.64
685.053	14131.54
685.4	14050.41
685.748	14060.58
686.095	14096.28
686.443	14034.81
686.79	14061.03
687.138	14093.8
687.485	14053.12
687.832	14032.78
688.18	13867.36
688.527	13949.17
688.874	13926.79
689.221	13801.83
689.568	13728.83
689.915	13818.32
690.262	13781.26
690.609	13756.18
690.956	13752.11
691.303	13708.72
691.65	13548.05
691.997	13530.87
692.344	13463.53
692.69	13509.63
693.037	13515.73
693.383	13358.9
693.73	13446.36
694.077	13345.79
694.423	13300.82
694.769	13286.59
695.116	13192.12
695.462	13272.12
695.808	13157.1
696.155	13142.63
696.501	13088.17
696.847	13031
697.193	12929.08
697.539	13007.05
697.885	12938.57
698.231	12843.21
698.577	12859.03
698.923	12850.89
699.269	12741.52
699.614	12701.74
699.96	12736.09
700.306	12728.18
700.651	12666.94
700.997	12521.41
701.342	12528.87
701.688	12557.79
702.033	12512.82
702.379	12461.3
702.724	12450.68
703.069	12449.09
703.415	12281.87
703.76	12303.11
704.105	12346.72
704.45	12337.68
704.795	12250.23
705.14	12177.46
705.485	12177.91
705.83	12123.9
706.175	12136.79
706.52	12064.7
706.865	12059.73
707.209	12028.99
707.554	11996.45
707.899	11970.01
708.243	11886.62
708.588	11934.53
708.932	11765.04
709.277	11753.97
709.621	11696.35
709.966	11632.84
710.31	11709
710.654	11564.82
710.998	11610.92
711.342	11633.3
711.687	11559.63
712.031	11546.07
712.375	11484.37
712.719	11487.31
713.063	11468.78
713.407	11436.24
713.75	11444.15
714.094	11441.21
714.438	11333.87
714.782	11392.85
715.125	11356.47
715.469	11321.44
715.812	11197.38
716.156	11143.59
716.499	11182.23
716.843	11225.17
717.186	11144.5
717.53	11229.24
717.873	11238.73
718.216	11156.7
718.559	11097.72
718.902	11026.76
719.246	11048.9
719.589	10944.5
719.932	11033.99
720.275	10937.49
720.617	10964.16
720.96	10942.24
721.303	10991.05
721.646	10942.01
721.989	10822.47
722.331	10847.33
722.674	10785.86
723.016	10896.59
723.359	10829.7
723.701	10880.1
724.044	10822.7
724.386	10740.66
724.729	10696.15
725.071	10691.17
725.413	10676.71
725.755	10678.52
726.097	10655.92
726.439	10597.62
726.782	10625.41
727.124	10680.33
727.465	10554.23
727.807	10526.43
728.149	10523.27
728.491	10481.01
728.833	10546.77
729.175	10412.31
729.516	10424.97
729.858	10449.37
730.199	10505.19
730.541	10495.02
730.882	10470.16
731.224	10447.79
731.565	10355.59
731.906	10342.71
732.248	10351.3
732.589	10252.77
732.93	10256.16
733.271	10211.19
733.612	10255.48
733.953	10288.02
734.294	10203.28
734.635	10245.08
734.976	10321.92
735.317	10221.13
735.658	10158.53
735.999	10134.35
736.339	10112.66
736.68	10082.15
737.021	10096.39
737.361	10036.95
737.702	10057.74
738.042	10115.82
738.383	10042.15
738.723	9994.24
739.063	10025.2
739.404	10054.35
739.744	9986.79
740.084	9928.03
740.424	9900.46
740.764	9895.26
741.104	9944.98
741.444	9924.41
741.784	9879.67
742.124	9860.91
742.464	9852.33
742.804	9830.86
743.143	9771.2
743.483	9800.8
743.823	9822.95
744.162	9791.31
744.502	9822.5
744.841	9705.21
745.181	9756.06
745.52	9671.54
745.86	9727.36
746.199	9590.41
746.538	9625.66
746.877	9635.38
747.216	9670.86
747.556	9610.98
747.895	9588.15
748.234	9604.42
748.573	9545.22
748.911	9549.96
749.25	9573.69
749.589	9536.85
749.928	9513.13
750.267	9548.6
750.605	9456.18
750.944	9452.79
751.283	9379.34
751.621	9408.27
751.96	9343.86
752.298	9401.94
752.636	9377.31
752.975	9322.62
753.313	9277.88
753.651	9280.36
753.989	9246.47
754.327	9276.75
754.666	9165.34
755.004	9166.02
755.342	9205.79
755.679	9168.95
756.017	9129.86
756.355	9193.59
756.693	9083.98
757.031	9107.26
757.368	9077.88
757.706	9058.45
758.044	8990.2
758.381	9033.14
758.719	8955.85
759.056	8960.15
759.394	8933.48
759.731	8841.28
760.068	8802.18
760.405	8745.01
760.743	8827.49
761.08	8801.28
761.417	8791.79
761.754	8771.45
762.091	8747.95
762.428	8727.38
762.765	8627.5
763.102	8638.35
763.438	8556.54
763.775	8598.57
764.112	8560.16
764.449	8603.54
764.785	8516.32
765.122	8511.12
765.458	8499.59
765.795	8454.4
766.131	8401.52
766.467	8348.41
766.804	8318.58
767.14	8366.94
767.476	8356.09
767.812	8288.07
768.148	8313.16
768.485	8201.75
768.821	8137.34
769.157	8171.92
769.492	8123.11
769.828	8126.95
770.164	8069.55
770.5	8016.22
770.836	8017.35
771.171	8018.25
771.507	7962.66
771.842	7890.34
772.178	8010.11
772.513	7939.38
772.849	7907.07
773.184	7838.82
773.519	7841.76
773.855	7817.35
774.19	7776.22
774.525	7696.22
774.86	7695.09
775.195	7694.87
775.53	7675.66
775.865	7656.45
776.2	7620.29
776.535	7577.36
776.87	7537.81
777.205	7583.91
777.539	7547.08
777.874	7560.18
778.209	7482.44
778.543	7480.64
778.878	7420.07
779.212	7421.66
779.547	7295.56
779.881	7430.92
780.215	7287.42
780.55	7315.44
780.884	7277.03
781.218	7244.71
781.552	7251.04
781.886	7247.2
782.22	7153.87
782.554	7142.34
782.888	7059.4
783.222	7040.87
783.556	7067.77
783.889	7077.94
784.223	6951.84
784.557	6961.78
784.89	6959.75
785.224	6886.3
785.557	6893.53
785.891	6792.07
786.224	6849.47
786.558	6846.53
786.891	6752.97
787.224	6815.12
787.557	6783.93
787.891	6749.58
788.224	6742.58
788.557	6732.63
788.89	6758.4
789.223	6684.5
789.556	6681.79
789.888	6622.35
790.221	6621
790.554	6492.41
790.887	6580.1
791.219	6525.41
791.552	6491.06
791.884	6448.8
792.217	6495.8
792.549	6466.2
792.882	6427.33
793.214	6373.55
793.546	6398.18
793.879	6323.83
794.211	6310.5
794.543	6317.5
794.875	6298.75
795.207	6298.29
795.539	6304.17
795.871	6249.03
796.203	6218.75
796.535	6241.8
796.867	6207.45
797.198	6142.14
797.53	6161.35
797.862	6082.03
798.193	6117.96
798.525	6045.19
798.856	6090.62
799.188	6066.89
799.519	6011.3
799.85	6002.48
800.182	6007.23
800.513	6026.21
800.844	5960.22
801.175	5985.31
801.506	6010.39
801.837	5957.96
802.168	5908.25
802.499	5894.46
802.83	5853.56
803.161	5862.37
803.491	5803.17
803.822	5838.87
804.153	5856.05
804.483	5788.93
804.814	5709.16
805.145	5757.29
805.475	5737.86
805.805	5738.08
806.136	5687.01
806.466	5723.62
806.796	5752.09
807.126	5699.21
807.457	5715.94
807.787	5702.83
808.117	5610.4
808.447	5587.35
808.777	5627.8
809.107	5607.01
809.436	5619.44
809.766	5584.19
810.096	5542.83
810.426	5555.72
810.755	5547.81
811.085	5520.46
811.414	5585.77
811.744	5503.74
812.073	5483.18
812.403	5474.81
812.732	5450.63
813.061	5450.18
813.39	5456.28
813.719	5424.65
814.049	5433.91
814.378	5474.14
814.707	5382.84
815.036	5394.14
815.365	5379.45
815.693	5280.92
816.022	5328.6
816.351	5327.47
816.68	5264.42
817.008	5316.63
817.337	5230.07
817.665	5258.1
817.994	5280.02
818.322	5249.28
818.651	5261.03
818.979	5201.83
819.307	5217.19
819.636	5232.11
819.964	5146.23
820.292	5198.44
820.62	5156.4
820.948	5157.99
821.276	5177.65
821.604	5150.75
821.932	5121.83
822.259	5124.31
822.587	5137.2
822.915	5137.2
823.243	5180.36
823.57	5094.03
823.898	5129.06
824.225	5170.19
824.553	5088.38
824.88	5129.74
825.207	5172.67
825.535	5140.81
825.862	5146.23
826.189	5105.33
826.516	5145.1
826.843	5154.6
827.17	5130.19
827.497	5122.73
827.824	5133.13
828.151	5117.53
828.478	5148.27
828.805	5160.25
829.131	5131.55
829.458	5135.16
829.785	5133.35
830.111	5113.47
830.438	5149.17
830.764	5130.87
831.09	5149.17
831.417	5131.77
831.743	5135.39
832.069	5108.27
832.395	5112.79
832.722	5122.51
833.048	5093.81
833.374	5092.68
833.7	5030.08
834.026	5105.11
834.351	5099.91
834.677	5101.04
835.003	5101.94
835.329	5087.71
835.654	5133.13
835.98	5066.91
836.306	5022.17
836.631	5036.63
836.956	5080.7
837.282	5066.91
837.607	5038.89
837.932	4961.38
838.258	4994.6
838.583	4964.09
838.908	4962.96
839.233	4960.02
839.558	4962.96
839.883	4963.64
840.208	4923.64
840.533	4938.78
840.858	4916.64
841.182	4986.01
841.507	4905.56
841.832	4875.73
842.156	4882.06
842.481	4939.91
842.805	4847.26
843.13	4856.98
843.454	4879.35
843.778	4816.3
844.103	4893.59
844.427	4807.94
844.751	4874.83
845.075	4822.85
845.399	4821.95
845.723	4786.02
846.047	4798.67
846.371	4785.57
846.695	4745.79
847.019	4749.86
847.343	4719.58
847.666	4658.11
847.99	4687.72
848.313	4694.5
848.637	4663.08
848.96	4607.94
849.284	4596.87
849.607	4550.32
849.931	4581.05
850.254	4555.06
850.577	4554.84
850.9	4500.83
851.223	4519.58
851.546	4491.11
851.869	4475.97
852.192	4470.55
852.515	4431.9
852.838	4418.12
853.161	4444.78
853.483	4428.06
853.806	4417.44
854.129	4396.65
854.451	4350.1
854.774	4329.31
855.096	4331.79
855.419	4292.47
855.741	4313.49
856.063	4282.53
856.385	4291.34
856.708	4269.42
857.03	4239.59
857.352	4270.33
857.674	4186.03
857.996	4231.46
858.318	4198.92
858.64	4199.14
858.961	4200.04
859.283	4217.45
859.605	4146.71
859.926	4167.96
860.248	4179.71
860.57	4133.38
860.891	4181.74
861.212	4101.74
861.534	4104.45
861.855	4095.64
862.176	4123.44
862.498	4122.98
862.819	4091.57
863.14	4078.92
863.461	4065.13
863.782	4039.82
864.103	4077.11
864.424	4010.45
864.745	4046.15
865.065	4014.29
865.386	4026.94
865.707	4042.31
866.027	4032.59
866.348	4034.63
866.668	4044.12
866.989	4012.93
867.309	3935.42
867.63	4003.67
867.95	3981.07
868.27	3970.67
868.59	3942.42
868.91	3939.49
869.23	3965.02
869.55	3972.71
869.87	3885.48
870.19	3931.8
870.51	3901.3
870.83	3966.6
871.15	3922.54
871.469	3921.63
871.789	3914.85
872.109	3866.49
872.428	3878.47
872.748	3896.55
873.067	3920.96
873.386	3879.6
873.706	3888.19
874.025	3877.12
874.344	3902.43
874.663	3899.26
874.982	3876.21
875.301	3811.35
875.62	3843.22
875.939	3807.74
876.258	3806.16
876.577	3791.92
876.896	3795.76
877.214	3788.98
877.533	3800.06
877.852	3801.64
878.17	3797.12
878.489	3814.97
878.807	3833.27
879.125	3746.27
879.444	3758.25
879.762	3781.75
880.08	3779.94
880.398	3783.11
880.716	3737.01
881.034	3756.67
881.352	3726.16
881.67	3716.67
881.988	3728.64
882.306	3704.01
882.624	3706.5
882.941	3661.53
883.259	3665.6
883.577	3682.32
883.894	3642.55
884.212	3673.05
884.529	3639.61
884.846	3634.64
885.164	3652.71
885.481	3609.78
885.798	3623.79
886.115	3601.42
886.432	3612.72
886.75	3634.18
887.067	3628.53
887.383	3593.51
887.7	3570.01
888.017	3572.04
888.334	3579.5
888.651	3533.4
888.967	3569.1
889.284	3538.37
889.6	3509.67
889.917	3539.05
890.233	3497.24
890.55	3496.56
890.866	3545.15
891.182	3478.03
891.498	3446.84
891.815	3481.19
892.131	3414.08
892.447	3445.26
892.763	3465.15
893.079	3492.49
893.395	3407.07
893.71	3425.38
894.026	3427.18
894.342	3372.72
894.657	3339.05
894.973	3352.61
895.289	3350.35
895.604	3393.29
895.92	3341.99
896.235	3311.48
896.55	3353.74
896.865	3285.49
897.181	3287.98
897.496	3309.22
897.811	3239.84
898.126	3282.78
898.441	3254.99
898.756	3270.58
899.071	3223.57
899.386	3276.91
899.7	3226.29
900.015	3194.2
900.33	3200.07
900.644	3191.26
900.959	3182.9
901.273	3217.02
901.588	3167.3
901.902	3172.73
902.216	3114.65
902.531	3099.96
902.845	3120.53
903.159	3130.24
903.473	3072.62
903.787	3112.62
904.101	3095.89
904.415	3028.32
904.729	3063.35
905.042	2991.26
905.356	2988.33
905.67	3015.9
905.984	3022.67
906.297	2972.28
906.611	2960.3
906.924	2999.17
907.237	2993.75
907.551	2977.7
907.864	2948.1
908.177	2940.64
908.491	2934.09
908.804	2936.58
909.117	2926.63
909.43	2890.7
909.743	2862
910.056	2882.79
910.368	2913.53
910.681	2862.9
910.994	2836.01
911.307	2830.59
911.619	2812.96
911.932	2858.84
912.244	2799.18
912.557	2791.27
912.869	2787.43
913.181	2786.07
913.494	2742.91
913.806	2749.69
914.118	2769.8
914.43	2762.12
914.742	2719.86
915.054	2720.54
915.366	2720.99
915.678	2697.94
915.99	2708.11
916.302	2689.12
916.613	2658.84
916.925	2639.86
917.236	2671.72
917.548	2638.96
917.859	2644.61
918.171	2623.82
918.482	2627.43
918.794	2618.84
919.105	2623.36
919.416	2573.42
919.727	2567.55
920.038	2593.76
920.349	2580.2
920.66	2528.45
920.971	2539.52
921.282	2549.24
921.593	2511.5
921.903	2481.67
922.214	2494.78
922.525	2477.83
922.835	2448.45
923.146	2459.3
923.456	2442.13
923.767	2446.87
924.077	2459.75
924.387	2430.15
924.697	2480.09
925.008	2414.33
925.318	2393.76
925.628	2412.52
925.938	2398.06
926.248	2362.13
926.558	2380.66
926.867	2354.9
927.177	2360.09
927.487	2332.3
927.796	2333.88
928.106	2328.23
928.416	2354.44
928.725	2324.84
929.034	2271.28
929.344	2295.69
929.653	2298.85
929.962	2284.39
930.271	2259.31
930.581	2251.85
930.89	2249.81
931.199	2237.38
931.508	2250.94
931.817	2205.3
932.125	2210.72
932.434	2231.96
932.743	2220.89
933.051	2214.56
933.36	2163.71
933.669	2178.18
933.977	2186.31
934.286	2185.63
934.594	2167.33
934.902	2115.81
935.21	2140.89
935.519	2141.34
935.827	2139.99
936.135	2114.22
936.443	2082.81
936.751	2111.06
937.059	2093.21
937.367	2068.58
937.674	2077.84
937.982	2067.45
938.29	2028.8
938.597	2076.03
938.905	2055.47
939.213	2004.85
939.52	2005.07
939.827	2025.41
940.135	2019.76
940.442	2012.76
940.749	1978.86
941.056	1984.74
941.363	1971.85
941.67	1969.6
941.977	1959.2
942.284	1972.98
942.591	1948.58
942.898	1954.23
943.205	1925.53
943.511	1933.44
943.818	1891.18
944.125	1936.83
944.431	1912.87
944.738	1944.29
945.044	1876.04
945.35	1876.94
945.657	1861.35
945.963	1874.23
946.269	1874.23
946.575	1883.5
946.881	1867
947.187	1841.69
947.493	1840.78
947.799	1798.53
948.105	1851.41
948.41	1808.92
948.716	1810.73
949.022	1775.93
949.327	1821.12
949.633	1777.06
949.938	1767.57
950.244	1785.42
950.549	1768.24
950.854	1769.83
951.16	1724.4
951.465	1772.31
951.77	1725.76
952.075	1757.85
952.38	1722.14
952.685	1704.74
952.99	1697.51
953.294	1710.17
953.599	1711.97
953.904	1692.99
954.209	1685.08
954.513	1682.37
954.818	1668.36
955.122	1711.75
955.426	1660
955.731	1658.64
956.035	1637.4
956.339	1618.64
956.643	1643.95
956.948	1649.6
957.252	1634.01
957.556	1625.2
957.86	1646.89
958.163	1608.47
958.467	1633.11
958.771	1598.08
959.075	1615.25
959.378	1588.36
959.682	1601.47
959.985	1553.11
960.289	1554.24
960.592	1565.09
960.896	1550.85
961.199	1558.98
961.502	1559.89
961.805	1530.28
962.108	1528.25
962.411	1521.92
962.714	1496.16
963.017	1531.41
963.32	1531.41
963.623	1502.71
963.926	1479.66
964.228	1497.52
964.531	1479.66
964.833	1518.31
965.136	1472.21
965.438	1470.63
965.741	1462.94
966.043	1458.87
966.345	1465.43
966.648	1466.78
966.95	1464.98
967.252	1457.29
967.554	1431.3
967.856	1422.49
968.158	1413.9
968.46	1437.86
968.761	1435.82
969.063	1414.13
969.365	1395.82
969.666	1405.99
969.968	1393.34
970.269	1392.21
970.571	1394.02
970.872	1391.08
971.174	1358.99
971.475	1373.68
971.776	1349.05
972.077	1359.89
972.378	1366.45
972.679	1362.38
972.98	1363.74
973.281	1324.41
973.582	1316.28
973.883	1323.74
974.183	1306.79
974.484	1333.23
974.785	1352.66
975.085	1337.52
975.386	1328.48
975.686	1310.4
975.986	1287.58
976.287	1293.45
976.587	1276.73
976.887	1273.12
977.187	1292.32
977.487	1293.45
977.787	1278.77
978.087	1270.86
978.387	1248.71
978.687	1262.72
978.987	1264.53
979.286	1233.12
979.586	1239.44
979.885	1242.38
980.185	1233.8
980.484	1210.97
980.784	1228.82
981.083	1238.09
981.382	1237.86
981.682	1203.51
981.981	1202.84
982.28	1192.44
982.579	1202.84
982.878	1171.2
983.177	1153.57
983.475	1175.04
983.774	1191.54
984.073	1161.48
984.372	1177.53
984.67	1154.02
984.969	1152.44
985.267	1148.15
985.566	1165.1
985.864	1124.19
986.162	1149.96
986.461	1137.07
986.759	1148.15
987.057	1109.96
987.355	1139.79
987.653	1126.45
987.951	1140.01
988.249	1097.3
988.547	1111.31
988.844	1099.79
989.142	1083.52
989.44	1113.12
989.737	1092.78
990.035	1089.39
990.332	1076.96
990.63	1080.35
990.927	1059.11
991.224	1053.01
991.521	1067.02
991.819	1071.09
992.116	1062.27
992.413	1050.52
992.71	1040.35
993.006	1066.57
993.303	1015.5
993.6	1051.88
993.897	1019.56
994.193	1038.09
994.49	1052.78
994.787	992.45
995.083	1018.43
995.379	1021.82
995.676	1020.69
995.972	989.28
996.268	977.3
996.565	1027.25
996.861	1006.46
997.157	989.51
997.453	984.31
997.749	991.09
998.044	984.08
998.34	992.22
998.636	990.41
998.932	980.02
999.227	959.9
999.523	949.73
999.818	959.23
1000.114	933.46
1000.409	964.88
1000.704	940.92
1001	926.91
1001.295	960.36
1001.59	941.6
1001.885	944.76
1002.18	932.11
1002.475	899.11
1002.77	933.46
1003.065	911.32
1003.359	914.26
1003.654	914.26
1003.949	905.22
1004.243	905.67
1004.538	900.24
1004.832	892.34
1005.127	900.47
1005.421	890.75
1005.715	894.6
1006.009	907.48
1006.304	868.16
1006.598	879.23
1006.892	864.31
1007.186	858.89
1007.48	864.31
1007.773	864.99
1008.067	848.04
1008.361	842.17
1008.655	848.95
1008.948	832.45
1009.242	832.9
1009.535	829.74
1009.829	826.8
1010.122	835.84
1010.415	822.73
1010.708	818.89
1011.001	807.59
1011.295	815.5
1011.588	805.56
1011.881	827.93
1012.173	774.6
1012.466	794.71
1012.759	812.11
1013.052	792.68
1013.344	785.67
1013.637	781.15
1013.93	772.79
1014.222	773.02
1014.514	803.52
1014.807	764.66
1015.099	743.19
1015.391	750.42
1015.683	759.46
1015.976	773.47
1016.268	779.8
1016.56	752.23
1016.851	758.1
1017.143	762.17
1017.435	710.19
1017.727	761.49
1018.018	731.44
1018.31	755.62
1018.602	736.86
1018.893	697.76
1019.185	742.51
1019.476	716.75
1019.767	714.49
1020.058	709.74
1020.35	719.91
1020.641	713.58
1020.932	698.44
1021.223	690.98
1021.514	704.54
1021.804	660.48
1022.095	687.59
1022.386	683.3
1022.677	680.59
1022.967	672.45
1023.258	663.41
1023.548	678.78
1023.839	671.1
1024.129	688.05
1024.419	623.64
1024.709	660.48
1025	668.61
1025.29	657.31
1025.58	636.3
1025.87	636.07
1026.16	642.17
1026.449	649.18
1026.739	657.54
1027.029	631.78
1027.319	640.82
1027.608	632.23
1027.898	640.82
1028.187	639.46
1028.477	632.91
1028.766	621.83
1029.055	617.99
1029.344	628.39
1029.634	604.21
1029.923	601.04
1030.212	607.82
1030.501	614.38
1030.79	620.93
1031.078	594.49
1031.367	579.35
1031.656	592.68
1031.945	593.13
1032.233	602.85
1032.522	598.56
1032.81	593.13
1033.099	568.73
1033.387	579.35
1033.675	612.57
1033.963	574.38
1034.251	572.12
1034.54	570.31
1034.828	573.7
1035.116	582.96
1035.403	559.69
1035.691	561.72
1035.979	576.19
1036.267	525.79
1036.554	581.83
1036.842	552.46
1037.129	541.38
1037.417	538.9
1037.704	567.82
1037.992	557.88
1038.279	550.42
1038.566	537.32
1038.853	537.32
1039.14	537.32
