Data from foam2_polystyrene_foam_FLMS001491_00090.txt Node
Date: Wed Feb 08 10:58:38 GMT 2017
User: dcchb
Spectrometer: FLMS00149
Trigger mode: 0
Integration Time (sec): 2.000000E-2
Scans to average: 10
Electric dark correction enabled: true
Nonlinearity correction enabled: false
Boxcar width: 0
XAxis mode: Wavelengths
Number of Pixels in Spectrum: 2048
>>>>>Begin Spectral Data<<<<<
341.393	1.48
341.776	1.48
342.16	1.48
342.543	-67.22
342.927	-61.34
343.31	-58.85
343.693	-74.67
344.077	-62.47
344.46	-55.24
344.843	-42.58
345.226	-24.73
345.61	-28.35
345.993	-16.82
346.376	-4.39
346.759	-1
347.142	20.01
347.525	60.24
347.908	34.25
348.291	67.24
348.674	88.26
349.057	99.11
349.44	120.8
349.823	141.82
350.206	163.51
350.588	208.48
350.971	222.04
351.354	230.63
351.737	244.19
352.119	251.19
352.502	266.11
352.884	269.05
353.267	291.64
353.65	311.31
354.032	302.72
354.414	319.67
354.797	323.73
355.179	312.21
355.562	330.74
355.944	339.55
356.326	334.58
356.709	344.3
357.091	353.11
357.473	351.53
357.855	370.51
358.238	355.6
358.62	343.85
359.002	342.72
359.384	370.51
359.766	348.37
360.148	357.63
360.53	355.6
360.912	370.51
361.294	361.25
361.676	341.14
362.057	361.7
362.439	358.76
362.821	354.02
363.203	337.52
363.584	337.29
363.966	352.89
364.348	354.47
364.729	348.82
365.111	335.49
365.493	357.63
365.874	339.33
366.256	336.84
366.637	346.11
367.019	344.52
367.4	370.06
367.781	339.55
368.163	361.7
368.544	340.91
368.925	364.86
369.306	376.16
369.688	326.9
370.069	346.78
370.45	375.03
370.831	372.32
371.212	350.63
371.593	355.15
371.974	361.93
372.355	370.06
372.736	376.84
373.117	354.69
373.498	364.64
373.879	370.74
374.26	369.83
374.641	353.11
375.021	372.32
375.402	358.31
375.783	373.22
376.163	414.81
376.544	406.44
376.925	380.46
377.305	394.69
377.686	389.27
378.066	396.5
378.447	372.55
378.827	394.02
379.208	408.93
379.588	405.77
379.968	403.73
380.349	421.36
380.729	394.69
381.109	420.46
381.489	401.92
381.87	411.42
382.25	419.33
382.63	430.17
383.01	449.61
383.39	436.95
383.77	442.38
384.15	421.13
384.53	461.13
384.91	464.52
385.29	437.18
385.67	435.14
386.049	456.16
386.429	468.59
386.809	466.1
387.189	459.1
387.568	486.22
387.948	464.07
388.328	457.29
388.707	486.22
389.087	466.33
389.466	485.99
389.846	495.03
390.225	514.01
390.605	499.77
390.984	508.81
391.363	511.53
391.743	523.05
392.122	515.82
392.501	530.73
392.881	539.55
393.26	528.93
393.639	546.33
394.018	548.59
394.397	558.08
394.776	554.46
395.155	566.21
395.534	562.6
395.913	556.04
396.292	570.73
396.671	567.34
397.05	602.15
397.429	599.43
397.808	593.78
398.186	577.51
398.565	595.59
398.944	606.44
399.323	605.99
399.701	610.05
400.08	619.09
400.458	634.46
400.837	634.91
401.215	615.48
401.594	640.56
401.972	661.58
402.351	635.59
402.729	643.5
403.107	643.73
403.486	668.58
403.864	669.94
404.242	652.99
404.62	677.62
404.999	704.52
405.377	692.09
405.755	724.85
406.133	723.5
406.511	711.75
406.889	726.21
407.267	753.1
407.645	751.75
408.023	752.2
408.401	749.49
408.779	787.45
409.156	770.28
409.534	782.48
409.912	785.42
410.29	786.1
410.667	810.73
411.045	828.35
411.422	824.29
411.8	852.53
412.178	864.06
412.555	847.34
412.933	863.83
413.31	876.26
413.687	882.14
414.065	894.79
414.442	922.14
414.819	922.36
415.197	929.82
415.574	936.37
415.951	921.46
416.328	931.4
416.705	949.71
417.082	944.74
417.46	981.8
417.837	982.25
418.214	984.28
418.591	1003.04
418.967	1017.28
419.344	1034.68
419.721	1066.99
420.098	1063.83
420.475	1057.27
420.852	1078.52
421.228	1067.67
421.605	1060.44
421.982	1078.97
422.358	1101.34
422.735	1125.3
423.111	1129.14
423.488	1145.18
423.864	1139.76
424.241	1168.91
424.617	1197.16
424.994	1195.35
425.37	1189.02
425.746	1211.62
426.123	1208.68
426.499	1241.45
426.875	1260.66
427.251	1268.57
427.627	1290.26
428.003	1316.02
428.379	1279.64
428.756	1338.85
429.132	1335.46
429.507	1332.75
429.883	1380.43
430.259	1408
430.635	1403.25
431.011	1415.91
431.387	1462.69
431.763	1476.25
432.138	1477.6
432.514	1491.16
432.89	1497.04
433.265	1521.9
433.641	1533.42
434.016	1577.49
434.392	1581.33
434.767	1628.56
435.143	1646.41
435.518	1647.77
435.894	1663.81
436.269	1686.18
436.644	1689.35
437.02	1706.97
437.395	1697.71
437.77	1734.54
438.145	1756.47
438.52	1790.14
438.895	1807.54
439.271	1810.93
439.646	1881.21
440.021	1844.82
440.395	1857.93
440.77	1864.03
441.145	1854.99
441.52	1951.71
441.895	1932.96
442.27	1939.51
442.645	1989
443.019	1978.61
443.394	1984.03
443.769	1987.42
444.143	2003.24
444.518	2042.56
444.892	2037.14
445.267	2080.3
445.641	2083.46
446.016	2095.89
446.39	2122.78
446.764	2136.79
447.139	2146.29
447.513	2175.66
447.887	2153.06
448.262	2174.31
448.636	2214.31
449.01	2210.69
449.384	2251.14
449.758	2231.25
450.132	2259.73
450.506	2296.56
450.88	2343.34
451.254	2333.63
451.628	2366.84
452.002	2392.61
452.376	2420.18
452.75	2455.43
453.123	2485.03
453.497	2518.25
453.871	2505.6
454.244	2557.8
454.618	2604.35
454.992	2596.22
455.365	2616.33
455.739	2690.23
456.112	2676.21
456.486	2707.4
456.859	2751.92
457.232	2801.64
457.606	2780.17
457.979	2831.01
458.352	2891.12
458.725	2915.08
459.099	2916.21
459.472	2949.88
459.845	3006.38
460.218	3010.67
460.591	3031.69
460.964	3064.45
461.337	3144.23
461.71	3162.53
462.083	3209.99
462.456	3228.06
462.829	3222.42
463.201	3319.14
463.574	3277.1
463.947	3355.07
464.32	3435.07
464.692	3466.02
465.065	3473.26
465.438	3519.36
465.81	3589.19
466.183	3636.19
466.555	3726.13
466.928	3713.25
467.3	3718.22
467.672	3790.76
468.045	3877.99
468.417	3906.92
468.789	3913.7
469.161	3992.11
469.534	4024.65
469.906	4074.37
470.278	4167.7
470.65	4168.38
471.022	4289.51
471.394	4322.05
471.766	4346
472.138	4423.74
472.51	4499.67
472.882	4573.11
473.253	4600.01
473.625	4679.1
473.997	4793
474.369	4839.1
474.74	4842.26
475.112	4938.98
475.484	5075.02
475.855	5117.73
476.227	5158.64
476.598	5302.36
476.97	5345.07
477.341	5487.67
477.713	5570.38
478.084	5593.43
478.455	5771.05
478.827	5755.91
479.198	5973.3
479.569	5990.7
479.94	6124.26
480.311	6176.24
480.682	6291.94
481.053	6472.95
481.424	6596.11
481.795	6645.83
482.166	6716.11
482.537	6807.63
482.908	6921.08
483.279	6992.94
483.65	7117.68
484.021	7300.05
484.391	7379.82
484.762	7532.13
485.133	7536.2
485.503	7623.88
485.874	7813.26
486.244	7880.82
486.615	8029.75
486.985	8100.03
487.356	8199.46
487.726	8357.87
488.097	8521.48
488.467	8566.23
488.837	8718.77
489.207	8790.63
489.578	9010.06
489.948	9015.48
490.318	9222.03
490.688	9186.33
491.058	9325.53
491.428	9449.6
491.798	9559.65
492.168	9753.32
492.538	9805.52
492.908	9876.93
493.278	10068.79
493.648	10072.18
494.017	10126.87
494.387	10271.27
494.757	10357.82
495.126	10475.11
495.496	10559.85
495.866	10655.21
496.235	10705.61
496.605	10778.37
496.974	10857.02
497.344	10956.9
497.713	11090.01
498.082	11150.34
498.452	11243.9
498.821	11274.86
499.19	11373.39
499.559	11568.41
499.928	11549.2
500.298	11716.2
500.667	11785.35
501.036	11747.61
501.405	11928.4
501.774	11875.52
502.143	11983.54
502.512	12087.94
502.88	12272.8
503.249	12271.67
503.618	12344.44
503.987	12356.86
504.356	12457.65
504.724	12615.61
505.093	12609.29
505.462	12709.85
505.83	12853.35
506.199	12981.03
506.567	13084.98
506.936	13074.59
507.304	13163.4
507.672	13358.42
508.041	13389.61
508.409	13517.29
508.777	13600.67
509.145	13796.37
509.514	13717.96
509.882	13863.49
510.25	13896.26
510.618	14014.22
510.986	14082.47
511.354	14171.73
511.722	14316.36
512.09	14454.44
512.458	14457.83
512.826	14692.17
513.193	14586.64
513.561	14789.79
513.929	14889.23
514.297	15043.57
514.664	15129.67
515.032	15251.48
515.4	15303
515.767	15430.68
516.135	15525.59
516.502	15461.87
516.869	15709.09
517.237	15891.69
517.604	15839.26
517.972	16060.5
518.339	16176.42
518.706	16235.86
519.073	16248.97
519.44	16486.25
519.808	16671.55
520.175	16674.94
520.542	16920.81
520.909	16892.11
521.276	16996.06
521.643	17184.08
522.009	17432.89
522.376	17483.51
522.743	17661.13
523.11	17832.65
523.477	17935.93
523.843	18087.34
524.21	18273.77
524.577	18359.19
524.943	18500.43
525.31	18679.41
525.676	18808.22
526.043	19002.34
526.409	19085.73
526.776	19239.17
527.142	19386.74
527.508	19452.5
527.874	19616.79
528.241	19683.9
528.607	19777.01
528.973	20043.89
529.339	19992.6
529.705	20191.91
530.071	20398.91
530.437	20502.41
530.803	20587.38
531.169	20772.69
531.535	20871.89
531.901	20918.9
532.267	20910.31
532.632	21109.4
532.998	21208.16
533.364	21414.93
533.73	21365.67
534.095	21616.06
534.461	21684.98
534.826	21757.52
535.192	21866.44
535.557	22044.52
535.923	21982.6
536.288	22107.79
536.653	22243.61
537.019	22157.28
537.384	22371.97
537.749	22386.88
538.114	22486.54
538.479	22612.41
538.845	22658.06
539.21	22688.8
539.575	22721.11
539.94	22849.47
540.305	23134.21
540.67	23017.15
541.034	23146.19
541.399	23224.6
541.764	23284.03
542.129	23369.23
542.494	23515.67
542.858	23658.71
543.223	23626.62
543.587	23772.84
543.952	23740.07
544.316	23845.38
544.681	24001.98
545.045	24060.74
545.41	24287.62
545.774	24369.2
546.138	24314.29
546.503	24406.72
546.867	24457.34
547.231	24689.87
547.595	24672.7
547.959	24816.42
548.324	24782.98
548.688	24819.36
549.052	25093.93
549.416	24937.32
549.779	25005.35
550.143	25216.87
550.507	25405.11
550.871	25392.45
551.235	25485.33
551.599	25657.31
551.962	25671.77
552.326	25768.94
552.689	26007.58
553.053	25881.25
553.417	26076.05
553.78	26305.65
554.143	26183.85
554.507	26353.56
554.87	26474.01
555.234	26740.21
555.597	26623.38
555.96	26728.69
556.323	26941.79
556.686	26895.01
557.05	27235.57
557.413	27266.53
557.776	27309.01
558.139	27527.99
558.502	27690.7
558.865	27696.8
559.228	27918.04
559.59	27965.49
559.953	28042.78
560.316	28366.16
560.679	28343.34
561.041	28450.68
561.404	28668.98
561.767	28746.72
562.129	28720.5
562.492	29094.05
562.854	28913.04
563.217	29171.79
563.579	29161.39
563.941	29395.29
564.304	29566.81
564.666	29777.42
565.028	29791.66
565.39	30002.73
565.753	30130.41
566.115	30180.58
566.477	30307.8
566.839	30417.41
567.201	30625.31
567.563	30567.46
567.925	30819.43
568.287	30858.3
568.648	30939.43
569.01	31119.99
569.372	31240.89
569.734	31116.37
570.095	31482.69
570.457	31533.08
570.819	31685.17
571.18	31607.66
571.542	31948.21
571.903	31777.82
572.265	31926.07
572.626	31970.36
572.987	32060.75
573.349	32077.25
573.71	32390.24
574.071	32323.57
574.432	32387.52
574.794	32656.9
575.155	32684.01
575.516	32586.16
575.877	32879.04
576.238	32818.47
576.599	33013.5
576.96	32952.48
577.32	32970.33
577.681	33127.17
578.042	33243.32
578.403	33272.25
578.763	33275.86
579.124	33344.11
579.485	33434.05
579.845	33556.31
580.206	33550.21
580.566	33506.14
580.927	33545.91
581.287	33624.78
581.648	33547.27
582.008	33665.46
582.368	33614.84
582.728	33748.39
583.089	33598.11
583.449	33632.01
583.809	33597.66
584.169	33719.69
584.529	33526.7
584.889	33816.41
585.249	33697.32
585.609	33636.08
585.969	33916.75
586.329	33765.12
586.688	33760.6
587.048	33805.79
587.408	33748.84
587.768	33754.95
588.127	33667.49
588.487	33593.59
588.846	33797.66
589.206	33539.13
589.565	33728.96
589.925	33814.15
590.284	33559.92
590.643	33753.82
591.003	33898.9
591.362	33912.91
591.721	33801.95
592.08	34022.74
592.44	33904.32
592.799	34022.74
593.158	33926.69
593.517	33931.89
593.876	33994.26
594.235	33887.15
594.593	33947.94
594.952	33938.44
595.311	33813.02
595.67	34011.21
596.029	34196.74
596.387	34115.61
596.746	34241.71
597.104	34045.79
597.463	34026.13
597.822	34142.28
598.18	34085.56
598.538	34000.59
598.897	34192.9
599.255	33907.03
599.613	34559.44
599.972	34303.41
600.33	34439.45
600.688	34194.26
601.046	34248.04
601.404	34548.82
601.762	34498.2
602.12	34710.4
602.478	34577.07
602.836	34704.98
603.194	34605.32
603.552	34578.2
603.91	34469.5
604.268	34563.06
604.625	34671.31
604.983	34683.96
605.341	34554.25
605.698	34745.43
606.056	34835.82
606.413	34732.1
606.771	34949.72
607.128	34946.55
607.485	34878.08
607.843	34760.12
608.2	34928.93
608.557	34977.29
608.914	34924.63
609.272	35143.16
609.629	35144.74
609.986	35191.97
610.343	35088.7
610.7	35365.3
611.057	35341.8
611.414	35203.04
611.771	35250.73
612.127	35468.8
612.484	35402.13
612.841	35542.47
613.198	35362.59
613.554	35403.49
613.911	35616.37
614.267	35647.78
614.624	35519.65
614.98	35635.8
615.337	35730.26
615.693	35753.09
616.05	35842.35
616.406	35798.28
616.762	35797.6
617.118	35823.37
617.475	35919.86
617.831	36008.45
618.187	36037.37
618.543	36071.04
618.899	36229.01
619.255	36150.14
619.611	36099.74
619.967	36197.14
620.323	36232.62
620.678	36189.68
621.034	36063.81
621.39	36095
621.746	35977.71
622.101	36423.12
622.457	36219.29
622.812	36359.4
623.168	36404.37
623.523	36372.73
623.879	36532.5
624.234	36290.02
624.589	36411.6
624.945	36469.68
625.3	36447.08
625.655	36440.52
626.01	36378.61
626.365	36436.46
626.72	36406.4
627.075	36352.39
627.43	36279.63
627.785	36237.14
628.14	36256.57
628.495	36330.47
628.85	36294.31
629.205	36192.85
629.559	36295.22
629.914	36154.66
630.269	36161.89
630.623	36078.5
630.978	36018.39
631.332	36249.8
631.687	36121.21
632.041	35966.19
632.396	35991.95
632.75	36040.76
633.104	35971.38
633.459	35803.93
633.813	35738.17
634.167	35711.05
634.521	35697.49
634.875	35758.28
635.229	35660.21
635.583	35537.95
635.937	35564.39
636.291	35466.54
636.645	35591.28
636.999	35415.69
637.352	35577.04
637.706	35200.56
638.06	35434.9
638.413	35318.29
638.767	35297.96
639.121	35241.01
639.474	35026.32
639.828	35041.69
640.181	35119.43
640.534	35215.92
640.888	35029.49
641.241	34880.57
641.594	34910.62
641.947	34812.77
642.301	34796.73
642.654	34872.2
643.007	34708.59
643.36	34623.4
643.713	34758.99
644.066	34681.48
644.419	34568.71
644.771	34415.95
645.124	33989.06
645.477	33851.67
645.83	33675.85
646.182	33610.77
646.535	33510.43
646.888	33535.97
647.24	33380.04
647.593	33445.58
647.945	33382.3
648.298	33346.82
648.65	33112.93
649.002	33017.79
649.355	33266.82
649.707	33193.15
650.059	33340.95
650.411	33650.32
650.763	33783.42
651.115	33988.16
651.467	33900.03
651.819	33861.84
652.171	33808.5
652.523	33741.61
652.875	33666.13
653.227	33571
653.578	33787.94
653.93	33658
654.282	33619.13
654.633	33544.78
654.985	33539.81
655.337	33502.3
655.688	33564.89
656.039	33574.61
656.391	33333.49
656.742	33362.64
657.094	33323.54
657.445	33460.26
657.796	33389.53
658.147	33192.7
658.498	33205.58
658.849	33239.03
659.2	33166.94
659.551	33134.85
659.902	33235.64
660.253	33168.75
660.604	33097.11
660.955	33119.93
661.306	33180.95
661.656	33011.69
662.007	32995.19
662.358	32974.18
662.708	32980.73
663.059	32897.57
663.409	32634.98
663.76	32936.21
664.11	32911.13
664.461	32943.67
664.811	32943.67
665.161	32905.25
665.511	32738.48
665.862	32675.2
666.212	32885.36
666.562	32686.27
666.912	32745.03
667.262	32646.73
667.612	32756.1
667.962	32694.41
668.312	32686.95
668.662	32809.66
669.011	32674.97
669.361	32662.32
669.711	32612.6
670.06	32610.12
670.41	32484.92
670.76	32493.74
671.109	32600.17
671.459	32487.18
671.808	32494.19
672.157	32425.04
672.507	32314.53
672.856	32373.06
673.205	32271.82
673.554	32400.63
673.904	32263.69
674.253	32574.86
674.602	32226.4
674.951	31742.12
675.3	31564.72
675.649	32219.84
675.998	32112.73
676.346	32055.56
676.695	32092.84
677.044	31842.68
677.393	32088.77
677.741	31907.31
678.09	31853.53
678.438	31791.83
678.787	31814.88
679.135	31886.75
679.484	31624.15
679.832	31705.28
680.181	31615.57
680.529	31676.58
680.877	31525.63
681.225	31495.57
681.573	31774.66
681.922	31390.26
682.27	31270.94
682.618	31314.56
682.966	31221.91
683.314	31383.93
683.661	31268.46
684.009	31133.32
684.357	30964.74
684.705	30941.91
685.053	30926.09
685.4	30934.23
685.748	30816.04
686.095	30684.52
686.443	30677.96
686.79	30646.78
687.138	30666.44
687.485	30647.68
687.832	30535.37
688.18	30576.05
688.527	30236.39
688.874	30263.06
689.221	30178.77
689.568	30082.73
689.915	30045.44
690.262	29989.85
690.609	29919.57
690.956	29814.48
691.303	29782.39
691.65	29659.91
691.997	29783.07
692.344	29542.18
692.69	29467.15
693.037	29485.68
693.383	29188.29
693.73	29297.66
694.077	29133.37
694.423	29066.26
694.769	28990.55
695.116	28991.91
695.462	28847.5
695.808	28724.34
696.155	28741.97
696.501	28598.02
696.847	28564.8
697.193	28282.77
697.539	28461.98
697.885	28181.98
698.231	28170.69
698.577	28114.64
698.923	28008.43
699.269	28126.17
699.614	27839.17
699.96	27864.93
700.306	27961.2
700.651	27709.68
700.997	27754.43
701.342	27638.27
701.688	27562.11
702.033	27505.39
702.379	27407.54
702.724	27374.77
703.069	27467.88
703.415	27201.67
703.76	27104.05
704.105	27185.85
704.45	27079.19
704.795	26987.44
705.14	26884.84
705.485	26853.21
705.83	26690.5
706.175	26797.39
706.52	26663.38
706.865	26526.66
707.209	26468.81
707.554	26417.74
707.899	26421.58
708.243	26279.89
708.588	26222.04
708.932	26081.93
709.277	26080.57
709.621	26099.78
709.966	26027.24
710.31	25934.13
710.654	25688.94
710.998	25844.65
711.342	25865.21
711.687	25788.38
712.031	25639.68
712.375	25601.26
712.719	25634.71
713.063	25538.89
713.407	25565.56
713.75	25503.41
714.094	25396.52
714.438	25422.96
714.782	25309.29
715.125	25134.16
715.469	25294.15
715.812	25043.54
716.156	24926.03
716.499	24898.68
716.843	25040.37
717.186	24832.24
717.53	25011.45
717.873	24960.83
718.216	24884.44
718.559	24617.33
718.902	24501.86
719.246	24640.84
719.589	24593.15
719.932	24469.54
720.275	24457.34
720.617	24443.33
720.96	24267.06
721.303	24431.8
721.646	24340.28
721.989	24126.72
722.331	24130.79
722.674	24155.2
723.016	24138.7
723.359	24150.9
723.701	24104.13
724.044	24048.76
724.386	23923.57
724.729	23978.48
725.071	23999.72
725.413	23945.71
725.755	23800.41
726.097	23753.63
726.439	23658.94
726.782	23584.59
727.124	23657.13
727.465	23658.94
727.807	23590.47
728.149	23532.84
728.491	23460.3
728.833	23564.48
729.175	23494.2
729.516	23336.69
729.858	23402.45
730.199	23297.37
730.541	23277.03
730.882	23286.97
731.224	23327.42
731.565	23004.72
731.906	23237.03
732.248	23167.43
732.589	23125.17
732.93	23054.44
733.271	23060.31
733.612	23019.86
733.953	22999.97
734.294	22875.23
734.635	22844.05
734.976	22896.25
735.317	22842.92
735.658	22799.08
735.999	22807.44
736.339	22778.06
736.68	22727.89
737.021	22688.57
737.361	22608.57
737.702	22764.05
738.042	22606.54
738.383	22472.08
738.723	22536.26
739.063	22517.28
739.404	22536.26
739.744	22490.38
740.084	22237.51
740.424	22390.95
740.764	22312.76
741.104	22298.3
741.444	22108.25
741.784	22083.39
742.124	22105.31
742.464	22062.6
742.804	22064.86
743.143	22035.93
743.483	22030.51
743.823	21943.28
744.162	21822.15
744.502	22000.45
744.841	21830.06
745.181	21934.47
745.52	21831.19
745.86	21898.31
746.199	21876.61
746.538	21787.35
746.877	21768.59
747.216	21704.19
747.556	21735.6
747.895	21667.13
748.234	21460.35
748.573	21493.12
748.911	21570.41
749.25	21437.08
749.589	21354.59
749.928	21394.37
750.267	21415.61
750.605	21338.55
750.944	21223.52
751.283	21220.36
751.621	21325.22
751.96	21282.05
752.298	21100.82
752.636	21108.5
752.975	21082.28
753.313	20848.39
753.651	21057.65
753.989	20950.08
754.327	20949.18
754.666	20768.17
755.004	20765.91
755.342	20804.33
755.679	20767.72
756.017	20605.01
756.355	20693.37
756.693	20657.89
757.031	20635.29
757.368	20434.62
757.706	20442.75
758.044	20333.83
758.381	20346.71
758.719	20284.34
759.056	20304.45
759.394	20140.84
759.731	20111.46
760.068	20013.39
760.405	20025.36
760.743	19876.44
761.08	19921.64
761.417	19777.01
761.754	19683.68
762.091	19667.18
762.428	19678.48
762.765	19474.64
763.102	19603.23
763.438	19434.64
763.775	19445.72
764.112	19371.37
764.449	19384.02
764.785	19243.24
765.122	19145.39
765.458	19078.04
765.795	19077.82
766.131	19001.44
766.467	18924.83
766.804	18832.85
767.14	18868.11
767.476	18787.43
767.812	18661.56
768.148	18683.48
768.485	18616.59
768.821	18504.73
769.157	18482.58
769.492	18457.04
769.828	18435.8
770.164	18289.59
770.5	18216.37
770.836	18157.16
771.171	18030.39
771.507	18063.38
771.842	17841.47
772.178	17904.74
772.513	17822.03
772.849	17919.2
773.184	17749.26
773.519	17728.7
773.855	17621.81
774.19	17543.62
774.525	17514.69
774.86	17456.39
775.195	17323.06
775.53	17345.43
775.865	17269.73
776.2	17092.11
776.535	16993.8
776.87	17060.02
777.205	16963.97
777.539	16864.32
777.874	16893.02
778.209	16765.11
778.543	16686.92
778.878	16639.01
779.212	16628.62
779.547	16610.76
779.881	16493.7
780.215	16413.25
780.55	16444.89
780.884	16347.04
781.218	16259.13
781.552	16264.11
781.886	16101.62
782.22	16116.31
782.554	15986.6
782.888	15903.21
783.222	15726.72
783.556	15752.93
783.889	15739.83
784.223	15647.63
784.557	15610.79
784.89	15616.21
785.224	15567.4
785.557	15496.22
785.891	15389.33
786.224	15369.67
786.558	15343.9
786.891	15129.9
787.224	15149.33
787.557	15054.87
787.891	15042.9
788.224	15090.58
788.557	15016.68
788.89	14943.91
789.223	14896.01
789.556	14849.91
789.888	14737.37
790.221	14688.55
790.554	14624.38
790.887	14645.62
791.219	14526.98
791.552	14445.85
791.884	14413.53
792.217	14427.54
792.549	14300.54
792.882	14331.28
793.214	14146.65
793.546	14202.01
793.879	14147.1
794.211	14106.42
794.543	14087.67
794.875	14046.99
795.207	14082.24
795.539	14012.41
795.871	14071.85
796.203	13805.41
796.535	13693.55
796.867	13672.99
797.198	13713.21
797.53	13688.81
797.862	13492.2
798.193	13555.48
798.525	13547.57
798.856	13541.01
799.188	13350.06
799.519	13273
799.85	13212.21
800.182	13253.56
800.513	13314.81
800.844	13170.85
801.175	13193.68
801.506	13182.15
801.837	13059.67
802.168	13077.98
802.499	12961.82
802.83	12881.82
803.161	12974.25
803.491	12869.17
803.822	12836.17
804.153	12799.56
804.483	12685.9
804.814	12687.93
805.145	12655.61
805.475	12669.17
805.805	12590.76
806.136	12590.08
806.466	12462.4
806.796	12543.75
807.126	12419.46
807.457	12403.19
807.787	12369.75
808.117	12258.11
808.447	12304.66
808.777	12281.16
809.107	12231.67
809.436	12154.38
809.766	12165.91
810.096	12185.8
810.426	12075.06
810.755	12114.16
811.085	12039.58
811.414	12058.79
811.744	11929.08
812.073	11895.41
812.403	11968.4
812.732	11821.29
813.061	11839.82
813.39	11739.93
813.719	11844.11
814.049	11767.05
814.378	11743.77
814.707	11664.45
815.036	11659.03
815.365	11639.6
815.693	11541.52
816.022	11493.61
816.351	11470.33
816.68	11429.21
817.008	11455.65
817.337	11464.46
817.665	11293.16
817.994	11337
818.322	11308.98
818.651	11216.1
818.979	11150.34
819.307	11278.93
819.636	11206.61
819.964	11102.43
820.292	11174.07
820.62	11165.26
820.948	11084.36
821.276	11163.68
821.604	11062.21
821.932	11158.48
822.259	11117.57
822.587	11109.21
822.915	11087.75
823.243	11160.51
823.57	11070.8
823.898	11144.01
824.225	11063.34
824.553	11068.76
824.88	11110.34
825.207	11137.69
825.535	11101.3
825.862	11195.54
826.189	11052.49
826.516	11153.51
826.843	11134.75
827.17	11141.98
827.497	11169.55
827.824	11174.3
828.151	11221.98
828.478	11039.38
828.805	11156.9
829.131	11127.97
829.458	11147.4
829.785	11066.5
830.111	11069.44
830.438	11132.49
830.764	11105.37
831.09	11056.33
831.417	11064.24
831.743	11129.55
832.069	11078.93
832.395	11039.16
832.722	11021.76
833.048	11007.52
833.374	11017.01
833.7	11010.23
834.026	10966.84
834.351	11040.74
834.677	10905.38
835.003	11008.43
835.329	11019.95
835.654	10961.19
835.98	10879.16
836.306	10906.06
836.631	10877.13
836.956	10821.54
837.282	10965.94
837.607	10837.36
837.932	10774.08
838.258	10791.26
838.583	10760.97
838.908	10777.02
839.233	10745.61
839.558	10709.22
839.883	10661.77
840.208	10649.79
840.533	10671.03
840.858	10605.72
841.182	10665.61
841.507	10574.54
841.832	10591.49
842.156	10505.61
842.481	10591.94
842.805	10532.96
843.13	10482.56
843.454	10405.73
843.778	10371.83
844.103	10406.86
844.427	10353.53
844.751	10335.22
845.075	10248.45
845.399	10236.02
845.723	10142.69
846.047	10208.45
846.371	10133.19
846.695	10106.75
847.019	10014.78
847.343	9972.75
847.666	9959.87
847.99	9873.31
848.313	9849.81
848.637	9859.98
848.96	9831.51
849.284	9814.56
849.607	9763.71
849.931	9742.02
850.254	9618.86
850.577	9544.28
850.9	9557.16
851.223	9514.23
851.546	9543.6
851.869	9426.77
852.192	9452.76
852.515	9410.05
852.838	9314.68
853.161	9371.41
853.483	9299.54
853.806	9311.29
854.129	9210.51
854.451	9313.33
854.774	9200.79
855.096	9212.99
855.419	9183.16
855.741	9128.02
856.063	9069.04
856.385	9049.38
856.708	9007.35
857.03	9003.28
857.352	9012.77
857.674	9031.98
857.996	9028.59
858.318	8934.81
858.64	8932.55
858.961	8845.77
859.283	8874.47
859.605	8794.7
859.926	8811.19
860.248	8765.55
860.57	8702.5
860.891	8761.25
861.212	8734.36
861.534	8646.45
861.855	8682.16
862.176	8665.89
862.498	8638.54
862.819	8635.83
863.14	8629.73
863.461	8580.69
863.782	8569.85
864.103	8564.2
864.424	8508.38
864.745	8527.13
865.065	8557.64
865.386	8493.24
865.707	8452.33
866.027	8483.29
866.348	8427.25
866.668	8412.56
866.989	8417.76
867.309	8369.17
867.63	8389.96
867.95	8318.78
868.27	8300.02
868.59	8309.97
868.91	8302.28
869.23	8299.8
869.55	8326.01
869.87	8267.71
870.19	8225
870.51	8241.72
870.83	8304.09
871.15	8201.49
871.469	8203.75
871.789	8236.07
872.109	8230.65
872.428	8160.14
872.748	8175.96
873.067	8083.3
873.386	8108.84
873.706	8145
874.025	8060.48
874.344	8066.58
874.663	8107.03
874.982	8089.41
875.301	8084.43
875.62	8069.97
875.939	8020.48
876.258	7979.35
876.577	7980.71
876.896	7973.48
877.214	7967.15
877.533	7916.53
877.852	7937.77
878.17	7958.34
878.489	7942.52
878.807	7931.44
879.125	7875.4
879.444	7906.59
879.762	7882.86
880.08	7949.75
880.398	7855.51
880.716	7783.65
881.034	7835.18
881.352	7786.36
881.67	7793.82
881.988	7815.51
882.306	7766.02
882.624	7779.36
882.941	7703.65
883.259	7741.17
883.577	7724.44
883.894	7660.49
884.212	7703.88
884.529	7643.32
884.846	7665.46
885.164	7644.45
885.481	7642.19
885.798	7606.71
886.115	7515.64
886.432	7545.92
886.75	7507.5
887.067	7545.92
887.383	7458.01
887.7	7438.35
888.017	7472.7
888.334	7422.76
888.651	7385.47
888.967	7418.01
889.284	7340.05
889.6	7338.24
889.917	7286.04
890.233	7265.92
890.55	7237.68
890.866	7318.13
891.182	7239.48
891.498	7276.09
891.815	7260.95
892.131	7135.08
892.447	7162.65
892.763	7127.17
893.079	7178.7
893.395	7102.31
893.71	7052.82
894.026	7043.56
894.342	7037.46
894.657	7042.2
894.973	7022.32
895.289	7033.16
895.604	7016.44
895.92	6947.29
896.235	6891.7
896.55	6895.54
896.865	6885.82
897.181	6866.39
897.496	6849.89
897.811	6780.97
898.126	6797.91
898.441	6751.59
898.756	6726.5
899.071	6726.28
899.386	6771.93
899.7	6721.76
900.015	6630.24
900.33	6636.56
900.644	6588.2
900.959	6603.8
901.273	6576.9
901.588	6502.78
901.902	6542.33
902.216	6465.27
902.531	6465.04
902.845	6428.88
903.159	6425.27
903.473	6414.2
903.787	6389.56
904.101	6345.27
904.415	6324.93
904.729	6300.98
905.042	6252.84
905.356	6268.66
905.67	6217.59
905.984	6239.29
906.297	6194.77
906.611	6234.77
906.924	6117.25
907.237	6142.56
907.551	6083.36
907.864	6089.23
908.177	6054.66
908.491	6044.71
908.804	6027.54
909.117	5980.08
909.43	5977.6
909.743	5969.69
910.056	5958.61
910.368	5943.7
910.681	5854.89
910.994	5818.28
911.307	5828
911.619	5810.14
911.932	5842.91
912.244	5795.45
912.557	5761.11
912.869	5745.51
913.181	5690.15
913.494	5711.62
913.806	5650.15
914.118	5633.2
914.43	5609.02
914.742	5590.94
915.054	5574.44
915.366	5569.02
915.678	5540.55
915.99	5512.75
916.302	5474.11
916.613	5438.63
916.925	5482.24
917.236	5417.84
917.548	5390.72
917.859	5372.87
918.171	5321.12
918.482	5318.86
918.794	5306.88
919.105	5322.47
919.416	5295.13
919.727	5211.06
920.038	5214.45
920.349	5200.67
920.66	5141.69
920.971	5180.56
921.282	5123.61
921.593	5092.87
921.903	5061.69
922.214	5103.04
922.525	5026.66
922.835	4974.69
923.146	4980.34
923.456	4960.22
923.767	4922.26
924.077	4949.83
924.387	4921.13
924.697	4895.82
925.008	4900.34
925.318	4871.86
925.628	4865.99
925.938	4835.71
926.248	4841.81
926.558	4806.78
926.867	4756.61
927.177	4724.07
927.487	4715.26
927.796	4684.75
928.106	4699.44
928.416	4680.23
928.725	4656.73
929.034	4668.7
929.344	4648.82
929.653	4659.21
929.962	4565.66
930.271	4573.11
930.581	4509.39
930.89	4468.48
931.199	4495.6
931.508	4449.05
931.817	4501.03
932.125	4446.56
932.434	4440.24
932.743	4359.33
933.051	4424.64
933.36	4355.27
933.669	4309.62
933.977	4343.74
934.286	4315.72
934.594	4317.75
934.902	4211.77
935.21	4214.03
935.519	4198.89
935.827	4224.2
936.135	4197.3
936.443	4166.12
936.751	4123.41
937.059	4152.11
937.367	4127.7
937.674	4104.88
937.982	4090.19
938.29	4082.05
938.597	4084.99
938.905	4034.6
939.213	4045.9
939.52	4021.94
939.827	4025.56
940.135	3990.98
940.442	3994.6
940.749	3946.24
941.056	3979.01
941.363	3912.34
941.67	3906.47
941.977	3892.45
942.284	3883.87
942.591	3861.49
942.898	3831.44
943.205	3832.57
943.511	3784.43
943.818	3819.69
944.125	3797.54
944.431	3760.48
944.738	3762.74
945.044	3781.72
945.35	3711.22
945.657	3713.48
945.963	3649.3
946.269	3651.78
946.575	3630.77
946.881	3630.99
947.187	3638.22
947.493	3607.94
947.799	3603.42
948.105	3576.98
948.41	3526.81
948.716	3582.63
949.022	3550.77
949.327	3553.25
949.633	3470.77
949.938	3494.05
950.244	3431.22
950.549	3477.1
950.854	3427.61
951.16	3437.78
951.465	3387.16
951.77	3407.95
952.075	3381.28
952.38	3388.96
952.685	3387.16
952.99	3281.17
953.294	3322.07
953.599	3316.88
953.904	3316.65
954.209	3270.78
954.513	3251.12
954.818	3232.81
955.122	3214.73
955.426	3197.33
955.731	3187.39
956.035	3185.81
956.339	3207.5
956.643	3158.24
956.948	3118.69
957.252	3165.69
957.556	3139.03
957.86	3093.61
958.163	3064.91
958.467	3130.67
958.771	3049.54
959.075	3087.5
959.378	3090.67
959.682	3075.98
959.985	3070.33
960.289	3044.79
960.592	3023.1
960.896	2995.98
961.199	2989.65
961.502	2968.86
961.805	2978.58
962.108	3002.08
962.411	2966.15
962.714	2899.94
963.017	2955.3
963.32	2915.08
963.623	2912.37
963.926	2883.89
964.228	2832.37
964.531	2854.97
964.833	2861.07
965.136	2807.96
965.438	2809.77
965.741	2803.67
966.043	2831.92
966.345	2765.03
966.648	2776.1
966.95	2743.78
967.252	2720.51
967.554	2738.36
967.856	2711.02
968.158	2673.05
968.46	2683.22
968.761	2654.75
969.063	2673.5
969.365	2648.65
969.666	2647.97
969.968	2634.18
970.269	2610
970.571	2600.74
970.872	2612.49
971.174	2574.97
971.475	2564.81
971.776	2551.47
972.077	2530.68
972.378	2550.12
972.679	2551.02
972.98	2570.91
973.281	2526.16
973.582	2484.13
973.883	2498.37
974.183	2510.57
974.484	2485.26
974.785	2465.6
975.085	2439.39
975.386	2489.78
975.686	2438.93
975.986	2467.18
976.287	2442.55
976.587	2389.22
976.887	2383.12
977.187	2397.13
977.487	2386.05
977.787	2377.24
978.087	2327.98
978.387	2323.23
978.687	2367.97
978.987	2334.3
979.286	2335.43
979.586	2293.85
979.885	2297.47
980.185	2281.65
980.484	2269.22
980.784	2259.28
981.083	2226.28
981.382	2264.25
981.682	2243.91
981.981	2227.41
982.28	2237.81
982.579	2229.45
982.878	2208.66
983.177	2204.81
983.475	2184.02
983.774	2178.83
984.073	2139.28
984.372	2184.48
984.67	2139.28
984.969	2147.42
985.267	2123.24
985.566	2136.57
985.864	2095.89
986.162	2088.66
986.461	2080.75
986.759	2104.48
987.057	2066.74
987.355	2088.89
987.653	2062.22
987.951	2051.15
988.249	2042.56
988.547	2064.48
988.844	2017.93
989.142	1989.68
989.44	1989.91
989.737	1990.13
990.035	1974.99
990.332	1973.86
990.63	1986.97
990.927	1976.12
991.224	1941.09
991.521	1925.95
991.819	1920.3
992.116	1930.02
992.413	1889.34
992.71	1905.39
993.006	1884.6
993.303	1864.94
993.6	1871.49
993.897	1876.24
994.193	1861.1
994.49	1856.12
994.787	1840.76
995.083	1836.01
995.379	1824.94
995.676	1826.07
995.972	1815.22
996.268	1806.86
996.565	1781.55
996.861	1776.13
997.157	1781.32
997.453	1781.55
997.749	1757.14
998.044	1773.19
998.34	1756.24
998.636	1740.87
998.932	1730.25
999.227	1702.23
999.523	1711.49
999.818	1717.6
1000.114	1683.7
1000.409	1683.02
1000.704	1697.48
1001	1670.59
1001.295	1689.8
1001.59	1662.23
1001.885	1657.48
1002.18	1653.19
1002.475	1609.58
1002.77	1623.59
1003.065	1602.12
1003.359	1616.58
1003.654	1615.68
1003.949	1576.58
1004.243	1609.12
1004.538	1564.83
1004.832	1558.5
1005.127	1573.42
1005.421	1528.22
1005.715	1543.36
1006.009	1519.64
1006.304	1497.49
1006.598	1537.26
1006.892	1553.53
1007.186	1458.39
1007.48	1484.83
1007.773	1467.66
1008.067	1510.6
1008.361	1450.03
1008.655	1459.98
1008.948	1464.72
1009.242	1463.59
1009.535	1439.19
1009.829	1448.9
1010.122	1454.33
1010.415	1411.84
1010.708	1382.92
1011.001	1408.23
1011.295	1385.85
1011.588	1367.32
1011.881	1354.67
1012.173	1399.64
1012.466	1385.85
1012.759	1373.65
1013.052	1337.72
1013.344	1350.15
1013.637	1369.81
1013.93	1333.43
1014.222	1310.38
1014.514	1316.02
1014.807	1307.66
1015.099	1304.05
1015.391	1299.3
1015.683	1291.39
1015.976	1289.13
1016.268	1257.5
1016.56	1244.16
1016.851	1259.98
1017.143	1222.24
1017.435	1238.96
1017.727	1245.07
1018.018	1228.8
1018.31	1222.47
1018.602	1198.97
1018.893	1202.81
1019.185	1177.5
1019.476	1172.98
1019.767	1179.76
1020.058	1179.53
1020.35	1170.94
1020.641	1147.22
1020.932	1154.45
1021.223	1151.28
1021.514	1140.44
1021.804	1108.8
1022.095	1108.8
1022.386	1118.74
1022.677	1114.45
1022.967	1088.23
1023.258	1065.18
1023.548	1088.01
1023.839	1069.7
1024.129	1068.57
1024.419	1082.36
1024.709	1076.48
1025	1062.25
1025.29	1069.25
1025.58	1049.82
1025.87	1026.77
1026.16	1028.8
1026.449	1025.41
1026.739	1017.73
1027.029	1035.13
1027.319	1013.66
1027.608	1007.33
1027.898	967.33
1028.187	995.36
1028.477	988.58
1028.766	992.64
1029.055	1005.52
1029.344	951.74
1029.634	963.04
1029.923	949.93
1030.212	962.36
1030.501	938.63
1030.79	937.28
1031.078	944.74
1031.367	923.04
1031.656	926.66
1031.945	920.33
1032.233	904.28
1032.522	897.96
1032.81	898.18
1033.099	902.25
1033.387	867
1033.675	879.2
1033.963	871.97
1034.251	875.13
1034.54	855.47
1034.828	888.92
1035.116	867.45
1035.403	852.76
1035.691	825.64
1035.979	851.4
1036.267	827.22
1036.554	823.83
1036.842	823.16
1037.129	848.47
1037.417	827.22
1037.704	814.34
1037.992	806.66
1038.279	791.07
1038.566	803.5
1038.853	803.5
1039.14	803.5
