Data from foam2_polystyrene_foam_FLMS001491_00045.txt Node
Date: Wed Feb 08 10:58:01 GMT 2017
User: dcchb
Spectrometer: FLMS00149
Trigger mode: 0
Integration Time (sec): 2.000000E-2
Scans to average: 10
Electric dark correction enabled: true
Nonlinearity correction enabled: false
Boxcar width: 0
XAxis mode: Wavelengths
Number of Pixels in Spectrum: 2048
>>>>>Begin Spectral Data<<<<<
341.393	-5.96
341.776	-5.96
342.16	-5.96
342.543	-54.77
342.927	-65.39
343.31	-60.42
343.693	-69.01
344.077	-68.78
344.46	-63.59
344.843	-41.21
345.226	-45.28
345.61	-24.94
345.993	-30.14
346.376	3.08
346.759	5.56
347.142	37.65
347.525	37.65
347.908	62.96
348.291	67.03
348.674	101.38
349.057	88.05
349.44	129.18
349.823	150.19
350.206	161.72
350.588	226.8
350.971	210.76
351.354	240.81
351.737	256.86
352.119	293.69
352.502	275.16
352.884	289.4
353.267	306.35
353.65	297.53
354.032	313.58
354.414	318.1
354.797	338.66
355.179	352.45
355.562	347.25
355.944	347.48
356.326	333.69
356.709	326.01
357.091	360.81
357.473	353.35
357.855	341.6
358.238	373.01
358.62	341.83
359.002	369.4
359.384	362.62
359.766	370.75
360.148	366.91
360.53	361.94
360.912	366.23
361.294	354.03
361.676	348.15
362.057	375.05
362.439	352
362.821	368.49
363.203	344.09
363.584	354.03
363.966	369.17
364.348	367.36
364.729	364.2
365.111	349.51
365.493	347.02
365.874	363.75
366.256	356.06
366.637	352.67
367.019	336.18
367.4	342.51
367.781	364.43
368.163	343.64
368.544	364.2
368.925	364.65
369.306	352.22
369.688	343.41
370.069	369.62
370.45	362.84
370.831	391.32
371.212	371.2
371.593	360.58
371.974	381.37
372.355	352
372.736	367.36
373.117	393.13
373.498	401.71
373.879	363.97
374.26	358.1
374.641	373.24
375.021	375.05
375.402	382.96
375.783	383.86
376.163	406.91
376.544	404.88
376.925	400.58
377.305	403.07
377.686	410.07
378.066	386.12
378.447	425.44
378.827	422.5
379.208	404.2
379.588	389.51
379.968	404.2
380.349	429.06
380.729	413.01
381.109	426.34
381.489	442.62
381.87	443.52
382.25	440.13
382.63	451.88
383.01	440.36
383.39	431.09
383.77	445.33
384.15	462.28
384.53	427.47
384.91	479
385.29	440.81
385.67	471.32
386.049	487.59
386.429	485.1
386.809	480.35
387.189	487.59
387.568	497.76
387.948	504.31
388.328	496.63
388.707	492.33
389.087	499.11
389.466	522.61
389.846	508.15
390.225	518.77
390.605	530.52
390.984	503.4
391.363	535.72
391.743	547.47
392.122	536.85
392.501	537.75
392.881	549.28
393.26	537.3
393.639	585.66
394.018	582.72
394.397	560.13
394.776	571.88
395.155	557.41
395.534	585.44
395.913	583.18
396.292	594.02
396.671	617.07
397.05	609.39
397.429	620.46
397.808	607.81
398.186	622.95
398.565	627.24
398.944	613.68
399.323	648.03
399.701	623.63
400.08	623.63
400.458	639.22
400.837	643.06
401.215	664.98
401.594	687.13
401.972	693.91
402.351	679.45
402.729	685.09
403.107	680.12
403.486	700.24
403.864	711.08
404.242	704.76
404.62	722.83
404.999	714.7
405.377	728.71
405.755	743.85
406.133	758.77
406.511	740.46
406.889	781.59
407.267	758.54
407.645	770.06
408.023	780.23
408.401	818.2
408.779	805.32
409.156	809.16
409.534	844.64
409.912	824.98
410.29	850.97
410.667	842.6
411.045	852.77
411.422	886.22
411.8	881.47
412.178	886.67
412.555	904.3
412.933	921.7
413.31	927.57
413.687	953.79
414.065	954.47
414.442	966.22
414.819	951.08
415.197	988.36
415.574	987.01
415.951	1018.65
416.328	1032.43
416.705	1015.71
417.082	1019.78
417.46	1038.31
417.837	1025.88
418.214	1059.32
418.591	1071.07
418.967	1084.18
419.344	1094.58
419.721	1104.29
420.098	1114.24
420.475	1134.12
420.852	1134.57
421.228	1139.09
421.605	1147.46
421.982	1166.89
422.358	1181.81
422.735	1167.34
423.111	1183.84
423.488	1204.18
423.864	1229.49
424.241	1249.6
424.617	1278.07
424.994	1257.74
425.37	1271.29
425.746	1297.28
426.123	1308.36
426.499	1318.75
426.875	1335.02
427.251	1340.67
427.627	1378.64
428.003	1377.05
428.379	1419.09
428.756	1408.69
429.132	1428.8
429.507	1441.91
429.883	1500.44
430.259	1519.88
430.635	1511.29
431.011	1517.39
431.387	1545.19
431.763	1612.08
432.138	1606.65
432.514	1605.75
432.89	1624.28
433.265	1665.86
433.641	1673.32
434.016	1728.68
434.392	1743.37
434.767	1764.61
435.143	1771.17
435.518	1782.92
435.894	1803.26
436.269	1818.4
436.644	1874.22
437.02	1888.68
437.395	1874.67
437.77	1912.63
438.145	1893.88
438.52	1917.15
438.895	1982.24
439.271	1970.48
439.646	2030.82
440.021	2048
440.395	2069.47
440.77	2052.97
441.145	2064.27
441.52	2096.36
441.895	2097.94
442.27	2119.41
442.645	2167.99
443.019	2177.71
443.394	2201.21
443.769	2196.02
444.143	2187.43
444.518	2256.13
444.892	2226.98
445.267	2307.43
445.641	2271.04
446.016	2308.78
446.39	2353.3
446.764	2353.07
447.139	2317.37
447.513	2381.77
447.887	2363.24
448.262	2396.69
448.636	2409.12
449.01	2454.31
449.384	2496.8
449.758	2483.47
450.132	2510.58
450.506	2552.84
450.88	2571.6
451.254	2549.45
451.628	2573.63
452.002	2651.82
452.376	2666.96
452.75	2658.83
453.123	2707.64
453.497	2781.76
453.871	2800.07
454.244	2838.03
454.618	2854.53
454.992	2890.69
455.365	2855.66
455.739	2989.89
456.112	2969.33
456.486	3028.08
456.859	3037.12
457.232	3130.68
457.606	3080.96
457.979	3139.27
458.352	3168.19
458.725	3248.87
459.099	3244.8
459.472	3329.77
459.845	3347.85
460.218	3339.04
460.591	3434.63
460.964	3438.47
461.337	3510.78
461.71	3564.34
462.083	3592.14
462.456	3598.01
462.829	3619.93
463.201	3707.39
463.574	3683.21
463.947	3750.33
464.32	3849.53
464.692	3885.91
465.065	3932.92
465.438	3983.31
465.81	4014.5
466.183	4059.24
466.555	4102.18
466.928	4142.18
467.3	4143.99
467.672	4244.78
468.045	4341.27
468.417	4305.34
468.789	4348.05
469.161	4473.47
469.534	4508.05
469.906	4640.47
470.278	4668.95
470.65	4756.17
471.022	4809.51
471.394	4919.79
471.766	4972.44
472.138	4997.75
472.51	5108.93
472.882	5159.55
473.253	5209.04
473.625	5349.61
473.997	5427.12
474.369	5439.32
474.74	5539.88
475.112	5645.87
475.484	5684.74
475.855	5801.34
476.227	5805.41
476.598	5994.11
476.97	6057.61
477.341	6185.52
477.713	6279.98
478.084	6375.11
478.455	6498.73
478.827	6563.58
479.198	6733.98
479.569	6780.98
479.94	6922.67
480.311	7026.17
480.682	7136
481.053	7379.83
481.424	7493.96
481.795	7447.86
482.166	7653.73
482.537	7804.91
482.908	7961.51
483.279	8061.4
483.65	8156.76
484.021	8310.21
484.391	8422.07
484.762	8476.53
485.133	8612.8
485.503	8725.34
485.874	8899.12
486.244	8953.35
486.615	9251.42
486.985	9248.03
487.356	9481.47
487.726	9564.86
488.097	9688.7
488.467	9782.26
488.837	9994.23
489.207	10109.93
489.578	10215.92
489.948	10346.08
490.318	10475.8
490.688	10533.65
491.058	10745.85
491.428	10819.74
491.798	10965.05
492.168	11185.16
492.538	11233.74
492.908	11306.28
493.278	11511.48
493.648	11556
494.017	11734.07
494.387	11888.42
494.757	11882.31
495.126	11970
495.496	12095.87
495.866	12144.68
496.235	12347.84
496.605	12457.89
496.974	12599.13
497.344	12715.74
497.713	12768.39
498.082	12875.06
498.452	13027.37
498.821	13059.23
499.19	13148.5
499.559	13309.17
499.928	13478.43
500.298	13437.08
500.667	13567.24
501.036	13610.18
501.405	13794.58
501.774	13754.36
502.143	13913.67
502.512	14024.63
502.88	14146.21
503.249	14101.92
503.618	14229.82
503.987	14357.05
504.356	14430.04
504.724	14459.87
505.093	14564.05
505.462	14754.1
505.83	14825.97
506.199	15026.41
506.567	15165.62
506.936	15140.76
507.304	15413.97
507.672	15417.81
508.041	15530.35
508.409	15656.45
508.777	15812.15
509.145	15921.3
509.514	15926.95
509.882	16073.39
510.25	16207.4
510.618	16295.76
510.986	16323.78
511.354	16539.14
511.722	16730.1
512.09	16828.4
512.458	16890.54
512.826	17027.94
513.193	17160.82
513.561	17243.98
513.929	17398.55
514.297	17567.59
514.664	17735.95
515.032	17760.35
515.4	17939.33
515.767	18018.65
516.135	18219.78
516.502	18125.54
516.869	18385.87
517.237	18494.57
517.604	18470.39
517.972	18834.45
518.339	18944.73
518.706	18880.1
519.073	18965.97
519.44	19210.48
519.808	19435.56
520.175	19452.51
520.542	19673.07
520.909	19858.6
521.276	19950.13
521.643	20104.92
522.009	20173.62
522.376	20507.62
522.743	20599.15
523.11	20726.6
523.477	20976.09
523.843	21120.72
524.21	21346.25
524.577	21501.5
524.943	21607.03
525.31	21779
525.676	22041.14
526.043	22032.78
526.409	22191.2
526.776	22456.73
527.142	22406.33
527.508	22734.91
527.874	22850.61
528.241	23014
528.607	23106.2
528.973	23416.93
529.339	23306.2
529.705	23689.69
530.071	23836.8
530.437	23949.12
530.803	24025.05
531.169	24178.26
531.535	24143.01
531.901	24363.79
532.267	24479.95
532.632	24685.37
532.998	24799.49
533.364	25058.69
533.73	25020.05
534.095	25251
534.461	25404.67
534.826	25441.51
535.192	25521.5
535.557	25715.17
535.923	25815.73
536.288	25908.84
536.653	25982.06
537.019	25933.92
537.384	26058.44
537.749	26233.12
538.114	26258.89
538.479	26336.4
538.845	26506.56
539.21	26450.29
539.575	26621.36
539.94	26799.66
540.305	26924.86
540.67	26946.78
541.034	27008.7
541.399	27205.08
541.764	27210.05
542.129	27358.07
542.494	27477.61
542.858	27638.96
543.223	27674.22
543.587	27884.15
543.952	27813.65
544.316	27833.08
544.681	27920.99
545.045	28127.09
545.41	28229.91
545.774	28411.37
546.138	28388.1
546.503	28473.52
546.867	28601.88
547.231	28900.85
547.595	28843.9
547.959	28968.65
548.324	29120.73
548.688	29254.97
549.052	29248.41
549.416	29261.74
549.779	29324.79
550.143	29450.21
550.507	29761.62
550.871	29814.5
551.235	29727.04
551.599	29859.02
551.962	29991.9
552.326	30043.87
552.689	30176.3
553.053	30199.8
553.417	30384.43
553.78	30827.81
554.143	30570.41
554.507	30741.03
554.87	30775.15
555.234	31101.47
555.597	30908.93
555.96	31142.6
556.323	31352.76
556.686	31429.6
557.05	31656.26
557.413	31704.17
557.776	31778.06
558.139	32051.05
558.502	32044.04
558.865	32123.36
559.228	32333.53
559.59	32550.92
559.953	32731.26
560.316	32869.79
560.679	33179.38
561.041	33154.52
561.404	33199.95
561.767	33517.23
562.129	33492.14
562.492	33755.19
562.854	33930.32
563.217	33903.88
563.579	34185.68
563.941	34358.11
564.304	34333.7
564.666	34791.09
565.028	34665.67
565.39	34772.33
565.753	34953.8
566.115	35067.47
566.477	35210.51
566.839	35334.81
567.201	35590.17
567.563	35593.1
567.925	35917.84
568.287	35894.56
568.648	36144.95
569.01	36248.45
569.372	36453.65
569.734	36233.09
570.095	36682.57
570.457	36806.63
570.819	36904.48
571.18	36998.94
571.542	37075.55
571.903	37268.09
572.265	37284.13
572.626	37393.73
572.987	37405.49
573.349	37626.95
573.71	37748.3
574.071	37893.83
574.432	38008.41
574.794	38263.54
575.155	38203.2
575.516	38078.91
575.877	38287.04
576.238	38422.86
576.599	38463.76
576.96	38376.76
577.32	38597.09
577.681	38784.66
578.042	38812.91
578.403	38774.26
578.763	38896.97
579.124	38893.58
579.485	39115.5
579.845	39057.87
580.206	38923.41
580.566	39073.46
580.927	39164.76
581.287	39222.84
581.648	38976.52
582.008	39339.45
582.368	39237.98
582.728	39495.15
583.089	39334.02
583.449	39251.54
583.809	39340.58
584.169	39508.71
584.529	39305.1
584.889	39656.73
585.249	39431.19
585.609	39479.78
585.969	39629.83
586.329	39429.16
586.688	39600.68
587.048	39596.16
587.408	39599.1
587.768	39516.84
588.127	39553.45
588.487	39494.24
588.846	39713.67
589.206	39477.3
589.565	39616.5
589.925	39845.65
590.284	39589.38
590.643	39661.7
591.003	39766.33
591.362	39935.36
591.721	39759.1
592.08	39734.92
592.44	39964.06
592.799	39701.02
593.158	39842.03
593.517	39705.99
593.876	39790.96
594.235	39816.72
594.593	39896.27
594.952	39900.34
595.311	39740.57
595.67	39856.95
596.029	39872.31
596.387	40016.72
596.746	39999.32
597.104	39783.28
597.463	39814.01
597.822	40086.32
598.18	39809.72
598.538	39848.13
598.897	40051.29
599.255	39825.76
599.613	40457.61
599.972	40256.94
600.33	40425.07
600.688	40113.66
601.046	40331.28
601.404	40417.61
601.762	40350.72
602.12	40421.68
602.478	40574.89
602.836	40630.94
603.194	40350.04
603.552	40387.33
603.91	40259.42
604.268	40571.73
604.625	40486.76
604.983	40481.34
605.341	40400.21
605.698	40668.68
606.056	40759.52
606.413	40493.77
606.771	40811.5
607.128	40933.53
607.485	40717.04
607.843	40893.98
608.2	40942.79
608.557	41169.23
608.914	41056.91
609.272	41309.11
609.629	41234.09
609.986	41399.73
610.343	41314.31
610.7	41327.42
611.057	41324.93
611.414	41290.81
611.771	41350.92
612.127	41545.49
612.484	41554.3
612.841	41623.45
613.198	41455.1
613.554	41568.99
613.911	41723.11
614.267	41731.02
614.624	41463.91
614.98	41695.77
615.337	41784.35
615.693	41834.3
616.05	41787.29
616.406	42069.32
616.762	41840.17
617.118	41919.27
617.475	41985.25
617.831	42186.38
618.187	41952.26
618.543	42007.4
618.899	42344.11
619.255	42182.99
619.611	42243.55
619.967	42374.62
620.323	42428.4
620.678	42368.29
621.034	42041.07
621.39	42221.63
621.746	42234.74
622.101	42569.19
622.457	42198.13
622.812	42233.38
623.168	42365.58
623.523	42261.4
623.879	42443.55
624.234	42160.61
624.589	42420.72
624.945	42381.4
625.3	42515.63
625.655	42390.89
626.01	42379.59
626.365	42477.22
626.72	42237.22
627.075	42291.68
627.43	42334.62
627.785	42223.89
628.14	42390.89
628.495	42389.99
628.85	42359.71
629.205	42124.01
629.559	42443.55
629.914	42114.51
630.269	42283.78
630.623	42116.55
630.978	41967.63
631.332	42245.36
631.687	42267.96
632.041	41968.53
632.396	42077
632.75	41946.38
633.104	41970.79
633.459	41728.31
633.813	41944.8
634.167	41847.18
634.521	41768.99
634.875	41840.62
635.229	41848.76
635.583	41551.37
635.937	41525.15
636.291	41474.08
636.645	41503.46
636.999	41355.66
637.352	41555.88
637.706	41311.82
638.06	41270.69
638.413	41443.8
638.767	41247.42
639.121	41250.13
639.474	41185.5
639.828	41043.13
640.181	41009.46
640.534	41045.62
640.888	40966.75
641.241	40638.39
641.594	40901.44
641.947	40877.94
642.301	40745.28
642.654	40896.02
643.007	40838.16
643.36	40624.84
643.713	40556.81
644.066	40631.39
644.419	40446.54
644.771	40122.93
645.124	39953.89
645.477	39767.68
645.83	39493.34
646.182	39384.87
646.535	39275.27
646.888	39220.58
647.24	39048.83
647.593	39331.99
647.945	39078.21
648.298	38823.75
648.65	38910.3
649.002	38714.15
649.355	38851.1
649.707	38854.49
650.059	38901.94
650.411	39309.39
650.763	39376.28
651.115	39858.75
651.467	39770.17
651.819	39719.1
652.171	39721.36
652.523	39544.41
652.875	39598.65
653.227	39381.25
653.578	39536.28
653.93	39414.25
654.282	39233.23
654.633	39049.74
654.985	39155.5
655.337	39175.38
655.688	39129.51
656.039	39346.9
656.391	38981.72
656.742	39042.96
657.094	39019
657.445	39158.21
657.796	39141.03
658.147	38975.39
658.498	39061.94
658.849	39074.37
659.2	38950.76
659.551	38854.49
659.902	38933.35
660.253	38990.08
660.604	39086.8
660.955	38758.22
661.306	39059.45
661.656	38846.58
662.007	39020.81
662.358	38903.75
662.708	38959.79
663.059	38864.66
663.409	38550.31
663.76	38852.68
664.11	38553.93
664.461	38716.19
664.811	38628.05
665.161	38626.24
665.511	38530.2
665.862	38493.82
666.212	38639.58
666.562	38655.17
666.912	38528.62
667.262	38616.98
667.612	38461.95
667.962	38537.88
668.312	38491.33
668.662	38497.43
669.011	38465.8
669.361	38341.96
669.711	38369.3
670.06	38434.61
670.41	38332.01
670.76	38411.11
671.109	38464.21
671.459	38362.97
671.808	38375.86
672.157	38369.3
672.507	38206.14
672.856	38303.77
673.205	38301.73
673.554	38407.27
673.904	38193.26
674.253	38373.6
674.602	38181.74
674.951	37652.94
675.3	37415.88
675.649	38131.79
675.998	37954.4
676.346	38040.5
676.695	38152.13
677.044	37905.36
677.393	38032.36
677.741	38011.8
678.09	37871.69
678.438	37784.23
678.787	37958.69
679.135	37662.65
679.484	37482.09
679.832	37718.47
680.181	37521.41
680.529	37601.64
680.877	37546.5
681.225	37586.05
681.573	37708.3
681.922	37327.52
682.27	37368.65
682.618	37431.7
682.966	37239.84
683.314	37334.07
683.661	37177.02
684.009	37052.73
684.357	36935.22
684.705	36826.52
685.053	36870.13
685.4	36739.74
685.748	36618.61
686.095	36569.58
686.443	36525.96
686.79	36438.28
687.138	36523.25
687.485	36403.48
687.832	36296.36
688.18	36347.43
688.527	36191.51
688.874	36091.85
689.221	36001.45
689.568	35889.14
689.915	35728.47
690.262	35779.09
690.609	35695.02
690.956	35669.49
691.303	35498.19
691.65	35471.75
691.997	35407.8
692.344	35243.28
692.69	35037.41
693.037	35093.23
693.383	34970.52
693.73	35011.2
694.077	34842.61
694.423	34764.88
694.769	34582.96
695.116	34627.48
695.462	34596.75
695.808	34298.9
696.155	34457.09
696.501	34169.41
696.847	34121.05
697.193	34072.92
697.539	34191.33
697.885	33942.3
698.231	33664.57
698.577	33793.38
698.923	33630.67
699.269	33740.72
699.614	33413.5
699.96	33389.09
700.306	33389.55
700.651	33225.48
700.997	33151.59
701.342	33136.45
701.688	33096.45
702.033	32971.93
702.379	32867.75
702.724	32712.5
703.069	32845.83
703.415	32570.81
703.76	32561.54
704.105	32569
704.45	32536.91
704.795	32322.46
705.14	32202.91
705.485	32142.35
705.83	32083.59
706.175	32110.71
706.52	31928.57
706.865	31828.23
707.209	31671.4
707.554	31710.72
707.899	31725.41
708.243	31499.88
708.588	31531.29
708.932	31187.57
709.277	31248.36
709.621	31313.44
709.966	31056.73
710.31	31160.68
710.654	30929.95
710.998	30870.74
711.342	30868.93
711.687	30794.59
712.031	30620.81
712.375	30575.61
712.719	30691.31
713.063	30604.08
713.407	30687.47
713.75	30508.72
714.094	30399.34
714.438	30269.63
714.782	30378.1
715.125	30072.57
715.469	30246.8
715.812	30080.93
716.156	29898.11
716.499	29879.58
716.843	29847.72
717.186	29724.11
717.53	29833.71
717.873	29813.59
718.216	29793.03
718.559	29598.69
718.902	29458.58
719.246	29485.69
719.589	29435.75
719.932	29282.54
720.275	29322.08
720.617	29141.52
720.96	29215.87
721.303	29109.43
721.646	29149.21
721.989	28983.56
722.331	29134.29
722.674	28829.67
723.016	28889.1
723.359	28821.76
723.701	28962.54
724.044	28690.69
724.386	28596.45
724.729	28760.97
725.071	28641.42
725.413	28598.03
725.755	28377.02
726.097	28307.19
726.439	28281.21
726.782	28322.11
727.124	28362.56
727.465	28267.19
727.807	28311.26
728.149	28106.07
728.491	28050.25
728.833	28064.71
729.175	27938.39
729.516	27849.35
729.858	27868.34
730.199	27861.56
730.541	27756.7
730.882	27678.28
731.224	27877.83
731.565	27678.51
731.906	27531.85
732.248	27667.66
732.589	27357.16
732.93	27430.61
733.271	27523.71
733.612	27420.66
733.953	27444.39
734.294	27412.98
734.635	27309.93
734.976	27294.34
735.317	27149.71
735.658	27235.36
735.999	27170.5
736.339	27100.22
736.68	27114.46
737.021	27005.31
737.361	26975.48
737.702	27008.7
738.042	26969.38
738.383	26854.35
738.723	26804.86
739.063	26714.47
739.404	26721.25
739.744	26759.21
740.084	26575.71
740.424	26655.71
740.764	26513.57
741.104	26577.75
741.444	26476.51
741.784	26368.71
742.124	26413.91
742.464	26347.47
742.804	26292.11
743.143	26309.96
743.483	26205.1
743.823	26203.52
744.162	26088.27
744.502	26180.92
744.841	26021.15
745.181	26073.58
745.52	25897.09
745.86	25956.97
746.199	25836.75
746.538	25769.86
746.877	25939.12
747.216	25894.6
747.556	25869.74
747.895	25770.31
748.234	25661.16
748.573	25574.38
748.911	25662.07
749.25	25599.24
749.589	25446.48
749.928	25481.28
750.267	25514.27
750.605	25375.29
750.944	25383.88
751.283	25197.22
751.621	25356.54
751.96	25133.72
752.298	25074.51
752.636	25105.7
752.975	25008.3
753.313	24951.35
753.651	24952.71
753.989	24787.51
754.327	24703.45
754.666	24792.26
755.004	24711.81
755.342	24672.71
755.679	24649.66
756.017	24495.09
756.355	24502.32
756.693	24333.51
757.031	24430.69
757.368	24155.44
757.706	24122.9
758.044	24087.42
758.381	24171.03
758.719	23981.66
759.056	24158.83
759.394	23936.01
759.731	23864.6
760.068	23720.65
760.405	23776.47
760.743	23637.26
761.08	23682
761.417	23541.44
761.754	23353.43
762.091	23479.3
762.428	23309.13
762.765	23063.94
763.102	23238.17
763.438	23118.4
763.775	22932.87
764.112	23014.45
764.449	22971.06
764.785	22807
765.122	22699.21
765.458	22750.96
765.795	22656.95
766.131	22575.14
766.467	22573.56
766.804	22377.41
767.14	22275.26
767.476	22343.28
767.812	22244.98
768.148	22097.19
768.485	22162.5
768.821	21921.82
769.157	21901.94
769.492	21874.59
769.828	21816.06
770.164	21611.1
770.5	21677.09
770.836	21579.23
771.171	21534.94
771.507	21392.57
771.842	21335.17
772.178	21201.17
772.513	21179.47
772.849	21184.22
773.184	20990.78
773.519	21031.23
773.855	20793.04
774.19	20774.51
774.525	20704.91
774.86	20708.07
775.195	20632.82
775.53	20520.28
775.865	20358.02
776.2	20397.8
776.535	20156
776.87	20289.33
777.205	20096.79
777.539	19995.32
777.874	20011.37
778.209	19741.54
778.543	19802.78
778.878	19657.7
779.212	19783.12
779.547	19633.3
779.881	19666.29
780.215	19606.41
780.55	19592.62
780.884	19457.26
781.218	19417.26
781.552	19459.74
781.886	19219.97
782.22	19226.3
782.554	19132.07
782.888	18964.84
783.222	18948.57
783.556	18779.76
783.889	18866.54
784.223	18698.86
784.557	18673.1
784.89	18724.85
785.224	18565.08
785.557	18494.12
785.891	18464.74
786.224	18367.79
786.558	18393.33
786.891	18131.64
787.224	18104.07
787.557	18062.94
787.891	18024.98
788.224	17991.31
788.557	17979.1
788.89	17907.47
789.223	17899.78
789.556	17635.16
789.888	17662.5
790.221	17557.87
790.554	17537.08
790.887	17524.43
791.219	17392.9
791.552	17330.53
791.884	17267.03
792.217	17216.19
792.549	17196.53
792.882	17003.08
793.214	16996.98
793.546	16989.75
793.879	16893.26
794.211	16817.78
794.543	16862.3
794.875	16783.43
795.207	16772.58
795.539	16721.74
795.871	16788.17
796.203	16561.06
796.535	16406.26
796.867	16465.7
797.198	16348.64
797.53	16390.9
797.862	16251.47
798.193	16328.98
798.525	16171.02
798.856	16224.8
799.188	16058.25
799.519	15986.61
799.85	15920.4
800.182	15978.48
800.513	15900.74
800.844	15763.57
801.175	15749.33
801.506	15751.82
801.837	15652.16
802.168	15673.85
802.499	15626.85
802.83	15506.17
803.161	15463.92
803.491	15426.18
803.822	15412.17
804.153	15342.79
804.483	15275.67
804.814	15193.87
805.145	15234.09
805.475	15121.33
805.805	15035.45
806.136	15067.32
806.466	15003.14
806.796	14946.64
807.126	14814.89
807.457	14765.18
807.787	14833.2
808.117	14757.72
808.447	14743.71
808.777	14842.01
809.107	14701
809.436	14681.79
809.766	14652.19
810.096	14557.5
810.426	14577.61
810.755	14581
811.085	14528.57
811.414	14442.25
811.744	14363.15
812.073	14380.33
812.403	14379.65
812.732	14237.28
813.061	14308.69
813.39	14254.23
813.719	14185.76
814.049	14241.8
814.378	14239.09
814.707	14061.47
815.036	14066.21
815.365	14048.81
815.693	13886.56
816.022	13914.13
816.351	13887.46
816.68	13853.34
817.008	13890.85
817.337	13684.98
817.665	13630.74
817.994	13683.62
818.322	13720.01
818.651	13615.83
818.979	13559.56
819.307	13690.18
819.636	13583.29
819.964	13428.71
820.292	13567.92
820.62	13478.88
820.948	13432.56
821.276	13507.13
821.604	13556.62
821.932	13442.05
822.259	13511.42
822.587	13388.72
822.915	13397.3
823.243	13516.4
823.57	13394.59
823.898	13380.81
824.225	13333.35
824.553	13384.2
824.88	13346.91
825.207	13481.14
825.535	13377.64
825.862	13387.36
826.189	13392.11
826.516	13445.66
826.843	13491.31
827.17	13499.67
827.497	13502.84
827.824	13451.99
828.151	13455.38
828.478	13478.43
828.805	13520.24
829.131	13421.71
829.458	13306.68
829.785	13308.49
830.111	13368.83
830.438	13367.02
830.764	13339.45
831.09	13379.45
831.417	13301.03
831.743	13428.49
832.069	13327.7
832.395	13254.48
832.722	13343.75
833.048	13190.08
833.374	13241.37
833.7	13198.21
834.026	13343.07
834.351	13267.14
834.677	13175.61
835.003	13239.12
835.329	13163.18
835.654	13224.65
835.98	13155.5
836.306	13157.54
836.631	13100.81
836.956	13129.06
837.282	13169.06
837.607	13038.22
837.932	12960.03
838.258	12955.05
838.583	12939.46
838.908	12890.2
839.233	12926.13
839.558	12856.3
839.883	12795.51
840.208	12864.21
840.533	12793.48
840.858	12843.65
841.182	12734.04
841.507	12757.77
841.832	12735.63
842.156	12731.56
842.481	12720.26
842.805	12655.4
843.13	12690.43
843.454	12678.45
843.778	12612.69
844.103	12575.86
844.427	12522.98
844.751	12447.5
845.075	12492.92
845.399	12471.45
845.723	12367.5
846.047	12421.28
846.371	12295.41
846.695	12242.08
847.019	12202.53
847.343	12156.66
847.666	12096.09
847.99	12085.47
848.313	12065.36
848.637	11945.14
848.96	11923.9
849.284	11862.2
849.607	11719.16
849.931	11742.88
850.254	11577.69
850.577	11615.43
850.9	11534.08
851.223	11581.53
851.546	11532.04
851.869	11470.35
852.192	11453.17
852.515	11358.49
852.838	11281.65
853.161	11273.29
853.483	11197.81
853.806	11107.87
854.129	11174.99
854.451	11155.55
854.774	11038.04
855.096	10948.55
855.419	10977.93
855.741	10998.72
856.063	10924.37
856.385	10826.75
856.708	10877.14
857.03	10807.31
857.352	10812.29
857.674	10809.12
857.996	10763.25
858.318	10663.59
858.64	10710.14
858.961	10681.44
859.283	10582.01
859.605	10625.4
859.926	10640.09
860.248	10570.26
860.57	10484.16
860.891	10505.4
861.212	10458.4
861.534	10345.41
861.855	10485.06
862.176	10430.15
862.498	10417.49
862.819	10367.33
863.14	10405.52
863.461	10335.46
863.782	10287.33
864.103	10301.34
864.424	10288.23
864.745	10277.16
865.065	10288.46
865.386	10153.55
865.707	10168.91
866.027	10226.76
866.348	10159.2
866.668	10190.83
866.989	10137.5
867.309	10083.94
867.63	10200.33
867.95	10207.33
868.27	10118.07
868.59	10108.35
868.91	10047.33
869.23	9998.3
869.55	10017.28
869.87	10082.81
870.19	10005.08
870.51	9976.15
870.83	10007.11
871.15	9909.26
871.469	9986.09
871.789	9929.15
872.109	9891.18
872.428	9779.32
872.748	9870.84
873.067	9894.34
873.386	9817.96
873.706	9766.44
874.025	9741.13
874.344	9808.47
874.663	9738.64
874.982	9764.18
875.301	9730.28
875.62	9676.95
875.939	9708.36
876.258	9710.17
876.577	9706.78
876.896	9657.97
877.214	9620.68
877.533	9631.98
877.852	9643.5
878.17	9553.79
878.489	9703.84
878.807	9613.67
879.125	9525.31
879.444	9598.76
879.762	9479.21
880.08	9459.33
880.398	9384.98
880.716	9474.24
881.034	9448.93
881.352	9448.93
881.67	9435.15
881.988	9358.54
882.306	9311.99
882.624	9412.1
882.941	9261.14
883.259	9318.54
883.577	9324.19
883.894	9227.24
884.212	9175.49
884.529	9250.29
884.846	9236.51
885.164	9153.35
885.481	9109.05
885.798	9194.48
886.115	9107.7
886.432	9144.08
886.75	9107.47
887.067	9081.94
887.383	9000.13
887.7	9013.24
888.017	9040.81
888.334	8961.49
888.651	8947.02
888.967	8881.26
889.284	8942.28
889.6	8892.56
889.917	8809.63
890.233	8767.59
890.55	8767.14
890.866	8754.71
891.182	8721.95
891.498	8745
891.815	8660.48
892.131	8603.76
892.447	8622.97
892.763	8612.34
893.079	8607.82
893.395	8530.31
893.71	8584.1
894.026	8544.55
894.342	8504.1
894.657	8442.18
894.973	8449.18
895.289	8375.29
895.604	8481.05
895.92	8341.62
896.235	8368.06
896.55	8378
896.865	8282.18
897.181	8217.1
897.496	8293.03
897.811	8162.86
898.126	8178.01
898.441	8143.2
898.756	8121.74
899.071	8049.87
899.386	8029.31
899.7	8007.39
900.015	7912.25
900.33	7963.77
900.644	7917.45
900.959	7946.15
901.273	7930.33
901.588	7856.21
901.902	7811.91
902.216	7789.31
902.531	7837.22
902.845	7778.02
903.159	7633.84
903.473	7703.89
903.787	7676.1
904.101	7606.27
904.415	7629.32
904.729	7574.18
905.042	7581.64
905.356	7538.7
905.67	7509.55
905.984	7490.79
906.297	7443.56
906.611	7436.78
906.924	7392.72
907.237	7389.78
907.551	7323.79
907.864	7276.33
908.177	7267.29
908.491	7253.06
908.804	7195.88
909.117	7151.14
909.43	7114.53
909.743	7100.07
910.056	7102.78
910.368	7083.8
910.681	7065.49
910.994	6990.69
911.307	6969
911.619	6941.2
911.932	6960.64
912.244	6800.19
912.557	6895.33
912.869	6781.43
913.181	6787.08
913.494	6804.93
913.806	6770.58
914.118	6741.21
914.43	6676.58
914.742	6673.64
915.054	6629.12
915.366	6642.9
915.678	6640.87
915.99	6526.07
916.302	6512.29
916.613	6474.1
916.925	6450.14
917.236	6432.51
917.548	6343.25
917.859	6412.18
918.171	6351.16
918.482	6357.49
918.794	6306.64
919.105	6293.99
919.416	6227.1
919.727	6197.72
920.038	6188.45
920.349	6138.74
920.66	6156.82
920.971	6176.02
921.282	6117.49
921.593	6068.91
921.903	6069.13
922.214	6031.85
922.525	5992.07
922.835	5947.56
923.146	5897.84
923.456	5957.05
923.767	5865.75
924.077	5924.73
924.387	5885.41
924.697	5774.9
925.008	5852.64
925.318	5726.32
925.628	5767
925.938	5716.38
926.248	5710.05
926.558	5636.6
926.867	5641.8
927.177	5589.82
927.487	5603.38
927.796	5536.49
928.106	5529.04
928.416	5584.4
928.725	5538.3
929.034	5489.49
929.344	5539.88
929.653	5549.37
929.962	5484.97
930.271	5447.46
930.581	5395.25
930.89	5364.75
931.199	5358.42
931.508	5345.54
931.817	5317.29
932.125	5270.96
932.434	5281.13
932.743	5224.18
933.051	5205.88
933.36	5190.29
933.669	5171.53
933.977	5201.36
934.286	5131.08
934.594	5140.8
934.902	5110.29
935.21	5031.87
935.519	5050.86
935.827	5006.79
936.135	5004.98
936.443	5009.95
936.751	4959.11
937.059	4939.9
937.367	4911.2
937.674	4906.23
937.982	4870.52
938.29	4871.88
938.597	4880.01
938.905	4826.46
939.213	4785.33
939.52	4776.06
939.827	4788.72
940.135	4768.38
940.442	4725.67
940.749	4738.55
941.056	4715.95
941.363	4661.26
941.67	4665.1
941.977	4662.39
942.284	4631.43
942.591	4621.04
942.898	4578.78
943.205	4562.96
943.511	4539.46
943.818	4534.71
944.125	4506.46
944.431	4475.96
944.738	4473.47
945.044	4483.19
945.35	4460.14
945.657	4374.49
945.963	4381.72
946.269	4326.81
946.575	4360.93
946.881	4294.49
947.187	4298.56
947.493	4278.9
947.799	4241.84
948.105	4231.67
948.41	4208.17
948.716	4235.28
949.022	4170.43
949.327	4165.68
949.633	4188.05
949.938	4104.67
950.244	4154.83
950.549	4135.4
950.854	4117.1
951.16	4143.99
951.465	4057.66
951.77	4063.99
952.075	4052.01
952.38	4019.92
952.685	4037.32
952.99	4001.84
953.294	3955.29
953.599	3968.4
953.904	3919.36
954.209	3880.04
954.513	3885.91
954.818	3852.7
955.122	3836.65
955.426	3812.7
955.731	3791.45
956.035	3805.69
956.339	3775.18
956.643	3827.61
956.948	3772.7
957.252	3702.87
957.556	3711
957.86	3694.06
958.163	3708.97
958.467	3681.17
958.771	3683.89
959.075	3629.65
959.378	3668.29
959.682	3653.83
959.985	3619.48
960.289	3578.58
960.592	3553.27
960.896	3527.51
961.199	3539.71
961.502	3543.32
961.805	3555.3
962.108	3522.31
962.411	3450.67
962.714	3483.67
963.017	3471.24
963.32	3461.75
963.623	3398.02
963.926	3422.88
964.228	3403.44
964.531	3357.79
964.833	3416.77
965.136	3329.77
965.438	3330.9
965.741	3306.49
966.043	3314.63
966.345	3238.7
966.648	3263.56
966.95	3274.86
967.252	3221.07
967.554	3245.48
967.856	3224.46
968.158	3166.61
968.46	3175.42
968.761	3197.57
969.063	3168.87
969.365	3129.32
969.666	3120.51
969.968	3109.89
970.269	3111.7
970.571	3111.02
970.872	3054.52
971.174	3036.45
971.475	3053.85
971.776	3059.95
972.077	3025.82
972.378	3043.68
972.679	3032.6
972.98	3000.29
973.281	2980.4
973.582	2989.89
973.883	2971.81
974.183	2958.71
974.484	2954.41
974.785	2934.08
975.085	2927.52
975.386	2916
975.686	2918.93
975.986	2908.99
976.287	2850.01
976.587	2828.32
976.887	2844.81
977.187	2846.17
977.487	2784.47
977.787	2822.89
978.087	2824.25
978.387	2764.36
978.687	2751.48
978.987	2741.99
979.286	2738.83
979.586	2713.06
979.885	2678.94
980.185	2706.28
980.484	2691.6
980.784	2652.27
981.083	2699.96
981.382	2654.76
981.682	2625.16
981.981	2649.11
982.28	2631.71
982.579	2593.97
982.878	2622.9
983.177	2580.19
983.475	2569.57
983.774	2587.42
984.073	2528.89
984.372	2537.7
984.67	2504.71
984.969	2533.18
985.267	2479.62
985.566	2503.58
985.864	2482.11
986.162	2488.66
986.461	2468.55
986.759	2459.29
987.057	2426.52
987.355	2434.88
987.653	2412.28
987.951	2408.89
988.249	2409.57
988.547	2367.76
988.844	2371.15
989.142	2343.58
989.44	2327.31
989.737	2344.94
990.035	2314.2
990.332	2312.62
990.63	2293.64
990.927	2288.67
991.224	2291.15
991.521	2268.33
991.819	2265.17
992.116	2274.21
992.413	2248.67
992.71	2223.36
993.006	2240.76
993.303	2207.77
993.6	2187.43
993.897	2207.77
994.193	2166.41
994.49	2183.13
994.787	2166.41
995.083	2182
995.379	2105.17
995.676	2104.94
995.972	2116.02
996.268	2123.48
996.565	2071.5
996.861	2065.4
997.157	2072.63
997.453	2083.93
997.749	2081.22
998.044	2031.73
998.34	2018.17
998.636	2004.83
998.932	2008
999.227	1982.24
999.523	1959.86
999.818	2011.16
1000.114	1957.83
1000.409	1961.22
1000.704	1952.41
1001	1944.27
1001.295	1939.75
1001.59	1931.62
1001.885	1918.51
1002.18	1916.93
1002.475	1878.06
1002.77	1862.47
1003.065	1862.69
1003.359	1864.05
1003.654	1834.44
1003.949	1854.33
1004.243	1834.22
1004.538	1824.5
1004.832	1806.87
1005.127	1788.57
1005.421	1800.09
1005.715	1768.46
1006.009	1793.31
1006.304	1770.94
1006.598	1746.08
1006.892	1763.26
1007.186	1714.9
1007.48	1722.58
1007.773	1713.77
1008.067	1681.9
1008.361	1709.47
1008.655	1680.78
1008.948	1681.68
1009.242	1695.01
1009.535	1666.09
1009.829	1657.95
1010.122	1639.87
1010.415	1638.74
1010.708	1655.69
1011.001	1597.39
1011.295	1601.46
1011.588	1579.76
1011.881	1578.86
1012.173	1583.38
1012.466	1594.45
1012.759	1537.05
1013.052	1573.21
1013.344	1538.86
1013.637	1516.49
1013.93	1530.95
1014.222	1527.56
1014.514	1525.07
1014.807	1513.77
1015.099	1522.36
1015.391	1495.92
1015.683	1465.87
1015.976	1487.79
1016.268	1452.98
1016.56	1455.47
1016.851	1455.7
1017.143	1432.87
1017.435	1439.65
1017.727	1435.36
1018.018	1422.93
1018.31	1418.86
1018.602	1408.01
1018.893	1374.34
1019.185	1373.89
1019.476	1393.32
1019.767	1373.21
1020.058	1360.33
1020.35	1324.63
1020.641	1351.07
1020.932	1310.39
1021.223	1295.02
1021.514	1298.41
1021.804	1316.94
1022.095	1289.6
1022.386	1278.07
1022.677	1251.18
1022.967	1259.77
1023.258	1239.43
1023.548	1233.33
1023.839	1243.05
1024.129	1227.23
1024.419	1240.79
1024.709	1221.8
1025	1198.53
1025.29	1189.49
1025.58	1204.86
1025.87	1182.26
1026.16	1176.38
1026.449	1173.44
1026.739	1182.93
1027.029	1161.24
1027.319	1156.95
1027.608	1162.37
1027.898	1159.21
1028.187	1112.2
1028.477	1114.69
1028.766	1129.6
1029.055	1105.87
1029.344	1106.55
1029.634	1090.51
1029.923	1097.29
1030.212	1089.83
1030.501	1072.66
1030.79	1068.81
1031.078	1058.64
1031.367	1038.98
1031.656	1057.97
1031.945	1050.28
1032.233	1046.89
1032.522	1013
1032.81	1031.75
1033.099	996.05
1033.387	1000.57
1033.675	1023.17
1033.963	1009.15
1034.251	981.13
1034.54	1000.79
1034.828	982.04
1035.116	979.32
1035.403	971.87
1035.691	976.84
1035.979	940.91
1036.267	956.5
1036.554	925.77
1036.842	904.3
1037.129	925.31
1037.417	928.93
1037.704	902.94
1037.992	923.51
1038.279	919.67
1038.566	919.21
1038.853	919.21
1039.14	919.21
