Data from foam2_polystyrene_foam_FLMS001491_00063.txt Node
Date: Wed Feb 08 10:58:19 GMT 2017
User: dcchb
Spectrometer: FLMS00149
Trigger mode: 0
Integration Time (sec): 2.000000E-2
Scans to average: 10
Electric dark correction enabled: true
Nonlinearity correction enabled: false
Boxcar width: 0
XAxis mode: Wavelengths
Number of Pixels in Spectrum: 2048
>>>>>Begin Spectral Data<<<<<
341.393	-19.39
341.776	-19.39
342.16	-19.39
342.543	-58.26
342.927	-58.26
343.31	-71.59
343.693	-80.18
344.077	-40.86
344.46	-62.78
344.843	-65.04
345.226	-33.63
345.61	-24.36
345.993	-40.18
346.376	0.27
346.759	11.12
347.142	17.44
347.525	63.32
347.908	53.83
348.291	77.78
348.674	96.31
349.057	98.57
349.44	124.11
349.823	150.55
350.206	151.45
350.588	183.99
350.971	200.72
351.354	246.36
351.737	241.62
352.119	256.08
352.502	257.89
352.884	267.83
353.267	289.53
353.65	296.98
354.032	290.2
354.414	288.4
354.797	304.67
355.179	312.12
355.562	319.36
355.944	313.48
356.326	342.86
356.709	341.5
357.091	334.5
357.473	334.5
357.855	332.46
358.238	345.8
358.62	359.81
359.002	353.71
359.384	344.89
359.766	354.84
360.148	335.63
360.53	344.67
360.912	353.25
361.294	338.56
361.676	325.46
362.057	341.05
362.439	339.24
362.821	339.24
363.203	343.54
363.584	352.8
363.966	336.53
364.348	327.49
364.729	348.51
365.111	336.76
365.493	359.58
365.874	320.26
366.256	347.15
366.637	329.07
367.019	320.49
367.4	323.65
367.781	338.11
368.163	339.02
368.544	320.03
368.925	320.26
369.306	346.93
369.688	332.01
370.069	327.04
370.45	334.5
370.831	306.25
371.212	346.02
371.593	341.05
371.974	332.24
372.355	327.27
372.736	352.8
373.117	325.23
373.498	332.91
373.879	308.28
374.26	336.98
374.641	338.56
375.021	341.5
375.402	361.84
375.783	349.41
376.163	355.29
376.544	360.26
376.925	366.59
377.305	357.32
377.686	383.08
378.066	360.48
378.447	355.29
378.827	359.58
379.208	371.56
379.588	356.19
379.968	374.04
380.349	363.65
380.729	404.33
381.109	392.8
381.489	391.67
381.87	376.76
382.25	387.15
382.63	405
383.01	395.29
383.39	379.47
383.77	386.47
384.15	398.68
384.53	402.52
384.91	387.15
385.29	400.94
385.67	418.34
386.049	406.13
386.429	402.52
386.809	415.17
387.189	397.32
387.568	417.43
387.948	422.18
388.328	410.88
388.707	452.23
389.087	421.5
389.466	424.66
389.846	430.77
390.225	423.99
390.605	447.71
390.984	445
391.363	470.54
391.743	442.06
392.122	449.3
392.501	463.53
392.881	441.16
393.26	464.89
393.639	456.08
394.018	471.89
394.397	472.35
394.776	468.05
395.155	460.6
395.534	468.05
395.913	461.95
396.292	487.49
396.671	479.13
397.05	482.74
397.429	515.06
397.808	489.75
398.186	492.46
398.565	510.54
398.944	499.01
399.323	513.7
399.701	520.71
400.08	509.18
400.458	511.44
400.837	520.48
401.215	522.97
401.594	544.43
401.972	539.01
402.351	530.65
402.729	532.68
403.107	539.01
403.486	537.88
403.864	568.84
404.242	553.93
404.62	582.85
404.999	572.91
405.377	555.96
405.755	581.72
406.133	578.78
406.511	584.66
406.889	604.77
407.267	587.82
407.645	603.87
408.023	595.96
408.401	609.07
408.779	622.85
409.156	610.87
409.534	605.9
409.912	621.95
410.29	609.29
410.667	642.74
411.045	639.57
411.422	667.14
411.8	662.17
412.178	649.06
412.555	667.14
412.933	676.86
413.31	693.36
413.687	699.01
414.065	727.93
414.442	697.43
414.819	707.14
415.197	707.82
415.574	731.77
415.951	715.28
416.328	741.04
416.705	737.65
417.082	745.79
417.46	751.66
417.837	760.25
418.214	769.74
418.591	764.99
418.967	768.61
419.344	763.86
419.721	778.33
420.098	780.59
420.475	806.35
420.852	791.89
421.228	824.65
421.605	800.02
421.982	847.7
422.358	825.33
422.735	858.78
423.111	823.98
423.488	854.94
423.864	861.49
424.241	881.83
424.617	868.04
424.994	886.8
425.37	906.91
425.746	884.76
426.123	904.88
426.499	902.62
426.875	913.24
427.251	913.69
427.627	936.06
428.003	976.51
428.379	940.81
428.756	968.6
429.132	966.8
429.507	983.29
429.883	1014.7
430.259	1018.09
430.635	1033.91
431.011	1030.98
431.387	1042.95
431.763	1066.91
432.138	1077.08
432.514	1063.52
432.89	1099.22
433.265	1117.75
433.641	1106.23
434.016	1103.74
434.392	1136.74
434.767	1173.57
435.143	1169.28
435.518	1178.09
435.894	1199.56
436.269	1180.58
436.644	1214.93
437.02	1218.09
437.395	1217.41
437.77	1234.81
438.145	1243.85
438.52	1249.5
438.895	1295.38
439.271	1288.14
439.646	1291.76
440.021	1326.56
440.395	1343.74
440.77	1311.42
441.145	1342.15
441.52	1352.32
441.895	1351.65
442.27	1370.4
442.645	1378.09
443.019	1369.95
443.394	1395.26
443.769	1405.43
444.143	1412.66
444.518	1460.79
444.892	1429.84
445.267	1439.1
445.641	1451.53
446.016	1471.19
446.39	1486.1
446.764	1491.98
447.139	1487.01
447.513	1514.58
447.887	1502.15
448.262	1529.95
448.636	1558.42
449.01	1574.01
449.384	1563.62
449.758	1603.16
450.132	1616.27
450.506	1607.46
450.88	1618.98
451.254	1612.43
451.628	1662.82
452.002	1658.98
452.376	1666.67
452.75	1699.43
453.123	1697.62
453.497	1742.6
453.871	1733.56
454.244	1791.86
454.618	1763.61
454.992	1781.92
455.365	1802.03
455.739	1834.12
456.112	1834.34
456.486	1851.29
456.859	1874.34
457.232	1910.95
457.606	1915.7
457.979	1925.87
458.352	1941.91
458.725	1966.09
459.099	1943.49
459.472	2016.03
459.845	2016.03
460.218	2018.75
460.591	2048.8
460.964	2056.49
461.337	2096.94
461.71	2133.77
462.083	2190.49
462.456	2163.38
462.829	2174.67
463.201	2184.84
463.574	2226.65
463.947	2224.62
464.32	2253.99
464.692	2283.82
465.065	2306.42
465.438	2345.52
465.81	2391.17
466.183	2386.87
466.555	2442.24
466.928	2448.57
467.3	2446.53
467.672	2485.4
468.045	2537.15
468.417	2550.71
468.789	2532.63
469.161	2579.64
469.534	2620.99
469.906	2671.61
470.278	2654.66
470.65	2708.67
471.022	2760.42
471.394	2773.98
471.766	2835.67
472.138	2828.22
472.51	2914.77
472.882	2953.86
473.253	3003.81
473.625	2991.83
473.997	3066.4
474.369	3101.43
474.74	3135.33
475.112	3192.73
475.484	3238.83
475.855	3332.16
476.227	3283.57
476.598	3402.66
476.97	3379.61
477.341	3477.01
477.713	3520.63
478.084	3573.96
478.455	3630.23
478.827	3688.53
479.198	3737.57
479.569	3769.43
479.94	3919.94
480.311	3893.27
480.682	3988.86
481.053	4024.12
481.424	4135.3
481.795	4156.09
482.166	4216.88
482.537	4253.94
482.908	4317.44
483.279	4366.71
483.65	4480.38
484.021	4529.41
484.391	4592.46
484.762	4621.16
485.133	4675.63
485.503	4741.61
485.874	4809.41
486.244	4825.68
486.615	4964.43
486.985	5010.31
487.356	5057.54
487.726	5152.9
488.097	5225.22
488.467	5254.82
488.837	5383.18
489.207	5397.64
489.578	5515.6
489.948	5502.72
490.318	5601.93
490.688	5663.4
491.058	5710.63
491.428	5813.9
491.798	5872.88
492.168	5958.3
492.538	6008.7
492.908	6051.18
493.278	6132.54
493.648	6148.13
494.017	6203.5
494.387	6309.93
494.757	6332.98
495.126	6351.29
495.496	6378.63
495.866	6452.3
496.235	6516.71
496.605	6628.79
496.974	6627.89
497.344	6709.24
497.713	6721.22
498.082	6789.24
498.452	6907.88
498.821	6839.64
499.19	6887.54
499.559	6975.68
499.928	7008.9
500.298	7102.68
500.667	7104.94
501.036	7144.49
501.405	7185.62
501.774	7230.81
502.143	7264.48
502.512	7326.18
502.88	7437.59
503.249	7495.89
503.618	7481.43
503.987	7579.05
504.356	7597.13
504.724	7647.98
505.093	7629.9
505.462	7729.56
505.83	7810.23
506.199	7852.04
506.567	7948.08
506.936	7942.43
507.304	8015.88
507.672	8075.31
508.041	8150.56
508.409	8211.35
508.777	8257.45
509.145	8280.05
509.514	8321.41
509.882	8391.46
510.25	8391.01
510.618	8507.84
510.986	8543.32
511.354	8583.32
511.722	8711.9
512.09	8754.61
512.458	8807.04
512.826	8836.19
513.193	8918.45
513.561	8943.08
513.929	8994.16
514.297	9105.11
514.664	9138.56
515.032	9200.48
515.4	9223.98
515.767	9315.28
516.135	9372.68
516.502	9313.92
516.869	9484.99
517.237	9596.85
517.604	9548.04
517.972	9688.15
518.339	9727.92
518.706	9831.87
519.073	9863.74
519.44	9896.96
519.808	9998.2
520.175	10072.77
520.542	10105.09
520.909	10268.25
521.276	10206.1
521.643	10275.03
522.009	10409.94
522.376	10507.79
522.743	10556.37
523.11	10660.33
523.477	10728.8
523.843	10845.86
524.21	10849.02
524.577	10994.56
524.943	11020.09
525.31	11119.3
525.676	11206.08
526.043	11275.45
526.409	11364.26
526.776	11425.28
527.142	11542.56
527.508	11563.58
527.874	11688.32
528.241	11749.11
528.607	11737.81
528.973	11913.63
529.339	11877.24
529.705	12033.17
530.071	12098.03
530.437	12227.74
530.803	12317.23
531.169	12344.12
531.535	12356.33
531.901	12373.28
532.267	12434.74
532.632	12594.51
532.998	12644.46
533.364	12694.85
533.73	12745.92
534.095	12823.21
534.461	12831.34
534.826	12933.94
535.192	12930.78
535.557	13052.81
535.923	13027.5
536.288	13195.63
536.653	13209.41
537.019	13127.61
537.384	13219.81
537.749	13277.21
538.114	13323.08
538.479	13368.96
538.845	13499.57
539.21	13446.69
539.575	13447.6
539.94	13595.62
540.305	13702.05
540.67	13696.86
541.034	13764.2
541.399	13835.38
541.764	13854.14
542.129	13913.57
542.494	13954.48
542.858	14066.57
543.223	14078.32
543.587	14154.7
543.952	14070.63
544.316	14218.43
544.681	14226.33
545.045	14257.97
545.41	14307.24
545.774	14352.66
546.138	14397.18
546.503	14405.99
546.867	14534.35
547.231	14649.83
547.595	14567.34
547.959	14727.56
548.324	14639.66
548.688	14707.23
549.052	14773.44
549.416	14767.56
549.779	14926.66
550.143	14902.93
550.507	15107.67
550.871	15100.21
551.235	15111.28
551.599	15284.61
551.962	15167.1
552.326	15246.65
552.689	15408.22
553.053	15279.41
553.417	15363.03
553.78	15572.29
554.143	15550.37
554.507	15640.54
554.87	15682.79
555.234	15755.56
555.597	15785.39
555.96	15881.43
556.323	16025.16
556.686	16058.15
557.05	16144.02
557.413	16083.24
557.776	16204.59
558.139	16307.18
558.502	16333.4
558.865	16439.84
559.228	16541.98
559.59	16544.47
559.953	16543.79
560.316	16713.95
560.679	16748.75
561.041	16908.75
561.404	16909.65
561.767	17056.32
562.129	17048.86
562.492	17294.05
562.854	17301.96
563.217	17191.45
563.579	17291.57
563.941	17440.26
564.304	17548.28
564.666	17683.87
565.028	17717.54
565.39	17691.55
565.753	17787.15
566.115	17944.43
566.477	17932.9
566.839	18057.19
567.201	18158.43
567.563	18220.13
567.925	18247.25
568.287	18332.44
568.648	18350.29
569.01	18478.43
569.372	18551.87
569.734	18462.61
570.095	18663.05
570.457	18778.98
570.819	18814.24
571.18	18905.53
571.542	18858.08
571.903	18992.99
572.265	19015.81
572.626	19035.02
572.987	19190.27
573.349	19286.77
573.71	19306.43
574.071	19350.49
574.432	19595.46
574.794	19500.32
575.155	19500.32
575.516	19416.71
575.877	19587.55
576.238	19634.33
576.599	19750.48
576.96	19779.18
577.32	19761.56
577.681	19860.54
578.042	19854.66
578.403	19868.67
578.763	19939.41
579.124	19981.66
579.485	20029.35
579.845	20063.92
580.206	19968.33
580.566	19961.78
580.927	20076.58
581.287	20162.9
581.648	20025.5
582.008	20185.95
582.368	20023.02
582.728	20213.3
583.089	20129.91
583.449	20121.77
583.809	20140.98
584.169	20180.08
584.529	20220.3
584.889	20408.09
585.249	20287.64
585.609	20122.23
585.969	20300.53
586.329	20227.76
586.688	20332.84
587.048	20281.54
587.408	20241.09
587.768	20285.38
588.127	20295.78
588.487	20203.13
588.846	20420.3
589.206	20220.3
589.565	20210.58
589.925	20324.48
590.284	20380.75
590.643	20341.88
591.003	20348.89
591.362	20403.8
591.721	20384.59
592.08	20331.26
592.44	20407.64
592.799	20420.75
593.158	20387.3
593.517	20361.99
593.876	20524.7
594.235	20443.57
594.593	20451.93
594.952	20413.52
595.311	20385.72
595.67	20398.15
596.029	20541.2
596.387	20586.62
596.746	20611.25
597.104	20508.88
597.463	20580.97
597.822	20559.95
598.18	20480.86
598.538	20440.41
598.897	20763.34
599.255	20476.79
599.613	20729.67
599.972	20583.46
600.33	20682.21
600.688	20637.69
601.046	20662.55
601.404	20746.62
601.762	20751.59
602.12	20745.03
602.478	20688.31
602.836	20710.46
603.194	20638.14
603.552	20761.53
603.91	20616.22
604.268	20748.65
604.625	20631.14
604.983	20876.56
605.341	20702.55
605.698	20850.34
606.056	20934.18
606.413	20857.8
606.771	20979.38
607.128	20823.45
607.485	20950.9
607.843	20977.12
608.2	20966.04
608.557	21092.6
608.914	20964.01
609.272	21118.36
609.629	21148.41
609.986	21185.7
610.343	21036.33
610.7	21230.67
611.057	21119.71
611.414	21162.88
611.771	21137.79
612.127	21251.24
612.484	21227.73
612.841	21218.92
613.198	21305.24
613.554	21306.15
613.911	21367.84
614.267	21389.08
614.624	21275.19
614.98	21358.58
615.337	21376.2
615.693	21454.39
616.05	21403.1
616.406	21513.38
616.762	21434.96
617.118	21435.86
617.475	21435.18
617.831	21510.21
618.187	21577.55
618.543	21557.44
618.899	21686.25
619.255	21547.95
619.611	21577.55
619.967	21714.73
620.323	21677.44
620.678	21668.4
621.034	21581.17
621.39	21573.94
621.746	21553.6
622.101	21710.43
622.457	21606.03
622.812	21620.49
623.168	21576.2
623.523	21650.77
623.879	21741.17
624.234	21527.39
624.589	21652.81
624.945	21617.78
625.3	21663.2
625.655	21603.32
626.01	21608.29
626.365	21684.22
626.72	21517.89
627.075	21625.46
627.43	21501.17
627.785	21516.76
628.14	21687.38
628.495	21538.46
628.85	21538.69
629.205	21464.34
629.559	21651.9
629.914	21519.48
630.269	21426.82
630.623	21449.87
630.978	21370.33
631.332	21381.18
631.687	21553.83
632.041	21434.96
632.396	21481.29
632.75	21353.61
633.104	21363.77
633.459	21278.35
633.813	21154.29
634.167	21246.26
634.521	21227.51
634.875	21257.34
635.229	21241.97
635.583	21046.04
635.937	21082.43
636.291	20997.68
636.645	21028.42
636.999	20957.91
637.352	20951.36
637.706	20786.16
638.06	20978.02
638.413	20879.04
638.767	20775.09
639.121	20908.42
639.474	20780.51
639.828	20757.91
640.181	20699.84
640.534	20746.62
640.888	20621.2
641.241	20625.49
641.594	20480.41
641.947	20663.91
642.301	20590.01
642.654	20564.93
643.007	20581.42
643.36	20521.76
643.713	20494.87
644.066	20660.06
644.419	20391.37
644.771	20152.96
645.124	20077.03
645.477	20013.53
645.83	19801.33
646.182	19825.96
646.535	19751.61
646.888	19815.57
647.24	19776.25
647.593	20006.75
647.945	19809.01
648.298	19765.4
648.65	19642.24
649.002	19609.24
649.355	19638.4
649.707	19680.65
650.059	19636.36
650.411	19856.7
650.763	19856.47
651.115	20064.6
651.467	19979.63
651.819	20073.64
652.171	19909.8
652.523	19853.76
652.875	19815.11
653.227	19904.6
653.578	19964.72
653.93	19776.02
654.282	19803.59
654.633	19753.87
654.985	19827.32
655.337	19693.31
655.688	19769.24
656.039	19756.81
656.391	19612.41
656.742	19605.85
657.094	19690.82
657.445	19608.11
657.796	19647.89
658.147	19591.84
658.498	19494.67
658.849	19628.68
659.2	19545.29
659.551	19501.22
659.902	19525.18
660.253	19474.56
660.604	19519.98
660.955	19417.16
661.306	19397.72
661.656	19353.43
662.007	19483.15
662.358	19530.6
662.708	19471.85
663.059	19433.66
663.409	19287.22
663.76	19409.25
664.11	19387.56
664.461	19516.14
664.811	19416.03
665.161	19264.85
665.511	19290.38
665.862	19147.56
666.212	19395.24
666.562	19357.95
666.912	19208.58
667.262	19170.84
667.612	19277.28
667.962	19312.75
668.312	19292.87
668.662	19252.87
669.011	19180.1
669.361	19131.97
669.711	19214
670.06	19100.56
670.41	19174.68
670.76	19137.39
671.109	19160.44
671.459	19108.92
671.808	19121.35
672.157	19142.36
672.507	19071.63
672.856	18934.46
673.205	19032.54
673.554	19080.67
673.904	18951.18
674.253	19103.95
674.602	19030.05
674.951	18808.36
675.3	18694.47
675.649	18957.51
675.998	18957.28
676.346	18995.7
676.695	19015.81
677.044	18869.15
677.393	18941.47
677.741	18940.56
678.09	18856.27
678.438	18904.18
678.787	18807.46
679.135	18869.38
679.484	18594.13
679.832	18777.4
680.181	18584.19
680.529	18646.56
680.877	18714.13
681.225	18537.41
681.573	18623.73
681.922	18526.11
682.27	18478.2
682.618	18492.21
682.966	18508.03
683.314	18585.09
683.661	18421.93
684.009	18305.32
684.357	18299.22
684.705	18247.25
685.053	18233.24
685.4	18317.98
685.748	18202.28
686.095	18060.81
686.443	18187.81
686.79	18100.81
687.138	18030.3
687.485	18093.8
687.832	18030.75
688.18	18000.47
688.527	17906.46
688.874	17908.95
689.221	17889.97
689.568	17735.17
689.915	17683.19
690.262	17679.13
690.609	17614.95
690.956	17708.73
691.303	17578.56
691.65	17546.47
691.997	17536.53
692.344	17473.71
692.69	17333.6
693.037	17450.21
693.383	17266.26
693.73	17324.11
694.077	17195.52
694.423	17224.67
694.769	17117.56
695.116	16973.16
695.462	17061.74
695.808	16995.3
696.155	17012.25
696.501	16929.54
696.847	16894.29
697.193	16833.5
697.539	16798.92
697.885	16696.78
698.231	16618.81
698.577	16668.3
698.923	16587.85
699.269	16502.89
699.614	16496.78
699.96	16513.96
700.306	16410.91
700.651	16327.75
700.997	16337.69
701.342	16268.99
701.688	16347.86
702.033	16186.28
702.379	16195.77
702.724	16131.14
703.069	16106.06
703.415	16013.41
703.76	16030.13
704.105	15983.58
704.45	15973.18
704.795	15771.15
705.14	15781.77
705.485	15819.29
705.83	15677.82
706.175	15744.26
706.52	15655.22
706.865	15654.55
707.209	15600.76
707.554	15546.98
707.899	15529.8
708.243	15425.17
708.588	15549.92
708.932	15375.46
709.277	15412.74
709.621	15372.75
709.966	15261.56
710.31	15266.76
710.654	15080.55
710.998	15240.09
711.342	15217.5
711.687	15148.12
712.031	15053.21
712.375	15013.43
712.719	15085.07
713.063	15043.94
713.407	15021.79
713.75	14990.83
714.094	14949.25
714.438	14858.63
714.782	14831.97
715.125	14798.52
715.469	14849.82
715.812	14759.65
716.156	14659.77
716.499	14747
716.843	14728.47
717.186	14634.23
717.53	14617.51
717.873	14688.02
718.216	14597.85
718.559	14549.94
718.902	14449.83
719.246	14456.39
719.589	14352.89
719.932	14299.55
720.275	14382.26
720.617	14363.28
720.96	14300.01
721.303	14283.73
721.646	14224.98
721.989	14212.55
722.331	14290.97
722.674	14218.2
723.016	14136.39
723.359	14126.22
723.701	14194.47
724.044	14064.08
724.386	14052.1
724.729	14100.69
725.071	14006.68
725.413	14003.06
725.755	14029.73
726.097	13979.11
726.439	13863.63
726.782	13879.45
727.124	13972.1
727.465	13840.81
727.807	13883.07
728.149	13799.45
728.491	13774.14
728.833	13820.24
729.175	13799
729.516	13676.74
729.858	13750.64
730.199	13622.28
730.541	13711.55
730.882	13655.95
731.224	13746.35
731.565	13497.99
731.906	13499.8
732.248	13574.15
732.589	13491.21
732.93	13391.1
733.271	13492.57
733.612	13537.31
733.953	13511.33
734.294	13427.26
734.635	13325.57
734.976	13455.28
735.317	13342.97
735.658	13356.98
735.999	13292.57
736.339	13286.47
736.68	13299.13
737.021	13197.66
737.361	13277.43
737.702	13231.33
738.042	13251.67
738.383	13114.05
738.723	13193.59
739.063	13067.04
739.404	13133.48
739.744	13098
740.084	13015.75
740.424	13078.34
740.764	12955.41
741.104	13063.65
741.444	12929.42
741.784	12939.59
742.124	13012.81
742.464	12957.44
742.804	12936.88
743.143	12796.32
743.483	12826.82
743.823	12838.12
744.162	12769.42
744.502	12853.49
744.841	12725.13
745.181	12800.61
745.52	12728.07
745.86	12713.61
746.199	12760.61
746.538	12734.85
746.877	12684.45
747.216	12690.56
747.556	12592.03
747.895	12594.51
748.234	12564.91
748.573	12503.22
748.911	12573.5
749.25	12582.31
749.589	12470.9
749.928	12492.37
750.267	12402.43
750.605	12432.71
750.944	12406.5
751.283	12352.49
751.621	12349.32
751.96	12331.47
752.298	12256.9
752.636	12325.59
752.975	12267.97
753.313	12219.61
753.651	12217.35
753.989	12145.26
754.327	12164.92
754.666	12013.74
755.004	12085.15
755.342	12034.98
755.679	12046.28
756.017	11964.7
756.355	11959.73
756.693	12014.87
757.031	11985.94
757.368	11924.93
757.706	11820.75
758.044	11790.69
758.381	11787.76
758.719	11762.22
759.056	11805.61
759.394	11677.93
759.731	11640.19
760.068	11609.45
760.405	11656.01
760.743	11544.82
761.08	11554.77
761.417	11534.88
761.754	11500.3
762.091	11426.86
762.428	11400.42
762.765	11303.47
763.102	11361.1
763.438	11317.03
763.775	11290.37
764.112	11248.33
764.449	11313.19
764.785	11233.65
765.122	11103.25
765.458	11118.39
765.795	11069.81
766.131	11040.88
766.467	10952.07
766.804	10934.9
767.14	10885.18
767.476	10896.03
767.812	10757.05
768.148	10887.44
768.485	10760.44
768.821	10743.71
769.157	10715.92
769.492	10650.61
769.828	10647.22
770.164	10503.5
770.5	10498.07
770.836	10543.27
771.171	10457.17
771.507	10551.4
771.842	10385.53
772.178	10350.28
772.513	10317.96
772.849	10374.01
773.184	10251.75
773.519	10331.52
773.855	10194.58
774.19	10243.16
774.525	10190.73
774.86	10120.45
775.195	10123.39
775.53	10049.5
775.865	9963.62
776.2	9980.57
776.535	9889.27
776.87	9925.21
777.205	9860.35
777.539	9829.84
777.874	9841.82
778.209	9755.27
778.543	9712.56
778.878	9671.2
779.212	9666.23
779.547	9605.44
779.881	9627.13
780.215	9493.8
780.55	9560.47
780.884	9519.79
781.218	9505.78
781.552	9546.46
781.886	9458.1
782.22	9343.53
782.554	9327.25
782.888	9229.4
783.222	9256.75
783.556	9222.85
783.889	9220.36
784.223	9163.19
784.557	9159.12
784.89	9126.36
785.224	9069.86
785.557	9095.17
785.891	9002.97
786.224	8992.12
786.558	8994.61
786.891	8848.17
787.224	8806.36
787.557	8880.03
787.891	8806.36
788.224	8812.24
788.557	8790.09
788.89	8813.82
789.223	8728.17
789.556	8630.78
789.888	8682.75
790.221	8615.41
790.554	8603.21
790.887	8533.6
791.219	8517.33
791.552	8534.06
791.884	8484.79
792.217	8447.73
792.549	8395.08
792.882	8403.66
793.214	8322.99
793.546	8357.79
793.879	8280.73
794.211	8272.14
794.543	8233.95
794.875	8254.06
795.207	8248.64
795.539	8205.02
795.871	8191.47
796.203	8108.08
796.535	8057.23
796.867	8078.25
797.198	8087.97
797.53	8046.16
797.862	7977.23
798.193	8059.94
798.525	7930.23
798.856	7967.29
799.188	7886.39
799.519	7853.85
799.85	7864.02
800.182	7803.45
800.513	7803.68
800.844	7695.89
801.175	7814.07
801.506	7793.96
801.837	7703.34
802.168	7672.16
802.499	7653.63
802.83	7644.59
803.161	7549.9
803.491	7668.09
803.822	7568.66
804.153	7565.72
804.483	7480.75
804.814	7522.78
805.145	7511.48
805.475	7427.19
805.805	7463.12
806.136	7414.54
806.466	7427.64
806.796	7407.76
807.126	7376.35
807.457	7318.04
807.787	7287.08
808.117	7295.22
808.447	7278.27
808.777	7313.52
809.107	7232.62
809.436	7247.76
809.766	7201.89
810.096	7222.9
810.426	7134.54
810.755	7134.32
811.085	7132.06
811.414	7115.79
811.744	7121.89
812.073	7046.86
812.403	7106.3
812.732	7017.48
813.061	7031.27
813.39	7017.48
813.719	7006.41
814.049	7017.48
814.378	6965.96
814.707	6955.57
815.036	6927.32
815.365	6885.06
815.693	6845.06
816.022	6837.6
816.351	6870.14
816.68	6850.26
817.008	6859.97
817.337	6758.51
817.665	6722.8
817.994	6792.41
818.322	6793.99
818.651	6673.99
818.979	6758.06
819.307	6733.65
819.636	6697.72
819.964	6681.45
820.292	6712.41
820.62	6695.23
820.948	6688.91
821.276	6691.62
821.604	6682.8
821.932	6655.46
822.259	6626.99
822.587	6653.43
822.915	6623.82
823.243	6601.22
823.57	6606.87
823.898	6598.96
824.225	6617.04
824.553	6545.86
824.88	6567.1
825.207	6566.88
825.535	6595.8
825.862	6588.34
826.189	6584.73
826.516	6636.48
826.843	6640.09
827.17	6593.54
827.497	6578.4
827.824	6540.66
828.151	6565.97
828.478	6618.17
828.805	6622.92
829.131	6596.48
829.458	6526.88
829.785	6495.69
830.111	6546.76
830.438	6577.95
830.764	6562.13
831.09	6537.72
831.417	6533.66
831.743	6566.65
832.069	6530.72
832.395	6506.99
832.722	6534.79
833.048	6542.7
833.374	6548.8
833.7	6481.23
834.026	6522.58
834.351	6510.83
834.677	6504.5
835.003	6543.6
835.329	6511.96
835.654	6508.35
835.98	6471.74
836.306	6449.36
836.631	6469.93
836.956	6492.75
837.282	6441.91
837.607	6486.65
837.932	6429.7
838.258	6441.45
838.583	6431.06
838.908	6378.18
839.233	6407.78
839.558	6321.68
839.883	6376.6
840.208	6289.37
840.533	6350.38
840.858	6365.75
841.182	6322.81
841.507	6349.71
841.832	6259.09
842.156	6296.15
842.481	6306.54
842.805	6241.91
843.13	6254.79
843.454	6250.5
843.778	6253.89
844.103	6225.64
844.427	6223.83
844.751	6194.68
845.075	6198.52
845.399	6161.69
845.723	6099.32
846.047	6164.4
846.371	6084.63
846.695	6078.53
847.019	6043.95
847.343	5977.29
847.666	5974.8
847.99	5971.41
848.313	5979.09
848.637	5916.5
848.96	5925.31
849.284	5878.76
849.607	5850.06
849.931	5841.24
850.254	5847.35
850.577	5822.71
850.9	5729.84
851.223	5732.1
851.546	5717.86
851.869	5707.46
852.192	5691.64
852.515	5657.07
852.838	5656.84
853.161	5656.16
853.483	5624.08
853.806	5558.77
854.129	5548.6
854.451	5554.92
854.774	5529.61
855.096	5521.03
855.419	5510.86
855.741	5495.94
856.063	5464.76
856.385	5433.57
856.708	5448.49
857.03	5386.12
857.352	5380.47
857.674	5433.35
857.996	5304.54
858.318	5336.4
858.64	5333.24
858.961	5320.35
859.283	5247.14
859.605	5282.84
859.926	5250.07
860.248	5270.64
860.57	5237.87
860.891	5229.28
861.212	5224.76
861.534	5215.27
861.855	5215.05
862.176	5208.49
862.498	5201.49
862.819	5209.62
863.14	5170.3
863.461	5186.8
863.782	5123.98
864.103	5175.5
864.424	5082.17
864.745	5121.49
865.065	5117.42
865.386	5094.37
865.707	5069.97
866.027	5094.6
866.348	5140.02
866.668	5084.43
866.989	5018.44
867.309	5052.56
867.63	5045.56
867.95	5005.11
868.27	5002.62
868.59	5022.74
868.91	5011.21
869.23	5051.21
869.55	5013.02
869.87	5015.5
870.19	5032.45
870.51	4989.06
870.83	5008.95
871.15	4950.19
871.469	4900.03
871.789	4961.04
872.109	4969.18
872.428	4948.61
872.748	4957.65
873.067	4941.61
873.386	4929.18
873.706	4906.13
874.025	4858.45
874.344	4895.05
874.663	4882.17
874.982	4859.8
875.301	4850.31
875.62	4887.37
875.939	4867.94
876.258	4819.12
876.577	4825.9
876.896	4807.37
877.214	4819.12
877.533	4781.39
877.852	4808.73
878.17	4814.38
878.489	4776.87
878.807	4803.53
879.125	4824.32
879.444	4778.9
879.762	4727.38
880.08	4784.55
880.398	4724.89
880.716	4743.42
881.034	4752.01
881.352	4739.58
881.67	4717.66
881.988	4675.63
882.306	4711.33
882.624	4636.98
882.941	4648.96
883.259	4692.35
883.577	4653.48
883.894	4621.84
884.212	4640.82
884.529	4653.25
884.846	4581.16
885.164	4560.6
885.481	4597.44
885.798	4605.8
886.115	4546.82
886.432	4557.44
886.75	4509.53
887.067	4562.63
887.383	4523.99
887.7	4508.62
888.017	4493.48
888.334	4467.95
888.651	4448.74
888.967	4442.86
889.284	4484.67
889.6	4459.81
889.917	4391.79
890.233	4395.41
890.55	4413.26
890.866	4389.98
891.182	4343.43
891.498	4369.87
891.815	4365.13
892.131	4344.11
892.447	4340.95
892.763	4321.96
893.079	4298.01
893.395	4228.41
893.71	4282.87
894.026	4272.02
894.342	4271.57
894.657	4266.6
894.973	4261.63
895.289	4198.35
895.604	4232.02
895.92	4239.48
896.235	4183.44
896.55	4163.77
896.865	4183.44
897.181	4186.37
897.496	4137.79
897.811	4115.64
898.126	4117.45
898.441	4041.07
898.756	4103.89
899.071	4045.81
899.386	4089.88
899.7	4073.38
900.015	4027.06
900.33	4017.11
900.644	4004.68
900.959	4044.91
901.273	4027.73
901.588	4000.84
901.902	3946.15
902.216	3987.73
902.531	3930.56
902.845	3886.04
903.159	3905.02
903.473	3874.29
903.787	3868.87
904.101	3899.37
904.415	3847.85
904.729	3855.31
905.042	3829.77
905.356	3788.42
905.67	3814.63
905.984	3780.06
906.297	3811.47
906.611	3789.55
906.924	3771.47
907.237	3709.32
907.551	3750
907.864	3705.48
908.177	3693.28
908.491	3653.51
908.804	3674.3
909.117	3620.51
909.43	3621.42
909.743	3629.78
910.056	3615.77
910.368	3581.64
910.681	3570.57
910.994	3568.99
911.307	3497.58
911.619	3527.18
911.932	3479.72
912.244	3520.63
912.557	3503.68
912.869	3467.07
913.181	3484.7
913.494	3455.54
913.806	3419.61
914.118	3445.38
914.43	3389.11
914.742	3414.19
915.054	3378.71
915.366	3367.41
915.678	3356.79
915.99	3312.5
916.302	3320.18
916.613	3327.64
916.925	3301.42
917.236	3269.11
917.548	3258.26
917.859	3281.54
918.171	3226.17
918.482	3263.23
918.794	3216.45
919.105	3211.71
919.416	3168.77
919.727	3175.55
920.038	3200.18
920.349	3164.03
920.66	3149.34
920.971	3148.43
921.282	3152.95
921.593	3108.66
921.903	3128.77
922.214	3076.12
922.525	3109.11
922.835	3061.43
923.146	3018.95
923.456	2995.9
923.767	3049.23
924.077	3031.83
924.387	2984.6
924.697	2987.08
925.008	2990.7
925.318	2976.24
925.628	2969
925.938	2921.1
926.248	2894.88
926.558	2933.07
926.867	2910.47
927.177	2884.26
927.487	2894.88
927.796	2855.33
928.106	2842.23
928.416	2873.19
928.725	2874.77
929.034	2820.31
929.344	2853.75
929.653	2831.61
929.962	2775.34
930.271	2753.19
930.581	2762.91
930.89	2771.72
931.199	2722.68
931.508	2716.13
931.817	2721.33
932.125	2716.58
932.434	2737.6
932.743	2721.78
933.051	2662.12
933.36	2661.89
933.669	2660.54
933.977	2656.02
934.286	2637.94
934.594	2644.94
934.902	2584.38
935.21	2597.49
935.519	2582.12
935.827	2571.95
936.135	2540.54
936.443	2579.18
936.751	2527.21
937.059	2530.37
937.367	2543.7
937.674	2505.29
937.982	2531.28
938.29	2525.85
938.597	2494.21
938.905	2502.8
939.213	2453.99
939.52	2459.64
939.827	2478.4
940.135	2438.62
940.442	2456.7
940.749	2416.93
941.056	2442.92
941.363	2428.68
941.67	2388
941.977	2381.67
942.284	2386.87
942.591	2366.31
942.898	2341.68
943.205	2374.44
943.511	2334.9
943.818	2336.93
944.125	2310.72
944.431	2332.41
944.738	2306.87
945.044	2307.1
945.35	2297.16
945.657	2259.42
945.963	2255.35
946.269	2251.96
946.575	2262.13
946.881	2227.78
947.187	2225.75
947.493	2237.27
947.799	2234.79
948.105	2201.11
948.41	2198.4
948.716	2202.24
949.022	2166.54
949.327	2164.05
949.633	2153.88
949.938	2137.61
950.244	2152.98
950.549	2148.01
950.854	2122.02
951.16	2136.26
951.465	2100.55
951.77	2067.78
952.075	2130.61
952.38	2091.29
952.685	2084.73
952.99	2040.21
953.294	2050.61
953.599	2072.3
953.904	2044.73
954.209	2019.88
954.513	2028.69
954.818	2023.72
955.122	2025.3
955.426	1986.88
955.731	2004.74
956.035	1995.02
956.339	1982.82
956.643	2013.1
956.948	2008.8
957.252	1947.56
957.556	1979.43
957.86	1960.22
958.163	1943.95
958.467	1943.04
958.771	1929.71
959.075	1927.45
959.378	1910.27
959.682	1918.64
959.985	1882.48
960.289	1872.31
960.592	1878.86
960.896	1914.12
961.199	1874.12
961.502	1872.76
961.805	1830.95
962.108	1832.08
962.411	1833.21
962.714	1793.44
963.017	1835.02
963.32	1818.07
963.623	1817.17
963.926	1827.79
964.228	1793.67
964.531	1769.26
964.833	1777.17
965.136	1768.36
965.438	1771.52
965.741	1738.53
966.043	1752.99
966.345	1755.25
966.648	1743.95
966.95	1744.18
967.252	1684.52
967.554	1713.44
967.856	1703.05
968.158	1717.74
968.46	1695.82
968.761	1714.8
969.063	1693.33
969.365	1665.99
969.666	1684.29
969.968	1650.39
970.269	1648.13
970.571	1647
970.872	1646.1
971.174	1651.98
971.475	1643.39
971.776	1647.91
972.077	1614.01
972.378	1615.14
972.679	1612.66
972.98	1595.48
973.281	1579.21
973.582	1583.5
973.883	1583.96
974.183	1548.7
974.484	1572.88
974.785	1566.33
975.085	1579.66
975.386	1575.14
975.686	1548.02
975.986	1543.5
976.287	1527.01
976.587	1511.42
976.887	1532.88
977.187	1545.09
977.487	1525.65
977.787	1500.79
978.087	1498.76
978.387	1516.84
978.687	1495.6
978.987	1512.54
979.286	1491.53
979.586	1496.95
979.885	1469.61
980.185	1458.76
980.484	1441.13
980.784	1466.44
981.083	1443.85
981.382	1440.46
981.682	1437.97
981.981	1440.46
982.28	1455.6
982.579	1398.88
982.878	1381.93
983.177	1394.36
983.475	1392.32
983.774	1379.89
984.073	1398.65
984.372	1390.29
984.67	1385.54
984.969	1418.99
985.267	1364.75
985.566	1361.14
985.864	1336.05
986.162	1360.91
986.461	1352.78
986.759	1345.32
987.057	1345.32
987.355	1321.59
987.653	1305.32
987.951	1301.48
988.249	1289.5
988.547	1303.28
988.844	1296.96
989.142	1294.7
989.44	1271.2
989.737	1286.56
990.035	1254.02
990.332	1253.12
990.63	1254.47
990.927	1271.65
991.224	1243.63
991.521	1276.39
991.819	1233.68
992.116	1257.86
992.413	1282.95
992.71	1221.03
993.006	1250.4
993.303	1236.85
993.6	1241.82
993.897	1200.01
994.193	1181.71
994.49	1215.83
994.787	1213.12
995.083	1178.09
995.379	1190.52
995.676	1202.95
995.972	1198.65
996.268	1162.95
996.565	1166.57
996.861	1176.06
997.157	1160.24
997.453	1142.61
997.749	1147.58
998.044	1139.67
998.34	1153.01
998.636	1118.43
998.932	1126.57
999.227	1135.38
999.523	1114.36
999.818	1105.1
1000.114	1119.11
1000.409	1127.02
1000.704	1107.36
1001	1112.56
1001.295	1077.98
1001.59	1069.39
1001.885	1072.1
1002.18	1104.87
1002.475	1056.96
1002.77	1049.51
1003.065	1074.14
1003.359	1074.82
1003.654	1054.03
1003.949	1030.07
1004.243	1027.81
1004.538	1062.39
1004.832	1032.78
1005.127	1048.38
1005.421	1018.77
1005.715	1031.43
1006.009	1039.56
1006.304	1007.7
1006.598	1019.68
1006.892	1006.12
1007.186	988.04
1007.48	985.1
1007.773	988.72
1008.067	982.16
1008.361	988.26
1008.655	967.02
1008.948	982.39
1009.242	967.25
1009.535	950.98
1009.829	959.34
1010.122	957.76
1010.415	949.85
1010.708	951.43
1011.001	938.55
1011.295	956.85
1011.588	918.21
1011.881	916.4
1012.173	939.23
1012.466	914.14
1012.759	907.82
1013.052	927.48
1013.344	911.2
1013.637	898.78
1013.93	915.05
1014.222	893.8
1014.514	888.61
1014.807	896.29
1015.099	894.03
1015.391	904.65
1015.683	866.23
1015.976	874.82
1016.268	858.78
1016.56	859.23
1016.851	834.14
1017.143	863.52
1017.435	866.23
1017.727	808.83
1018.018	846.35
1018.31	845.67
1018.602	823.52
1018.893	819.91
1019.185	812.68
1019.476	817.2
1019.767	814.26
1020.058	806.8
1020.35	803.41
1020.641	793.92
1020.932	822.39
1021.223	812
1021.514	778.55
1021.804	781.72
1022.095	797.08
1022.386	789.4
1022.677	797.54
1022.967	749.63
1023.258	766.58
1023.548	749.18
1023.839	760.02
1024.129	751.21
1024.419	749.4
1024.709	739.68
1025	755.05
1025.29	754.15
1025.58	743.07
1025.87	732.23
1026.16	743.3
1026.449	732.68
1026.739	719.35
1027.029	701.49
1027.319	717.99
1027.608	696.07
1027.898	702.4
1028.187	717.31
1028.477	692.91
1028.766	696.07
1029.055	686.58
1029.344	685.67
1029.634	675.96
1029.923	674.37
1030.212	690.19
1030.501	666.69
1030.79	682.74
1031.078	659.91
1031.367	685.45
1031.656	658.33
1031.945	670.99
1032.233	662.4
1032.522	661.27
1032.81	645
1033.099	640.25
1033.387	657.43
1033.675	652
1033.963	613.59
1034.251	657.65
1034.54	641.16
1034.828	635.05
1035.116	626.47
1035.403	630.53
1035.691	628.27
1035.979	637.09
1036.267	626.92
1036.554	603.87
1036.842	618.11
1037.129	615.39
1037.417	591.67
1037.704	618.11
1037.992	612
1038.279	597.77
1038.566	594.38
1038.853	594.38
1039.14	594.38
