Data from foam2_polystyrene_foam_FLMS001491_00092.txt Node
Date: Wed Feb 08 10:58:46 GMT 2017
User: dcchb
Spectrometer: FLMS00149
Trigger mode: 0
Integration Time (sec): 2.000000E-2
Scans to average: 10
Electric dark correction enabled: true
Nonlinearity correction enabled: false
Boxcar width: 0
XAxis mode: Wavelengths
Number of Pixels in Spectrum: 2048
>>>>>Begin Spectral Data<<<<<
341.393	-19.53
341.776	-19.53
342.16	-19.53
342.543	-52.07
342.927	-52.53
343.31	-80.55
343.693	-80.1
344.077	-57.5
344.46	-64.73
344.843	-42.58
345.226	-37.61
345.61	-38.97
345.993	-5.97
346.376	6.91
346.759	-10.27
347.142	43.52
347.525	26.34
347.908	59.11
348.291	63.85
348.674	94.36
349.057	124.19
349.44	136.85
349.823	143.4
350.206	166.68
350.588	182.27
350.971	211.42
351.354	229.73
351.737	228.82
352.119	246.22
352.502	279.22
352.884	279.22
353.267	280.12
353.65	291.87
354.032	290.97
354.414	304.53
354.797	292.55
355.179	306.56
355.562	289.39
355.944	339.33
356.326	330.06
356.709	328.48
357.091	319.21
357.473	340.23
357.855	335.03
358.238	340.46
358.62	337.07
359.002	336.84
359.384	347.24
359.766	346.33
360.148	344.3
360.53	372.32
360.912	314.7
361.294	341.36
361.676	333.45
362.057	366.45
362.439	355.6
362.821	359.21
363.203	323.73
363.584	331.87
363.966	331.42
364.348	334.58
364.729	337.97
365.111	352.21
365.493	325.09
365.874	321.02
366.256	316.95
366.637	315.37
367.019	318.99
367.4	323.06
367.781	314.92
368.163	338.2
368.544	330.51
368.925	332.32
369.306	361.93
369.688	329.61
370.069	345.65
370.45	337.29
370.831	321.47
371.212	342.49
371.593	311.53
371.974	340.01
372.355	344.98
372.736	339.33
373.117	344.52
373.498	360.57
373.879	344.3
374.26	325.99
374.641	334.36
375.021	333.68
375.402	321.02
375.783	333.23
376.163	371.87
376.544	366.22
376.925	379.78
377.305	355.37
377.686	345.88
378.066	355.15
378.447	370.29
378.827	369.38
379.208	371.42
379.588	390.85
379.968	352.43
380.349	370.51
380.729	387.46
381.109	383.85
381.489	375.48
381.87	378.87
382.25	379.1
382.63	371.87
383.01	382.72
383.39	398.76
383.77	397.18
384.15	392.89
384.53	396.05
384.91	392.66
385.29	389.95
385.67	403.73
386.049	407.57
386.429	420.46
386.809	415.26
387.189	407.12
387.568	411.64
387.948	422.26
388.328	438.99
388.707	437.86
389.087	425.43
389.466	444.41
389.846	437.86
390.225	444.64
390.605	438.08
390.984	443.73
391.363	453.45
391.743	442.15
392.122	443.73
392.501	456.61
392.881	469.49
393.26	461.36
393.639	489.15
394.018	461.36
394.397	480.79
394.776	472.88
395.155	483.73
395.534	486.22
395.913	477.4
396.292	487.35
396.671	496.39
397.05	503.39
397.429	512.88
397.808	505.2
398.186	509.27
398.565	522.15
398.944	528.25
399.323	485.76
399.701	524.41
400.08	525.54
400.458	520.11
400.837	540.45
401.215	543.84
401.594	546.78
401.972	531.41
402.351	556.27
402.729	587.46
403.107	550.4
403.486	573.67
403.864	549.49
404.242	574.35
404.62	576.16
404.999	584.97
405.377	578.64
405.755	563.73
406.133	598.53
406.511	597.4
406.889	593.56
407.267	615.93
407.645	630.39
408.023	604.18
408.401	604.63
408.779	623.61
409.156	646.89
409.534	645.53
409.912	656.16
410.29	634.01
410.667	669.04
411.045	693.22
411.422	662.48
411.8	679.43
412.178	680.56
412.555	699.09
412.933	727.79
413.31	710.62
413.687	723.27
414.065	736.83
414.442	705.42
414.819	744.06
415.197	781.8
415.574	760.79
415.951	779.99
416.328	781.12
416.705	788.58
417.082	786.77
417.46	789.71
417.837	806.43
418.214	797.17
418.591	825.42
418.967	820.22
419.344	833.33
419.721	822.48
420.098	848.24
420.475	858.64
420.852	853.21
421.228	861.35
421.605	853.44
421.982	856.6
422.358	871.74
422.735	894.11
423.111	905.19
423.488	906.32
423.864	921.68
424.241	921.68
424.617	912.65
424.994	944.28
425.37	955.36
425.746	954
426.123	957.39
426.499	985.19
426.875	974.34
427.251	1011.17
427.627	1031.29
428.003	1012.53
428.379	1040.33
428.756	1032.19
429.132	1072.42
429.507	1059.76
429.883	1055.01
430.259	1086.2
430.635	1102.7
431.011	1130.72
431.387	1125.52
431.763	1159.87
432.138	1162.81
432.514	1175.69
432.89	1188.12
433.265	1204.39
433.641	1244.84
434.016	1233.99
434.392	1235.57
434.767	1269.47
435.143	1248.23
435.518	1269.92
435.894	1274.44
436.269	1311.73
436.644	1324.39
437.02	1335.91
437.395	1346.08
437.77	1375.23
438.145	1381.33
438.52	1378.62
438.895	1421.78
439.271	1412.52
439.646	1451.61
440.021	1452.74
440.395	1439.86
440.77	1445.29
441.145	1454.1
441.52	1482.35
441.895	1509.01
442.27	1510.14
442.645	1512.18
443.019	1564.38
443.394	1501.1
443.769	1561.44
444.143	1580.88
444.518	1576.58
444.892	1576.13
445.267	1597.6
445.641	1614.77
446.016	1652.97
446.39	1645.28
446.764	1665.85
447.139	1636.02
447.513	1649.58
447.887	1671.5
448.262	1680.99
448.636	1680.99
449.01	1735
449.384	1748.56
449.758	1756.69
450.132	1791.49
450.506	1773.41
450.88	1798.27
451.254	1807.54
451.628	1840.76
452.002	1863.81
452.376	1857.25
452.75	1884.15
453.123	1892.96
453.497	1896.35
453.871	1942.22
454.244	1953.3
454.618	1965.27
454.992	1995.33
455.365	1997.36
455.739	2025.84
456.112	2071.03
456.486	2105.83
456.859	2093.18
457.232	2122.56
457.606	2120.75
457.979	2177.7
458.352	2168.88
458.725	2217.7
459.099	2247.98
459.472	2257.69
459.845	2285.04
460.218	2304.93
460.591	2304.93
460.964	2341.99
461.337	2365.26
461.71	2389.67
462.083	2419.5
462.456	2438.93
462.829	2437.13
463.201	2464.7
463.574	2492.26
463.947	2558.93
464.32	2554.64
464.692	2589.21
465.065	2606.84
465.438	2636.22
465.81	2649.77
466.183	2721.64
466.555	2770.22
466.928	2774.29
467.3	2796.44
467.672	2830.79
468.045	2893.38
468.417	2908.75
468.789	2899.03
469.161	2949.88
469.534	3012.03
469.906	3046.37
470.278	3049.54
470.65	3111.23
471.022	3153.72
471.394	3202.08
471.766	3228.29
472.138	3247.95
472.51	3344.45
472.882	3370.89
473.253	3389.64
473.625	3468.06
473.997	3559.58
474.369	3550.99
474.74	3586.93
475.112	3637.55
475.484	3661.95
475.855	3740.37
476.227	3807.48
476.598	3908.72
476.97	3891.32
477.341	3982.62
477.713	4055.16
478.084	4084.77
478.455	4215.61
478.827	4213.35
479.198	4348.94
479.569	4374.7
479.94	4486.11
480.311	4530.63
480.682	4596.39
481.053	4703.73
481.424	4752.09
481.795	4791.87
482.166	4851.52
482.537	4919.09
482.908	5029.83
483.279	5080.22
483.65	5164.29
484.021	5273.66
484.391	5339.87
484.762	5335.81
485.133	5395.47
485.503	5515.91
485.874	5640.43
486.244	5717.26
486.615	5767.21
486.985	5799.52
487.356	5957.48
487.726	6006.97
488.097	6100.76
488.467	6162
488.837	6338.49
489.207	6338.04
489.578	6430.01
489.948	6460.07
490.318	6569.67
490.688	6623.68
491.058	6683.34
491.428	6794.3
491.798	6864.13
492.168	7002.43
492.538	7101.86
492.908	7142.54
493.278	7138.02
493.648	7213.04
494.017	7388.18
494.387	7419.82
494.757	7435.64
495.126	7562.64
495.496	7534.84
495.866	7602.64
496.235	7708.4
496.605	7806.48
496.974	7905.46
497.344	7962.63
497.713	7938.22
498.082	8026.36
498.452	8106.13
498.821	8199.23
499.19	8201.72
499.559	8265.9
499.928	8337.31
500.298	8461.15
500.667	8520.13
501.036	8529.39
501.405	8555.16
501.774	8579.56
502.143	8697.3
502.512	8733.91
502.88	8793.57
503.249	8737.75
503.618	8880.8
503.987	9001.47
504.356	9007.35
504.724	9094.35
505.093	9125.99
505.462	9184.52
505.83	9255.48
506.199	9316.04
506.567	9410.5
506.936	9474.68
507.304	9587.45
507.672	9577.28
508.041	9611.17
508.409	9723.04
508.777	9837.61
509.145	9863.6
509.514	9913.31
509.882	10042.8
510.25	10033.76
510.618	10041.9
510.986	10159.41
511.354	10209.58
511.722	10323.25
512.09	10436.69
512.458	10401.66
512.826	10451.38
513.193	10548.55
513.561	10610.7
513.929	10702.67
514.297	10834.19
514.664	10824.93
515.032	10910.8
515.4	10994.64
515.767	11060.4
516.135	11108.76
516.502	11153.96
516.869	11348.76
517.237	11363.44
517.604	11365.48
517.972	11597.34
518.339	11572.7
518.706	11709.65
519.073	11716.66
519.44	11757.78
519.808	11908.51
520.175	11900.83
520.542	12102.18
520.909	12188.73
521.276	12212.69
521.643	12365.45
522.009	12494.94
522.376	12499.01
522.743	12573.58
523.11	12711.21
523.477	12779.68
523.843	12808.15
524.21	13030.97
524.577	13137.86
524.943	13194.13
525.31	13302.83
525.676	13317.97
526.043	13441.81
526.409	13538.53
526.776	13590.28
527.142	13622.59
527.508	13736.72
527.874	13888.35
528.241	13941
528.607	14032.53
528.973	14137.38
529.339	14164.05
529.705	14303.93
530.071	14327.43
530.437	14409.24
530.803	14523.59
531.169	14681.77
531.535	14608.33
531.901	14662.57
532.267	14801.09
532.632	14885.61
532.998	14969.45
533.364	15013.52
533.73	15053.74
534.095	15231.59
534.461	15197.02
534.826	15313.62
535.192	15378.93
535.557	15467.74
535.923	15489.44
536.288	15609.21
536.653	15616.44
537.019	15622.99
537.384	15734.85
537.749	15878.13
538.114	15837
538.479	15932.82
538.845	15973.27
539.21	15894.62
539.575	16048.52
539.94	16053.94
540.305	16098.46
540.67	16194.96
541.034	16366.02
541.399	16307.72
541.764	16450.09
542.129	16400.37
542.494	16525.57
542.858	16611.89
543.223	16665.68
543.587	16790.42
543.952	16697.77
544.316	16772.57
544.681	16836.52
545.045	16899.12
545.41	17003.75
545.774	17078.77
546.138	17050.98
546.503	17140.24
546.867	17219.11
547.231	17243.52
547.595	17292.1
547.959	17314.47
548.324	17431.31
548.688	17417.75
549.052	17540
549.416	17602.6
549.779	17610.51
550.143	17741.81
550.507	17791.98
550.871	17913.1
551.235	17790.62
551.599	18033.33
551.962	18001.24
552.326	18089.59
552.689	18262.92
553.053	18177.28
553.417	18238.74
553.78	18544.5
554.143	18456.36
554.507	18605.51
554.87	18604.84
555.234	18839.18
555.597	18706.75
555.96	18820.65
556.323	18897.26
556.686	18894.77
557.05	19138.38
557.413	19153.75
557.776	19211.37
558.139	19274.2
558.502	19393.74
558.865	19473.51
559.228	19559.61
559.59	19638.25
559.953	19692.94
560.316	19966.16
560.679	19830.34
561.041	19986.95
561.404	20207.73
561.767	20296.32
562.129	20150.56
562.492	20547.84
562.854	20521.17
563.217	20562.07
563.579	20680.49
563.941	20721.84
564.304	20848.39
564.666	20965.68
565.028	21062.85
565.39	21072.57
565.753	21177.42
566.115	21274.6
566.477	21457.42
566.839	21502.61
567.201	21574.7
567.563	21613.34
567.925	21781.25
568.287	21803.4
568.648	21806.33
569.01	21981.47
569.372	22222.37
569.734	22012.43
570.095	22176.49
570.457	22386.43
570.819	22422.59
571.18	22435.7
571.542	22543.72
571.903	22675.92
572.265	22706.42
572.626	22778.51
572.987	22706.42
573.349	22810.6
573.71	23013.31
574.071	23135.79
574.432	23174.21
574.794	23381.66
575.155	23122.01
575.516	23065.06
575.877	23305.28
576.238	23485.84
576.599	23538.27
576.96	23455.1
577.32	23441.54
577.681	23561.32
578.042	23581.43
578.403	23633.18
578.763	23517.25
579.124	23735.1
579.485	23789.11
579.845	23933.51
580.206	23842.44
580.566	23796.56
580.927	23883.34
581.287	23965.15
581.648	23852.61
582.008	23968.08
582.368	24050.12
582.728	24124.92
583.089	24005.82
583.449	24034.75
583.809	24001.98
584.169	24219.83
584.529	24135.76
584.889	24413.5
585.249	24087.4
585.609	24093.73
585.969	24239.94
586.329	24134.86
586.688	24231.35
587.048	24312.93
587.408	24267.29
587.768	24220.73
588.127	24262.09
588.487	24148.64
588.846	24352.26
589.206	24242.65
589.565	24219.38
589.925	24447.85
590.284	24273.61
590.643	24408.52
591.003	24413.04
591.362	24428.64
591.721	24420.95
592.08	24405.81
592.44	24397.68
592.799	24438.81
593.158	24410.56
593.517	24387.96
593.876	24505.92
594.235	24474.74
594.593	24408.07
594.952	24485.81
595.311	24419.6
595.67	24495.75
596.029	24736.2
596.387	24602.42
596.746	24597.67
597.104	24547.96
597.463	24534.17
597.822	24709.08
598.18	24591.12
598.538	24514.74
598.897	24719.7
599.255	24613.04
599.613	24941.84
599.972	24674.96
600.33	24700.04
600.688	24729.42
601.046	24775.07
601.404	24860.49
601.762	24749.31
602.12	24895.07
602.478	24903.43
602.836	24923.31
603.194	24829.08
603.552	24856.65
603.91	24895.52
604.268	24959.92
604.625	24883.09
604.983	25041.28
605.341	24815.07
605.698	25016.42
606.056	25025.91
606.413	24971.9
606.771	25014.16
607.128	24985.23
607.485	24942.52
607.843	24907.72
608.2	25266.36
608.557	25225
608.914	25166.02
609.272	25177.54
609.629	25309.52
609.986	25330.53
610.343	25253.93
610.7	25476.29
611.057	25405.33
611.414	25302.06
611.771	25279.91
612.127	25365.34
612.484	25462.96
612.841	25591.77
613.198	25509.06
613.554	25379.12
613.911	25567.59
614.267	25583.41
614.624	25518.78
614.98	25643.97
615.337	25754.7
615.693	25740.92
616.05	25642.16
616.406	25695.04
616.762	25627.93
617.118	25718.77
617.475	25635.84
617.831	25698.21
618.187	25773.69
618.543	25766.91
618.899	25990.4
619.255	25957.86
619.611	25760.35
619.967	25763.97
620.323	25911.54
620.678	25746.12
621.034	25720.81
621.39	25719.22
621.746	25655.05
622.101	26089.84
622.457	25805.32
622.812	25887.13
623.168	25872.22
623.523	25899.11
623.879	25971.2
624.234	25798.54
624.589	25841.48
624.945	25855.27
625.3	25908.37
625.655	25781.14
626.01	25892.78
626.365	25922.38
626.72	25795.16
627.075	25718.32
627.43	25677.19
627.785	25650.75
628.14	25736.4
628.495	25730.52
628.85	25667.7
629.205	25584.54
629.559	25713.8
629.914	25531.66
630.269	25470.64
630.623	25491.89
630.978	25481.04
631.332	25603.07
631.687	25674.71
632.041	25527.82
632.396	25542.05
632.75	25361.72
633.104	25353.36
633.459	25252.34
633.813	25225
634.167	25211.44
634.521	25178.9
634.875	25279.69
635.229	25239.69
635.583	25112.24
635.937	25107.94
636.291	24949.3
636.645	25156.08
636.999	25059.13
637.352	25215.51
637.706	24942.97
638.06	25004.89
638.413	24978.68
638.767	24904.56
639.121	24904.56
639.474	24785.92
639.828	24777.33
640.181	24677.67
640.534	24822.53
640.888	24643.77
641.241	24669.99
641.594	24615.07
641.947	24656.88
642.301	24533.27
642.654	24500.5
643.007	24450.11
643.36	24456.43
643.713	24411.91
644.066	24417.56
644.419	24334.18
644.771	24166.5
645.124	23863.23
645.477	23796.56
645.83	23630.01
646.182	23597.47
646.535	23606.96
646.888	23593.41
647.24	23489.68
647.593	23647.41
647.945	23565.38
648.298	23305.5
648.65	23359.51
649.002	23277.93
649.355	23423.92
649.707	23357.48
650.059	23448.1
650.411	23713.85
650.763	23608.55
651.115	24053.05
651.467	23720.86
651.819	23809.44
652.171	23870.69
652.523	23657.58
652.875	23774.87
653.227	23657.36
653.578	23745.27
653.93	23665.72
654.282	23581.88
654.633	23434.31
654.985	23563.35
655.337	23587.3
655.688	23604.25
656.039	23574.2
656.391	23347.08
656.742	23467.76
657.094	23464.59
657.445	23531.71
657.796	23442.22
658.147	23465.27
658.498	23326.07
658.849	23347.76
659.2	23357.25
659.551	23282.23
659.902	23339.17
660.253	23263.02
660.604	23353.64
660.955	23221.89
661.306	23351.15
661.656	23258.72
662.007	23268.89
662.358	23161.33
662.708	23284.94
663.059	23292.85
663.409	23208.78
663.76	23152.74
664.11	23211.72
664.461	23221.44
664.811	23280.87
665.161	23172.4
665.511	23108.22
665.862	23122.68
666.212	23070.93
666.562	23211.04
666.912	23122.91
667.262	23086.75
667.612	23057.37
667.962	23137.15
668.312	22987.32
668.662	23171.04
669.011	23137.37
669.361	23028.45
669.711	22996.81
670.06	22984.16
670.41	22980.99
670.76	22905.51
671.109	23060.99
671.459	22996.58
671.808	22901.22
672.157	22992.29
672.507	22705.97
672.856	22909.13
673.205	22917.94
673.554	22945.29
673.904	22857.38
674.253	22911.62
674.602	22795.46
674.951	22497.39
675.3	22514.56
675.649	22852.41
675.998	22743.26
676.346	22808.57
676.695	22814.89
677.044	22664.16
677.393	22706.42
677.741	22642.47
678.09	22684.05
678.438	22685.41
678.787	22700.32
679.135	22683.37
679.484	22477.28
679.832	22603.15
680.181	22517.73
680.529	22521.12
680.877	22428.01
681.225	22410.84
681.573	22556.37
681.922	22410.61
682.27	22316.38
682.618	22260.78
682.966	22350.27
683.314	22319.31
683.661	22286.77
684.009	22173.1
684.357	22041.36
684.705	22004.29
685.053	22051.3
685.4	22000.9
685.748	21962.71
686.095	21903.28
686.443	21735.83
686.79	21827.8
687.138	21876.16
687.485	21861.93
687.832	21747.8
688.18	21670.74
688.527	21650.18
688.874	21598.2
689.221	21611.99
689.568	21586
689.915	21573.57
690.262	21470.97
690.609	21405.67
690.956	21402.95
691.303	21283.64
691.65	21219.68
691.997	21222.85
692.344	21136.97
692.69	21016.07
693.037	21139.46
693.383	20885.23
693.73	20989.86
694.077	20846.58
694.423	20771.11
694.769	20696.76
695.116	20752.8
695.462	20746.47
695.808	20617.44
696.155	20630.09
696.501	20518.68
696.847	20521.4
697.193	20400.72
697.539	20543.77
697.885	20299.48
698.231	20277.33
698.577	20246.37
698.923	20163.21
699.269	20085.93
699.614	19979.26
699.96	19872.6
700.306	20048.41
700.651	19981.97
700.997	19773.39
701.342	19846.61
701.688	19882.32
702.033	19796.22
702.379	19736.56
702.724	19738.37
703.069	19706.28
703.415	19354.65
703.76	19526.39
704.105	19472.38
704.45	19466.28
704.795	19218.6
705.14	19229.9
705.485	19227.87
705.83	19202.11
706.175	19031.72
706.52	18996.24
706.865	18981.77
707.209	18966.18
707.554	18952.17
707.899	18899.74
708.243	18796.24
708.588	18831.72
708.932	18731.39
709.277	18720.54
709.621	18700.65
709.966	18637.83
710.31	18654.1
710.654	18494.33
710.998	18429.7
711.342	18518.74
711.687	18410.04
712.031	18238.97
712.375	18214.56
712.719	18245.98
713.063	18250.49
713.407	18324.62
713.75	18188.12
714.094	18250.49
714.438	18188.58
714.782	18143.15
715.125	18107.22
715.469	18156.03
715.812	18092.08
716.156	17892.09
716.499	17948.58
716.843	17879.43
717.186	17807.79
717.53	17889.6
717.873	17814.12
718.216	17728.47
718.559	17606.9
718.902	17544.07
719.246	17591.08
719.589	17539.33
719.932	17547.46
720.275	17529.84
720.617	17423.4
720.96	17515.6
721.303	17541.13
721.646	17521.7
721.989	17416.84
722.331	17412.1
722.674	17379.33
723.016	17277.19
723.359	17284.87
723.701	17363.06
724.044	17182.27
724.386	17083.52
724.729	17144.99
725.071	17041.94
725.413	17060.47
725.755	16988.61
726.097	16936.63
726.439	16895.5
726.782	16934.15
727.124	16940.7
727.465	16836.29
727.807	16857.99
728.149	16797.43
728.491	16759.91
728.833	16845.56
729.175	16783.41
729.516	16661.84
729.858	16682.17
730.199	16782.74
730.541	16673.36
730.882	16559.69
731.224	16703.64
731.565	16488.06
731.906	16520.82
732.248	16610.76
732.589	16429.98
732.93	16349.75
733.271	16381.84
733.612	16378.68
733.953	16385.01
734.294	16383.43
734.635	16246.71
734.976	16309.53
735.317	16270.43
735.658	16245.8
735.999	16159.93
736.339	16123.54
736.68	16221.85
737.021	16196.99
737.361	16018.69
737.702	16075.64
738.042	16020.04
738.383	15971.01
738.723	16046.03
739.063	15930.78
739.404	15985.92
739.744	15966.26
740.084	15840.16
740.424	15715.87
740.764	15736.21
741.104	15810.33
741.444	15756.77
741.784	15647.17
742.124	15799.71
742.464	15613.05
742.804	15634.74
743.143	15613.05
743.483	15654.18
743.823	15504.13
744.162	15496.44
744.502	15536.67
744.841	15399.27
745.181	15515.65
745.52	15437.91
745.86	15440.63
746.199	15503.45
746.538	15375.09
746.877	15307.07
747.216	15346.62
747.556	15263
747.895	15224.59
748.234	15224.36
748.573	15136.68
748.911	15159.5
749.25	15075.21
749.589	15101.65
749.928	15128.09
750.267	15144.14
750.605	15046.29
750.944	14935.1
751.283	14902.56
751.621	14887.19
751.96	14847.42
752.298	14945.5
752.636	14850.81
752.975	14820.53
753.313	14767.65
753.651	14816.69
753.989	14709.12
754.327	14658.72
754.666	14540.54
755.004	14582.57
755.342	14582.34
755.679	14603.13
756.017	14415.12
756.355	14517.49
756.693	14385.96
757.031	14351.84
757.368	14348.22
757.706	14295.34
758.044	14242.46
758.381	14264.84
758.719	14201.34
759.056	14195.69
759.394	14098.06
759.731	14016.26
760.068	13998.4
760.405	13983.49
760.743	13988.46
761.08	13895.81
761.417	13792.31
761.754	13757.28
762.091	13822.81
762.428	13783.04
762.765	13718.41
763.102	13696.49
763.438	13577.17
763.775	13598.41
764.112	13435.71
764.449	13489.26
764.785	13335.82
765.122	13370.17
765.458	13307.57
765.795	13343.96
766.131	13314.81
766.467	13178.54
766.804	13116.39
767.14	13115.26
767.476	13079.56
767.812	13017.64
768.148	13073.68
768.485	13036.85
768.821	12898.55
769.157	12841.82
769.492	12920.01
769.828	12815.16
770.164	12720.02
770.5	12720.24
770.836	12665.56
771.171	12597.31
771.507	12517.54
771.842	12477.99
772.178	12453.36
772.513	12406.35
772.849	12357.99
773.184	12312.35
773.519	12332.46
773.855	12214.95
774.19	12155.29
774.525	12120.03
774.86	12130.66
775.195	12097.89
775.53	12059.25
775.865	11993.03
776.2	11894.5
776.535	11765.47
776.87	11788.29
777.205	11784.68
777.539	11698.35
777.874	11705.81
778.209	11579.71
778.543	11519.37
778.878	11569.09
779.212	11515.08
779.547	11431.24
779.881	11485.7
780.215	11330.9
780.55	11371.35
780.884	11329.55
781.218	11304.69
781.552	11268.53
781.886	11201.41
782.22	11126.61
782.554	11224.92
782.888	11047.52
783.222	11014.53
783.556	10969.1
783.889	10916.68
784.223	10784.25
784.557	10849.79
784.89	10800.75
785.224	10728.43
785.557	10702.22
785.891	10642.79
786.224	10704.93
786.558	10659.96
786.891	10576.8
787.224	10514.2
787.557	10414.77
787.891	10496.12
788.224	10416.12
788.557	10445.73
788.89	10438.27
789.223	10387.2
789.556	10318.27
789.888	10229.91
790.221	10217.71
790.554	10177.26
790.887	10169.58
791.219	10084.38
791.552	10129.13
791.884	10052.07
792.217	9970.03
792.549	9975.01
792.882	9916.7
793.214	9863.37
793.546	9841
793.879	9810.04
794.211	9756.48
794.543	9694.11
794.875	9763.49
795.207	9815.01
795.539	9729.36
795.871	9702.02
796.203	9599.65
796.535	9547.67
796.867	9590.61
797.198	9501.12
797.53	9477.62
797.862	9447.79
798.193	9445.3
798.525	9339.77
798.856	9359.43
799.188	9332.54
799.519	9276.49
799.85	9205.08
800.182	9218.87
800.513	9250.73
800.844	9113.56
801.175	9259.32
801.506	9180
801.837	9107.46
802.168	9114.69
802.499	9083.28
802.83	8961.02
803.161	8918.54
803.491	8985.65
803.822	8966.9
804.153	8900.23
804.483	8782.04
804.814	8801.48
805.145	8718.77
805.475	8789.95
805.805	8757.18
806.136	8767.81
806.466	8796.73
806.796	8686.68
807.126	8680.58
807.457	8594.7
807.787	8637.41
808.117	8586.57
808.447	8620.01
808.777	8598.32
809.107	8559.9
809.436	8514.93
809.766	8515.38
810.096	8441.71
810.426	8421.37
810.755	8466.57
811.085	8372.11
811.414	8399.91
811.744	8319.91
812.073	8308.84
812.403	8303.19
812.732	8233.58
813.061	8291.21
813.39	8216.86
813.719	8242.4
814.049	8284.88
814.378	8240.59
814.707	8183.64
815.036	8148.84
815.365	8094.6
815.693	8076.07
816.022	8032.01
816.351	8017.32
816.68	7981.39
817.008	8061.38
817.337	7974.61
817.665	7951.33
817.994	7959.92
818.322	7973.93
818.651	7852.58
818.979	7853.93
819.307	7931.9
819.636	7869.07
819.964	7821.62
820.292	7783.2
820.62	7794.5
820.948	7778.45
821.276	7759.7
821.604	7804.22
821.932	7793.14
822.259	7802.18
822.587	7825.23
822.915	7822.97
823.243	7846.7
823.57	7749.3
823.898	7787.49
824.225	7794.5
824.553	7772.13
824.88	7729.19
825.207	7793.37
825.535	7762.18
825.862	7792.92
826.189	7707.95
826.516	7724.9
826.843	7779.81
827.17	7755.4
827.497	7734.39
827.824	7779.58
828.151	7787.04
828.478	7792.24
828.805	7823.65
829.131	7809.19
829.458	7798.11
829.785	7736.42
830.111	7762.86
830.438	7793.82
830.764	7747.95
831.09	7771.67
831.417	7744.56
831.743	7773.03
832.069	7727.61
832.395	7749.98
832.722	7737.55
833.048	7747.04
833.374	7711.79
833.7	7722.86
834.026	7666.14
834.351	7696.42
834.677	7697.78
835.003	7688.06
835.329	7640.83
835.654	7700.49
835.98	7632.02
836.306	7707.72
836.631	7601.06
836.956	7667.5
837.282	7641.96
837.607	7679.93
837.932	7627.95
838.258	7554.28
838.583	7620.49
838.908	7556.09
839.233	7562.41
839.558	7499.36
839.883	7487.84
840.208	7450.1
840.533	7492.36
840.858	7458.46
841.182	7449.2
841.507	7436.09
841.832	7425.02
842.156	7405.58
842.481	7418.92
842.805	7403.1
843.13	7363.78
843.454	7354.28
843.778	7297.79
844.103	7342.76
844.427	7297.11
844.751	7303.44
845.075	7226.6
845.399	7208.3
845.723	7152.48
846.047	7247.17
846.371	7196.1
846.695	7148.19
847.019	7060.96
847.343	7058.02
847.666	7067.96
847.99	7048.76
848.313	7013.95
848.637	6932.37
848.96	6960.17
849.284	6928.31
849.607	6908.19
849.931	6889.44
850.254	6814.86
850.577	6823.68
850.9	6730.57
851.223	6807.18
851.546	6685.6
851.869	6637.24
852.192	6694.41
852.515	6620.07
852.838	6603.12
853.161	6606.96
853.483	6603.57
853.806	6564.47
854.129	6531.25
854.451	6541.42
854.774	6477.24
855.096	6464.36
855.419	6466.4
855.741	6444.48
856.063	6422.33
856.385	6435.21
856.708	6393.18
857.03	6345.27
857.352	6350.47
857.674	6373.97
857.996	6309.57
858.318	6304.37
858.64	6260.3
858.961	6303.24
859.283	6227.31
859.605	6242
859.926	6215.56
860.248	6228.21
860.57	6203.81
860.891	6131.94
861.212	6176.24
861.534	6165.84
861.855	6075.67
862.176	6161.1
862.498	6115.9
862.819	6113.41
863.14	6066.63
863.461	6066.18
863.782	6068.22
864.103	6088.1
864.424	6072.74
864.745	6095.33
865.065	6063.47
865.386	6029.12
865.707	6013.98
866.027	6024.6
866.348	5981.89
866.668	6002.23
866.989	5986.64
867.309	5937.82
867.63	5964.26
867.95	5995.68
868.27	5932.85
868.59	5920.65
868.91	5939.41
869.23	5911.38
869.55	5863.48
869.87	5883.81
870.19	5848.79
870.51	5880.88
870.83	5876.81
871.15	5843.14
871.469	5833.19
871.789	5795.91
872.109	5814.21
872.428	5798.84
872.748	5806.3
873.067	5824.38
873.386	5887.88
873.706	5786.42
874.025	5796.81
874.344	5764.95
874.663	5784.16
874.982	5779.18
875.301	5783.7
875.62	5748.22
875.939	5773.99
876.258	5782.57
876.577	5705.29
876.896	5676.59
877.214	5715.68
877.533	5677.27
877.852	5672.75
878.17	5664.61
878.489	5632.52
878.807	5627.32
879.125	5610.6
879.444	5631.39
879.762	5593.88
880.08	5601.34
880.398	5577.61
880.716	5599.3
881.034	5556.82
881.352	5550.49
881.67	5557.72
881.988	5519.76
882.306	5537.61
882.624	5513.2
882.941	5527.67
883.259	5505.07
883.577	5451.06
883.894	5448.12
884.212	5428.91
884.529	5446.09
884.846	5414.67
885.164	5412.64
885.481	5432.53
885.798	5435.01
886.115	5354.56
886.432	5372.19
886.75	5399.53
887.067	5418.29
887.383	5358.86
887.7	5387.33
888.017	5336.03
888.334	5308.69
888.651	5282.93
888.967	5301.46
889.284	5273.21
889.6	5236.6
889.917	5241.12
890.233	5235.47
890.55	5193.21
890.866	5205.64
891.182	5207.22
891.498	5150.5
891.815	5113.44
892.131	5071.86
892.447	5117.96
892.763	5103.5
893.079	5116.83
893.395	5115.02
893.71	5081.12
894.026	5061.46
894.342	5013.33
894.657	4983.27
894.973	5019.88
895.289	4998.64
895.604	5005.42
895.92	4998.41
896.235	4955.03
896.55	4923.84
896.865	4922.94
897.181	4866.89
897.496	4869.38
897.811	4872.32
898.126	4831.64
898.441	4800.9
898.756	4860.34
899.071	4840.68
899.386	4823.28
899.7	4771.3
900.015	4768.82
900.33	4729.49
900.644	4760.23
900.959	4734.47
901.273	4657.41
901.588	4666.22
901.902	4686.33
902.216	4612.89
902.531	4642.49
902.845	4622.83
903.159	4590.74
903.473	4579.44
903.787	4552.55
904.101	4505.09
904.415	4544.19
904.729	4491.08
905.042	4482.5
905.356	4461.48
905.67	4510.29
905.984	4476.62
906.297	4486.34
906.611	4460.35
906.924	4407.92
907.237	4443.4
907.551	4428.03
907.864	4360.46
908.177	4345.32
908.491	4363.18
908.804	4317.75
909.117	4307.36
909.43	4283.86
909.743	4278.88
910.056	4266
910.368	4248.6
910.681	4245.44
910.994	4214.25
911.307	4131.32
911.619	4144.88
911.932	4144.88
912.244	4130.87
912.557	4132
912.869	4129.06
913.181	4086.12
913.494	4117.98
913.806	4066.23
914.118	4059.91
914.43	3963.41
914.742	3983.53
915.054	4007.93
915.366	4000.47
915.678	3971.1
915.99	3931.55
916.302	3924.09
916.613	3906.24
916.925	3963.41
917.236	3866.92
917.548	3888.16
917.859	3899.23
918.171	3840.93
918.482	3841.38
918.794	3837.31
919.105	3817.2
919.416	3769.52
919.727	3776.52
920.038	3789.63
920.349	3738.56
920.66	3741.72
920.971	3686.58
921.282	3706.92
921.593	3664.44
921.903	3659.47
922.214	3713.25
922.525	3643.42
922.835	3613.37
923.146	3619.69
923.456	3616.3
923.767	3572.91
924.077	3592.8
924.387	3495.85
924.697	3535.18
925.008	3516.42
925.318	3524.55
925.628	3487.72
925.938	3501.05
926.248	3469.64
926.558	3426.93
926.867	3444.78
927.177	3412.01
927.487	3406.82
927.796	3364.33
928.106	3351.68
928.416	3331.79
928.725	3355.75
929.034	3343.54
929.344	3329.31
929.653	3309.19
929.962	3308.29
930.271	3284.79
930.581	3250.66
930.89	3268.29
931.199	3265.13
931.508	3241.62
931.817	3230.1
932.125	3218.57
932.434	3205.24
932.743	3195.3
933.051	3170.21
933.36	3174.73
933.669	3152.59
933.977	3116.43
934.286	3122.3
934.594	3128.41
934.902	3125.92
935.21	3057.9
935.519	3074.17
935.827	3043.89
936.135	3042.31
936.443	3019.03
936.751	3005.92
937.059	3007.96
937.367	2993.95
937.674	2999.37
937.982	2956.89
938.29	2947.62
938.597	2967.28
938.905	2938.58
939.213	2908.98
939.52	2885.25
939.827	2872.14
940.135	2861.97
940.442	2837.57
940.749	2864.46
941.056	2873.5
941.363	2867.85
941.67	2850
941.977	2793.73
942.284	2810.67
942.591	2805.03
942.898	2765.25
943.205	2764.12
943.511	2746.04
943.818	2738.36
944.125	2742.2
944.431	2728.64
944.738	2723.45
945.044	2688.87
945.35	2695.42
945.657	2694.75
945.963	2693.39
946.269	2581.75
946.575	2660.17
946.881	2664.69
947.187	2600.28
947.493	2595.54
947.799	2559.61
948.105	2580.62
948.41	2557.57
948.716	2550.57
949.022	2535.65
949.327	2536.56
949.633	2540.85
949.938	2515.54
950.244	2499.95
950.549	2486.84
950.854	2490.46
951.16	2487.75
951.465	2514.19
951.77	2434.19
952.075	2481.42
952.38	2383.34
952.685	2421.53
952.99	2419.5
953.294	2409.56
953.599	2423.57
953.904	2411.59
954.209	2351.03
954.513	2414.98
954.818	2362.55
955.122	2346.96
955.426	2341.99
955.731	2322.78
956.035	2304.7
956.339	2324.59
956.643	2310.57
956.948	2293.17
957.252	2240.97
957.556	2275.77
957.86	2257.92
958.163	2274.42
958.467	2216.11
958.771	2257.92
959.075	2241.42
959.378	2214.53
959.682	2215.44
959.985	2219.5
960.289	2188.09
960.592	2224.7
960.896	2198.04
961.199	2164.82
961.502	2172.73
961.805	2155.32
962.108	2126.62
962.411	2144.03
962.714	2142.9
963.017	2121.2
963.32	2102.44
963.623	2086.4
963.926	2088.43
964.228	2102.44
964.531	2055.89
964.833	2066.74
965.136	2037.36
965.438	2039.17
965.741	2034.2
966.043	2027.19
966.345	2014.31
966.648	2045.72
966.95	2012.28
967.252	1993.3
967.554	1976.57
967.856	1979.74
968.158	1952.84
968.46	1982
968.761	1953.52
969.063	1973.41
969.365	1987.42
969.666	1960.98
969.968	1932.05
970.269	1931.15
970.571	1910.13
970.872	1893.64
971.174	1878.95
971.475	1935.67
971.776	1886.41
972.077	1888.21
972.378	1869.68
972.679	1875.33
972.98	1880.08
973.281	1842.79
973.582	1850.7
973.883	1800.76
974.183	1802.34
974.484	1838.5
974.785	1815.67
975.085	1810.93
975.386	1783.81
975.686	1778.61
975.986	1791.94
976.287	1756.01
976.587	1758.27
976.887	1772.74
977.187	1784.49
977.487	1777.48
977.787	1744.71
978.087	1739.74
978.387	1738.61
978.687	1736.13
978.987	1704.26
979.286	1677.82
979.586	1692.96
979.885	1678.28
980.185	1684.15
980.484	1682.34
980.784	1645.73
981.083	1655.9
981.382	1631.5
981.682	1636.47
981.981	1664.49
982.28	1638.28
982.579	1619.29
982.878	1613.19
983.177	1612.51
983.475	1621.78
983.774	1621.1
984.073	1586.98
984.372	1566.41
984.67	1557.83
984.969	1582.23
985.267	1570.03
985.566	1560.76
985.864	1558.5
986.162	1563.93
986.461	1548.56
986.759	1539.3
987.057	1549.01
987.355	1518.05
987.653	1532.29
987.951	1522.8
988.249	1514.21
988.547	1484.16
988.844	1495
989.142	1473.76
989.44	1486.19
989.737	1466.08
990.035	1477.15
990.332	1487.55
990.63	1447.77
990.927	1472.63
991.224	1435.8
991.521	1427.43
991.819	1438.96
992.116	1427.43
992.413	1429.24
992.71	1409.36
993.006	1395.57
993.303	1437.38
993.6	1425.85
993.897	1392.63
994.193	1391.73
994.49	1382.92
994.787	1398.51
995.083	1331.62
995.379	1350.15
995.676	1325.74
995.972	1349.24
996.268	1377.04
996.565	1350.6
996.861	1316.48
997.157	1320.32
997.453	1317.38
997.749	1318.96
998.044	1336.36
998.34	1285.07
998.636	1315.8
998.932	1276.25
999.227	1307.21
999.523	1309.02
999.818	1285.29
1000.114	1258.85
1000.409	1271.96
1000.704	1250.94
1001	1241
1001.295	1250.94
1001.59	1210.26
1001.885	1227.21
1002.18	1222.47
1002.475	1224.73
1002.77	1193.77
1003.065	1195.35
1003.359	1204.62
1003.654	1194.67
1003.949	1214.11
1004.243	1180.21
1004.538	1164.84
1004.832	1173.88
1005.127	1183.15
1005.421	1174.56
1005.715	1155.58
1006.009	1167.78
1006.304	1145.18
1006.598	1159.64
1006.892	1129.36
1007.186	1133.43
1007.48	1140.89
1007.773	1109.7
1008.067	1126.2
1008.361	1107.89
1008.655	1076.93
1008.948	1097.73
1009.242	1094.56
1009.535	1079.65
1009.829	1077.61
1010.122	1081.45
1010.415	1064.05
1010.708	1052.98
1011.001	1052.53
1011.295	1058.86
1011.588	1032.42
1011.881	1045.07
1012.173	1034.22
1012.466	1004.62
1012.759	1035.35
1013.052	1010.5
1013.344	1013.21
1013.637	1012.76
1013.93	1001.68
1014.222	1011.63
1014.514	1005.52
1014.807	992.87
1015.099	975.92
1015.391	978.41
1015.683	988.12
1015.976	971.63
1016.268	983.15
1016.56	965.3
1016.851	970.5
1017.143	937.5
1017.435	950.38
1017.727	940.67
1018.018	937.96
1018.31	936.6
1018.602	904.06
1018.893	915.81
1019.185	899.99
1019.476	904.06
1019.767	914.68
1020.058	901.12
1020.35	903.61
1020.641	895.02
1020.932	883.49
1021.223	886.88
1021.514	889.37
1021.804	883.95
1022.095	850.73
1022.386	864.74
1022.677	856.15
1022.967	842.59
1023.258	853.89
1023.548	838.75
1023.839	842.82
1024.129	834.23
1024.419	826.09
1024.709	805.08
1025	798.07
1025.29	805.76
1025.58	820.22
1025.87	806.21
1026.16	795.13
1026.449	803.27
1026.739	787.23
1027.029	826.32
1027.319	796.72
1027.608	771.41
1027.898	764.85
1028.187	750.16
1028.477	734.35
1028.766	755.81
1029.055	743.61
1029.344	751.07
1029.634	756.94
1029.923	737.73
1030.212	746.32
1030.501	739.99
1030.79	761.01
1031.078	746.32
1031.367	761.01
1031.656	716.72
1031.945	729.6
1032.233	745.64
1032.522	707.91
1032.81	703.84
1033.099	707.23
1033.387	705.87
1033.675	698.41
1033.963	704.06
1034.251	696.83
1034.54	683.27
1034.828	693.67
1035.116	699.54
1035.403	666.32
1035.691	651.64
1035.979	666.32
1036.267	665.19
1036.554	652.31
1036.842	662.26
1037.129	664.97
1037.417	655.7
1037.704	659.54
1037.992	657.06
1038.279	653.9
1038.566	653.44
1038.853	653.44
1039.14	653.44
