Data from foam_black_FLMS001491_00031.txt Node
Date: Wed Feb 08 10:43:47 GMT 2017
User: dcchb
Spectrometer: FLMS00149
Trigger mode: 0
Integration Time (sec): 2.000000E-2
Scans to average: 10
Electric dark correction enabled: true
Nonlinearity correction enabled: false
Boxcar width: 0
XAxis mode: Wavelengths
Number of Pixels in Spectrum: 2048
>>>>>Begin Spectral Data<<<<<
341.393	-26.23
341.776	-26.23
342.16	-26.23
342.543	-71.42
342.927	-64.19
343.31	-75.27
343.693	-69.62
344.077	-51.09
344.46	-57.41
344.843	-48.37
345.226	-55.61
345.61	-39.11
345.993	-19.67
346.376	-10.18
346.759	10.61
347.142	42.47
347.525	40.44
347.908	60.55
348.291	93.32
348.674	79.31
349.057	99.64
349.44	139.42
349.823	132.41
350.206	152.75
350.588	170.83
350.971	192.98
351.354	214.67
351.737	224.84
352.119	237.27
352.502	251.73
352.884	235.69
353.267	254.44
353.65	261.67
354.032	272.75
354.414	272.3
354.797	287.66
355.179	301.45
355.562	292.18
355.944	306.87
356.326	312.52
356.709	317.04
357.091	305.51
357.473	307.1
357.855	304.16
358.238	312.97
358.62	303.93
359.002	304.38
359.384	331.73
359.766	315.01
360.148	327.89
360.53	310.49
360.912	307.77
361.294	303.71
361.676	304.16
362.057	311.84
362.439	306.42
362.821	320.66
363.203	307.55
363.584	303.93
363.966	312.75
364.348	290.83
364.729	290.83
365.111	283.37
365.493	308.23
365.874	305.97
366.256	279.53
366.637	289.92
367.019	305.06
367.4	301.67
367.781	284.05
368.163	301.22
368.544	293.76
368.925	284.72
369.306	301.9
369.688	294.89
370.069	282.01
370.45	277.94
370.831	287.89
371.212	301.67
371.593	282.69
371.974	296.7
372.355	261.45
372.736	297.38
373.117	296.93
373.498	288.79
373.879	273.2
374.26	287.21
374.641	289.47
375.021	274.1
375.402	296.02
375.783	307.32
376.163	298.28
376.544	298.96
376.925	286.31
377.305	296.25
377.686	321.11
378.066	297.15
378.447	301.9
378.827	312.29
379.208	306.19
379.588	315.23
379.968	311.16
380.349	301.22
380.729	303.25
381.109	320.66
381.489	316.14
381.87	301.22
382.25	316.59
382.63	303.03
383.01	338.73
383.39	312.75
383.77	304.38
384.15	311.16
384.53	299.86
384.91	316.59
385.29	308.9
385.67	337.38
386.049	321.79
386.429	321.79
386.809	320.2
387.189	324.27
387.568	331.28
387.948	325.18
388.328	317.49
388.707	339.41
389.087	345.97
389.466	343.93
389.846	304.61
390.225	331.05
390.605	328.11
390.984	340.32
391.363	327.66
391.743	336.47
392.122	334.89
392.501	344.84
392.881	337.38
393.26	333.08
393.639	349.36
394.018	345.74
394.397	342.8
394.776	330.15
395.155	324.5
395.534	359.52
395.913	340.32
396.292	338.06
396.671	339.86
397.05	345.29
397.429	349.36
397.808	357.72
398.186	371.5
398.565	351.62
398.944	355.23
399.323	379.64
399.701	365.4
400.08	375.34
400.458	349.36
400.837	360.65
401.215	351.62
401.594	363.37
401.972	364.27
402.351	348.68
402.729	360.88
403.107	370.37
403.486	374.21
403.864	364.72
404.242	353.65
404.62	375.12
404.999	384.83
405.377	375.12
405.755	379.64
406.133	390.26
406.511	370.15
406.889	373.31
407.267	381.67
407.645	377.38
408.023	400.2
408.401	386.19
408.779	374.21
409.156	397.04
409.534	401.56
409.912	400.88
410.29	406.3
410.667	409.24
411.045	390.71
411.422	404.27
411.8	402.46
412.178	400.2
412.555	412.18
412.933	426.19
413.31	428.68
413.687	411.5
414.065	428
414.442	410.37
414.819	436.58
415.197	429.35
415.574	418.96
415.951	423.03
416.328	438.17
416.705	432.97
417.082	426.64
417.46	423.48
417.837	428
418.214	433.87
418.591	438.62
418.967	442.91
419.344	449.47
419.721	464.38
420.098	440.2
420.475	458.73
420.852	469.8
421.228	458.5
421.605	451.5
421.982	459.41
422.358	437.04
422.735	471.16
423.111	471.16
423.488	463.7
423.864	459.63
424.241	464.15
424.617	481.56
424.994	476.81
425.37	458.28
425.746	482.91
426.123	485.4
426.499	485.4
426.875	482.01
427.251	499.86
427.627	488.33
428.003	512.97
428.379	515.68
428.756	496.47
429.132	498.5
429.507	519.97
429.883	527.88
430.259	517.49
430.635	521.78
431.011	520.42
431.387	531.5
431.763	525.17
432.138	529.92
432.514	548.45
432.89	557.03
433.265	555.45
433.641	546.41
434.016	543.7
434.392	556.81
434.767	544.15
435.143	560.88
435.518	585.73
435.894	554.77
436.269	588.22
436.644	578.95
437.02	579.86
437.395	571.27
437.77	602.68
438.145	590.48
438.52	583.93
438.895	609.24
439.271	590.03
439.646	605.62
440.021	589.12
440.395	602.91
440.77	604.49
441.145	593.64
441.52	623.47
441.895	621.21
442.27	612.17
442.645	639.07
443.019	627.77
443.394	650.36
443.769	635.9
444.143	626.18
444.518	625.73
444.892	617.82
445.267	622.12
445.641	625.28
446.016	652.4
446.39	638.84
446.764	637.26
447.139	658.27
447.513	658.95
447.887	647.2
448.262	658.27
448.636	650.59
449.01	663.7
449.384	674.77
449.758	671.83
450.132	683.36
450.506	667.09
450.88	680.87
451.254	676.8
451.628	658.27
452.002	690.59
452.376	701.21
452.75	697.14
453.123	717.26
453.497	714.54
453.871	728.1
454.244	715.22
454.618	724.49
454.992	730.14
455.365	724.49
455.739	737.37
456.112	752.51
456.486	731.72
456.859	742.79
457.232	743.7
457.606	775.78
457.979	748.44
458.352	788.44
458.725	773.3
459.099	779.17
459.472	811.04
459.845	810.13
460.218	809.23
460.591	809.46
460.964	811.26
461.337	824.82
461.71	837.7
462.083	839.51
462.456	841.77
462.829	837.03
463.201	866.18
463.574	864.37
463.947	863.01
464.32	853.97
464.692	892.62
465.065	880.87
465.438	916.35
465.81	900.53
466.183	930.36
466.555	926.52
466.928	921.32
467.3	934.65
467.672	945.95
468.045	961.99
468.417	976.46
468.789	977.36
469.161	946.18
469.534	974.65
469.906	999.06
470.278	992.73
470.65	1041.09
471.022	1039.73
471.394	1045.83
471.766	1038.15
472.138	1062.33
472.51	1062.56
472.882	1111.6
473.253	1081.31
473.625	1123.57
473.997	1108.88
474.369	1117.92
474.74	1126.96
475.112	1127.19
475.484	1162.67
475.855	1176.9
476.227	1191.82
476.598	1183.91
476.97	1218.26
477.341	1251.48
477.713	1245.15
478.084	1265.04
478.455	1284.92
478.827	1281.31
479.198	1354.07
479.569	1347.52
479.94	1346.62
480.311	1358.59
480.682	1386.62
481.053	1408.99
481.424	1429.55
481.795	1436.33
482.166	1426.39
482.537	1465.71
482.908	1468.65
483.279	1504.35
483.65	1517.23
484.021	1529.66
484.391	1554.75
484.762	1550.68
485.133	1593.39
485.503	1584.13
485.874	1605.59
486.244	1610.56
486.615	1655.54
486.985	1667.29
487.356	1701.18
487.726	1689.21
488.097	1764.23
488.467	1729.66
488.837	1771.92
489.207	1797.45
489.578	1812.37
489.948	1834.51
490.318	1847.39
490.688	1829.09
491.058	1883.1
491.428	1903.44
491.798	1910.9
492.168	1948.86
492.538	1944.12
492.908	1972.82
493.278	1961.97
493.648	2023.89
494.017	2032.25
494.387	2055.07
494.757	2032.93
495.126	2046.26
495.496	2043.55
495.866	2067.95
496.235	2111.79
496.605	2130.55
496.974	2103.43
497.344	2104.11
497.713	2163.54
498.082	2164.22
498.452	2173.71
498.821	2182.98
499.19	2195.86
499.559	2188.85
499.928	2211
500.298	2236.99
500.667	2270.66
501.036	2270.66
501.405	2289.19
501.774	2270.43
502.143	2286.25
502.512	2315.41
502.88	2313.15
503.249	2323.09
503.618	2313.82
503.987	2366.7
504.356	2398.11
504.724	2383.88
505.093	2359.02
505.462	2405.8
505.83	2439.24
506.199	2446.7
506.567	2465.46
506.936	2469.07
507.304	2474.95
507.672	2522.63
508.041	2525.57
508.409	2530.09
508.777	2578
509.145	2547.26
509.514	2487.38
509.882	2596.3
510.25	2585
510.618	2598.34
510.986	2625.23
511.354	2648.28
511.722	2697.99
512.09	2665
512.458	2663.87
512.826	2700.03
513.193	2727.15
513.561	2703.64
513.929	2738.67
514.297	2777.31
514.664	2744.32
515.032	2822.96
515.4	2792
515.767	2773.02
516.135	2810.76
516.502	2846.46
516.869	2861.15
517.237	2911.1
517.604	2872.9
517.972	2908.16
518.339	2936.63
518.706	2963.75
519.073	2927.37
519.44	2956.29
519.808	3027.93
520.175	2979.79
520.542	3059.11
520.909	3079
521.276	3091.66
521.643	3124.88
522.009	3149.96
522.376	3144.31
522.743	3223.86
523.11	3220.01
523.477	3239.9
523.843	3239.45
524.21	3291.65
524.577	3317.19
524.943	3301.14
525.31	3309.73
525.676	3391.31
526.043	3364.42
526.409	3412.55
526.776	3442.61
527.142	3400.8
527.508	3455.49
527.874	3459.78
528.241	3481.48
528.607	3488.48
528.973	3532.1
529.339	3554.92
529.705	3536.39
530.071	3556.5
530.437	3603.28
530.803	3640.12
531.169	3617.52
531.535	3633.11
531.901	3677.86
532.267	3680.12
532.632	3700.68
532.998	3747.01
533.364	3724.18
533.73	3731.87
534.095	3773.45
534.461	3811.19
534.826	3845.08
535.192	3806.21
535.557	3857.06
535.923	3818.64
536.288	3856.83
536.653	3895.93
537.019	3899.09
537.384	3905.19
537.749	3943.39
538.114	3920.79
538.479	3934.35
538.845	3977.06
539.21	4001.24
539.575	3980.45
539.94	4043.04
540.305	4021.8
540.67	4007.34
541.034	4069.03
541.399	4117.62
541.764	4065.42
542.129	4083.27
542.494	4099.09
542.858	4126.66
543.223	4125.75
543.587	4152.42
543.952	4132.53
544.316	4168.46
544.681	4165.75
545.045	4195.13
545.41	4236.71
545.774	4253.89
546.138	4248.01
546.503	4236.94
546.867	4217.5
547.231	4280.55
547.595	4291.85
547.959	4332.08
548.324	4337.72
548.688	4323.26
549.052	4353.54
549.416	4365.97
549.779	4359.42
550.143	4353.09
550.507	4402.58
550.871	4417.27
551.235	4426.54
551.599	4447.78
551.962	4453.2
552.326	4490.94
552.689	4515.8
553.053	4539.75
553.417	4521.45
553.78	4588.34
554.143	4561.67
554.507	4597.61
554.87	4607.1
555.234	4590.6
555.597	4602.12
555.96	4695.23
556.323	4712.4
556.686	4673.99
557.05	4717.38
557.413	4736.81
557.776	4741.1
558.139	4803.93
558.502	4836.92
558.865	4801.67
559.228	4839.41
559.59	4855
559.953	4879.63
560.316	4936.58
560.679	4950.14
561.041	4937.94
561.404	5004.83
561.767	5012.96
562.129	4964.6
562.492	5027.42
562.854	5064.49
563.217	5062.45
563.579	5092.73
563.941	5126.63
564.304	5092.96
564.666	5132.05
565.028	5200.75
565.39	5191.71
565.753	5224.03
566.115	5235.78
566.477	5296.34
566.839	5296.12
567.201	5294.54
567.563	5346.74
567.925	5392.61
568.287	5405.04
568.648	5372.73
569.01	5385.61
569.372	5489.56
569.734	5447.07
570.095	5448.88
570.457	5474.19
570.819	5506.73
571.18	5505.15
571.542	5508.32
571.903	5568.43
572.265	5567.98
572.626	5621.08
572.987	5567.75
573.349	5637.13
573.71	5656.11
574.071	5635.77
574.432	5701.3
574.794	5716.22
575.155	5688.88
575.516	5681.87
575.877	5714.41
576.238	5797.12
576.599	5789.89
576.96	5767.74
577.32	5810.91
577.681	5789.89
578.042	5820.4
578.403	5834.41
578.763	5834.86
579.124	5843.67
579.485	5831.02
579.845	5920.51
580.206	5907.18
580.566	5924.58
580.927	5932.26
581.287	5900.85
581.648	5958.02
582.008	5943.11
582.368	5948.3
582.728	5935.65
583.089	5919.15
583.449	5934.75
583.809	6008.42
584.169	5948.08
584.529	5916.21
584.889	6017.45
585.249	5925.48
585.609	5903.56
585.969	5946.27
586.329	5941.98
586.688	5973.39
587.048	5991.92
587.408	5947.63
587.768	6001.41
588.127	5957.12
588.487	5926.16
588.846	5961.86
589.206	5951.92
589.565	5961.86
589.925	5952.37
590.284	5928.42
590.643	5981.52
591.003	5970.45
591.362	5948.76
591.721	5997.12
592.08	5974.07
592.44	5977.23
592.799	5964.57
593.158	5937.91
593.517	5989.88
593.876	5920.51
594.235	5969.32
594.593	5955.31
594.952	5943.33
595.311	5925.93
595.67	5943.78
596.029	5998.02
596.387	5967.96
596.746	6070.56
597.104	5921.41
597.463	6021.97
597.822	6033.73
598.18	6017.45
598.538	6033.95
598.897	6027.85
599.255	5980.39
599.613	6128.41
599.972	6056.32
600.33	6065.36
600.688	6006.61
601.046	6094.74
601.404	6097.9
601.762	6117.57
602.12	6094.06
602.478	6146.49
602.836	6097.68
603.194	6026.49
603.552	6054.29
603.91	6063.56
604.268	6124.12
604.625	6091.8
604.983	6152.37
605.341	6058.36
605.698	6157.79
606.056	6131.58
606.413	6123.44
606.771	6153.95
607.128	6115.98
607.485	6126.83
607.843	6166.6
608.2	6153.5
608.557	6175.87
608.914	6154.85
609.272	6162.99
609.629	6166.38
609.986	6217.45
610.343	6173.16
610.7	6252.93
611.057	6154.63
611.414	6157.56
611.771	6190.33
612.127	6259.71
612.484	6248.41
612.841	6272.14
613.198	6217.9
613.554	6287.28
613.911	6334.28
614.267	6289.99
614.624	6346.26
614.98	6328.63
615.337	6324.11
615.693	6347.39
616.05	6441.85
616.406	6357.11
616.762	6367.28
617.118	6345.58
617.475	6388.07
617.831	6439.36
618.187	6395.07
618.543	6451.12
618.899	6454.05
619.255	6494.05
619.611	6480.49
619.967	6441.17
620.323	6514.62
620.678	6429.2
621.034	6418.12
621.39	6430.55
621.746	6456.09
622.101	6480.49
622.457	6383.32
622.812	6363.43
623.168	6343.55
623.523	6411.34
623.879	6400.5
624.234	6342.42
624.589	6366.82
624.945	6366.37
625.3	6344.45
625.655	6352.14
626.01	6334.06
626.365	6340.84
626.72	6288.41
627.075	6283.66
627.43	6246.15
627.785	6245.47
628.14	6334.96
628.495	6290.67
628.85	6280.05
629.205	6297.22
629.559	6275.75
629.914	6261.97
630.269	6274.85
630.623	6254.28
630.978	6247.96
631.332	6300.84
631.687	6343.77
632.041	6315.07
632.396	6285.24
632.75	6255.41
633.104	6309.65
633.459	6327.73
633.813	6284.34
634.167	6341.51
634.521	6333.38
634.875	6346.71
635.229	6279.37
635.583	6341.06
635.937	6334.51
636.291	6319.14
636.645	6349.42
636.999	6346.26
637.352	6349.65
637.706	6299.48
638.06	6288.41
638.413	6351.68
638.767	6307.16
639.121	6306.94
639.474	6316.66
639.828	6299.26
640.181	6306.94
640.534	6271.23
640.888	6242.53
641.241	6227.62
641.594	6227.17
641.947	6244.57
642.301	6168.64
642.654	6174.29
643.007	6255.87
643.36	6185.13
643.713	6178.35
644.066	6151.24
644.419	6101.29
644.771	6056.32
645.124	5978.36
645.477	5889.77
645.83	5899.49
646.182	5926.38
646.535	5952.37
646.888	5921.64
647.24	5940.39
647.593	5894.29
647.945	5955.08
648.298	5943.56
648.65	5856.78
649.002	5843.67
649.355	5873.5
649.707	5887.51
650.059	5841.41
650.411	5906.72
650.763	5899.49
651.115	6019.94
651.467	5975.42
651.819	6012.26
652.171	5994.18
652.523	5979.94
652.875	6035.76
653.227	5957.34
653.578	6002.09
653.93	6029.66
654.282	5987.4
654.633	5996.21
654.985	6016.55
655.337	5950.34
655.688	6011.13
656.039	6050.9
656.391	5986.27
656.742	5967.06
657.094	6006.61
657.445	5984.91
657.796	5955.08
658.147	5934.97
658.498	5924.12
658.849	5942.88
659.2	5916.21
659.551	5885.71
659.902	5927.06
660.253	5937.46
660.604	5926.16
660.955	5919.15
661.306	5912.15
661.656	5884.35
662.007	5912.37
662.358	5870.11
662.708	5855.2
663.059	5899.04
663.409	5820.85
663.76	5859.27
664.11	5850
664.461	5874.41
664.811	5819.95
665.161	5870.11
665.511	5842.77
665.862	5780.4
666.212	5768.65
666.562	5819.95
666.912	5775.43
667.262	5800.06
667.612	5763.45
667.962	5775.2
668.312	5842.32
668.662	5836.89
669.011	5853.84
669.361	5781.75
669.711	5821.3
670.06	5804.58
670.41	5831.47
670.76	5823.34
671.109	5790.12
671.459	5818.14
671.808	5835.09
672.157	5798.93
672.507	5778.37
672.856	5826.05
673.205	5814.97
673.554	5838.7
673.904	5899.72
674.253	5874.41
674.602	5909.89
674.951	5774.07
675.3	5795.09
675.649	5877.12
675.998	5789.44
676.346	5851.81
676.695	5894.97
677.044	5855.2
677.393	5856.78
677.741	5838.48
678.09	5815.43
678.438	5868.98
678.787	5873.28
679.135	5805.71
679.484	5816.33
679.832	5784.92
680.181	5805.03
680.529	5764.35
680.877	5739.72
681.225	5730.23
681.573	5753.05
681.922	5683.68
682.27	5733.85
682.618	5670.8
682.966	5657.92
683.314	5663.79
683.661	5636
684.009	5524.59
684.357	5598.71
684.705	5545.83
685.053	5550.57
685.4	5523
685.748	5492.72
686.095	5529.78
686.443	5487.3
686.79	5445.04
687.138	5450.46
687.485	5461.76
687.832	5427.87
688.18	5445.27
688.527	5423.12
688.874	5403.46
689.221	5363.91
689.568	5349.45
689.915	5378.38
690.262	5370.24
690.609	5395.1
690.956	5375.21
691.303	5310.58
691.65	5342.22
691.997	5343.57
692.344	5301.32
692.69	5338.38
693.037	5354.2
693.383	5329.79
693.73	5302.45
694.077	5288.43
694.423	5310.35
694.769	5312.61
695.116	5247.53
695.462	5263.12
695.808	5229.45
696.155	5263.35
696.501	5257.7
696.847	5273.97
697.193	5199.85
697.539	5247.08
697.885	5193.97
698.231	5259.06
698.577	5175.89
698.923	5226.97
699.269	5214.76
699.614	5161.43
699.96	5165.27
700.306	5143.58
700.651	5141.77
700.997	5125.27
701.342	5092.06
701.688	5102.9
702.033	5061.55
702.379	5080.76
702.724	5044.15
703.069	5048.67
703.415	4990.14
703.76	4971.61
704.105	4965.73
704.45	5006.18
704.795	4913.98
705.14	4949.23
705.485	4934.55
705.83	4899.74
706.175	4928.44
706.52	4877.15
706.865	4860.88
707.209	4874.43
707.554	4798.73
707.899	4812.74
708.243	4754.89
708.588	4783.36
708.932	4762.35
709.277	4739.3
709.621	4756.47
709.966	4709.01
710.31	4760.09
710.654	4713.31
710.998	4706.98
711.342	4702.91
711.687	4670.82
712.031	4631.05
712.375	4660.88
712.719	4660.88
713.063	4692.52
713.407	4704.27
713.75	4680.09
714.094	4645.29
714.438	4659.3
714.782	4669.47
715.125	4573.65
715.469	4640.99
715.812	4568.23
716.156	4573.88
716.499	4634.67
716.843	4579.07
717.186	4534.33
717.53	4592.41
717.873	4644.84
718.216	4624.72
718.559	4593.09
718.902	4515.35
719.246	4532.3
719.589	4544.05
719.932	4539.98
720.275	4541.34
720.617	4573.88
720.96	4495.69
721.303	4523.93
721.646	4530.71
721.989	4494.1
722.331	4504.05
722.674	4481
723.016	4511.73
723.359	4473.99
723.701	4473.77
724.044	4463.6
724.386	4395.8
724.729	4441.68
725.071	4419.98
725.413	4439.42
725.755	4384.96
726.097	4426.76
726.439	4427.21
726.782	4346.76
727.124	4389.7
727.465	4359.87
727.807	4368.23
728.149	4369.59
728.491	4348.35
728.833	4344.96
729.175	4313.77
729.516	4314.22
729.858	4248.46
730.199	4312.19
730.541	4346.54
730.882	4271.29
731.224	4281.46
731.565	4253.21
731.906	4281.46
732.248	4274.68
732.589	4225.19
732.93	4226.09
733.271	4240.1
733.612	4243.04
733.953	4258.4
734.294	4233.32
734.635	4191.97
734.976	4207.33
735.317	4151.06
735.658	4196.71
735.999	4190.38
736.339	4191.74
736.68	4168.24
737.021	4184.06
737.361	4157.39
737.702	4171.4
738.042	4187.67
738.383	4187.22
738.723	4114.23
739.063	4148.35
739.404	4114.45
739.744	4136.83
740.084	4104.28
740.424	4131.63
740.764	4115.36
741.104	4099.09
741.444	4058.41
741.784	4094.79
742.124	4125.08
742.464	4103.83
742.804	4103.38
743.143	4080.56
743.483	4136.6
743.823	4028.81
744.162	4057.73
744.502	4049.14
744.841	4073.55
745.181	4078.07
745.52	4059.54
745.86	4061.35
746.199	4051.18
746.538	4022.93
746.877	4057.73
747.216	4045.53
747.556	4058.41
747.895	4017.51
748.234	3998.75
748.573	4007.79
748.911	4019.32
749.25	4051.18
749.589	4011.41
749.928	3998.3
750.267	4037.39
750.605	3996.49
750.944	3967.11
751.283	3959.2
751.621	4024.96
751.96	3965.31
752.298	3959.2
752.636	3966.44
752.975	3932.09
753.313	3955.14
753.651	3939.54
753.989	3909.49
754.327	3915.36
754.666	3912.43
755.004	3943.61
755.342	3923.5
755.679	3855.03
756.017	3849.83
756.355	3879.21
756.693	3863.39
757.031	3876.95
757.368	3831.52
757.706	3841.92
758.044	3840.34
758.381	3848.47
758.719	3779.32
759.056	3810.06
759.394	3777.06
759.731	3777.06
760.068	3736.16
760.405	3742.49
760.743	3737.74
761.08	3731.19
761.417	3697.06
761.754	3672.66
762.091	3734.58
762.428	3693.67
762.765	3695.71
763.102	3697.97
763.438	3648.48
763.775	3660
764.112	3627.69
764.449	3643.73
764.785	3658.42
765.122	3604.18
765.458	3610.29
765.795	3549.95
766.131	3563.51
766.467	3580
766.804	3575.94
767.14	3498.65
767.476	3501.59
767.812	3515.6
768.148	3530.74
768.485	3519.89
768.821	3476.28
769.157	3453.91
769.492	3469.5
769.828	3464.53
770.164	3430.86
770.5	3425.43
770.836	3470.18
771.171	3412.33
771.507	3392.21
771.842	3361.48
772.178	3392.21
772.513	3352.67
772.849	3347.24
773.184	3340.91
773.519	3350.86
773.855	3328.26
774.19	3332.55
774.525	3326.68
774.86	3335.72
775.195	3300.46
775.53	3286.23
775.865	3275.61
776.2	3225.21
776.535	3217.08
776.87	3206.91
777.205	3193.12
777.539	3217.53
777.874	3179.79
778.209	3177.08
778.543	3202.16
778.878	3144.08
779.212	3163.52
779.547	3120.13
779.881	3139.11
780.215	3151.32
780.55	3135.95
780.884	3121.71
781.218	3136.17
781.552	3130.07
781.886	3085.33
782.22	3087.14
782.554	3063.86
782.888	3078.55
783.222	3041.26
783.556	3070.87
783.889	3008.27
784.223	3047.14
784.557	3008.27
784.89	3011.43
785.224	3006.91
785.557	2995.84
785.891	2973.92
786.224	2979.34
786.558	2994.71
786.891	2975.95
787.224	2949.06
787.557	2904.32
787.891	2947.7
788.224	2959.23
788.557	2906.8
788.89	2924.2
789.223	2947.93
789.556	2872.45
789.888	2855.73
790.221	2911.55
790.554	2876.07
790.887	2871.55
791.219	2851.21
791.552	2859.12
791.884	2814.15
792.217	2811.21
792.549	2830.19
792.882	2821.38
793.214	2789.52
793.546	2824.77
793.879	2764.43
794.211	2773.92
794.543	2751.55
794.875	2762.85
795.207	2762.17
795.539	2756.75
795.871	2734.6
796.203	2723.53
796.535	2698.67
796.867	2725.34
797.198	2701.16
797.53	2688.05
797.862	2707.26
798.193	2678.33
798.525	2682.63
798.856	2681.72
799.188	2636.3
799.519	2625.23
799.85	2602.4
800.182	2592.46
800.513	2627.71
800.844	2620.48
801.175	2662.51
801.506	2601.73
801.837	2590.65
802.168	2570.99
802.499	2555.85
802.83	2540.71
803.161	2553.37
803.491	2546.59
803.822	2552.46
804.153	2538.9
804.483	2509.52
804.814	2506.36
805.145	2496.64
805.475	2490.09
805.805	2502.52
806.136	2520.82
806.466	2498.45
806.796	2482.63
807.126	2464.33
807.457	2476.76
807.787	2463.88
808.117	2474.95
808.447	2468.17
808.777	2457.55
809.107	2440.6
809.436	2425.46
809.766	2432.24
810.096	2446.25
810.426	2448.74
810.755	2443.09
811.085	2416.19
811.414	2439.24
811.744	2415.74
812.073	2434.72
812.403	2445.8
812.732	2422.07
813.061	2426.36
813.39	2425.01
813.719	2402.86
814.049	2408.96
814.378	2402.63
814.707	2414.84
815.036	2387.95
815.365	2384.78
815.693	2337.55
816.022	2371.9
816.351	2389.08
816.68	2374.39
817.008	2361.05
817.337	2332.81
817.665	2363.54
817.994	2377.32
818.322	2330.55
818.651	2314.5
818.979	2332.81
819.307	2319.47
819.636	2326.03
819.964	2311.79
820.292	2301.62
820.62	2304.56
820.948	2276.31
821.276	2316.99
821.604	2300.72
821.932	2324.67
822.259	2301.62
822.587	2287.16
822.915	2273.82
823.243	2295.29
823.57	2307.04
823.898	2305.24
824.225	2294.16
824.553	2306.14
824.88	2254.84
825.207	2280.15
825.535	2293.26
825.862	2276.76
826.189	2291.68
826.516	2278.12
826.843	2271.34
827.17	2280.83
827.497	2285.35
827.824	2251
828.151	2268.17
828.478	2271.56
828.805	2274.95
829.131	2263.88
829.458	2231.34
829.785	2239.02
830.111	2208.97
830.438	2289.19
830.764	2248.51
831.09	2232.92
831.417	2251
831.743	2239.48
832.069	2215.29
832.395	2179.82
832.722	2217.1
833.048	2209.42
833.374	2232.47
833.7	2226.14
834.026	2192.92
834.351	2249.87
834.677	2200.61
835.003	2222.3
835.329	2221.85
835.654	2190.44
835.98	2170.78
836.306	2233.37
836.631	2180.27
836.956	2192.7
837.282	2211.23
837.607	2190.21
837.932	2205.13
838.258	2180.72
838.583	2208.52
838.908	2212.36
839.233	2168.97
839.558	2175.52
839.883	2168.29
840.208	2164
840.533	2179.59
840.858	2182.98
841.182	2193.15
841.507	2180.04
841.832	2192.24
842.156	2152.25
842.481	2162.64
842.805	2191.34
843.13	2182.53
843.454	2175.97
843.778	2162.41
844.103	2170.55
844.427	2151.79
844.751	2170.32
845.075	2186.82
845.399	2166.48
845.723	2136.2
846.047	2165.35
846.371	2142.3
846.695	2135.97
847.019	2145.24
847.343	2122.42
847.666	2107.95
847.99	2126.26
848.313	2145.69
848.637	2094.39
848.96	2078.8
849.284	2097.78
849.607	2099.59
849.931	2083.09
850.254	2069.08
850.577	2096.88
850.9	2044.68
851.223	2085.13
851.546	2061.63
851.869	2043.1
852.192	2035.19
852.515	2034.06
852.838	2039.03
853.161	2001.06
853.483	1988.41
853.806	2000.61
854.129	2028.18
854.451	1989.54
854.774	1956.09
855.096	1972.82
855.419	1961.74
855.741	1949.77
856.063	1958.35
856.385	1949.77
856.708	1930.1
857.03	1914.29
857.352	1941.86
857.674	1912.25
857.996	1932.14
858.318	1902.99
858.64	1906.83
858.961	1869.09
859.283	1901.18
859.605	1894.63
859.926	1885.59
860.248	1858.24
860.57	1897.79
860.891	1846.27
861.212	1837.68
861.534	1839.71
861.855	1848.75
862.176	1847.85
862.498	1843.33
862.819	1829.99
863.14	1809.66
863.461	1816.66
863.782	1798.58
864.103	1839.71
864.424	1786.38
864.745	1795.42
865.065	1798.13
865.386	1758.13
865.707	1799.71
866.027	1762.43
866.348	1783.89
866.668	1769.43
866.989	1760.17
867.309	1770.79
867.63	1776.66
867.95	1711.58
868.27	1723.1
868.59	1749.32
868.91	1737.12
869.23	1730.34
869.55	1713.39
869.87	1737.12
870.19	1748.41
870.51	1760.84
870.83	1725.36
871.15	1730.79
871.469	1766.72
871.789	1727.4
872.109	1753.16
872.428	1717.68
872.748	1710.45
873.067	1741.86
873.386	1706.16
873.706	1729.21
874.025	1726.04
874.344	1732.82
874.663	1732.37
874.982	1718.13
875.301	1714.07
875.62	1716.78
875.939	1742.54
876.258	1716.1
876.577	1740.28
876.896	1722.43
877.214	1717
877.533	1704.35
877.852	1715.65
878.17	1713.39
878.489	1716.55
878.807	1739.83
879.125	1707.74
879.444	1726.27
879.762	1707.74
880.08	1744.57
880.398	1692.82
880.716	1693.73
881.034	1709.77
881.352	1731.01
881.67	1701.64
881.988	1704.12
882.306	1674.74
882.624	1713.61
882.941	1702.09
883.259	1663.9
883.577	1706.61
883.894	1681.07
884.212	1676.78
884.529	1683.33
884.846	1697.12
885.164	1682.2
885.481	1700.28
885.798	1648.53
886.115	1688.3
886.432	1705.48
886.75	1696.66
887.067	1684.69
887.383	1641.07
887.7	1645.14
888.017	1693.05
888.334	1666.61
888.651	1655.76
888.967	1648.98
889.284	1649.89
889.6	1637.68
889.917	1641.3
890.233	1653.73
890.55	1609.66
890.866	1626.84
891.182	1625.03
891.498	1598.36
891.815	1590.23
892.131	1582.77
892.447	1617.8
892.763	1608.31
893.079	1583.45
893.395	1601.98
893.71	1597.01
894.026	1573.73
894.342	1581.19
894.657	1590.45
894.973	1581.64
895.289	1562.66
895.604	1549.1
895.92	1539.15
896.235	1548.87
896.55	1530.34
896.865	1494.18
897.181	1539.15
897.496	1510
897.811	1513.62
898.126	1520.17
898.441	1510
898.756	1515.88
899.071	1502.09
899.386	1484.69
899.7	1485.6
900.015	1495.31
900.33	1445.82
900.644	1464.81
900.959	1473.17
901.273	1468.42
901.588	1438.37
901.902	1467.74
902.216	1428.2
902.531	1434.3
902.845	1438.14
903.159	1424.81
903.473	1411.25
903.787	1410.34
904.101	1415.32
904.415	1425.03
904.729	1409.67
905.042	1415.99
905.356	1389.78
905.67	1404.69
905.984	1366.73
906.297	1373.51
906.611	1354.53
906.924	1364.47
907.237	1373.06
907.551	1355.43
907.864	1371.7
908.177	1383.9
908.491	1363.79
908.804	1340.97
909.117	1364.02
909.43	1360.4
909.743	1344.36
910.056	1333.51
910.368	1345.04
910.681	1339.84
910.994	1308.88
911.307	1327.63
911.619	1343
911.932	1355.2
912.244	1315.21
912.557	1294.42
912.869	1316.56
913.181	1323.79
913.494	1308.43
913.806	1327.86
914.118	1275.88
914.43	1314.3
914.742	1292.61
915.054	1284.92
915.366	1293.29
915.678	1275.88
915.99	1278.14
916.302	1277.01
916.613	1286.51
916.925	1268.88
917.236	1244.7
917.548	1259.16
917.859	1219.61
918.171	1242.67
918.482	1240.63
918.794	1236.79
919.105	1251.7
919.416	1234.53
919.727	1238.15
920.038	1219.84
920.349	1223.91
920.66	1223.91
920.971	1205.83
921.282	1213.06
921.593	1211.71
921.903	1195.43
922.214	1216.9
922.525	1204.02
922.835	1179.16
923.146	1201.76
923.456	1219.61
923.767	1163.57
924.077	1169.9
924.387	1190.24
924.697	1185.04
925.008	1145.04
925.318	1147.98
925.628	1152.95
925.938	1166.06
926.248	1159.05
926.558	1152.95
926.867	1149.56
927.177	1152.72
927.487	1142.33
927.796	1107.75
928.106	1141.2
928.416	1110.47
928.725	1134.42
929.034	1127.41
929.344	1104.59
929.653	1117.24
929.962	1103.91
930.271	1082.67
930.581	1092.16
930.89	1103.01
931.199	1097.81
931.508	1103.91
931.817	1042.22
932.125	1055.55
932.434	1091.03
932.743	1065.95
933.051	1068.66
933.36	1061.65
933.669	1083.12
933.977	1049.9
934.286	1044.7
934.594	1021.2
934.902	1043.8
935.21	1060.07
935.519	1034.99
935.827	1038.83
936.135	1016.91
936.443	1025.95
936.751	1029.56
937.059	1001.77
937.367	998.15
937.674	1006.51
937.982	979.62
938.29	1039.96
938.597	976.01
938.905	988.21
939.213	980.07
939.52	984.59
939.827	1002.9
940.135	1003.8
940.442	972.16
940.749	988.66
941.056	978.27
941.363	958.15
941.67	965.61
941.977	982.56
942.284	966.51
942.591	958.15
942.898	952.5
943.205	945.05
943.511	940.75
943.818	953.86
944.125	922.67
944.431	951.37
944.738	946.85
945.044	922.22
945.35	906.85
945.657	931.94
945.963	940.75
946.269	928.78
946.575	918.61
946.881	922.67
947.187	911.37
947.493	923.13
947.799	926.29
948.105	910.24
948.41	911.6
948.716	878.83
949.022	885.61
949.327	894.2
949.633	874.77
949.938	898.72
950.244	895.1
950.549	898.04
950.854	872.96
951.16	860.75
951.465	893.75
951.77	886.29
952.075	862.11
952.38	855.1
952.685	852.84
952.99	867.99
953.294	880.19
953.599	867.76
953.904	883.8
954.209	853.3
954.513	857.36
954.818	859.85
955.122	863.47
955.426	860.08
955.731	853.52
956.035	825.5
956.339	842.9
956.643	834.77
956.948	860.08
957.252	859.85
957.556	832.96
957.86	825.27
958.163	850.36
958.467	805.61
958.771	823.47
959.075	838.61
959.378	832.05
959.682	850.13
959.985	805.61
960.289	818.95
960.592	793.64
960.896	814.65
961.199	823.02
961.502	807.2
961.805	777.14
962.108	789.57
962.411	814.43
962.714	791.83
963.017	788.21
963.32	787.54
963.623	784.37
963.926	779.4
964.228	795.45
964.531	791.83
964.833	775.56
965.136	806.97
965.438	785.05
965.741	788.67
966.043	783.02
966.345	773.3
966.648	790.02
966.95	785.95
967.252	766.07
967.554	769.68
967.856	769.68
968.158	757.48
968.46	757.48
968.761	746.63
969.063	747.54
969.365	757.25
969.666	742.57
969.968	744.15
970.269	742.79
970.571	734.66
970.872	727.42
971.174	749.12
971.475	738.72
971.776	747.31
972.077	755.67
972.378	715.45
972.679	718.16
972.98	696.46
973.281	709.12
973.582	717.48
973.883	732.17
974.183	699.18
974.484	704.6
974.785	725.39
975.085	708.22
975.386	681.1
975.686	726.75
975.986	680.42
976.287	684.26
976.587	707.99
976.887	691.04
977.187	710.25
977.487	690.59
977.787	683.81
978.087	694.2
978.387	672.96
978.687	698.95
978.987	700.76
979.286	673.64
979.586	666.64
979.885	664.38
980.185	672.28
980.484	671.15
980.784	655.79
981.083	671.83
981.382	663.47
981.682	664.38
981.981	659.86
982.28	658.05
982.579	653.3
982.878	661.21
983.177	655.56
983.475	640.2
983.774	642
984.073	657.82
984.372	636.81
984.67	653.3
984.969	667.54
985.267	623.02
985.566	646.97
985.864	644.71
986.162	643.81
986.461	616.24
986.759	635
987.057	635
987.355	639.52
987.653	625.51
987.951	620.53
988.249	633.19
988.547	613.53
988.844	617.82
989.142	598.61
989.44	625.96
989.737	603.59
990.035	612.4
990.332	593.64
990.63	611.04
990.927	622.57
991.224	603.36
991.521	610.82
991.819	583.25
992.116	626.86
992.413	599.07
992.71	606.98
993.006	603.36
993.303	580.99
993.6	609.46
993.897	607.2
994.193	602.91
994.49	570.82
994.787	578.95
995.083	572.4
995.379	596.13
995.676	556.58
995.972	588.67
996.268	576.02
996.565	566.52
996.861	558.39
997.157	581.89
997.453	570.14
997.749	576.92
998.044	568.33
998.34	564.49
998.636	584.38
998.932	585.73
999.227	553.87
999.523	552.29
999.818	560.42
1000.114	551.16
1000.409	544.83
1000.704	547.99
1001	566.07
1001.295	543.02
1001.59	572.4
1001.885	581.21
1002.18	574.66
1002.475	540.08
1002.77	539.86
1003.065	550.03
1003.359	554.1
1003.654	561.33
1003.949	560.88
1004.243	556.81
1004.538	567.2
1004.832	558.39
1005.127	533.98
1005.421	524.94
1005.715	527.2
1006.009	518.39
1006.304	522.01
1006.598	534.66
1006.892	547.54
1007.186	536.69
1007.48	520.2
1007.773	520.65
1008.067	535.11
1008.361	524.94
1008.655	503.48
1008.948	516.81
1009.242	491.05
1009.535	488.79
1009.829	516.13
1010.122	530.37
1010.415	525.62
1010.708	504.38
1011.001	521.1
1011.295	497.37
1011.588	509.13
1011.881	493.76
1012.173	501.22
1012.466	500.54
1012.759	515
1013.052	497.83
1013.344	512.74
1013.637	501.89
1013.93	504.38
1014.222	494.21
1014.514	515.9
1014.807	472.97
1015.099	498.96
1015.391	468.9
1015.683	474.1
1015.976	486.07
1016.268	490.14
1016.56	483.59
1016.851	478.84
1017.143	472.74
1017.435	492.85
1017.727	472.06
1018.018	473.42
1018.31	475.23
1018.602	470.71
1018.893	469.13
1019.185	478.62
1019.476	459.86
1019.767	462.35
1020.058	449.24
1020.35	442.69
1020.641	480.43
1020.932	463.25
1021.223	451.27
1021.514	442.69
1021.804	457.37
1022.095	478.84
1022.386	449.01
1022.677	449.69
1022.967	445.17
1023.258	459.63
1023.548	447.66
1023.839	449.92
1024.129	457.37
1024.419	443.59
1024.709	437.04
1025	464.61
1025.29	434.55
1025.58	446.3
1025.87	451.5
1026.16	427.09
1026.449	460.09
1026.739	437.04
1027.029	444.72
1027.319	452.4
1027.608	432.06
1027.898	445.4
1028.187	408.56
1028.477	453.31
1028.766	453.76
1029.055	437.94
1029.344	418.73
1029.634	418.73
1029.923	439.07
1030.212	423.25
1030.501	427.09
1030.79	411.73
1031.078	426.87
1031.367	427.55
1031.656	417.15
1031.945	428.68
1032.233	421.22
1032.522	417.38
1032.81	427.77
1033.099	417.15
1033.387	423.93
1033.675	413.53
1033.963	406.75
1034.251	415.57
1034.54	422.57
1034.828	377.38
1035.116	405.17
1035.403	398.17
1035.691	410.6
1035.979	416.47
1036.267	413.31
1036.554	385.51
1036.842	389.81
1037.129	406.53
1037.417	405.4
1037.704	411.27
1037.992	410.82
1038.279	402.69
1038.566	402.69
1038.853	402.69
1039.14	402.69
