Data from foam2_polystyrene_foam_FLMS001491_00001.txt Node
Date: Wed Feb 08 10:57:25 GMT 2017
User: dcchb
Spectrometer: FLMS00149
Trigger mode: 0
Integration Time (sec): 2.000000E-2
Scans to average: 10
Electric dark correction enabled: true
Nonlinearity correction enabled: false
Boxcar width: 0
XAxis mode: Wavelengths
Number of Pixels in Spectrum: 2048
>>>>>Begin Spectral Data<<<<<
341.393	-20.42
341.776	-20.42
342.16	-20.42
342.543	-85.51
342.927	-69.24
343.31	-72.63
343.693	-59.74
344.077	-52.74
344.46	-55.9
344.843	-61.78
345.226	-35.56
345.61	-24.26
345.993	-24.94
346.376	-15.45
346.759	-4.38
347.142	13.25
347.525	51.44
347.908	89.4
348.291	73.81
348.674	80.82
349.057	98.67
349.44	115.84
349.823	148.84
350.206	147.93
350.588	198.78
350.971	231.77
351.354	255.73
351.737	250.98
352.119	263.86
352.502	266.35
352.884	281.04
353.267	283.07
353.65	314.03
354.032	315.84
354.414	316.07
354.797	308.38
355.179	317.2
355.562	331.43
355.944	352.45
356.326	330.08
356.709	356.06
357.091	342.51
357.473	363.97
357.855	359.23
358.238	336.86
358.62	339.34
359.002	366.23
359.384	340.47
359.766	364.88
360.148	376.18
360.53	348.83
360.912	356.29
361.294	362.62
361.676	353.13
362.057	326.46
362.439	356.06
362.821	360.13
363.203	370.3
363.584	346.12
363.966	328.95
364.348	349.06
364.729	321.94
365.111	335.05
365.493	345.22
365.874	353.35
366.256	345.22
366.637	348.15
367.019	339.12
367.4	345.89
367.781	343.41
368.163	331.43
368.544	335.73
368.925	331.43
369.306	356.97
369.688	336.63
370.069	351.77
370.45	342.05
370.831	349.96
371.212	363.97
371.593	343.86
371.974	352.9
372.355	362.84
372.736	381.37
373.117	341.38
373.498	337.76
373.879	354.03
374.26	345.89
374.641	351.77
375.021	334.6
375.402	382.5
375.783	349.96
376.163	382.5
376.544	362.84
376.925	391.09
377.305	375.72
377.686	371.2
378.066	368.72
378.447	380.92
378.827	372.79
379.208	380.24
379.588	399.9
379.968	370.98
380.349	374.82
380.729	383.41
381.109	364.2
381.489	398.77
381.87	392.9
382.25	413.24
382.63	403.52
383.01	407.14
383.39	401.71
383.77	418.89
384.15	418.89
384.53	431.09
384.91	408.72
385.29	432.9
385.67	439.23
386.049	450.75
386.429	435.84
386.809	441.26
387.189	441.26
387.568	446.68
387.948	423.86
388.328	455.95
388.707	445.1
389.087	452.11
389.466	454.59
389.846	473.58
390.225	474.93
390.605	483.29
390.984	472.9
391.363	457.53
391.743	498.21
392.122	466.34
392.501	498.43
392.881	525.1
393.26	510.86
393.639	518.77
394.018	521.03
394.397	511.99
394.776	528.04
395.155	531.65
395.534	506.12
395.913	530.52
396.292	517.19
396.671	543.86
397.05	552.9
397.429	562.84
397.808	540.47
398.186	568.94
398.565	542.5
398.944	535.72
399.323	584.98
399.701	559.22
400.08	561.71
400.458	577.3
400.837	582.27
401.215	580.92
401.594	597.19
401.972	610.97
402.351	611.42
402.729	581.82
403.107	604.42
403.486	637.41
403.864	629.5
404.242	640.58
404.62	636.73
404.999	635.15
405.377	632.44
405.755	638.54
406.133	669.95
406.511	673.57
406.889	680.58
407.267	672.67
407.645	679.45
408.023	670.63
408.401	709.73
408.779	718.09
409.156	700.91
409.534	711.08
409.912	719.9
410.29	740.01
410.667	741.82
411.045	768.26
411.422	770.29
411.8	735.04
412.178	777.52
412.555	784.53
412.933	787.47
413.31	810.97
413.687	801.7
414.065	808.03
414.442	814.36
414.819	825.2
415.197	831.08
415.574	878.54
415.951	860.01
416.328	869.95
416.705	885.32
417.082	867.46
417.46	860.01
417.837	888.93
418.214	918.76
418.591	914.02
418.967	918.31
419.344	915.6
419.721	934.58
420.098	939.55
420.475	942.49
420.852	952.43
421.228	967.57
421.605	978.42
421.982	996.95
422.358	1010.28
422.735	1002.15
423.111	1021.36
423.488	1021.81
423.864	1039.89
424.241	1073.33
424.617	1062.94
424.994	1072.88
425.37	1088.47
425.746	1109.04
426.123	1110.85
426.499	1092.09
426.875	1144.07
427.251	1152.43
427.627	1145.2
428.003	1185.19
428.379	1194.01
428.756	1180.68
429.132	1200.56
429.507	1253.22
429.883	1250.28
430.259	1251.18
430.635	1247.11
431.011	1243.95
431.387	1326.43
431.763	1325.3
432.138	1338.86
432.514	1328.24
432.89	1349.94
433.265	1392.42
433.641	1416.6
434.016	1389.71
434.392	1409.14
434.767	1469.26
435.143	1457.28
435.518	1459.31
435.894	1478.07
436.269	1508.12
436.644	1542.02
437.02	1551.29
437.395	1571.85
437.77	1552.42
438.145	1583.15
438.52	1605.75
438.895	1640.32
439.271	1650.49
439.646	1650.27
440.021	1688.91
440.395	1679.87
440.77	1659.98
441.145	1665.18
441.52	1728.91
441.895	1713.99
442.27	1775.24
442.645	1731.4
443.019	1770.49
443.394	1779.98
443.769	1804.16
444.143	1821.11
444.518	1829.25
444.892	1810.94
445.267	1839.41
445.641	1850.26
446.016	1900.88
446.39	1932.29
446.764	1924.38
447.139	1920.99
447.513	1938.85
447.887	1965.29
448.262	1965.74
448.636	1950.6
449.01	2008.22
449.384	2043.03
449.758	2030.82
450.132	2052.06
450.506	2107.2
450.88	2083.25
451.254	2082.12
451.628	2106.3
452.002	2185.62
452.376	2174.77
452.75	2195.11
453.123	2217.71
453.497	2297.93
453.871	2264.49
454.244	2304.49
454.618	2301.1
454.992	2339.29
455.365	2355.79
455.739	2405.95
456.112	2433.07
456.486	2417.48
456.859	2462.68
457.232	2507.87
457.606	2513.3
457.979	2513.97
458.352	2586.97
458.725	2610.47
459.099	2605.95
459.472	2713.29
459.845	2725.72
460.218	2744.02
460.591	2751.03
460.964	2747.19
461.337	2827.41
461.71	2848.43
462.083	2912.61
462.456	2923.23
462.829	2920.52
463.201	2938.82
463.574	2987.18
463.947	3080.06
464.32	3085.71
464.692	3087.97
465.065	3123.22
465.438	3171.13
465.81	3237.34
466.183	3235.31
466.555	3344.91
466.928	3333.16
467.3	3349.66
467.672	3417.9
468.045	3507.17
468.417	3461.29
468.789	3505.13
469.161	3562.53
469.534	3614.06
469.906	3715.75
470.278	3700.16
470.65	3753.94
471.022	3824.22
471.394	3922.98
471.766	3942.18
472.138	3954.16
472.51	4079.36
472.882	4146.7
473.253	4125.68
473.625	4131.33
473.997	4257.66
474.369	4343.3
474.74	4377.88
475.112	4442.28
475.484	4594.14
475.855	4620.58
476.227	4639.34
476.598	4767.25
476.97	4764.54
477.341	4878.66
477.713	4987.35
478.084	5002.72
478.455	5163.4
478.827	5196.39
479.198	5357.97
479.569	5297.4
479.94	5457.17
480.311	5509.15
480.682	5703.27
481.053	5759.09
481.424	5841.8
481.795	5921.12
482.166	6008.12
482.537	6103.48
482.908	6242.69
483.279	6290.6
483.65	6413.31
484.021	6526.3
484.391	6523.59
484.762	6584.15
485.133	6734.43
485.503	6805.84
485.874	6946.63
486.244	6996.79
486.615	7125.6
486.985	7218.48
487.356	7421.64
487.726	7468.87
488.097	7628.64
488.467	7639.71
488.837	7760.62
489.207	7840.16
489.578	7954.51
489.948	8103.66
490.318	8215.74
490.688	8175.97
491.058	8333.93
491.428	8484.21
491.798	8515.62
492.168	8653.92
492.538	8718.56
492.908	8814.15
493.278	8880.36
493.648	8966.69
494.017	9055.04
494.387	9185.89
494.757	9262.27
495.126	9395.15
495.496	9415.26
495.866	9405.09
496.235	9564.64
496.605	9661.81
496.974	9703.39
497.344	9742.03
497.713	9852.09
498.082	9930.95
498.452	10090.5
498.821	10049.37
499.19	10173.43
499.559	10276.71
499.928	10326.2
500.298	10366.65
500.667	10535.01
501.036	10470.37
501.405	10682.12
501.774	10595.79
502.143	10739.97
502.512	10791.04
502.88	10939.74
503.249	10924.6
503.618	10997.37
503.987	11022
504.356	11132.73
504.724	11205.27
505.093	11282.33
505.462	11319.62
505.83	11341.54
506.199	11546.5
506.567	11727.97
506.936	11630.12
507.304	11734.97
507.672	11904.69
508.041	11934.29
508.409	11992.14
508.777	12197.79
509.145	12240.5
509.514	12278.46
509.882	12397.56
510.25	12408.4
510.618	12480.04
510.986	12593.93
511.354	12722.07
511.722	12812.91
512.09	12904.43
512.458	12954.38
512.826	13021.49
513.193	13165.22
513.561	13189.85
513.929	13327.7
514.297	13444.31
514.664	13505.32
515.032	13634.58
515.4	13672.78
515.767	13731.53
516.135	13865.77
516.502	13855.37
516.869	14068.92
517.237	14210.84
517.604	14199.09
517.972	14348.92
518.339	14374.45
518.706	14475.92
519.073	14481.57
519.44	14635.46
519.808	14821.45
520.175	14823.03
520.542	15061.67
520.909	15143.25
521.276	15133.53
521.643	15308.89
522.009	15561.31
522.376	15563.57
522.743	15662.33
523.11	15864.36
523.477	15972.15
523.843	16093.73
524.21	16225.7
524.577	16310.9
524.943	16443.1
525.31	16554.73
525.676	16717.44
526.043	16867.49
526.409	16965.34
526.776	17201.04
527.142	17183.87
527.508	17355.62
527.874	17417.54
528.241	17503.41
528.607	17598.55
528.973	17788.37
529.339	17866.56
529.705	17943.4
530.071	18146.33
530.437	18219.32
530.803	18398.98
531.169	18424.52
531.535	18387.68
531.901	18436.72
532.267	18537.96
532.632	18758.97
532.998	18936.37
533.364	18871.28
533.73	19070.83
534.095	19198.05
534.461	19126.42
534.826	19313.31
535.192	19357.15
535.557	19623.58
535.923	19512.17
536.288	19605.28
536.653	19823.35
537.019	19701.32
537.384	19808.89
537.749	19964.14
538.114	20064.47
538.479	20123.45
538.845	20110.12
539.21	20156.9
539.575	20287.52
539.94	20323.67
540.305	20528.19
540.67	20527.06
541.034	20679.37
541.399	20654.51
541.764	20787.62
542.129	20893.38
542.494	20930.66
542.858	20997.56
543.223	21046.14
543.587	21141.96
543.952	21183.99
544.316	21126.14
544.681	21172.24
545.045	21330.2
545.41	21480.71
545.774	21509.63
546.138	21526.35
546.503	21666.69
546.867	21649.06
547.231	21849.96
547.595	21863.3
547.959	22038.43
548.324	21938.55
548.688	22165.21
549.052	22120.01
549.416	22283.85
549.779	22404.98
550.143	22336.28
550.507	22548.93
550.871	22613.33
551.235	22685.87
551.599	22852.42
551.962	22972.19
552.326	23011.29
552.689	23128.8
553.053	23137.61
553.417	23178.74
553.78	23373.09
554.143	23358.4
554.507	23505.96
554.87	23562.91
555.234	23818.05
555.597	23698.73
555.96	23740.99
556.323	23877.25
556.686	24007.87
557.05	24032.05
557.413	24228.88
557.776	24229.11
558.139	24450.12
558.502	24556.78
558.865	24632.94
559.228	24770.11
559.59	25023.66
559.953	25008.07
560.316	25145.02
560.679	25126.26
561.041	25292.36
561.404	25434.05
561.767	25636.53
562.129	25676.75
562.492	25827.03
562.854	25864.55
563.217	25916.52
563.579	26069.51
563.941	26231.99
564.304	26272.67
564.666	26640.57
565.028	26596.28
565.39	26733.22
565.753	26808.48
566.115	26830.85
566.477	27100.9
566.839	27131.18
567.201	27345.18
567.563	27285.07
567.925	27551.73
568.287	27583.14
568.648	27731.16
569.01	27838.73
569.372	27885.96
569.734	27904.72
570.095	28125.96
570.457	28212.73
570.819	28337.93
571.18	28266.52
571.542	28388.55
571.903	28474.19
572.265	28542.89
572.626	28676.9
572.987	28750.8
573.349	28828.08
573.71	28883.45
574.071	29084.35
574.432	29100.84
574.794	29294.96
575.155	29311.23
575.516	29225.14
575.877	29332.25
576.238	29353.95
576.599	29536.31
576.96	29619.48
577.32	29648.85
577.681	29746.93
578.042	29787.83
578.403	29849.53
578.763	29882.29
579.124	29879.81
579.485	30159.12
579.845	30135.85
580.206	30078.45
580.566	30021.27
580.927	30063.31
581.287	30157.77
581.648	30076.41
582.008	30367.03
582.368	30137.2
582.728	30173.81
583.089	30088.16
583.449	30145.56
583.809	30186.47
584.169	30303.98
584.529	30251.1
584.889	30539
585.249	30431.88
585.609	30347.59
585.969	30477.98
586.329	30473.24
586.688	30558.43
587.048	30484.76
587.408	30317.31
587.768	30388.27
588.127	30307.14
588.487	30273.47
588.846	30541.26
589.206	30228.05
589.565	30342.62
589.925	30439.34
590.284	30456.29
590.643	30507.36
591.003	30445.22
591.362	30506.01
591.721	30553.24
592.08	30562.95
592.44	30575.61
592.799	30710.07
593.158	30516.18
593.517	30609.05
593.876	30752.1
594.235	30676.85
594.593	30728.37
594.952	30757.98
595.311	30777.41
595.67	30780.8
596.029	30817.18
596.387	30776.96
596.746	30865.32
597.104	30675.72
597.463	30738.99
597.822	30901.48
598.18	30669.39
598.538	30863.06
598.897	30917.97
599.255	30729.5
599.613	31103.05
599.972	30930.85
600.33	30984.86
600.688	30803.63
601.046	31124.29
601.404	31127.23
601.762	31035.48
602.12	31164.07
602.478	31323.84
602.836	31232.99
603.194	31095.37
603.552	31146.21
603.91	31168.36
604.268	31204.97
604.625	31206.78
604.983	31319.77
605.341	31167.46
605.698	31259.21
606.056	31345.08
606.413	31282.48
606.771	31255.36
607.128	31455.36
607.485	31175.59
607.843	31272.99
608.2	31387.11
608.557	31523.38
608.914	31455.36
609.272	31716.14
609.629	31795.24
609.986	31905.52
610.343	31702.58
610.7	31867.1
611.057	31858.96
611.414	31847.21
611.771	31936.25
612.127	32011.05
612.484	32074.55
612.841	31994.1
613.198	31989.13
613.554	31860.77
613.911	32046.08
614.267	32064.83
614.624	32019.19
614.98	32151.39
615.337	32208.56
615.693	32238.16
616.05	32211.95
616.406	32303.92
616.762	32323.81
617.118	32263.02
617.475	32285.85
617.831	32353.87
618.187	32392.74
618.543	32470.47
618.899	32506.18
619.255	32578.95
619.611	32473.19
619.967	32519.96
620.323	32744.37
620.678	32528.78
621.034	32346.41
621.39	32427.54
621.746	32405.39
622.101	32851.71
622.457	32532.62
622.812	32671.15
623.168	32753.86
623.523	32618.04
623.879	32856.45
624.234	32551.38
624.589	32817.81
624.945	32813.06
625.3	32841.99
625.655	32721.54
626.01	32831.59
626.365	32714.31
626.72	32691.94
627.075	32601.09
627.43	32597.02
627.785	32516.8
628.14	32781.88
628.495	32669.34
628.85	32594.31
629.205	32449.68
629.559	32586.63
629.914	32446.52
630.269	32491.04
630.623	32460.98
630.978	32363.58
631.332	32404.94
631.687	32416.24
632.041	32299.63
632.396	32352.51
632.75	32265.73
633.104	32269.35
633.459	32025.74
633.813	32060.54
634.167	32016.02
634.521	32067.09
634.875	31989.58
635.229	32033.65
635.583	31964.05
635.937	31985.51
636.291	31958.85
636.645	31889.47
636.999	31758.63
637.352	31850.38
637.706	31795.69
638.06	31711.4
638.413	31718.4
638.767	31743.94
639.121	31719.53
639.474	31477.96
639.828	31570.84
640.181	31489.26
640.534	31397.06
640.888	31507.34
641.241	31326.1
641.594	31275.03
641.947	31464.62
642.301	31358.86
642.654	31329.26
643.007	31357.73
643.36	31199.09
643.713	31227.57
644.066	31275.7
644.419	31162.03
644.771	30916.16
645.124	30598.88
645.477	30541.71
645.83	30396.18
646.182	30287.48
646.535	30166.13
646.888	30231.44
647.24	30015.85
647.593	30239.57
647.945	30172
648.298	29961.16
648.65	29962.74
649.002	29863.99
649.355	30040.26
649.707	29875.51
650.059	30103.3
650.411	30456.06
650.763	30381.72
651.115	30663.29
651.467	30683.4
651.819	30516.85
652.171	30520.24
652.523	30494.03
652.875	30514.14
653.227	30364.09
653.578	30532.67
653.93	30230.98
654.282	30334.94
654.633	30147.15
654.985	30162.74
655.337	30276.86
655.688	30261.04
656.039	30250.42
656.391	30082.51
656.742	30167.03
657.094	30148.73
657.445	30230.53
657.796	30146.24
658.147	30077.32
658.498	30051.55
658.849	30122.06
659.2	30118.9
659.551	29939.47
659.902	30188.73
660.253	30056.07
660.604	30096.75
660.955	29922.52
661.306	30035.96
661.656	29983.53
662.007	29885.46
662.358	29875.29
662.708	29967.49
663.059	29810.88
663.409	29669.64
663.76	30007.26
664.11	29827.83
664.461	29826.93
664.811	29899.24
665.161	29923.42
665.511	29809.3
665.862	29768.62
666.212	29801.17
666.562	29788.74
666.912	29689.98
667.262	29655.63
667.612	29605.69
667.962	29746.93
668.312	29711.22
668.662	29975.62
669.011	29715.07
669.361	29683.88
669.711	29703.54
670.06	29682.07
670.41	29647.27
670.76	29535.86
671.109	29758.68
671.459	29580.15
671.808	29417.67
672.157	29497.44
672.507	29318.47
672.856	29334.96
673.205	29338.8
673.554	29483.89
673.904	29286.6
674.253	29582.19
674.602	29425.13
674.951	28924.35
675.3	28901.3
675.649	29252.48
675.998	29246.15
676.346	29237.79
676.695	29319.6
677.044	29005.03
677.393	29153.5
677.741	29235.3
678.09	29030.11
678.438	28918.48
678.787	29122.99
679.135	29000.96
679.484	28889.33
679.832	29134.06
680.181	28907.63
680.529	28894.97
680.877	28769.78
681.225	28809.1
681.573	28876.9
681.922	28693.17
682.27	28537.02
682.618	28753.28
682.966	28553.51
683.314	28458.38
683.661	28508.54
684.009	28358.72
684.357	28266.52
684.705	28246.18
685.053	28237.59
685.4	28137.25
685.748	27937.03
686.095	27995.56
686.443	27846.19
686.79	27724.61
687.138	27801.44
687.485	27874.66
687.832	27795.12
688.18	27716.93
688.527	27439.65
688.874	27515.58
689.221	27539.98
689.568	27399.65
689.915	27291.85
690.262	27291.63
690.609	27221.35
690.956	27227.67
691.303	27106.32
691.65	27004.85
691.997	27039.88
692.344	26986.1
692.69	26885.99
693.037	26909.94
693.383	26609.39
693.73	26734.81
694.077	26627.01
694.423	26579.1
694.769	26417.07
695.116	26439.9
695.462	26390.63
695.808	26254.14
696.155	26399.9
696.501	26062.73
696.847	26139.11
697.193	25883.75
697.539	25980.25
697.885	25718.79
698.231	25718.34
698.577	25687.83
698.923	25673.82
699.269	25563.54
699.614	25430.43
699.96	25402.64
700.306	25430.21
700.651	25119.93
700.997	25126.71
701.342	25127.62
701.688	24985.02
702.033	24892.37
702.379	24908.19
702.724	24798.36
703.069	24941.18
703.415	24489.89
703.76	24654.41
704.105	24601.53
704.45	24551.36
704.795	24336.9
705.14	24366.96
705.485	24307.07
705.83	24124.03
706.175	24206.74
706.52	24123.35
706.865	24068.21
707.209	24014.88
707.554	23914.77
707.899	23970.36
708.243	23763.81
708.588	23772.62
708.932	23788.89
709.277	23672.29
709.621	23749.12
709.966	23544.38
710.31	23569.47
710.654	23479.98
710.998	23373.99
711.342	23396.14
711.687	23338.28
712.031	23268.46
712.375	23119.99
712.719	23115.24
713.063	23093.32
713.407	23100.32
713.75	23027.33
714.094	22945.98
714.438	22904.85
714.782	22871.4
715.125	22877.73
715.469	22794.12
715.812	22679.77
716.156	22564.97
716.499	22675.25
716.843	22532.88
717.186	22511.41
717.53	22594.12
717.873	22663.05
718.216	22533.33
718.559	22422.83
718.902	22228.26
719.246	22337.18
719.589	22183.06
719.932	22073.46
720.275	22126.11
720.617	22022.16
720.96	22029.84
721.303	21985.55
721.646	21914.37
721.989	21867.59
722.331	21836.63
722.674	21734.49
723.016	21773.35
723.359	21819.91
723.701	21820.81
724.044	21562.29
724.386	21548.28
724.729	21578.78
725.071	21486.58
725.413	21654.04
725.755	21545.34
726.097	21346.7
726.439	21301.95
726.782	21304.67
727.124	21421.05
727.465	21188.74
727.807	21099.02
728.149	21172.24
728.491	21099.25
728.833	21066.48
729.175	21045.92
729.516	21115.29
729.858	20936.99
730.199	21006.82
730.541	20894.06
730.882	20890.67
731.224	20926.82
731.565	20768.63
731.906	20726.15
732.248	20803.21
732.589	20640.05
732.93	20589.66
733.271	20591.01
733.612	20636.89
733.953	20492.94
734.294	20582.2
734.635	20510.34
734.976	20488.19
735.317	20411.13
735.658	20379.72
735.999	20450
736.339	20352.37
736.68	20400.96
737.021	20331.36
737.361	20222.89
737.702	20359.38
738.042	20228.76
738.383	20317.8
738.723	20266.5
739.063	20102.66
739.404	20134.08
739.744	20113.96
740.084	20067.41
740.424	20027.86
740.764	19912.39
741.104	19959.62
741.444	19927.07
741.784	19775.44
742.124	19880.52
742.464	19779.96
742.804	19652.51
743.143	19633.3
743.483	19610.02
743.823	19571.83
744.162	19580.87
744.502	19612.28
744.841	19460.87
745.181	19561.43
745.52	19387.43
745.86	19506.3
746.199	19431.95
746.538	19411.83
746.877	19468.56
747.216	19324.38
747.556	19266.3
747.895	19401.44
748.234	19258.62
748.573	19150.37
748.911	19229.24
749.25	19106.31
749.589	19015.46
749.928	19131.84
750.267	19084.16
750.605	19006.42
750.944	18924.16
751.283	18890.94
751.621	18918.29
751.96	18891.17
752.298	18847.56
752.636	18837.39
752.975	18715.13
753.313	18639.2
753.651	18760.78
753.989	18572.99
754.327	18558.75
754.666	18449.6
755.004	18522.37
755.342	18511.29
755.679	18451.18
756.017	18354.46
756.355	18402.6
756.693	18262.03
757.031	18329.6
757.368	18121.25
757.706	18206.89
758.044	18088.03
758.381	18032.21
758.719	17947.69
759.056	18046.9
759.394	17899.56
759.731	17892.33
760.068	17751.76
760.405	17738.43
760.743	17666.8
761.08	17840.12
761.417	17601.49
761.754	17443.52
762.091	17474.48
762.428	17444.43
762.765	17366.69
763.102	17346.13
763.438	17320.82
763.775	17189.29
764.112	17210.08
764.449	17194.49
764.785	17130.09
765.122	17010.54
765.458	16902.75
765.795	16917.89
766.131	16873.37
766.467	16714.96
766.804	16659.14
767.14	16619.37
767.476	16668.4
767.812	16543.44
768.148	16556.77
768.485	16433.61
768.821	16391.8
769.157	16320.84
769.492	16295.08
769.828	16266.38
770.164	16012.15
770.5	16092.6
770.836	16060.74
771.171	15946.84
771.507	15952.49
771.842	15841.98
772.178	15925.82
772.513	15789.56
772.849	15807.64
773.184	15663.46
773.519	15710.46
773.855	15612.84
774.19	15605.61
774.525	15547.08
774.86	15458.04
775.195	15451.71
775.53	15423.01
775.865	15423.92
776.2	15221.44
776.535	15050.82
776.87	15138.73
777.205	15052.4
777.539	14951.84
777.874	14959.07
778.209	14847.43
778.543	14763.59
778.878	14683.82
779.212	14804.05
779.547	14638.85
779.881	14744.16
780.215	14583.03
780.55	14581.45
780.884	14501.68
781.218	14388.24
781.552	14432.08
781.886	14426.88
782.22	14336.94
782.554	14301.23
782.888	14123.61
783.222	14180.11
783.556	14077.51
783.889	13990.73
784.223	13958.87
784.557	13868.93
784.89	13992.77
785.224	13859.66
785.557	13819.44
785.891	13706.9
786.224	13732.44
786.558	13691.76
786.891	13557.52
787.224	13521.59
787.557	13476.62
787.891	13503.29
788.224	13399.56
788.557	13418.77
788.89	13339.9
789.223	13462.39
789.556	13291.09
789.888	13172.68
790.221	13248.38
790.554	13103.75
790.887	13061.72
791.219	13022.85
791.552	13092.68
791.884	13001.38
792.217	12886.58
792.549	12856.75
792.882	12750.09
793.214	12681.84
793.546	12680.49
793.879	12637.1
794.211	12535.4
794.543	12586.02
794.875	12560.49
795.207	12583.99
795.539	12476.42
795.871	12488.17
796.203	12425.58
796.535	12235.53
796.867	12328.4
797.198	12157.79
797.53	12280.04
797.862	12072.14
798.193	12172.48
798.525	12084.12
798.856	12027.85
799.188	12009.32
799.519	11986.27
799.85	11918.7
800.182	11920.51
800.513	11942.2
800.844	11794.41
801.175	11825.14
801.506	11785.82
801.837	11686.84
802.168	11721.87
802.499	11646.84
802.83	11593.06
803.161	11564.81
803.491	11583.57
803.822	11605.49
804.153	11505.83
804.483	11436.22
804.814	11382.89
805.145	11449.56
805.475	11350.35
805.805	11308.77
806.136	11292.27
806.466	11251.14
806.796	11178.15
807.126	11147.87
807.457	11165.5
807.787	11090.02
808.117	11080.3
808.447	11034.65
808.777	11055.9
809.107	10999.85
809.436	10879.4
809.766	10953.53
810.096	10955.33
810.426	10822.91
810.755	10816.35
811.085	10840.53
811.414	10827.88
811.744	10721.44
812.073	10729.35
812.403	10719.86
812.732	10642.8
813.061	10659.07
813.39	10528.45
813.719	10520.54
814.049	10604.83
814.378	10555.34
814.707	10511.5
815.036	10499.53
815.365	10490.71
815.693	10415.23
816.022	10407.55
816.351	10334.11
816.68	10251.62
817.008	10338.4
817.337	10230.38
817.665	10257.27
817.994	10222.25
818.322	10229.25
818.651	10243.71
818.979	10208.91
819.307	10209.82
819.636	10142.02
819.964	10143.38
820.292	10135.92
820.62	10142.25
820.948	10088.92
821.276	10100.44
821.604	10078.97
821.932	10070.16
822.259	10156.94
822.587	10121.68
822.915	10072.42
823.243	10144.06
823.57	10076.71
823.898	10076.49
824.225	10074.23
824.553	10119.2
824.88	10068.13
825.207	10100.89
825.535	10022.93
825.862	10068.8
826.189	9996.71
826.516	10054.34
826.843	10079.65
827.17	10090.5
827.497	10083.49
827.824	10090.72
828.151	10021.57
828.478	10038.75
828.805	10059.31
829.131	10077.62
829.458	10050.72
829.785	9932.99
830.111	10041.23
830.438	10000.78
830.764	9979.54
831.09	10011.4
831.417	9927.11
831.743	9932.31
832.069	9943.83
832.395	9989.71
832.722	9991.52
833.048	9911.75
833.374	9968.69
833.7	9917.62
834.026	9903.84
834.351	9906.77
834.677	9867
835.003	9928.02
835.329	9855.7
835.654	9897.06
835.98	9847.57
836.306	9866.32
836.631	9825.87
836.956	9833.55
837.282	9845.76
837.607	9784.29
837.932	9777.29
838.258	9805.31
838.583	9780.45
838.908	9705.65
839.233	9746.78
839.558	9669.49
839.883	9638.98
840.208	9648.02
840.533	9704.74
840.858	9694.8
841.182	9622.49
841.507	9578.42
841.832	9529.16
842.156	9516.73
842.481	9510.63
842.805	9540.68
843.13	9514.24
843.454	9509.5
843.778	9469.72
844.103	9452.32
844.427	9448.93
844.751	9376.39
845.075	9397.41
845.399	9326.45
845.723	9267.69
846.047	9269.95
846.371	9193.12
846.695	9226.57
847.019	9147.92
847.343	9161.48
847.666	9063.63
847.99	9118.09
848.313	8995.16
848.637	8986.57
848.96	8962.62
849.284	8988.15
849.607	8903.18
849.931	8801.27
850.254	8740.25
850.577	8766.01
850.9	8754.04
851.223	8686.24
851.546	8650.54
851.869	8618.22
852.192	8591.55
852.515	8565.57
852.838	8548.17
853.161	8476.98
853.483	8433.14
853.806	8468.39
854.129	8459.35
854.451	8381.62
854.774	8393.59
855.096	8374.38
855.419	8310.66
855.741	8312.69
856.063	8246.48
856.385	8169.42
856.708	8194.28
857.03	8161.51
857.352	8189.3
857.674	8075.41
857.996	8174.39
858.318	8170.32
858.64	8129.64
858.961	8074.51
859.283	8038.8
859.605	8023.21
859.926	7990.67
860.248	8007.16
860.57	8014.62
860.891	7971.46
861.212	7912.02
861.534	7890.33
861.855	7920.38
862.176	7945.92
862.498	7904.34
862.819	7881.29
863.14	7865.47
863.461	7821.86
863.782	7789.54
864.103	7795.42
864.424	7770.56
864.745	7792.7
865.065	7772.14
865.386	7664.8
865.707	7726.72
866.027	7666.15
866.348	7686.49
866.668	7686.27
866.989	7610.79
867.309	7624.57
867.63	7644.01
867.95	7612.6
868.27	7545.25
868.59	7601.98
868.91	7540.51
869.23	7589.77
869.55	7490.79
869.87	7510
870.19	7450.57
870.51	7535.31
870.83	7500.28
871.15	7427.52
871.469	7464.35
871.789	7474.07
872.109	7413.73
872.428	7371.02
872.748	7370.57
873.067	7422.77
873.386	7453.73
873.706	7389.33
874.025	7338.71
874.344	7357.91
874.663	7291.25
874.982	7297.35
875.301	7306.62
875.62	7285.15
875.939	7315.66
876.258	7308.42
876.577	7282.89
876.896	7292.15
877.214	7177.13
877.533	7253.74
877.852	7235.21
878.17	7301.87
878.489	7214.19
878.807	7239.05
879.125	7228.88
879.444	7188.2
879.762	7165.38
880.08	7183.46
880.398	7140.97
880.716	7174.64
881.034	7079.96
881.352	7089.45
881.67	7071.37
881.988	7092.38
882.306	7135.32
882.624	7069.79
882.941	7079.28
883.259	7053.29
883.577	6933.52
883.894	6973.29
884.212	6982.1
884.529	6922.45
884.846	6892.39
885.164	6910.47
885.481	6864.14
885.798	6903.01
886.115	6851.94
886.432	6846.06
886.75	6834.99
887.067	6833.86
887.383	6790.02
887.7	6788.21
888.017	6753.64
888.334	6740.53
888.651	6697.37
888.967	6716.35
889.284	6683.81
889.6	6635.45
889.917	6660.53
890.233	6630.93
890.55	6634.09
890.866	6592.06
891.182	6584.83
891.498	6588.44
891.815	6562.91
892.131	6594.32
892.447	6541.21
892.763	6527.43
893.079	6499.41
893.395	6537.14
893.71	6456.47
894.026	6472.97
894.342	6459.86
894.657	6422.12
894.973	6321.78
895.289	6303.25
895.604	6281.33
895.92	6291.5
896.235	6269.35
896.55	6352.29
896.865	6273.42
897.181	6284.95
897.496	6174.67
897.811	6241.33
898.126	6172.41
898.441	6205.4
898.756	6127.44
899.071	6110.04
899.386	6126.53
899.7	6075.01
900.015	6030.94
900.33	6063.03
900.644	6019.64
900.959	6058.29
901.273	5976.26
901.588	5952.75
901.902	5961.57
902.216	5931.74
902.531	5922.7
902.845	5876.82
903.159	5863.72
903.473	5788.69
903.787	5865.98
904.101	5785.75
904.415	5784.17
904.729	5776.94
905.042	5721.8
905.356	5693.78
905.67	5684.74
905.984	5744.4
906.297	5658.75
906.611	5603.84
906.924	5607
907.237	5545.31
907.551	5566.1
907.864	5520.45
908.177	5500.79
908.491	5541.92
908.804	5506.21
909.117	5453.11
909.43	5442.71
909.743	5403.39
910.056	5392.54
910.368	5355.48
910.681	5315.48
910.994	5286.33
911.307	5316.84
911.619	5257.63
911.932	5254.69
912.244	5235.94
912.557	5243.17
912.869	5176.28
913.181	5204.52
913.494	5233.22
913.806	5104.41
914.118	5138.76
914.43	5175.15
914.742	5125.88
915.054	5092.89
915.366	5030.97
915.678	5004.3
915.99	5013.34
916.302	4981.25
916.613	4954.14
916.925	4945.77
917.236	4928.15
917.548	4871.88
917.859	4897.41
918.171	4877.3
918.482	4862.61
918.794	4831.43
919.105	4793.46
919.416	4731.99
919.727	4771.54
920.038	4722.73
920.349	4714.37
920.66	4748.72
920.971	4712.79
921.282	4689.74
921.593	4662.62
921.903	4576.74
922.214	4572.45
922.525	4623.52
922.835	4594.14
923.146	4572
923.456	4564.77
923.767	4534.26
924.077	4508.5
924.387	4499.68
924.697	4435.05
925.008	4481.38
925.318	4411.78
925.628	4438.22
925.938	4408.61
926.248	4365.9
926.558	4340.82
926.867	4332.23
927.177	4311.67
927.487	4311.89
927.796	4278.67
928.106	4258.11
928.416	4282.51
928.725	4273.7
929.034	4202.97
929.344	4203.87
929.653	4225.11
929.962	4140.82
930.271	4120.48
930.581	4141.5
930.89	4123.87
931.199	4053.14
931.508	4083.65
931.817	4078
932.125	4019.02
932.434	3999.36
932.743	3978.12
933.051	3981.05
933.36	3953.94
933.669	3932.47
933.977	3923.88
934.286	3938.79
934.594	3904.67
934.902	3892.92
935.21	3871.9
935.519	3832.58
935.827	3873.26
936.135	3835.29
936.443	3746.94
936.751	3783.54
937.059	3784.45
937.367	3758.01
937.674	3789.87
937.982	3758.01
938.29	3719.59
938.597	3737.44
938.905	3688.63
939.213	3663.77
939.52	3654.51
939.827	3637.33
940.135	3612.25
940.442	3615.64
940.749	3601.85
941.056	3577
941.363	3578.35
941.67	3613.61
941.977	3566.38
942.284	3539.94
942.591	3540.84
942.898	3512.59
943.205	3485.25
943.511	3468.98
943.818	3449.54
944.125	3418.81
944.431	3434.4
944.738	3407.96
945.044	3415.42
945.35	3402.31
945.657	3367.28
945.963	3363.67
946.269	3339.71
946.575	3329.77
946.881	3259.49
947.187	3300.17
947.493	3271.92
947.799	3279.83
948.105	3211.81
948.41	3259.04
948.716	3262.43
949.022	3217.46
949.327	3238.25
949.633	3173.62
949.938	3188.08
950.244	3178.14
950.549	3128.19
950.854	3128.87
951.16	3078.48
951.465	3113.96
951.77	3118.25
952.075	3068.31
952.38	3069.67
952.685	3065.82
952.99	3022.89
953.294	3043.9
953.599	3043.68
953.904	2977.69
954.209	2969.33
954.513	2957.58
954.818	2945.6
955.122	2945.15
955.426	2905.38
955.731	2935.21
956.035	2919.16
956.339	2875.55
956.643	2929.1
956.948	2849.56
957.252	2893.62
957.556	2858.6
957.86	2869.67
958.163	2829.9
958.467	2804.59
958.771	2838.94
959.075	2841.87
959.378	2824.7
959.682	2780.18
959.985	2764.59
960.289	2726.17
960.592	2736.11
960.896	2713.97
961.199	2712.39
961.502	2734.76
961.805	2688.88
962.108	2686.62
962.411	2696.34
962.714	2652.73
963.017	2669.68
963.32	2664.93
963.623	2640.3
963.926	2660.64
964.228	2626.74
964.531	2581.77
964.833	2625.83
965.136	2555.1
965.438	2589.23
965.741	2581.77
966.043	2545.61
966.345	2553.52
966.648	2494.76
966.95	2549.9
967.252	2499.06
967.554	2476.23
967.856	2480.53
968.158	2449.57
968.46	2472.39
968.761	2475.33
969.063	2407.99
969.365	2430.13
969.666	2454.31
969.968	2414.09
970.269	2413.64
970.571	2379.51
970.872	2392.39
971.174	2389.23
971.475	2351.04
971.776	2349.91
972.077	2353.07
972.378	2345.39
972.679	2349.68
972.98	2318.05
973.281	2344.49
973.582	2320.08
973.883	2292.51
974.183	2305.39
974.484	2289.35
974.785	2260.42
975.085	2267.65
975.386	2262.68
975.686	2212.74
975.986	2265.84
976.287	2221.1
976.587	2188.56
976.887	2231.95
977.187	2214.77
977.487	2157.6
977.787	2186.98
978.087	2166.64
978.387	2161.67
978.687	2181.55
978.987	2114.89
979.286	2122.57
979.586	2120.31
979.885	2098.39
980.185	2111.72
980.484	2055.68
980.784	2053.42
981.083	2086.64
981.382	2063.14
981.682	2063.36
981.981	2029.24
982.28	2029.47
982.579	2064.04
982.878	2035.57
983.177	2026.3
983.475	2013.87
983.774	2012.97
984.073	1985.17
984.372	1976.13
984.67	1967.55
984.969	1956.02
985.267	1970.94
985.566	1939.53
985.864	1959.86
986.162	1932.75
986.461	1916.93
986.759	1910.83
987.057	1928.9
987.355	1901.56
987.653	1862.69
987.951	1907.44
988.249	1891.39
988.547	1875.12
988.844	1848.23
989.142	1877.61
989.44	1849.81
989.737	1842.13
990.035	1827.66
990.332	1802.35
990.63	1818.62
990.927	1789.02
991.224	1780.43
991.521	1769.13
991.819	1786.76
992.116	1783.37
992.413	1759.19
992.71	1751.51
993.006	1750.38
993.303	1728.01
993.6	1738.4
993.897	1725.97
994.193	1729.36
994.49	1693.66
994.787	1716.71
995.083	1683.26
995.379	1702.47
995.676	1660.21
995.972	1641.91
996.268	1672.41
996.565	1643.04
996.861	1629.25
997.157	1638.74
997.453	1620.44
997.749	1615.01
998.044	1628.57
998.34	1608.01
998.636	1594.68
998.932	1596.26
999.227	1555.13
999.523	1598.97
999.818	1576.82
1000.114	1584.05
1000.409	1559.65
1000.704	1543.38
1001	1551.06
1001.295	1550.38
1001.59	1537.5
1001.885	1553.09
1002.18	1517.62
1002.475	1509.25
1002.77	1491.63
1003.065	1451.18
1003.359	1487.79
1003.654	1486.2
1003.949	1460.22
1004.243	1485.3
1004.538	1439.2
1004.832	1437.39
1005.127	1467
1005.421	1430.16
1005.715	1419.54
1006.009	1422.93
1006.304	1386.09
1006.598	1397.39
1006.892	1389.26
1007.186	1376.6
1007.48	1372.53
1007.773	1395.81
1008.067	1390.16
1008.361	1340.22
1008.655	1346.55
1008.948	1333.44
1009.242	1352.65
1009.535	1330.95
1009.829	1339.77
1010.122	1314.23
1010.415	1306.1
1010.708	1309.49
1011.001	1291.18
1011.295	1300.9
1011.588	1265.64
1011.881	1258.19
1012.173	1287.34
1012.466	1259.77
1012.759	1255.25
1013.052	1267.68
1013.344	1231.75
1013.637	1227.91
1013.93	1244.18
1014.222	1204.18
1014.514	1253.67
1014.807	1200.56
1015.099	1231.97
1015.391	1188.36
1015.683	1170.28
1015.976	1206.44
1016.268	1151.98
1016.56	1165.08
1016.851	1164.18
1017.143	1153.33
1017.435	1133.9
1017.727	1135.93
1018.018	1123.05
1018.31	1122.15
1018.602	1115.82
1018.893	1125.31
1019.185	1130.51
1019.476	1102.94
1019.767	1106.78
1020.058	1103.39
1020.35	1089.6
1020.641	1073.79
1020.932	1089.6
1021.223	1080.79
1021.514	1050.96
1021.804	1035.14
1022.095	1044.86
1022.386	1058.64
1022.677	1041.47
1022.967	1024.3
1023.258	1017.52
1023.548	1011.87
1023.839	1027.68
1024.129	1008.93
1024.419	999.21
1024.709	993.79
1025	979.1
1025.29	997.86
1025.58	988.14
1025.87	966.44
1026.16	989.72
1026.449	963.96
1026.739	947.91
1027.029	937.29
1027.319	939.78
1027.608	942.49
1027.898	933.45
1028.187	898.65
1028.477	936.16
1028.766	936.84
1029.055	888.48
1029.344	914.02
1029.634	891.64
1029.923	923.51
1030.212	876.5
1030.501	888.03
1030.79	882.6
1031.078	876.28
1031.367	878.54
1031.656	844.19
1031.945	865.66
1032.233	870.85
1032.522	858.65
1032.81	826.79
1033.099	841.02
1033.387	850.97
1033.675	824.98
1033.963	840.57
1034.251	837.63
1034.54	818.42
1034.828	823.85
1035.116	826.79
1035.403	805.09
1035.691	797.18
1035.979	816.62
1036.267	816.39
1036.554	772.32
1036.842	740.23
1037.129	786.11
1037.417	772.1
1037.704	779.56
1037.992	765.09
1038.279	761.25
1038.566	780.91
1038.853	780.91
1039.14	780.91
