Data from foam2_polystyrene_foam_FLMS001491_00013.txt Node
Date: Wed Feb 08 10:57:34 GMT 2017
User: dcchb
Spectrometer: FLMS00149
Trigger mode: 0
Integration Time (sec): 2.000000E-2
Scans to average: 10
Electric dark correction enabled: true
Nonlinearity correction enabled: false
Boxcar width: 0
XAxis mode: Wavelengths
Number of Pixels in Spectrum: 2048
>>>>>Begin Spectral Data<<<<<
341.393	-16.79
341.776	-16.79
342.16	-16.79
342.543	-55.89
342.927	-55.66
343.31	-69.9
343.693	-60.41
344.077	-64.25
344.46	-56.11
344.843	-68.32
345.226	-17.47
345.61	-33.29
345.993	-18.6
346.376	-4.36
346.759	31.57
347.142	25.47
347.525	27.73
347.908	53.71
348.291	58.01
348.674	88.06
349.057	108.18
349.44	138.68
349.823	125.12
350.206	151.11
350.588	201.28
350.971	216.19
351.354	255.06
351.737	224.78
352.119	265.23
352.502	273.82
352.884	283.99
353.267	287.61
353.65	309.75
354.032	302.97
354.414	328.06
354.797	318.11
355.179	360.82
355.562	322.41
355.944	356.98
356.326	351.56
356.709	360.6
357.091	360.37
357.473	365.34
357.855	365.8
358.238	350.65
358.62	354.72
359.002	353.14
359.384	347.72
359.766	348.39
360.148	357.43
360.53	369.86
360.912	358.11
361.294	361.95
361.676	371.67
362.057	357.66
362.439	373.25
362.821	344.55
363.203	347.26
363.584	326.7
363.966	335.06
364.348	346.13
364.729	360.82
365.111	353.14
365.493	370.77
365.874	328.28
366.256	359.92
366.637	351.33
367.019	378
367.4	358.79
367.781	345.91
368.163	366.93
368.544	349.98
368.925	335.74
369.306	355.85
369.688	357.43
370.069	351.11
370.45	349.75
370.831	355.17
371.212	348.39
371.593	343.88
371.974	350.65
372.355	363.76
372.736	358.11
373.117	358.56
373.498	350.65
373.879	365.8
374.26	357.89
374.641	368.73
375.021	366.02
375.402	375.06
375.783	382.97
376.163	383.65
376.544	404.21
376.925	390.65
377.305	381.16
377.686	386.59
378.066	388.85
378.447	401.27
378.827	396.98
379.208	385.91
379.588	374.16
379.968	389.52
380.349	396.76
380.729	416.64
381.109	399.69
381.489	423.65
381.87	393.59
382.25	426.13
382.63	433.59
383.01	416.19
383.39	444.44
383.77	438.34
384.15	414.16
384.53	444.21
384.91	434.95
385.29	460.93
385.67	432.23
386.049	443.31
386.429	466.81
386.809	447.15
387.189	466.81
387.568	453.48
387.948	446.92
388.328	469.3
388.707	471.33
389.087	464.55
389.466	493.7
389.846	484.21
390.225	484.44
390.605	506.81
390.984	500.71
391.363	524.21
391.743	494.61
392.122	528.05
392.501	518.11
392.881	549.75
393.26	517.2
393.639	525.34
394.018	520.37
394.397	527.15
394.776	527.37
395.155	543.19
395.534	536.86
395.913	564.66
396.292	548.84
396.671	585.9
397.05	556.52
397.429	569.41
397.808	566.24
398.186	586.81
398.565	593.81
398.944	585.68
399.323	603.53
399.701	598.33
400.08	610.08
400.458	612.12
400.837	606.24
401.215	618.67
401.594	601.95
401.972	632.23
402.351	647.14
402.729	638.1
403.107	637.88
403.486	653.7
403.864	683.53
404.242	650.08
404.62	673.58
404.999	659.57
405.377	706.35
405.755	705.67
406.133	692.11
406.511	714.03
406.889	703.19
407.267	735.73
407.645	744.32
408.023	728.05
408.401	761.04
408.779	761.04
409.156	750.42
409.534	758.78
409.912	777.54
410.29	792
410.667	809.4
411.045	790.87
411.422	830.42
411.8	826.35
412.178	854.37
412.555	879.45
412.933	868.16
413.31	856.4
413.687	868.83
414.065	883.07
414.442	888.95
414.819	895.73
415.197	899.11
415.574	919.45
415.951	947.7
416.328	903.86
416.705	924.65
417.082	930.53
417.46	974.59
417.837	956.74
418.214	969.62
418.591	995.61
418.967	991.09
419.344	999
419.721	1010.52
420.098	1010.75
420.475	1047.81
420.852	1055.95
421.228	1061.37
421.605	1051.88
421.982	1072.67
422.358	1061.14
422.735	1119
423.111	1111.54
423.488	1130.07
423.864	1126.45
424.241	1133.46
424.617	1160.35
424.994	1172.1
425.37	1199.45
425.746	1161.71
426.123	1210.75
426.499	1215.04
426.875	1226.34
427.251	1227.47
427.627	1262.72
428.003	1277.18
428.379	1286
428.756	1299.78
429.132	1313.57
429.507	1338.2
429.883	1351.31
430.259	1393.34
430.635	1398.99
431.011	1437.41
431.387	1415.49
431.763	1473.11
432.138	1463.17
432.514	1472.66
432.89	1497.74
433.265	1501.36
433.641	1547.01
434.016	1562.83
434.392	1582.03
434.767	1609.15
435.143	1614.35
435.518	1626.1
435.894	1659.77
436.269	1653.9
436.644	1709.49
437.02	1724.63
437.395	1686.89
437.77	1747
438.145	1727.34
438.52	1741.58
438.895	1768.7
439.271	1790.84
439.646	1860.67
440.021	1866.1
440.395	1849.82
440.77	1861.8
441.145	1878.07
441.52	1879.88
441.895	1909.26
442.27	1954.68
442.645	1940.9
443.019	1983.38
443.394	1968.69
443.769	1988.35
444.143	1972.76
444.518	2014.11
444.892	2022.7
445.267	2049.82
445.641	2086.65
446.016	2069.48
446.39	2098.41
446.764	2154.9
447.139	2120.55
447.513	2150.16
447.887	2161.45
448.262	2164.17
448.636	2239.19
449.01	2195.35
449.384	2246.88
449.758	2273.99
450.132	2290.49
450.506	2299.76
450.88	2302.24
451.254	2337.95
451.628	2355.12
452.002	2407.55
452.376	2402.35
452.75	2413.2
453.123	2422.46
453.497	2485.06
453.871	2513.99
454.244	2544.72
454.618	2610.71
454.992	2635.79
455.365	2605.96
455.739	2674.44
456.112	2707.43
456.486	2717.82
456.859	2740.2
457.232	2774.09
457.606	2774.09
457.979	2836.01
458.352	2858.84
458.725	2901.1
459.099	2937.48
459.472	3012.73
459.845	3041.88
460.218	3013.18
460.591	3049.57
460.964	3080.3
461.337	3156.91
461.71	3189
462.083	3255.44
462.456	3251.14
462.829	3277.13
463.201	3319.39
463.574	3332.05
463.947	3367.52
464.32	3420.18
464.692	3504.24
465.065	3492.94
465.438	3540.4
465.81	3637.12
466.183	3651.81
466.555	3720.74
466.928	3731.81
467.3	3755.99
467.672	3816.55
468.045	3880.73
468.417	3906.04
468.789	3952.59
469.161	3976.77
469.534	4083.89
469.906	4089.09
470.278	4183.55
470.65	4191.68
471.022	4311.23
471.394	4356.2
471.766	4416.08
472.138	4446.37
472.51	4492.01
472.882	4591.9
473.253	4610.2
473.625	4749.18
473.997	4836.41
474.369	4867.37
474.74	4904.21
475.112	5021.04
475.484	5091.55
475.855	5170.87
476.227	5201.37
476.598	5353.01
476.97	5417.64
477.341	5525.89
477.713	5545.32
478.084	5667.58
478.455	5821.02
478.827	5904.63
479.198	5985.53
479.569	6027.34
479.94	6230.95
480.311	6292.65
480.682	6380.1
481.053	6511.85
481.424	6689.25
481.795	6659.64
482.166	6749.58
482.537	6891.05
482.908	7027.09
483.279	7073.87
483.65	7205.16
484.021	7323.13
484.391	7444.71
484.762	7585.94
485.133	7584.81
485.503	7670.24
485.874	7859.84
486.244	7986.61
486.615	8075.2
486.985	8194.97
487.356	8338.02
487.726	8388.64
488.097	8619.82
488.467	8644
488.837	8787.72
489.207	8929.64
489.578	9026.81
489.948	9106.81
490.318	9245.79
490.688	9250.99
491.058	9375.05
491.428	9529.4
491.798	9686.91
492.168	9787.69
492.538	9847.13
492.908	10015.26
493.278	10119.89
493.648	10187.68
494.017	10251.86
494.387	10365.76
494.757	10489.6
495.126	10542.7
495.496	10681.91
495.866	10737.05
496.235	10881
496.605	10932.98
496.974	11079.86
497.344	11161.44
497.713	11153.53
498.082	11248.9
498.452	11359.86
498.821	11412.96
499.19	11494.99
499.559	11721.88
499.928	11739.06
500.298	11771.82
500.667	11944.47
501.036	11981.76
501.405	12104.47
501.774	12092.49
502.143	12213.62
502.512	12300.62
502.88	12367.97
503.249	12521.86
503.618	12597.79
503.987	12623.1
504.356	12741.52
504.724	12789.42
505.093	12868.97
505.462	13030.32
505.83	13052.69
506.199	13180.15
506.567	13391.67
506.936	13283.2
507.304	13519.35
507.672	13572
508.041	13699.23
508.409	13815.39
508.777	13889.06
509.145	14011.31
509.514	14031.2
509.882	14148.48
510.25	14258.54
510.618	14307.8
510.986	14387.57
511.354	14605.2
511.722	14703.05
512.09	14755.47
512.458	14816.71
512.826	14977.61
513.193	15079.76
513.561	15141.68
513.929	15177.16
514.297	15407.66
514.664	15473.19
515.032	15496.92
515.4	15669.8
515.767	15759.52
516.135	15944.59
516.502	15811.49
516.869	16156.57
517.237	16209.9
517.604	16209.9
517.972	16396.79
518.339	16423
518.706	16522.88
519.073	16699.15
519.44	16824.35
519.808	17004.91
520.175	17047.62
520.542	17261.85
520.909	17399.47
521.276	17407.61
521.643	17619.81
522.009	17775.06
522.376	17804.43
522.743	18023.64
523.11	18108.15
523.477	18363.29
523.843	18396.96
524.21	18528.03
524.577	18690.74
524.943	18772.54
525.31	18941.8
525.676	19136.83
526.043	19337.5
526.409	19267.45
526.776	19625.85
527.142	19613.42
527.508	19811.84
527.874	19869.46
528.241	20101.1
528.607	20092.06
528.973	20399.84
529.339	20443.46
529.705	20626.73
530.071	20769.1
530.437	20860.85
530.803	20970
531.169	21132.93
531.535	20998.47
531.901	21238.24
532.267	21300.61
532.632	21391.68
532.998	21650.89
533.364	21773.14
533.73	21794.16
534.095	21980.37
534.461	22118.9
534.826	22192.34
535.192	22329.96
535.557	22337.65
535.923	22399.79
536.288	22491.54
536.653	22638.43
537.019	22678.43
537.384	22734.92
537.749	22899.67
538.114	22919.55
538.479	22973.11
538.845	23202.71
539.21	23061.47
539.575	23250.62
539.94	23308.02
540.305	23548.69
540.67	23489.93
541.034	23739.87
541.399	23640.66
541.764	23849.02
542.129	23909.36
542.494	23997.94
542.858	24157.94
543.223	24146.87
543.587	24330.59
543.952	24292.17
544.316	24347.99
544.681	24392.28
545.045	24650.35
545.41	24687.87
545.774	24673.63
546.138	24829.78
546.503	25002.21
546.867	24843.34
547.231	25093.05
547.595	25195.2
547.959	25324.46
548.324	25350.68
548.688	25339.15
549.052	25572.82
549.416	25587.28
549.779	25657.33
550.143	25715.41
550.507	25944.78
550.871	26012.58
551.235	26050.09
551.599	26275.85
551.962	26302.06
552.326	26425.9
552.689	26628.16
553.053	26437.43
553.417	26550.19
553.78	26982.5
554.143	26777.53
554.507	27049.39
554.87	27147.46
555.234	27344.52
555.597	27275.6
555.96	27349.04
556.323	27534.57
556.686	27622.03
557.05	27735.47
557.413	27916.26
557.776	27977.05
558.139	28146.31
558.502	28226.53
558.865	28452.97
559.228	28409.8
559.59	28587.43
559.953	28662.9
560.316	29033.52
560.679	28952.61
561.041	29148.77
561.404	29375.43
561.767	29499.27
562.129	29313.28
562.492	29715.98
562.854	29807.51
563.217	29753.05
563.579	29859.71
563.941	30080.95
564.304	30233.48
564.666	30259.7
565.028	30514.83
565.39	30567.49
565.753	30792.57
566.115	30974.93
566.477	31051.54
566.839	31092.9
567.201	31274.14
567.563	31301.03
567.925	31478.65
568.287	31501.47
568.648	31626.22
569.01	31886.1
569.372	31938.3
569.734	31881.35
570.095	32219.65
570.457	32195.02
570.819	32263.04
571.18	32307.33
571.542	32607.89
571.903	32484.5
572.265	32695.11
572.626	32798.62
572.987	32795
573.349	33002
573.71	33143.46
574.071	33187.31
574.432	33495.09
574.794	33539.61
575.155	33496
575.516	33383.46
575.877	33600.63
576.238	33695.31
576.599	33812.15
576.96	33772.83
577.32	33899.38
577.681	34010.11
578.042	34006.27
578.403	34063.67
578.763	34058.92
579.124	34139.14
579.485	34193.61
579.845	34347.95
580.206	34304.11
580.566	34234.06
580.927	34516.08
581.287	34362.87
581.648	34401.28
582.008	34661.16
582.368	34499.36
582.728	34663.2
583.089	34573.03
583.449	34558.12
583.809	34620.04
584.169	34675.18
584.529	34508.63
584.889	34982.51
585.249	34672.24
585.609	34595.18
585.969	34836.3
586.329	34697.1
586.688	34882.63
587.048	34779.13
587.408	34815.96
587.768	34858.45
588.127	34665.68
588.487	34778.9
588.846	35007.82
589.206	34752.01
589.565	34781.39
589.925	34990.2
590.284	34853.25
590.643	34858.9
591.003	35051.66
591.362	35139.8
591.721	34927.15
592.08	35038.56
592.44	35105.67
592.799	35072.45
593.158	35035.62
593.517	35006.24
593.876	35148.61
594.235	34950.87
594.593	35043.98
594.952	35203.75
595.311	35130.31
595.67	35032.91
596.029	35312.45
596.387	35268.61
596.746	35347.47
597.104	35298.44
597.463	35221.83
597.822	35374.37
598.18	35233.35
598.538	35328.49
598.897	35419.11
599.255	35232
599.613	35730.52
599.972	35460.24
600.33	35713.11
600.688	35388.15
601.046	35636.28
601.404	35822.72
601.762	35654.36
602.12	35911.08
602.478	35940.45
602.836	35886.44
603.194	35662.27
603.552	35961.7
603.91	35817.97
604.268	35985.42
604.625	35889.61
604.983	36044.18
605.341	35834.24
605.698	35996.05
606.056	36013.9
606.413	36059.55
606.771	36174.35
607.128	36177.96
607.485	35977.06
607.843	36053.67
608.2	36286.66
608.557	36325.98
608.914	36126.21
609.272	36319.65
609.629	36319.43
609.986	36528.23
610.343	36281.69
610.7	36587.22
611.057	36502.25
611.414	36660.66
611.771	36632.41
612.127	36646.65
612.484	36730.94
612.841	36848.45
613.198	36631.06
613.554	36709.7
613.911	36898.39
614.267	36926.64
614.624	36864.72
614.98	36817.94
615.337	37031.5
615.693	36870.82
616.05	36984.49
616.406	37144.72
616.762	37191.95
617.118	37086.41
617.475	37103.81
617.831	37198.27
618.187	37307.87
618.543	37340.19
618.899	37467.64
619.255	37429.23
619.611	37222
619.967	37373.64
620.323	37553.52
620.678	37469.68
621.034	37233.53
621.39	37260.87
621.746	37223.58
622.101	37658.15
622.457	37386.07
622.812	37386.07
623.168	37443.01
623.523	37515.1
623.879	37461.32
624.234	37266.97
624.589	37544.93
624.945	37400.3
625.3	37405.73
625.655	37285.28
626.01	37458.38
626.365	37515.78
626.72	37386.97
627.075	37450.02
627.43	37311.26
627.785	37372.51
628.14	37441.66
628.495	37342.68
628.85	37259.97
629.205	37216.35
629.559	37450.02
629.914	37229.46
630.269	37179.06
630.623	37157.6
630.978	37044.38
631.332	37298.16
631.687	37133.19
632.041	37045.06
632.396	37093.19
632.75	36870.82
633.104	36931.84
633.459	36808.23
633.813	36742.69
634.167	36641
634.521	36714.9
634.875	36707.89
635.229	36628.8
635.583	36369.14
635.937	36392.87
636.291	36450.27
636.645	36389.93
636.999	36247.79
637.352	36270.39
637.706	36011.41
638.06	36217.96
638.413	36051.41
638.767	36085.53
639.121	36194.46
639.474	35819.1
639.828	35909.27
640.181	35952.66
640.534	35896.61
640.888	35771.87
641.241	35493.46
641.594	35695.49
641.947	35641.25
642.301	35548.15
642.654	35545.21
643.007	35556.06
643.36	35530.29
643.713	35351.32
644.066	35441.71
644.419	35253.69
644.771	34984.77
645.124	34867.71
645.477	34693.93
645.83	34413.04
646.182	34261.4
646.535	34088.07
646.888	34187.05
647.24	33904.12
647.593	34074.06
647.945	33984.12
648.298	33813.05
648.65	33752.26
649.002	33613.06
649.355	33731.47
649.707	33808.76
650.059	34012.59
650.411	34286.71
650.763	34258.24
651.115	34563.31
651.467	34437.89
651.819	34606.48
652.171	34389.53
652.523	34246.71
652.875	34188.86
653.227	34021.41
653.578	34360.16
653.93	34222.98
654.282	34081.97
654.633	33953.39
654.985	34112.7
655.337	34015.31
655.688	33991.8
656.039	34293.94
656.391	33914.97
656.742	33919.94
657.094	33986.15
657.445	34007.62
657.796	33905.48
658.147	33869.1
658.498	33705.94
658.849	33882.2
659.2	33841.07
659.551	33578.03
659.902	33635.43
660.253	33506.84
660.604	33575.54
660.955	33483.12
661.306	33623.45
661.656	33395.44
662.007	33525.38
662.358	33622.55
662.708	33434.08
663.059	33512.49
663.409	33238.83
663.76	33365.83
664.11	33402.89
664.461	33389.79
664.811	33342.33
665.161	33445.83
665.511	33194.99
665.862	33318.83
666.212	33337.58
666.562	33347.08
666.912	33306.17
667.262	33168.32
667.612	33185.05
667.962	33186.63
668.312	33192.95
668.662	33235.21
669.011	33117.7
669.361	33174.42
669.711	32985.5
670.06	33048.55
670.41	32917.71
670.76	32825.51
671.109	32961.32
671.459	32837.48
671.808	32755
672.157	32868.22
672.507	32663.03
672.856	32654.44
673.205	32714.55
673.554	32823.02
673.904	32550.71
674.253	32831.83
674.602	32704.15
674.951	32206.77
675.3	32196.82
675.649	32569.69
675.998	32608.56
676.346	32454.67
676.695	32651.5
677.044	32251.28
677.393	32373.54
677.741	32567.21
678.09	32427.1
678.438	32258.06
678.787	32245.86
679.135	32316.14
679.484	32084.06
679.832	32269.82
680.181	32151.85
680.529	32148.01
680.877	32136.49
681.225	31975.13
681.573	32282.7
681.922	31904.4
682.27	31810.17
682.618	31965.64
682.966	31774.91
683.314	31796.38
683.661	31770.39
684.009	31563.62
684.357	31410.63
684.705	31411.76
685.053	31422.15
685.4	31339.9
685.748	31134.03
686.095	31118.43
686.443	30945.1
686.79	31003.18
687.138	30991.2
687.485	30931.09
687.832	30632.57
688.18	30821.49
688.527	30539.69
688.874	30614.72
689.221	30487.72
689.568	30481.16
689.915	30297.44
690.262	30317.1
690.609	30226.25
690.956	30228.97
691.303	30055.64
691.65	29995.75
691.997	29904
692.344	29847.51
692.69	29740.16
693.037	29842.08
693.383	29535.2
693.73	29706.72
694.077	29414.98
694.423	29549.21
694.769	29373.85
695.116	29348.76
695.462	29347.41
695.808	29080.07
696.155	29210.46
696.501	28977.02
696.847	28982.9
697.193	28603.7
697.539	28793.3
697.885	28659.29
698.231	28518.5
698.577	28596.01
698.923	28473.98
699.269	28478.73
699.614	28166.87
699.96	28216.81
700.306	28192.86
700.651	28066.99
700.997	28110.83
701.342	27949.93
701.688	27980.21
702.033	27825.64
702.379	27779.31
702.724	27859.31
703.069	27819.08
703.415	27423.84
703.76	27497.06
704.105	27505.42
704.45	27479.43
704.795	27141.14
705.14	27241.47
705.485	27116.96
705.83	27081.03
706.175	27089.61
706.52	27091.65
706.865	26880.58
707.209	26909.28
707.554	26766.68
707.899	26875.83
708.243	26666.8
708.588	26663.86
708.932	26526.01
709.277	26484.66
709.621	26517.2
709.966	26276.07
710.31	26501.61
710.654	26166.7
710.998	26253.48
711.342	26233.59
711.687	26144.33
712.031	25994.27
712.375	25911.34
712.719	25873.6
713.063	25868.63
713.407	25895.29
713.75	25816.65
714.094	25681.51
714.438	25735.98
714.782	25639.03
715.125	25467.28
715.469	25486.94
715.812	25350.45
716.156	25326.04
716.499	25307.74
716.843	25347.51
717.186	25167.4
717.53	25347.96
717.873	25347.74
718.216	25094.18
718.559	25119.27
718.902	24897.81
719.246	25124.92
719.589	24880.41
719.932	24955.66
720.275	24777.58
720.617	24891.48
720.96	24832.5
721.303	24839.5
721.646	24851.25
721.989	24573.52
722.331	24614.88
722.674	24494.65
723.016	24689.9
723.359	24544.14
723.701	24479.51
724.044	24420.3
724.386	24281.1
724.729	24393.41
725.071	24402.9
725.413	24202
725.755	24235.68
726.097	24124.94
726.439	24020.77
726.782	24008.79
727.124	24139.63
727.465	24015.12
727.807	24019.86
728.149	23849.92
728.491	23855.35
728.833	23969.92
729.175	23848.79
729.516	23794.56
729.858	23747.55
730.199	23752.07
730.541	23690.38
730.882	23635.24
731.224	23737.84
731.565	23555.69
731.906	23468.24
732.248	23651.06
732.589	23395.25
732.93	23335.36
733.271	23399.99
733.612	23355.25
733.953	23462.82
734.294	23365.64
734.635	23226.21
734.976	23207.68
735.317	23142.6
735.658	23072.77
735.999	23150.28
736.339	23015.14
736.68	23161.58
737.021	23053.11
737.361	22902.38
737.702	22992.77
738.042	22862.38
738.383	22834.81
738.723	22874.13
739.063	22608.15
739.404	22899.44
739.744	22692.67
740.084	22756.85
740.424	22731.54
740.764	22667.13
741.104	22771.99
741.444	22598.66
741.784	22536.29
742.124	22477.3
742.464	22473.69
742.804	22506.23
743.143	22466.91
743.483	22444.99
743.823	22269.63
744.162	22218.33
744.502	22209.51
744.841	22144.66
745.181	22204.32
745.52	22172.91
745.86	22091.78
746.199	22130.19
746.538	22015.85
746.877	22260.59
747.216	22053.81
747.556	22049.97
747.895	22031.67
748.234	21974.72
748.573	21943.08
748.911	21840.71
749.25	21830.99
749.589	21627.38
749.928	21591.9
750.267	21708.51
750.605	21508.06
750.944	21623.54
751.283	21499.7
751.621	21617.89
751.96	21482.3
752.298	21448.18
752.636	21418.12
752.975	21252.25
753.313	21158.24
753.651	21302.42
753.989	21197.34
754.327	21128.19
754.666	21104.01
755.004	21064.01
755.342	20984.46
755.679	21025.37
756.017	20970.45
756.355	20814.07
756.693	20766.39
757.031	20885.48
757.368	20674.87
757.706	20597.81
758.044	20488.43
758.381	20510.12
758.719	20396.68
759.056	20458.6
759.394	20305.61
759.731	20279.17
760.068	20322.11
760.405	20235.33
760.743	20121.21
761.08	20100.19
761.417	20094.99
761.754	19974.32
762.091	19932.96
762.428	19823.59
762.765	19745.85
763.102	19749.47
763.438	19641.9
763.775	19683.03
764.112	19561.45
764.449	19613.88
764.785	19413.2
765.122	19315.13
765.458	19242.14
765.795	19206.88
766.131	19253.21
766.467	19127.11
766.804	19049.15
767.14	18924.63
767.476	18967.57
767.812	18868.36
768.148	18801.02
768.485	18761.47
768.821	18648.25
769.157	18687.8
769.492	18573.9
769.828	18376.17
770.164	18354.48
770.5	18305.89
770.836	18234.03
771.171	18107.48
771.507	18115.61
771.842	17969.17
772.178	17984.99
772.513	17997.2
772.849	17938.67
773.184	17818.9
773.519	17758.56
773.855	17751.55
774.19	17611.22
774.525	17581.84
774.86	17507.27
775.195	17438.11
775.53	17433.37
775.865	17252.81
776.2	17175.97
776.535	17087.16
776.87	17078.8
777.205	16981.63
777.539	16961.07
777.874	17059.82
778.209	16803.33
778.543	16741.86
778.878	16686.5
779.212	16644.01
779.547	16669.77
779.881	16615.99
780.215	16481.98
780.55	16554.75
780.884	16545.94
781.218	16366.5
781.552	16393.85
781.886	16296.45
782.22	16183.23
782.554	16121.09
782.888	16012.84
783.222	16008.55
783.556	15866.18
783.889	15796.12
784.223	15794.32
784.557	15605.39
784.89	15725.62
785.224	15582.8
785.557	15614.21
785.891	15509.58
786.224	15541.22
786.558	15473.19
786.891	15307.78
787.224	15332.41
787.557	15203.82
787.891	15144.16
788.224	15116.37
788.557	15192.52
788.89	15015.13
789.223	15024.17
789.556	14956.6
789.888	14857.62
790.221	14807
790.554	14708.47
790.887	14722.25
791.219	14702.14
791.552	14523.39
791.884	14547.34
792.217	14536.95
792.549	14489.94
792.882	14425.09
793.214	14403.62
793.546	14254.47
793.879	14169.95
794.211	14108.26
794.543	14161.82
794.875	14062.84
795.207	14154.13
795.539	14107.58
795.871	13987.81
796.203	13927.92
796.535	13862.16
796.867	13866.68
797.198	13792.34
797.53	13784.65
797.862	13695.84
798.193	13728.16
798.525	13660.14
798.856	13572.68
799.188	13473.93
799.519	13425.34
799.85	13346.02
800.182	13386.47
800.513	13408.84
800.844	13312.12
801.175	13327.26
801.506	13309.64
801.837	13197.77
802.168	13127.27
802.499	13074.16
802.83	13116.42
803.161	13080.26
803.491	12963.88
803.822	13000.27
804.153	12970.89
804.483	12771.12
804.814	12771.34
805.145	12813.6
805.475	12720.5
805.805	12640.27
806.136	12724.34
806.466	12676.88
806.796	12644.79
807.126	12561.63
807.457	12496.1
807.787	12565.25
808.117	12469.21
808.447	12501.75
808.777	12474.4
809.107	12315.54
809.436	12342.43
809.766	12325.48
810.096	12334.07
810.426	12195.31
810.755	12210.68
811.085	12194.86
811.414	12146.5
811.744	12024.7
812.073	12036.45
812.403	12116.22
812.732	11996
813.061	12053.4
813.39	11956
813.719	11890.92
814.049	11916.9
814.378	11873.06
814.707	11814.76
815.036	11779.96
815.365	11747.64
815.693	11622.45
816.022	11662.45
816.351	11599.17
816.68	11550.59
817.008	11651.37
817.337	11575.22
817.665	11521.66
817.994	11520.53
818.322	11472.62
818.651	11408.89
818.979	11372.51
819.307	11457.03
819.636	11372.29
819.964	11244.61
820.292	11347.65
820.62	11290.25
820.948	11273.53
821.276	11327.54
821.604	11260.42
821.932	11344.94
822.259	11291.38
822.587	11224.72
822.915	11268.56
823.243	11295.45
823.57	11225.17
823.898	11264.72
824.225	11220.65
824.553	11278.28
824.88	11275.11
825.207	11298.39
825.535	11260.2
825.862	11209.35
826.189	11268.11
826.516	11310.59
826.843	11283.7
827.17	11325.28
827.497	11295
827.824	11279.41
828.151	11363.25
828.478	11290.71
828.805	11276.02
829.131	11233.98
829.458	11241.67
829.785	11152.18
830.111	11214.1
830.438	11189.69
830.764	11262.01
831.09	11239.63
831.417	11144.27
831.743	11177.26
832.069	11215.45
832.395	11107.89
832.722	11127.32
833.048	11143.37
833.374	11143.59
833.7	11071.5
834.026	11088.68
834.351	11170.03
834.677	11108.56
835.003	11093.2
835.329	11042.8
835.654	11053.42
835.98	11019.07
836.306	11018.4
836.631	10986.53
836.956	11035.12
837.282	11010.26
837.607	10927.55
837.932	10941.11
838.258	10948.57
838.583	10959.42
838.908	10891.17
839.233	10839.19
839.558	10865.41
839.883	10783.15
840.208	10721.23
840.533	10797.84
840.858	10845.97
841.182	10730.04
841.507	10684.62
841.832	10592.19
842.156	10703.38
842.481	10684.62
842.805	10641.01
843.13	10584.06
843.454	10490.5
843.778	10509.94
844.103	10576.15
844.427	10524.85
844.751	10441.91
845.075	10466.55
845.399	10474.46
845.723	10344.29
846.047	10363.27
846.371	10240.11
846.695	10268.59
847.019	10207.12
847.343	10175.03
847.666	10149.94
847.99	10081.92
848.313	10075.37
848.637	10082.6
848.96	10038.31
849.284	9941.36
849.607	9982.49
849.931	9904.75
850.254	9800.8
850.577	9781.14
850.9	9705.44
851.223	9733.68
851.546	9653.46
851.869	9568.27
852.192	9658.66
852.515	9461.15
852.838	9487.59
853.161	9538.89
853.483	9440.36
853.806	9414.6
854.129	9379.8
854.451	9381.83
854.774	9335.96
855.096	9285.11
855.419	9246.92
855.741	9220.03
856.063	9236.97
856.385	9169.63
856.708	9205.79
857.03	9072.46
857.352	9128.28
857.674	9055.28
857.996	9046.02
858.318	8983.87
858.64	8952.24
858.961	8963.08
859.283	8900.94
859.605	8830.21
859.926	8911.56
860.248	8846.7
860.57	8831.34
860.891	8869.98
861.212	8857.1
861.534	8736.2
861.855	8723.32
862.176	8739.36
862.498	8758.8
862.819	8731.68
863.14	8670.21
863.461	8669.53
863.782	8633.15
864.103	8617.56
864.424	8681.96
864.745	8739.59
865.065	8596.09
865.386	8629.53
865.707	8621.17
866.027	8615.97
866.348	8618.69
866.668	8517.67
866.989	8575.98
867.309	8503.66
867.63	8553.15
867.95	8549.76
868.27	8424.57
868.59	8461.4
868.91	8464.57
869.23	8404
869.55	8376.21
869.87	8406.71
870.19	8378.92
870.51	8401.29
870.83	8339.15
871.15	8314.06
871.469	8302.76
871.789	8347.51
872.109	8289.2
872.428	8318.35
872.748	8302.08
873.067	8278.13
873.386	8302.08
873.706	8310.22
874.025	8248.98
874.344	8217.34
874.663	8223.22
874.982	8200.84
875.301	8169.66
875.62	8175.08
875.939	8179.83
876.258	8141.86
876.577	8113.39
876.896	8118.59
877.214	8132.37
877.533	8088.08
877.852	8087.17
878.17	8052.82
878.489	8077.01
878.807	8058.25
879.125	8030.45
879.444	7975.09
879.762	7960.17
880.08	7924.01
880.398	8025.03
880.716	8013.73
881.034	7956.56
881.352	7964.69
881.67	7919.5
881.988	7900.06
882.306	7869.78
882.624	7914.52
882.941	7825.94
883.259	7736.45
883.577	7835.88
883.894	7778.93
884.212	7817.12
884.529	7791.81
884.846	7792.49
885.164	7729.44
885.481	7724.25
885.798	7709.56
886.115	7638.37
886.432	7664.59
886.75	7658.03
887.067	7602.22
887.383	7605.38
887.7	7623.46
888.017	7531.93
888.334	7562.44
888.651	7557.47
888.967	7567.64
889.284	7538.26
889.6	7522.9
889.917	7390.47
890.233	7418.04
890.55	7334.43
890.866	7408.1
891.182	7350.92
891.498	7257.37
891.815	7362.45
892.131	7284.26
892.447	7311.6
892.763	7201.77
893.079	7258.27
893.395	7211.49
893.71	7158.61
894.026	7193.86
894.342	7198.84
894.657	7083.81
894.973	7054.89
895.289	7094.43
895.604	7099.4
895.92	7047.43
896.235	7014.66
896.55	7035.45
896.865	7005.85
897.181	6968.79
897.496	6982.8
897.811	6897.38
898.126	6876.36
898.441	6844.72
898.756	6858.51
899.071	6848.79
899.386	6770.82
899.7	6724.5
900.015	6770.15
900.33	6726.76
900.644	6666.65
900.959	6704.61
901.273	6688.57
901.588	6684.73
901.902	6553.66
902.216	6582.81
902.531	6584.39
902.845	6522.92
903.159	6503.04
903.473	6497.16
903.787	6525.41
904.101	6423.49
904.415	6367.9
904.729	6412.42
905.042	6428.91
905.356	6367.9
905.67	6362.25
905.984	6362.7
906.297	6352.08
906.611	6284.74
906.924	6225.75
907.237	6247.67
907.551	6228.47
907.864	6193.21
908.177	6135.59
908.491	6205.87
908.804	6139.43
909.117	6159.32
909.43	6101.92
909.743	6119.54
910.056	6042.48
910.368	6005.2
910.681	5976.04
910.994	5964.07
911.307	5962.26
911.619	5912.99
911.932	5865.54
912.244	5865.54
912.557	5843.39
912.869	5775.37
913.181	5792.32
913.494	5812.43
913.806	5768.37
914.118	5678.88
914.43	5764.98
914.742	5713.23
915.054	5664.87
915.366	5664.41
915.678	5638.2
915.99	5649.72
916.302	5576.73
916.613	5543.29
916.925	5547.58
917.236	5523.4
917.548	5468.49
917.859	5536.28
918.171	5466
918.482	5424.19
918.794	5431.65
919.105	5365.21
919.416	5356.17
919.727	5316.63
920.038	5351.2
920.349	5320.69
920.66	5251.99
920.971	5235.05
921.282	5202.05
921.593	5178.55
921.903	5135.16
922.214	5152.11
922.525	5142.39
922.835	5133.13
923.146	5046.58
923.456	5025.33
923.767	5036.63
924.077	5013.58
924.387	4994.83
924.697	4944.88
925.008	4940.36
925.318	4939.01
925.628	4938.33
925.938	4920.48
926.248	4845.68
926.558	4907.6
926.867	4843.19
927.177	4841.16
927.487	4771.33
927.796	4750.54
928.106	4773.82
928.416	4776.98
928.725	4741.95
929.034	4690.65
929.344	4715.29
929.653	4682.97
929.962	4620.15
930.271	4628.06
930.581	4613.82
930.89	4576.08
931.199	4554.16
931.508	4533.14
931.817	4535.86
932.125	4511.22
932.434	4541.05
932.743	4484.33
933.051	4405.01
933.36	4401.17
933.669	4375.86
933.977	4375.41
934.286	4375.63
934.594	4358.23
934.902	4339.25
935.21	4328.63
935.519	4294.05
935.827	4277.33
936.135	4265.35
936.443	4222.87
936.751	4203.21
937.059	4228.07
937.367	4200.5
937.674	4190.78
937.982	4202.98
938.29	4158.24
938.597	4149.88
938.905	4127.28
939.213	4087.28
939.52	4045.02
939.827	4040.5
940.135	4057.45
940.442	4005.25
940.749	3972.48
941.056	3955.76
941.363	3928.87
941.67	3963.67
941.977	3921.18
942.284	3890.45
942.591	3895.87
942.898	3866.95
943.205	3874.86
943.511	3852.03
943.818	3897.91
944.125	3811.58
944.431	3775.42
944.738	3772.71
945.044	3781.75
945.35	3745.14
945.657	3757.34
945.963	3734.52
946.269	3682.54
946.575	3697.01
946.881	3655.88
947.187	3645.94
947.493	3650.68
947.799	3607.07
948.105	3599.83
948.41	3563.9
948.716	3586.5
949.022	3565.03
949.327	3588.54
949.633	3544.69
949.938	3507.41
950.244	3528.42
950.549	3468.99
950.854	3453.85
951.16	3478.48
951.465	3468.31
951.77	3449.33
952.075	3412.27
952.38	3413.17
952.685	3364.13
952.99	3383.57
953.294	3329.33
953.599	3317.81
953.904	3288.43
954.209	3276.45
954.513	3288.43
954.818	3301.54
955.122	3277.13
955.426	3258.83
955.731	3237.36
956.035	3227.64
956.339	3260.18
956.643	3211.82
956.948	3174.99
957.252	3166.17
957.556	3151.26
957.86	3158.94
958.163	3140.41
958.467	3100.41
958.771	3123.24
959.075	3097.7
959.378	3059.06
959.682	3117.81
959.985	3070.81
960.289	3051.37
960.592	3041.43
960.896	3052.96
961.199	3012.28
961.502	3014.99
961.805	3009.79
962.108	2966.41
962.411	2976.57
962.714	2948.33
963.017	2977.93
963.32	2931.15
963.623	2884.15
963.926	2883.47
964.228	2892.51
964.531	2871.04
964.833	2896.58
965.136	2820.87
965.438	2817.93
965.741	2843.47
966.043	2818.61
966.345	2803.02
966.648	2756.69
966.95	2817.93
967.252	2765.05
967.554	2803.7
967.856	2735.9
968.158	2733.64
968.46	2738.16
968.761	2712.85
969.063	2700.42
969.365	2699.52
969.666	2647.32
969.968	2637.37
970.269	2642.12
970.571	2657.94
970.872	2690.71
971.174	2610.48
971.475	2621.78
971.776	2611.61
972.077	2604.38
972.378	2615.68
972.679	2573.87
972.98	2603.7
973.281	2564.83
973.582	2553.76
973.883	2523.25
974.183	2519.64
974.484	2547.43
974.785	2472.86
975.085	2493.88
975.386	2506.53
975.686	2495.91
975.986	2451.62
976.287	2445.06
976.587	2425.4
976.887	2428.34
977.187	2421.79
977.487	2398.51
977.787	2436.02
978.087	2398.96
978.387	2398.51
978.687	2398.28
978.987	2360.32
979.286	2365.74
979.586	2321.45
979.885	2325.07
980.185	2307.89
980.484	2307.21
980.784	2262.92
981.083	2306.31
981.382	2276.25
981.682	2234.9
981.981	2226.09
982.28	2258.85
982.579	2229.25
982.878	2216.37
983.177	2240.77
983.475	2225.63
983.774	2191.28
984.073	2176.37
984.372	2171.62
984.67	2165.07
984.969	2179.31
985.267	2120.78
985.566	2165.07
985.864	2148.35
986.162	2137.73
986.461	2083.04
986.759	2116.03
987.057	2112.64
987.355	2114.45
987.653	2109.93
987.951	2077.39
988.249	2055.02
988.547	2023.15
988.844	2046.66
989.142	2056.6
989.44	2062.02
989.737	2028.8
990.035	1991.74
990.332	2037.16
990.63	1991.06
990.927	2011.85
991.224	1966.43
991.521	1980.22
991.819	1977.96
992.116	1965.98
992.413	1924.62
992.71	1931.86
993.006	1945.41
993.303	1911.97
993.6	1914.23
993.897	1881.69
994.193	1890.73
994.49	1877.39
994.787	1863.61
995.083	1858.41
995.379	1843.5
995.676	1866.77
995.972	1833.1
996.268	1805.31
996.565	1836.04
996.861	1859.77
997.157	1802.14
997.453	1769.15
997.749	1745.19
998.044	1793.33
998.34	1764.4
998.636	1739.54
998.932	1764.4
999.227	1739.54
999.523	1734.8
999.818	1736.38
1000.114	1714.23
1000.409	1719.66
1000.704	1692.09
1001	1710.39
1001.295	1707.46
1001.59	1686.44
1001.885	1683.05
1002.18	1677.17
1002.475	1685.31
1002.77	1665.65
1003.065	1633.33
1003.359	1617.97
1003.654	1627.46
1003.949	1641.92
1004.243	1611.86
1004.538	1572.09
1004.832	1579.77
1005.127	1591.53
1005.421	1590.85
1005.715	1593.56
1006.009	1549.95
1006.304	1535.71
1006.598	1511.3
1006.892	1516.5
1007.186	1506.33
1007.48	1504.75
1007.773	1505.43
1008.067	1501.58
1008.361	1481.25
1008.655	1484.64
1008.948	1470.85
1009.242	1459.55
1009.535	1434.02
1009.829	1439.44
1010.122	1445.99
1010.415	1443.96
1010.708	1410.29
1011.001	1410.74
1011.295	1434.24
1011.588	1422.72
1011.881	1392.21
1012.173	1381.81
1012.466	1364.41
1012.759	1368.03
1013.052	1391.53
1013.344	1379.78
1013.637	1339.56
1013.93	1351.53
1014.222	1337.97
1014.514	1350.18
1014.807	1318.76
1015.099	1329.61
1015.391	1328.26
1015.683	1314.25
1015.976	1281.25
1016.268	1299.56
1016.56	1281.7
1016.851	1289.84
1017.143	1270.63
1017.435	1261.82
1017.727	1259.33
1018.018	1265.66
1018.31	1245.55
1018.602	1235.6
1018.893	1238.31
1019.185	1223.17
1019.476	1220.01
1019.767	1222.04
1020.058	1194.47
1020.35	1181.14
1020.641	1173.91
1020.932	1173.46
1021.223	1174.36
1021.514	1164.87
1021.804	1144.98
1022.095	1135.72
1022.386	1127.58
1022.677	1132.78
1022.967	1151.09
1023.258	1107.7
1023.548	1098.21
1023.839	1098.21
1024.129	1093.46
1024.419	1081.48
1024.709	1081.48
1025	1093.91
1025.29	1095.27
1025.58	1067.7
1025.87	1041.48
1026.16	1059.34
1026.449	1035.61
1026.739	1031.77
1027.029	1064.99
1027.319	1027.02
1027.608	1024.08
1027.898	1050.3
1028.187	1009.62
1028.477	987.25
1028.766	998.55
1029.055	1009.62
1029.344	995.61
1029.634	982.5
1029.923	984.54
1030.212	971.66
1030.501	975.95
1030.79	953.12
1031.078	935.95
1031.367	947.7
1031.656	928.94
1031.945	933.46
1032.233	956.74
1032.522	916.74
1032.81	922.39
1033.099	948.38
1033.387	909.51
1033.675	918.78
1033.963	903.41
1034.251	890.98
1034.54	876.52
1034.828	877.87
1035.116	879.23
1035.403	872.22
1035.691	874.71
1035.979	866.57
1036.267	861.6
1036.554	846.91
1036.842	851.66
1037.129	851.21
1037.417	860.92
1037.704	839
1037.992	817.76
1038.279	810.98
1038.566	841.49
1038.853	841.49
1039.14	841.49
