Data from foam2_polystyrene_foam_FLMS001491_00059.txt Node
Date: Wed Feb 08 10:58:10 GMT 2017
User: dcchb
Spectrometer: FLMS00149
Trigger mode: 0
Integration Time (sec): 2.000000E-2
Scans to average: 10
Electric dark correction enabled: true
Nonlinearity correction enabled: false
Boxcar width: 0
XAxis mode: Wavelengths
Number of Pixels in Spectrum: 2048
>>>>>Begin Spectral Data<<<<<
341.393	-18.74
341.776	-18.74
342.16	-18.74
342.543	-49.93
342.927	-62.13
343.31	-64.84
343.693	-63.71
344.077	-53.77
344.46	-45.86
344.843	-53.77
345.226	-32.53
345.61	-32.08
345.993	-11.29
346.376	-16.71
346.759	19
347.142	18.77
347.525	42.5
347.908	51.99
348.291	81.82
348.674	78.43
349.057	82.05
349.44	135.38
349.823	131.31
350.206	179.9
350.588	195.04
350.971	207.01
351.354	239.1
351.737	241.14
352.119	247.47
352.502	270.97
352.884	284.3
353.267	299.67
353.65	287.92
354.032	318.88
354.414	299.67
354.797	306.45
355.179	324.53
355.562	342.38
355.944	367.91
356.326	322.27
356.709	332.43
357.091	363.17
357.473	357.74
357.855	355.94
358.238	356.16
358.62	360
359.002	343.06
359.384	365.43
359.766	355.71
360.148	367.46
360.53	339.67
360.912	369.04
361.294	349.16
361.676	373.11
362.057	328.37
362.439	345.09
362.821	339.44
363.203	340.8
363.584	345.09
363.966	354.58
364.348	338.54
364.729	336.73
365.111	330.85
365.493	350.51
365.874	332.43
366.256	338.08
366.637	319.33
367.019	344.86
367.4	346.45
367.781	348.71
368.163	354.58
368.544	331.3
368.925	336.73
369.306	345.09
369.688	334.24
370.069	334.92
370.45	345.77
370.831	324.53
371.212	355.94
371.593	335.15
371.974	347.12
372.355	360.91
372.736	348.48
373.117	357.74
373.498	350.97
373.879	357.29
374.26	356.84
374.641	351.19
375.021	324.53
375.402	369.5
375.783	381.25
376.163	389.16
376.544	372.66
376.925	368.59
377.305	361.36
377.686	341.7
378.066	368.14
378.447	376.5
378.827	388.93
379.208	389.38
379.588	377.18
379.968	380.8
380.349	400.46
380.729	388.7
381.109	400.23
381.489	384.41
381.87	398.65
382.25	402.49
382.63	391.87
383.01	401.59
383.39	410.62
383.77	397.74
384.15	408.36
384.53	415.37
384.91	428.03
385.29	407.69
385.67	416.95
386.049	445.88
386.429	438.42
386.809	430.06
387.189	433.68
387.568	437.97
387.948	449.04
388.328	418.99
388.707	440.45
389.087	468.93
389.466	458.76
389.846	442.26
390.225	468.7
390.605	446.1
390.984	472.54
391.363	460.79
391.743	485.88
392.122	468.25
392.501	473.67
392.881	493.79
393.26	501.24
393.639	480.68
394.018	508.7
394.397	519.1
394.776	507.57
395.155	525.65
395.534	519.32
395.913	523.84
396.292	511.64
396.671	521.81
397.05	522.26
397.429	530.62
397.808	533.33
398.186	521.58
398.565	542.15
398.944	545.99
399.323	568.59
399.701	560.23
400.08	529.72
400.458	565.2
400.837	555.25
401.215	585.54
401.594	589.38
401.972	565.65
402.351	611.98
402.729	581.02
403.107	574.24
403.486	589.6
403.864	596.38
404.242	589.83
404.62	586.67
404.999	604.52
405.377	596.83
405.755	625.08
406.133	629.83
406.511	653.78
406.889	639.32
407.267	663.5
407.645	654.01
408.023	638.19
408.401	687
408.779	691.3
409.156	710.5
409.534	685.87
409.912	683.61
410.29	716.83
410.667	728.36
411.045	713.44
411.422	709.6
411.8	734.23
412.178	735.36
412.555	748.24
412.933	745.98
413.31	770.62
413.687	793.89
414.065	776.49
414.442	798.19
414.819	785.08
415.197	811.52
415.574	811.07
415.951	823.27
416.328	832.76
416.705	817.17
417.082	835.92
417.46	826.66
417.837	863.95
418.214	842.48
418.591	873.21
418.967	867.34
419.344	864.17
419.721	893.1
420.098	886.77
420.475	914.11
420.852	887.45
421.228	930.61
421.605	933.32
421.982	940.55
422.358	930.84
422.735	950.95
423.111	944.4
423.488	981.01
423.864	965.19
424.241	981.46
424.617	992.98
424.994	991.85
425.37	990.27
425.746	1012.19
426.123	1009.03
426.499	1029.37
426.875	1025.98
427.251	1062.81
427.627	1083.38
428.003	1105.07
428.379	1120.89
428.756	1087.67
429.132	1129.25
429.507	1146.2
429.883	1151.85
430.259	1168.12
430.635	1189.81
431.011	1166.54
431.387	1198.85
431.763	1217.61
432.138	1215.12
432.514	1252.86
432.89	1246.76
433.265	1283.14
433.641	1319.08
434.016	1304.16
434.392	1300.32
434.767	1335.8
435.143	1367.44
435.518	1359.07
435.894	1397.27
436.269	1392.07
436.644	1421.67
437.02	1434.33
437.395	1429.36
437.77	1446.76
438.145	1452.63
438.52	1495.12
438.895	1495.34
439.271	1527.88
439.646	1552.06
440.021	1566.3
440.395	1553.19
440.77	1543.7
441.145	1560.88
441.52	1599.29
441.895	1620.54
442.27	1632.51
442.645	1628.9
443.019	1645.62
443.394	1661.44
443.769	1648.33
444.143	1696.24
444.518	1710.93
444.892	1685.62
445.267	1700.31
445.641	1704.15
446.016	1763.36
446.39	1731.27
446.764	1752.06
447.139	1784.15
447.513	1833.41
447.887	1826.41
448.262	1824.6
448.636	1798.38
449.01	1834.32
449.384	1895.56
449.758	1869.8
450.132	1908.21
450.506	1923.35
450.88	1931.49
451.254	1950.47
451.628	1986.85
452.002	1970.13
452.376	1977.82
452.75	2022.33
453.123	2019.62
453.497	2085.83
453.871	2047.87
454.244	2089.9
454.618	2141.65
454.992	2166.74
455.365	2160.86
455.739	2241.76
456.112	2222.1
456.486	2251.03
456.859	2251.03
457.232	2280.86
457.606	2313.63
457.979	2292.38
458.352	2366.28
458.725	2343.23
459.099	2370.35
459.472	2455.77
459.845	2457.12
460.218	2473.85
460.591	2468.42
460.964	2515.43
461.337	2572.83
461.71	2605.14
462.083	2640.17
462.456	2621.19
462.829	2649.66
463.201	2690.56
463.574	2695.08
463.947	2721.52
464.32	2780.28
464.692	2820.96
465.065	2820.96
465.438	2843.33
465.81	2853.5
466.183	2949.32
466.555	2986.6
466.928	2962.42
467.3	3045.13
467.672	3044
468.045	3162.42
468.417	3171.46
468.789	3204.45
469.161	3172.36
469.534	3255.52
469.906	3322.19
470.278	3328.74
470.65	3352.24
471.022	3432.01
471.394	3496.65
471.766	3501.17
472.138	3585
472.51	3600.15
472.882	3643.08
473.253	3707.94
473.625	3789.52
473.997	3792.91
474.369	3845.34
474.74	3881.49
475.112	3986.8
475.484	4010.76
475.855	4051.88
476.227	4127.14
476.598	4203.07
476.97	4223.63
477.341	4359.22
477.713	4386.34
478.084	4445.77
478.455	4564.41
478.827	4610.06
479.198	4718.53
479.569	4716.5
479.94	4874.69
480.311	4893.67
480.682	5015.48
481.053	5060.22
481.424	5198.97
481.795	5239.65
482.166	5290.95
482.537	5441.68
482.908	5475.8
483.279	5532.07
483.65	5645.52
484.021	5751.28
484.391	5797.6
484.762	5848.22
485.133	5906.3
485.503	5998.73
485.874	6101.32
486.244	6173.19
486.615	6356.91
486.985	6361.43
487.356	6496.34
487.726	6518.94
488.097	6647.75
488.467	6743.57
488.837	6766.16
489.207	6944.69
489.578	7023.78
489.948	7078.7
490.318	7190.11
490.688	7167.74
491.058	7268.3
491.428	7423.77
491.798	7480.04
492.168	7671.9
492.538	7688.63
492.908	7816.08
493.278	7864.21
493.648	7890.43
494.017	8000.71
494.387	8071.44
494.757	8180.82
495.126	8196.18
495.496	8228.05
495.866	8327.25
496.235	8408.61
496.605	8454.03
496.974	8498.32
497.344	8644.31
497.713	8667.36
498.082	8706.9
498.452	8848.14
498.821	8898.54
499.19	8985.77
499.559	8992.32
499.928	9043.39
500.298	9064.18
500.667	9152.32
501.036	9237.96
501.405	9253.33
501.774	9370.39
502.143	9468.92
502.512	9408.35
502.88	9581.01
503.249	9606.77
503.618	9715.69
503.987	9753.43
504.356	9880.88
504.724	9902.58
505.093	9871.17
505.462	10000.43
505.83	10122.69
506.199	10108.9
506.567	10241.55
506.936	10249.91
507.304	10381.66
507.672	10493.75
508.041	10505.27
508.409	10536.46
508.777	10656.01
509.145	10751.14
509.514	10730.81
509.882	10803.12
510.25	10867.98
510.618	10908.2
510.986	11031.59
511.354	11030.23
511.722	11173.05
512.09	11350
512.458	11341.41
512.826	11466.15
513.193	11523.55
513.561	11554.74
513.929	11673.38
514.297	11733.94
514.664	11858.46
515.032	11908.18
515.4	12032.01
515.767	12083.31
516.135	12108.17
516.502	12151.33
516.869	12390.2
517.237	12417.31
517.604	12399.69
517.972	12518.78
518.339	12631.32
518.706	12633.13
519.073	12741.15
519.44	12850.75
519.808	13039.67
520.175	12910.64
520.542	13153.79
520.909	13223.4
521.276	13347.01
521.643	13460.45
522.009	13567.79
522.376	13658.64
522.743	13702.25
523.11	13876.94
523.477	13992.19
523.843	14079.87
524.21	14226.76
524.577	14326.87
524.943	14439.86
525.31	14544.26
525.676	14651.61
526.043	14675.11
526.409	14850.47
526.776	15010.01
527.142	14995.78
527.508	15066.96
527.874	15197.58
528.241	15333.85
528.607	15459.27
528.973	15512.6
529.339	15482.32
529.705	15716.89
530.071	15835.53
530.437	15843.89
530.803	15922.76
531.169	16097.22
531.535	16119.82
531.901	16096.54
532.267	16270.32
532.632	16277.78
532.998	16409.3
533.364	16509.64
533.73	16611.33
534.095	16661.04
534.461	16822.4
534.826	16893.58
535.192	16975.61
535.557	17120.92
535.923	17157.53
536.288	17140.81
536.653	17287.24
537.019	17331.08
537.384	17240.92
537.749	17453.11
538.114	17480.46
538.479	17561.59
538.845	17615.14
539.21	17642.04
539.575	17689.27
539.94	17797.74
540.305	17929.49
540.67	17839.32
541.034	18080.89
541.399	17991.18
541.764	18169.48
542.129	18217.39
542.494	18296.03
542.858	18336.93
543.223	18388.68
543.587	18546.65
543.952	18501.67
544.316	18491.51
544.681	18475.46
545.045	18660.77
545.41	18750.93
545.774	18712.29
546.138	18745.51
546.503	18854.89
546.867	18953.87
547.231	19021.21
547.595	19185.72
547.959	19223.92
548.324	19265.5
548.688	19292.61
549.052	19396.79
549.416	19425.72
549.779	19433.4
550.143	19540.74
550.507	19708.65
550.871	19773.28
551.235	19802.88
551.599	20046.72
551.962	19924.24
552.326	20065.7
552.689	20144.8
553.053	20088.53
553.417	20137.79
553.78	20481.74
554.143	20282.64
554.507	20505.24
554.87	20537.1
555.234	20734.38
555.597	20616.87
555.96	20801.95
556.323	20959.24
556.686	20952.46
557.05	21049.63
557.413	21125.11
557.776	21154.49
558.139	21233.13
558.502	21394.71
558.865	21458.43
559.228	21602.16
559.59	21642.83
559.953	21677.64
560.316	21948.14
560.679	21980
561.041	22104.52
561.404	22205.76
561.767	22287.56
562.129	22180.45
562.492	22430.61
562.854	22451.63
563.217	22538.4
563.579	22563.49
563.941	22804.39
564.304	22829.92
564.666	22914.44
565.028	23086.86
565.39	23067.88
565.753	23393.3
566.115	23297.03
566.477	23426.52
566.839	23506.06
567.201	23722.1
567.563	23795.09
567.925	23833.51
568.287	23947.63
568.648	23969.55
569.01	24156.44
569.372	24296.78
569.734	24121.64
570.095	24433.27
570.457	24517.56
570.819	24639.37
571.18	24512.82
571.542	24694.96
571.903	24673.49
572.265	24738.35
572.626	24899.02
572.987	24874.39
573.349	25021.05
573.71	24974.05
574.071	25018.57
574.432	25171.56
574.794	25360.48
575.155	25318.44
575.516	25272.34
575.877	25442.73
576.238	25480.02
576.599	25687.02
576.96	25517.76
577.32	25537.65
577.681	25696.74
578.042	25783.52
578.403	25763.18
578.763	25807.92
579.124	25887.24
579.485	25896.51
579.845	25942.16
580.206	25960.01
580.566	25995.04
580.927	25928.6
581.287	26160
581.648	25946.9
582.008	26197.29
582.368	26148.03
582.728	26101.47
583.089	26252.21
583.449	26226.67
583.809	26144.86
584.169	26226.44
584.529	26155.03
584.889	26329.72
585.249	26119.33
585.609	26176.73
585.969	26171.53
586.329	26159.33
586.688	26214.01
587.048	26206.1
587.408	26158.87
587.768	26206.78
588.127	26142.15
588.487	26090.63
588.846	26334.24
589.206	26098.08
589.565	26222.38
589.925	26383.28
590.284	26187.57
590.643	26239.78
591.003	26232.77
591.362	26309.38
591.721	26202.71
592.08	26322.94
592.44	26355.71
592.799	26297.18
593.158	26382.15
593.517	26207.69
593.876	26365.42
594.235	26303.73
594.593	26418.53
594.952	26439.32
595.311	26436.83
595.67	26314.35
596.029	26504.85
596.387	26574.68
596.746	26591.86
597.104	26439.77
597.463	26500.33
597.822	26559.09
598.18	26522.25
598.538	26501.69
598.897	26588.24
599.255	26322.71
599.613	26760.89
599.972	26552.31
600.33	26712.31
600.688	26616.72
601.046	26720.22
601.404	26906.65
601.762	26801.12
602.12	26976.71
602.478	26845.18
602.836	26992.98
603.194	26779.65
603.552	26886.76
603.91	26801.57
604.268	27004.95
604.625	26871.62
604.983	27043.37
605.341	26779.2
605.698	27062.13
606.056	27081.11
606.413	26980.1
606.771	27215.8
607.128	27066.65
607.485	27025.52
607.843	27196.81
608.2	27259.86
608.557	27326.75
608.914	27127.66
609.272	27272.52
609.629	27300.54
609.986	27461.21
610.343	27223.71
610.7	27489.69
611.057	27507.09
611.414	27421.21
611.771	27477.48
612.127	27564.26
612.484	27587.76
612.841	27612.4
613.198	27533.53
613.554	27507.77
613.911	27671.83
614.267	27703.01
614.624	27621.43
614.98	27733.52
615.337	27886.06
615.693	27834.76
616.05	27733.3
616.406	27805.61
616.762	27812.16
617.118	27916.12
617.475	27842.45
617.831	27997.92
618.187	27928.32
618.543	27900.52
618.899	28138.71
619.255	28003.35
619.611	28015.55
619.967	28105.26
620.323	28175.77
620.678	28080.86
621.034	27988.43
621.39	27970.8
621.746	27984.14
622.101	28169.67
622.457	28052.38
622.812	28108.88
623.168	28153.85
623.523	28181.42
623.879	28171.25
624.234	27946.85
624.589	28075.21
624.945	28086.28
625.3	28114.3
625.655	28156.11
626.01	28043.57
626.365	28062.33
626.72	28153.17
627.075	28088.32
627.43	28117.92
627.785	28027.3
628.14	28029.33
628.495	28121.53
628.85	27947.08
629.205	27939.39
629.559	28107.3
629.914	27900.75
630.269	28014.42
630.623	27924.7
630.978	27854.2
631.332	28022.1
631.687	28017.36
632.041	27837.93
632.396	27811.71
632.75	27769.68
633.104	27777.14
633.459	27621.89
633.813	27658.72
634.167	27594.32
634.521	27594.09
634.875	27730.81
635.229	27500.31
635.583	27458.05
635.937	27419.63
636.291	27416.69
636.645	27368.11
636.999	27424.38
637.352	27415.11
637.706	27172.41
638.06	27427.09
638.413	27244.04
638.767	27272.07
639.121	27253.08
639.474	26997.27
639.828	27180.77
640.181	27142.58
640.534	27076.82
640.888	26987.55
641.241	26818.74
641.594	26931.06
641.947	26895.35
642.301	26862.36
642.654	26840.66
643.007	26820.1
643.36	26717.05
643.713	26674.34
644.066	26721.57
644.419	26642.48
644.771	26427.12
645.124	26141.02
645.477	25997.97
645.83	25909.84
646.182	25813.35
646.535	25783.97
646.888	25864.19
647.24	25710.52
647.593	25758.43
647.945	25712.11
648.298	25557.76
648.65	25449.97
649.002	25415.17
649.355	25544.88
649.707	25549.62
650.059	25629.4
650.411	26052.66
650.763	25992.33
651.115	26215.6
651.467	26077.07
651.819	26106.45
652.171	26020.57
652.523	25966.34
652.875	25951.2
653.227	25864.64
653.578	26026.22
653.93	25960.01
654.282	25989.16
654.633	25856.96
654.985	25877.07
655.337	25835.49
655.688	25849.05
656.039	25918.88
656.391	25823.29
656.742	25747.13
657.094	25821.48
657.445	25844.98
657.796	25731.77
658.147	25610.41
658.498	25695.84
658.849	25787.81
659.2	25741.71
659.551	25501.94
659.902	25694.93
660.253	25563.18
660.604	25608.15
660.955	25491.32
661.306	25595.05
661.656	25473.92
662.007	25563.86
662.358	25414.26
662.708	25490.19
663.059	25472.79
663.409	25185.57
663.76	25535.84
664.11	25450.19
664.461	25524.99
664.811	25436.86
665.161	25452
665.511	25389.18
665.862	25361.16
666.212	25511.66
666.562	25455.16
666.912	25315.73
667.262	25370.65
667.612	25418.33
667.962	25329.97
668.312	25319.12
668.662	25454.03
669.011	25352.34
669.361	25259.46
669.711	25231.67
670.06	25315.96
670.41	25152.8
670.76	25221.27
671.109	25221.95
671.459	25220.59
671.808	25073.71
672.157	25210.2
672.507	25052.46
672.856	25025.8
673.205	25007.49
673.554	25110.99
673.904	25069.64
674.253	25056.53
674.602	24968.17
674.951	24651.12
675.3	24509.43
675.649	24920.71
675.998	24868.06
676.346	24918.68
676.695	25012.01
677.044	24804.79
677.393	24899.25
677.741	24965.91
678.09	24885.69
678.438	24758.23
678.787	24799.36
679.135	24967.95
679.484	24697.9
679.832	24854.5
680.181	24735.63
680.529	24766.37
680.877	24643.21
681.225	24595.75
681.573	24687.27
681.922	24554.17
682.27	24458.58
682.618	24464.46
682.966	24387.4
683.314	24412.48
683.661	24411.58
684.009	24293.84
684.357	24185.14
684.705	24192.37
685.053	24268.3
685.4	24211.35
685.748	24002.09
686.095	24023.34
686.443	23972.94
686.79	23865.15
687.138	23930.01
687.485	23966.84
687.832	23839.84
688.18	23849.1
688.527	23676.45
688.874	23680.52
689.221	23614.76
689.568	23543.8
689.915	23624.93
690.262	23479.62
690.609	23463.35
690.956	23369.8
691.303	23385.16
691.65	23201.66
691.997	23263.58
692.344	23106.3
692.69	23180.65
693.037	23104.94
693.383	22906.98
693.73	22992.86
694.077	22900.88
694.423	22812.97
694.769	22863.37
695.116	22702.92
695.462	22634.45
695.808	22649.36
696.155	22567.78
696.501	22463.38
696.847	22468.8
697.193	22302.48
697.539	22351.06
697.885	22196.94
698.231	22067.68
698.577	22170.96
698.923	22050.51
699.269	22038.3
699.614	21879.21
699.96	21854.81
700.306	21769.61
700.651	21799.21
700.997	21644.19
701.342	21629.95
701.688	21673.79
702.033	21441.71
702.379	21529.62
702.724	21424.99
703.069	21490.97
703.415	21295.5
703.76	21254.6
704.105	21310.87
704.45	21176.63
704.795	21119.46
705.14	20961.5
705.485	20938.45
705.83	20803.31
706.175	20909.97
706.52	20865.45
706.865	20853.25
707.209	20690.32
707.554	20630.43
707.899	20713.82
708.243	20451.91
708.588	20437.89
708.932	20412.58
709.277	20372.13
709.621	20343.43
709.966	20155.87
710.31	20250.1
710.654	20042.42
710.998	20205.58
711.342	20094.4
711.687	20050.33
712.031	19947.96
712.375	19850.34
712.719	19908.64
713.063	19791.13
713.407	19847.85
713.75	19879.72
714.094	19748.42
714.438	19712.26
714.782	19626.16
715.125	19647.86
715.469	19650.8
715.812	19596.56
716.156	19453.97
716.499	19416.68
716.843	19445.15
717.186	19293.52
717.53	19434.98
717.873	19411.48
718.216	19354.99
718.559	19313.86
718.902	19148.66
719.246	19188.44
719.589	19213.07
719.932	19182.79
720.275	19058.27
720.617	19103.69
720.96	18994.54
721.303	19057.59
721.646	18980.98
721.989	18842.91
722.331	18842
722.674	18807.43
723.016	18854.21
723.359	18721.56
723.701	18719.52
724.044	18627.77
724.386	18571.73
724.729	18664.83
725.071	18646.53
725.413	18639.75
725.755	18555.46
726.097	18437.5
726.439	18360.89
726.782	18401.56
727.124	18423.94
727.465	18338.74
727.807	18263.94
728.149	18312.3
728.491	18248.35
728.833	18264.62
729.175	18213.09
729.516	18131.29
729.858	18080.89
730.199	18034.79
730.541	18070.05
730.882	18011.07
731.224	18054.91
731.565	17929.94
731.906	17950.95
732.248	17873.89
732.589	17855.59
732.93	17748.02
733.271	17794.8
733.612	17824.4
733.953	17847.68
734.294	17736.27
734.635	17662.83
734.976	17642.49
735.317	17575.37
735.658	17572.89
735.999	17691.3
736.339	17433
736.68	17619.21
737.021	17576.5
737.361	17427.13
737.702	17464.19
738.042	17510.29
738.383	17291.08
738.723	17477.75
739.063	17323.4
739.404	17364.08
739.744	17423.96
740.084	17241.37
740.424	17334.25
740.764	17213.57
741.104	17317.52
741.444	17155.5
741.784	17070.07
742.124	17201.14
742.464	17119.11
742.804	17044.54
743.143	16977.65
743.483	16956.86
743.823	16929.74
744.162	16908.27
744.502	16939.23
744.841	16797.31
745.181	16886.8
745.52	16868.05
745.86	16789.63
746.199	16786.92
746.538	16746.47
746.877	16738.78
747.216	16709.63
747.556	16604.55
747.895	16559.13
748.234	16514.16
748.573	16450.88
748.911	16470.77
749.25	16572.46
749.589	16440.49
749.928	16457.21
750.267	16479.81
750.605	16338.34
750.944	16409.07
751.283	16230.1
751.621	16264.67
751.96	16241.85
752.298	16170.89
752.636	16133.6
752.975	16163.43
753.313	16136.54
753.651	16181.28
753.989	15985.13
754.327	15945.13
754.666	15878.92
755.004	15894.74
755.342	15819.03
755.679	15868.3
756.017	15773.16
756.355	15875.98
756.693	15722.99
757.031	15756.44
757.368	15619.94
757.706	15633.05
758.044	15547.63
758.381	15594.86
758.719	15537.46
759.056	15555.31
759.394	15484.8
759.731	15327.97
760.068	15358.71
760.405	15264.02
760.743	15256.11
761.08	15179.5
761.417	15110.35
761.754	15177.69
762.091	15069
762.428	15122.78
762.765	15006.17
763.102	15046.17
763.438	14958.72
763.775	14865.61
764.112	14793.52
764.449	14862.45
764.785	14731.15
765.122	14678.95
765.458	14536.58
765.795	14581.55
766.131	14565.73
766.467	14528.45
766.804	14448.22
767.14	14360.99
767.476	14272.63
767.812	14327.1
768.148	14294.33
768.485	14177.49
768.821	14173.65
769.157	14096.14
769.492	14015.24
769.828	13989.02
770.164	13889.14
770.5	13814.11
770.836	13802.14
771.171	13785.41
771.507	13758.75
771.842	13617.74
772.178	13673.55
772.513	13541.58
772.849	13563.95
773.184	13536.38
773.519	13476.04
773.855	13527.34
774.19	13380
774.525	13316.73
774.86	13326.67
775.195	13273.34
775.53	13268.59
775.865	13153.34
776.2	13065.66
776.535	12912.89
776.87	12976.85
777.205	12943.18
777.539	12842.61
777.874	12914.48
778.209	12743.41
778.543	12678.78
778.878	12723.52
779.212	12710.19
779.547	12590.19
779.881	12636.29
780.215	12529.4
780.55	12602.85
780.884	12433.13
781.218	12410.08
781.552	12403.76
781.886	12332.57
782.22	12200.37
782.554	12243.31
782.888	12120.6
783.222	12054.61
783.556	12017.1
783.889	12012.35
784.223	11851.68
784.557	11908.4
784.89	11936.2
785.224	11876.31
785.557	11760.61
785.891	11696.2
786.224	11737.78
786.558	11676.77
786.891	11613.72
787.224	11591.12
787.557	11504.8
787.891	11533.27
788.224	11507.28
788.557	11427.96
788.89	11415.08
789.223	11404.69
789.556	11338.02
789.888	11290.11
790.221	11347.51
790.554	11218.02
790.887	11218.02
791.219	11101.42
791.552	11124.24
791.884	10993.85
792.217	11048.09
792.549	10975.32
792.882	10880.18
793.214	10856.23
793.546	10899.39
793.879	10835.66
794.211	10771.48
794.543	10757.02
794.875	10757.92
795.207	10772.61
795.539	10709.11
795.871	10671.82
796.203	10606.06
796.535	10542.11
796.867	10603.58
797.198	10490.81
797.53	10491.72
797.862	10398.61
798.193	10465.95
798.525	10417.14
798.856	10380.53
799.188	10289.91
799.519	10303.02
799.85	10156.36
800.182	10276.58
800.513	10202.01
800.844	10149.35
801.175	10155
801.506	10200.2
801.837	10064.83
802.168	10039.52
802.499	9991.84
802.83	9976.7
803.161	9915.91
803.491	9933.99
803.822	9950.71
804.153	9874.56
804.483	9777.38
804.814	9757.72
805.145	9749.59
805.475	9702.81
805.805	9738.52
806.136	9734.45
806.466	9627.11
806.796	9665.07
807.126	9569.93
807.457	9488.35
807.787	9545.75
808.117	9492.42
808.447	9418.98
808.777	9489.48
809.107	9426.21
809.436	9423.72
809.766	9382.82
810.096	9335.36
810.426	9358.19
810.755	9338.98
811.085	9372.65
811.414	9237.06
811.744	9262.37
812.073	9238.64
812.403	9223.05
812.732	9145.08
813.061	9239.32
813.39	9064.41
813.719	9100.57
814.049	9110.51
814.378	9065.99
814.707	9025.77
815.036	9030.74
815.365	8953.68
815.693	8944.19
816.022	8906.67
816.351	8875.04
816.68	8917.97
817.008	8890.18
817.337	8761.37
817.665	8736.96
817.994	8770.4
818.322	8765.66
818.651	8741.48
818.979	8696.51
819.307	8699.22
819.636	8686.79
819.964	8653.12
820.292	8659.45
820.62	8618.09
820.948	8589.84
821.276	8680.92
821.604	8568.15
821.932	8649.5
822.259	8602.5
822.587	8597.53
822.915	8524.31
823.243	8587.58
823.57	8614.48
823.898	8545.78
824.225	8574.03
824.553	8537.87
824.88	8565.44
825.207	8596.85
825.535	8585.33
825.862	8630.75
826.189	8518.89
826.516	8617.19
826.843	8638.88
827.17	8630.75
827.497	8585.1
827.824	8623.06
828.151	8631.2
828.478	8653.12
828.805	8598.88
829.131	8583.29
829.458	8546.91
829.785	8541.26
830.111	8543.97
830.438	8557.08
830.764	8595.27
831.09	8591.2
831.417	8536.74
831.743	8613.8
832.069	8519.34
832.395	8563.18
832.722	8501.94
833.048	8521.6
833.374	8484.99
833.7	8484.08
834.026	8525.44
834.351	8501.26
834.677	8459.9
835.003	8528.15
835.329	8416.97
835.654	8469.62
835.98	8410.87
836.306	8468.94
836.631	8360.92
836.956	8445.22
837.282	8361.83
837.607	8382.84
837.932	8357.08
838.258	8395.05
838.583	8273.24
838.908	8330.19
839.233	8281.83
839.558	8272.56
839.883	8261.72
840.208	8211.32
840.533	8195.05
840.858	8195.73
841.182	8204.32
841.507	8240.25
841.832	8168.61
842.156	8143.08
842.481	8152.34
842.805	8105.79
843.13	8093.13
843.454	7999.8
843.778	8037.54
844.103	8075.73
844.427	8018.33
844.751	8010.42
845.075	7934.27
845.399	7970.2
845.723	7992.35
846.047	7885.68
846.371	7858.11
846.695	7917.32
847.019	7823.31
847.343	7793.71
847.666	7742.41
847.99	7765.69
848.313	7694.95
848.637	7589.87
848.96	7671.68
849.284	7647.04
849.607	7541.28
849.931	7502.64
850.254	7532.7
850.577	7501.96
850.9	7449.76
851.223	7459.48
851.546	7424
851.869	7315.98
852.192	7428.07
852.515	7248.86
852.838	7314.17
853.161	7287.73
853.483	7266.26
853.806	7207.06
854.129	7240.95
854.451	7182.88
854.774	7142.43
855.096	7052.26
855.419	7125.93
855.741	7085.7
856.063	7030.79
856.385	7014.52
856.708	6988.08
857.03	7004.12
857.352	7000.51
857.674	6966.16
857.996	6917.8
858.318	6859.95
858.64	6891.36
858.961	6901.08
859.283	6836.67
859.605	6838.48
859.926	6826.95
860.248	6798.71
860.57	6771.59
860.891	6770.91
861.212	6764.81
861.534	6696.11
861.855	6757.35
862.176	6771.59
862.498	6691.36
862.819	6686.62
863.14	6700.18
863.461	6681.65
863.782	6658.37
864.103	6705.83
864.424	6635.32
864.745	6697.01
865.065	6610.91
865.386	6580.18
865.707	6629.67
866.027	6517.36
866.348	6569.11
866.668	6595.55
866.989	6561.65
867.309	6491.59
867.63	6509.22
867.95	6466.74
868.27	6476.23
868.59	6501.99
868.91	6473.06
869.23	6459.96
869.55	6406.4
869.87	6396
870.19	6395.78
870.51	6462.9
870.83	6393.74
871.15	6375.67
871.469	6410.47
871.789	6320.98
872.109	6362.78
872.428	6304.48
872.748	6355.55
873.067	6299.06
873.386	6329.57
873.706	6266.29
874.025	6264.26
874.344	6237.36
874.663	6266.06
874.982	6246.63
875.301	6242.56
875.62	6271.04
875.939	6230.36
876.258	6197.37
876.577	6213.86
876.896	6229.68
877.214	6180.64
877.533	6161.66
877.852	6210.02
878.17	6201.66
878.489	6151.72
878.807	6144.49
879.125	6194.43
879.444	6131.6
879.762	6092.74
880.08	6161.66
880.398	6099.06
880.716	6076.46
881.034	6111.94
881.352	6066.75
881.67	6059.29
881.988	6038.73
882.306	5972.96
882.624	6040.53
882.941	6003.92
883.259	5965.51
883.577	5969.35
883.894	5994.66
884.212	5967.77
884.529	5937.71
884.846	5896.13
885.164	5911.5
885.481	5875.57
885.798	5899.97
886.115	5818.62
886.432	5876.7
886.75	5816.13
887.067	5814.32
887.383	5800.99
887.7	5828.56
888.017	5763.48
888.334	5788.11
888.651	5733.65
888.967	5703.82
889.284	5713.99
889.6	5682.35
889.917	5642.35
890.233	5681.9
890.55	5683.25
890.866	5686.42
891.182	5617.04
891.498	5639.19
891.815	5645.52
892.131	5606.42
892.447	5584.27
892.763	5574.78
893.079	5525.97
893.395	5514.22
893.71	5486.2
894.026	5509.25
894.342	5488.01
894.657	5468.57
894.973	5428.8
895.289	5430.15
895.604	5434.9
895.92	5317.39
896.235	5345.86
896.55	5342.92
896.865	5369.82
897.181	5293.43
897.496	5309.71
897.811	5297.73
898.126	5285.07
898.441	5237.16
898.756	5263.83
899.071	5237.16
899.386	5183.38
899.7	5147.22
900.015	5125.3
900.33	5151.07
900.644	5074.68
900.959	5142.93
901.273	5095.47
901.588	5068.36
901.902	5041.69
902.216	5019.09
902.531	5015.25
902.845	5005.31
903.159	4980
903.473	4931.18
903.787	4921.01
904.101	4939.09
904.415	4943.39
904.729	4965.53
905.042	4848.47
905.356	4860.68
905.67	4818.87
905.984	4832.43
906.297	4803.96
906.611	4803.05
906.924	4793.79
907.237	4763.5
907.551	4746.78
907.864	4692.77
908.177	4699.1
908.491	4707.23
908.804	4688.7
909.117	4681.92
909.43	4608.48
909.743	4613.9
910.056	4580.91
910.368	4556.28
910.681	4590.85
910.994	4556.96
911.307	4515.6
911.619	4468.37
911.932	4547.92
912.244	4473.12
912.557	4432.67
912.869	4465.66
913.181	4455.26
913.494	4419.78
913.806	4415.04
914.118	4404.64
914.43	4406.45
914.742	4354.48
915.054	4381.14
915.366	4329.62
915.678	4257.08
915.99	4312.22
916.302	4287.13
916.613	4223.41
916.925	4244.65
917.236	4216.63
917.548	4215.95
917.859	4190.64
918.171	4146.35
918.482	4141.83
918.794	4107.02
919.105	4110.64
919.416	4055.95
919.727	4064.09
920.038	4045.33
920.349	4001.94
920.66	4008.5
920.971	4023.86
921.282	4022.28
921.593	3985.45
921.903	3958.78
922.214	3945.22
922.525	3945.45
922.835	3897.09
923.146	3892.79
923.456	3867.26
923.767	3870.87
924.077	3835.85
924.387	3767.82
924.697	3790.87
925.008	3777.77
925.318	3792.91
925.628	3787.49
925.938	3736.41
926.248	3704.32
926.558	3723.76
926.867	3721.27
927.177	3682.4
927.487	3683.08
927.796	3599.24
928.106	3627.49
928.416	3663.19
928.725	3613.48
929.034	3573.48
929.344	3573.03
929.653	3586.59
929.962	3545.68
930.271	3547.49
930.581	3524.89
930.89	3543.88
931.199	3524.89
931.508	3483.76
931.817	3445.57
932.125	3485.35
932.434	3473.14
932.743	3443.77
933.051	3378
933.36	3376.2
933.669	3384.56
933.977	3382.3
934.286	3375.29
934.594	3381.62
934.902	3342.53
935.21	3329.19
935.519	3361.51
935.827	3352.47
936.135	3276.99
936.443	3248.06
936.751	3303.2
937.059	3253.49
937.367	3250.32
937.674	3222.53
937.982	3208.97
938.29	3170.55
938.597	3146.37
938.905	3150.89
939.213	3166.26
939.52	3159.71
939.827	3127.39
940.135	3094.4
940.442	3100.5
940.749	3106.6
941.056	3144.34
941.363	3073.61
941.67	3036.32
941.977	3031.35
942.284	3002.2
942.591	3018.69
942.898	3000.39
943.205	2998.81
943.511	2966.26
943.818	2952.25
944.125	2958.13
944.431	2952.03
944.738	2908.64
945.044	2891.92
945.35	2868.41
945.657	2871.13
945.963	2878.36
946.269	2834.97
946.575	2840.17
946.881	2840.17
947.187	2822.09
947.493	2827.06
947.799	2791.13
948.105	2787.51
948.41	2772.14
948.716	2757.46
949.022	2773.27
949.327	2750.22
949.633	2723.33
949.938	2705.25
950.244	2709.55
950.549	2707.97
950.854	2709.55
951.16	2704.35
951.465	2681.75
951.77	2690.34
952.075	2630
952.38	2615.99
952.685	2650.34
952.99	2604.69
953.294	2599.49
953.599	2574.64
953.904	2592.26
954.209	2573.05
954.513	2557.01
954.818	2548.87
955.122	2537.12
955.426	2553.39
955.731	2546.16
956.035	2522.66
956.339	2504.13
956.643	2498.71
956.948	2465.49
957.252	2471.36
957.556	2464.81
957.86	2460.74
958.163	2459.16
958.467	2431.36
958.771	2419.16
959.075	2425.49
959.378	2401.08
959.682	2430.23
959.985	2395.21
960.289	2373.96
960.592	2337.35
960.896	2395.21
961.199	2357.47
961.502	2363.79
961.805	2332.38
962.108	2373.29
962.411	2296
962.714	2284.7
963.017	2300.52
963.32	2316.34
963.623	2286.28
963.926	2327.86
964.228	2265.72
964.531	2269.56
964.833	2248.09
965.136	2234.53
965.438	2197.02
965.741	2220.75
966.043	2187.98
966.345	2179.17
966.648	2175.32
966.95	2190.69
967.252	2176.91
967.554	2164.03
967.856	2141.65
968.158	2131.71
968.46	2152.27
968.761	2139.62
969.063	2114.31
969.365	2149.79
969.666	2079.51
969.968	2090.35
970.269	2076.57
970.571	2112.73
970.872	2088.09
971.174	2046.06
971.475	2053.52
971.776	2056.91
972.077	2029.11
972.378	2063.46
972.679	2004.03
972.98	2023.24
973.281	2002.9
973.582	2027.53
973.883	1989.11
974.183	1975.1
974.484	1961.77
974.785	1957.48
975.085	1963.8
975.386	1931.04
975.686	1924.71
975.986	1944.6
976.287	1916.8
976.587	1905.95
976.887	1891.94
977.187	1920.64
977.487	1909.12
977.787	1899.4
978.087	1873.41
978.387	1876.57
978.687	1859.63
978.987	1846.29
979.286	1832.28
979.586	1808.33
979.885	1839.51
980.185	1840.42
980.484	1792.74
980.784	1816.69
981.083	1799.06
981.382	1802.9
981.682	1797.03
981.981	1761.78
982.28	1758.39
982.579	1774.2
982.878	1762.45
983.177	1764.26
983.475	1749.8
983.774	1737.6
984.073	1731.95
984.372	1728.56
984.67	1700.99
984.969	1712.51
985.267	1694.88
985.566	1717.03
985.864	1702.12
986.162	1685.17
986.461	1675.45
986.759	1652.85
987.057	1630.93
987.355	1638.62
987.653	1645.39
987.951	1642.68
988.249	1627.77
988.547	1618.73
988.844	1634.1
989.142	1649.46
989.44	1587.54
989.737	1592.29
990.035	1588.67
990.332	1595.45
990.63	1570.37
990.927	1550.26
991.224	1544.83
991.521	1550.26
991.819	1556.81
992.116	1532.4
992.413	1532.63
992.71	1530.6
993.006	1528.56
993.303	1537.15
993.6	1524.49
993.897	1508.45
994.193	1498.05
994.49	1465.29
994.787	1469.35
995.083	1469.35
995.379	1453.08
995.676	1446.76
995.972	1435.91
996.268	1456.02
996.565	1440.65
996.861	1432.97
997.157	1431.61
997.453	1423.25
997.749	1414.67
998.044	1409.47
998.34	1422.58
998.636	1393.65
998.932	1354.1
999.227	1406.08
999.523	1365.63
999.818	1346.87
1000.114	1366.08
1000.409	1349.36
1000.704	1349.81
1001	1368.11
1001.295	1339.87
1001.59	1344.84
1001.885	1327.44
1002.18	1328.79
1002.475	1316.59
1002.77	1305.97
1003.065	1292.86
1003.359	1291.51
1003.654	1287.66
1003.949	1262.13
1004.243	1263.03
1004.538	1278.62
1004.832	1270.26
1005.127	1295.57
1005.421	1254.44
1005.715	1244.05
1006.009	1280.88
1006.304	1242.92
1006.598	1239.08
1006.892	1215.35
1007.186	1230.04
1007.48	1219.19
1007.773	1216.25
1008.067	1197.27
1008.361	1201.79
1008.655	1205.18
1008.948	1186.2
1009.242	1178.97
1009.535	1183.03
1009.829	1156.82
1010.122	1179.87
1010.415	1143.94
1010.708	1136.26
1011.001	1159.31
1011.295	1120.89
1011.588	1149.36
1011.881	1126.99
1012.173	1124.96
1012.466	1117.95
1012.759	1114.79
1013.052	1133.54
1013.344	1105.07
1013.637	1085.41
1013.93	1104.62
1014.222	1086.54
1014.514	1094.45
1014.807	1054.68
1015.099	1080.89
1015.391	1057.84
1015.683	1042.92
1015.976	1067.56
1016.268	1045.86
1016.56	1067.1
1016.851	1034.34
1017.143	1034.79
1017.435	1043.38
1017.727	1040.44
1018.018	1006.54
1018.31	999.54
1018.602	980.33
1018.893	976.49
1019.185	1002.02
1019.476	966.32
1019.767	975.13
1020.058	950.95
1020.35	968.58
1020.641	971.74
1020.932	951.4
1021.223	971.51
1021.514	955.7
1021.804	934.23
1022.095	911.63
1022.386	934
1022.677	940.78
1022.967	936.71
1023.258	934
1023.548	915.02
1023.839	900.1
1024.129	903.27
1024.419	882.93
1024.709	882.25
1025	891.29
1025.29	875.25
1025.58	879.31
1025.87	883.15
1026.16	839.31
1026.449	860.56
1026.739	879.54
1027.029	841.35
1027.319	830.73
1027.608	828.69
1027.898	842.7
1028.187	823.95
1028.477	843.61
1028.766	813.1
1029.055	834.12
1029.344	808.81
1029.634	801.8
1029.923	808.58
1030.212	796.38
1030.501	818.07
1030.79	796.38
1031.078	790.73
1031.367	766.77
1031.656	782.82
1031.945	767.68
1032.233	754.8
1032.522	779.88
1032.81	774.46
1033.099	772.42
1033.387	755.02
1033.675	780.56
1033.963	748.24
1034.251	745.31
1034.54	722.26
1034.828	738.53
1035.116	723.38
1035.403	727.45
1035.691	711.41
1035.979	711.41
1036.267	724.74
1036.554	713.44
1036.842	720.9
1037.129	687.91
1037.417	686.78
1037.704	677.28
1037.992	675.7
1038.279	694.69
1038.566	682.26
1038.853	682.26
1039.14	682.26
