Data from foam2_polystyrene_foam_FLMS001491_00054.txt Node
Date: Wed Feb 08 10:58:09 GMT 2017
User: dcchb
Spectrometer: FLMS00149
Trigger mode: 0
Integration Time (sec): 2.000000E-2
Scans to average: 10
Electric dark correction enabled: true
Nonlinearity correction enabled: false
Boxcar width: 0
XAxis mode: Wavelengths
Number of Pixels in Spectrum: 2048
>>>>>Begin Spectral Data<<<<<
341.393	5.85
341.776	5.85
342.16	5.85
342.543	-37.99
342.927	-47.03
343.31	-75.05
343.693	-71.44
344.077	-82.96
344.46	-54.94
344.843	-45.68
345.226	-45.22
345.61	-9.29
345.993	-24.89
346.376	-6.81
346.759	12.17
347.142	31.38
347.525	30.25
347.908	57.37
348.291	77.26
348.674	102.57
349.057	105.28
349.44	140.53
349.823	139.86
350.206	178.95
350.588	203.36
350.971	206.75
351.354	230.25
351.737	246.52
352.119	256.46
352.502	281.09
352.884	282.45
353.267	279.51
353.65	294.2
354.032	324.71
354.414	318.38
354.797	319.29
355.179	329
355.562	337.14
355.944	355.89
356.326	336.91
356.709	352.96
357.091	359.51
357.473	372.17
357.855	366.29
358.238	358.83
358.62	350.02
359.002	358.15
359.384	361.32
359.766	365.61
360.148	331.26
360.53	345.95
360.912	371.49
361.294	367.87
361.676	373.07
362.057	340.98
362.439	340.75
362.821	373.97
363.203	349.79
363.584	344.37
363.966	337.14
364.348	367.19
364.729	354.76
365.111	322
365.493	356.35
365.874	339.17
366.256	326.29
366.637	327.19
367.019	340.08
367.4	339.62
367.781	330.81
368.163	352.05
368.544	338.95
368.925	350.47
369.306	361.77
369.688	367.65
370.069	360.41
370.45	347.53
370.831	356.8
371.212	340.98
371.593	340.3
371.974	354.09
372.355	339.85
372.736	351.15
373.117	343.69
373.498	343.92
373.879	357.25
374.26	339.85
374.641	348.44
375.021	346.18
375.402	373.97
375.783	374.65
376.163	383.01
376.544	376.91
376.925	365.16
377.305	378.72
377.686	388.66
378.066	386.85
378.447	380.75
378.827	397.7
379.208	380.75
379.588	373.52
379.968	382.11
380.349	389.79
380.729	406.74
381.109	383.01
381.489	383.01
381.87	391.6
382.25	416.23
382.63	412.62
383.01	396.12
383.39	426.63
383.77	409.9
384.15	411.94
384.53	432.95
384.91	409
385.29	425.5
385.67	429.79
386.049	435.44
386.429	429.56
386.809	426.63
387.189	416.46
387.568	448.77
387.948	445.38
388.328	445.16
388.707	477.02
389.087	458.26
389.466	443.58
389.846	455.33
390.225	462.33
390.605	465.95
390.984	474.54
391.363	471.15
391.743	497.81
392.122	478.83
392.501	477.93
392.881	503.69
393.26	514.53
393.639	507.76
394.018	511.37
394.397	495.33
394.776	502.78
395.155	507.3
395.534	498.72
395.913	517.02
396.292	517.47
396.671	527.87
397.05	525.16
397.429	515.21
397.808	539.62
398.186	548.88
398.565	535.78
398.944	539.17
399.323	558.6
399.701	550.47
400.08	572.16
400.458	561.31
400.837	578.71
401.215	576.91
401.594	579.17
401.972	579.62
402.351	600.41
402.729	587.07
403.107	589.11
403.486	577.81
403.864	598.83
404.242	586.62
404.62	597.92
404.999	613.29
405.377	629.33
405.755	644.25
406.133	630.69
406.511	641.76
406.889	628.2
407.267	663.23
407.645	637.7
408.023	703.23
408.401	674.98
408.779	663.68
409.156	690.12
409.534	686.06
409.912	682.44
410.29	693.96
410.667	712.04
411.045	732.61
411.422	726.51
411.8	731.03
412.178	757.69
412.555	765.15
412.933	766.96
413.31	784.36
413.687	786.84
414.065	801.76
414.442	773.74
414.819	799.5
415.197	795.43
415.574	833.62
415.951	811.93
416.328	825.49
416.705	846.73
417.082	841.08
417.46	849.89
417.837	855.99
418.214	869.1
418.591	879.04
418.967	864.13
419.344	868.88
419.721	897.35
420.098	876.11
420.475	910.68
420.852	927.86
421.228	894.41
421.605	932.6
421.982	933.51
422.358	961.08
422.735	943.22
423.111	959.72
423.488	950.23
423.864	986.61
424.241	973.05
424.617	987.97
424.994	1016.67
425.37	989.32
425.746	1023
426.123	1018.25
426.499	1036.1
426.875	1048.53
427.251	1072.26
427.627	1103.22
428.003	1098.25
428.379	1118.13
428.756	1116.33
429.132	1125.37
429.507	1138.02
429.883	1142.99
430.259	1157.46
430.635	1185.93
431.011	1195.42
431.387	1190.22
431.763	1183.44
432.138	1235.42
432.514	1239.26
432.89	1267.28
433.265	1293.05
433.641	1314.97
434.016	1302.08
434.392	1337.34
434.767	1359.48
435.143	1333.72
435.518	1354.06
435.894	1373.04
436.269	1389.54
436.644	1405.58
437.02	1424.34
437.395	1428.86
437.77	1455.53
438.145	1476.77
438.52	1506.6
438.895	1497.11
439.271	1476.32
439.646	1561.06
440.021	1561.06
440.395	1528.97
440.77	1529.42
441.145	1596.77
441.52	1604
441.895	1605.35
442.27	1625.47
442.645	1644
443.019	1665.92
443.394	1639.48
443.769	1670.66
444.143	1641.28
444.518	1673.15
444.892	1694.62
445.267	1714.28
445.641	1727.16
446.016	1723.77
446.39	1765.58
446.764	1755.18
447.139	1782.3
447.513	1815.74
447.887	1818.68
448.262	1854.39
448.636	1858.91
449.01	1851
449.384	1881.28
449.758	1876.76
450.132	1871.79
450.506	1910.88
450.88	1935.29
451.254	1900.71
451.628	1962.63
452.002	2006.47
452.376	2008.05
452.75	2012.57
453.123	2013.25
453.497	2080.82
453.871	2091.22
454.244	2118.33
454.618	2119.24
454.992	2155.17
455.365	2166.24
455.739	2192.68
456.112	2204.66
456.486	2238.56
456.859	2280.59
457.232	2334.83
457.606	2291.44
457.979	2343.86
458.352	2352.68
458.725	2394.03
459.099	2392.68
459.472	2448.49
459.845	2443.3
460.218	2492.11
460.591	2487.59
460.964	2536.85
461.337	2561.94
461.71	2609.85
462.083	2630.64
462.456	2633.57
462.829	2617.98
463.201	2703.63
463.574	2687.58
463.947	2728.04
464.32	2763.29
464.692	2771.2
465.065	2840.12
465.438	2831.31
465.81	2909.95
466.183	2961.48
466.555	2968.93
466.928	3041.93
467.3	3030.63
467.672	3050.51
468.045	3107.46
468.417	3150.4
468.789	3138.87
469.161	3217.29
469.534	3257.29
469.906	3328.7
470.278	3311.07
470.65	3372.09
471.022	3419.77
471.394	3495.02
471.766	3527.11
472.138	3538.86
472.51	3651.63
472.882	3680.1
473.253	3675.58
473.625	3736.37
473.997	3824.73
474.369	3848.91
474.74	3892.3
475.112	3993.31
475.484	4037.15
475.855	4055.01
476.227	4126.19
476.598	4253.65
476.97	4255.23
477.341	4354.89
477.713	4411.16
478.084	4454.77
478.455	4559.85
478.827	4587.2
479.198	4725.27
479.569	4731.37
479.94	4852.05
480.311	4934.08
480.682	5017.24
481.053	5141.53
481.424	5198.93
481.795	5255.88
482.166	5337.46
482.537	5383.78
482.908	5482.09
483.279	5547.62
483.65	5691.12
484.021	5764.11
484.391	5787.16
484.762	5863.09
485.133	5968.4
485.503	5999.59
485.874	6111.45
486.244	6190.09
486.615	6284.1
486.985	6360.48
487.356	6511.89
487.726	6532.23
488.097	6673.02
488.467	6709.63
488.837	6778.55
489.207	6916.85
489.578	6969.96
489.948	7055.83
490.318	7185.77
490.688	7194.13
491.058	7298.76
491.428	7425.09
491.798	7487.91
492.168	7609.49
492.538	7680.45
492.908	7751.63
493.278	7898.75
493.648	7883.83
494.017	8051.29
494.387	8072.98
494.757	8116.37
495.126	8251.28
495.496	8199.3
495.866	8352.52
496.235	8371.28
496.605	8516.81
496.974	8527.43
497.344	8629.35
497.713	8636.81
498.082	8730.14
498.452	8827.54
498.821	8895.78
499.19	8916.35
499.559	8980.98
499.928	9073.86
500.298	9115.66
500.667	9254.19
501.036	9197.02
501.405	9310.24
501.774	9322.89
502.143	9474.75
502.512	9495.32
502.88	9601.98
503.249	9644.46
503.618	9717.68
503.987	9767.4
504.356	9815.31
504.724	9833.84
505.093	9914.51
505.462	9958.81
505.83	10073.38
506.199	10123.55
506.567	10241.51
506.936	10186.6
507.304	10435.18
507.672	10419.58
508.041	10486.7
508.409	10588.85
508.777	10662.29
509.145	10651.9
509.514	10741.84
509.882	10787.71
510.25	10904.54
510.618	10987.25
510.986	11004.88
511.354	11083.07
511.722	11156.97
512.09	11324.65
512.458	11244.2
512.826	11387.92
513.193	11530.06
513.561	11554.02
513.929	11676.27
514.297	11761.92
514.664	11922.37
515.032	11916.95
515.4	11987.45
515.767	12109.26
516.135	12177.05
516.502	12113.78
516.869	12415.24
517.237	12466.99
517.604	12339.99
517.972	12597.15
518.339	12608.23
518.706	12610.49
519.073	12735.91
519.44	12864.49
519.808	12991.27
520.175	12987.65
520.542	13194.2
520.909	13306.06
521.276	13239.85
521.643	13496.57
522.009	13591.25
522.376	13711.48
522.743	13801.87
523.11	13868.08
523.477	14045.48
523.843	14033.05
524.21	14257.68
524.577	14306.49
524.943	14372.7
525.31	14543.32
525.676	14571.79
526.043	14784.67
526.409	14880.03
526.776	15038.22
527.142	15018.56
527.508	15153.25
527.874	15303.52
528.241	15329.96
528.607	15404.76
528.973	15537.19
529.339	15524.76
529.705	15643.18
530.071	15785.09
530.437	15876.62
530.803	16018.99
531.169	16117.51
531.535	16096.05
531.901	16258.98
532.267	16225.76
532.632	16379.65
532.998	16393.66
533.364	16579.65
533.73	16578.29
534.095	16766.99
534.461	16757.27
534.826	16814.67
535.192	16945.97
535.557	17187.77
535.923	17092.18
536.288	17184.83
536.653	17288.1
537.019	17130.59
537.384	17338.95
537.749	17486.97
538.114	17475.67
538.479	17546.63
538.845	17685.83
539.21	17633.41
539.575	17799.28
539.94	17863.68
540.305	17870.24
540.67	17873.4
541.034	18009.67
541.399	18068.42
541.764	18148.65
542.129	18200.4
542.494	18249.21
542.858	18381.64
543.223	18337.79
543.587	18438.81
543.952	18458.47
544.316	18567.62
544.681	18642.42
545.045	18660.95
545.41	18774.85
545.774	18857.1
546.138	18965.35
546.503	18851
546.867	18970.55
547.231	19012.58
547.595	19188.85
547.959	19194.5
548.324	19235.85
548.688	19319.92
549.052	19410.76
549.416	19421.38
549.779	19403.53
550.143	19544.54
550.507	19639.46
550.871	19648.27
551.235	19776.4
551.599	19876.96
551.962	19928.26
552.326	19990.41
552.689	20099.78
553.053	20071.99
553.417	20257.52
553.78	20438.08
554.143	20392.2
554.507	20573.44
554.87	20506.78
555.234	20720.78
555.597	20681.46
555.96	20727.11
556.323	20791.06
556.686	20943.83
557.05	20996.03
557.413	21162.35
557.776	21243.93
558.139	21213.2
558.502	21290.26
558.865	21417.26
559.228	21580.2
559.59	21678.05
559.953	21642.34
560.316	21938.83
560.679	21897.02
561.041	22043.91
561.404	22143.8
561.767	22323.9
562.129	22235.32
562.492	22443
562.854	22342.66
563.217	22468.31
563.579	22631.92
563.941	22719.37
564.304	22909.2
564.666	23115.3
565.028	23065.81
565.39	23041.17
565.753	23183.77
566.115	23402.75
566.477	23485.68
566.839	23534.27
567.201	23712.57
567.563	23635.28
567.925	23939.46
568.287	23862.4
568.648	23990.3
569.01	24153.01
569.372	24287.69
569.734	24271.42
570.095	24370.86
570.457	24520.68
570.819	24471.64
571.18	24459.44
571.542	24679.77
571.903	24745.54
572.265	24719.32
572.626	24867.57
572.987	24881.58
573.349	24898.53
573.71	25000.9
574.071	25173.55
574.432	25145.53
574.794	25224.62
575.155	25321.34
575.516	25294.45
575.877	25274.34
576.238	25473.65
576.599	25575.8
576.96	25579.41
577.32	25547.1
577.681	25763.59
578.042	25711.16
578.403	25743.02
578.763	25811.5
579.124	25872.96
579.485	25837.26
579.845	25963.36
580.206	25838.61
580.566	26022.79
580.927	25964.26
581.287	25980.76
581.648	26002.23
582.008	26145.95
582.368	26106.4
582.728	26093.52
583.089	26091.26
583.449	26089.68
583.809	26124.26
584.169	26130.58
584.529	26017.37
584.889	26249.45
585.249	26134.88
585.609	26123.13
585.969	26147.08
586.329	26143.01
586.688	26224.14
587.048	26193.86
587.408	26077.03
587.768	26197.02
588.127	26228.21
588.487	26128.1
588.846	26269.79
589.206	26049
589.565	26050.36
589.925	26333.52
590.284	26206.51
590.643	26250.81
591.003	26244.93
591.362	26381.42
591.721	26262.56
592.08	26287.42
592.44	26392.72
592.799	26249.9
593.158	26244.71
593.517	26341.65
593.876	26433.63
594.235	26217.81
594.593	26381.2
594.952	26445.83
595.311	26373.74
595.67	26461.87
596.029	26475.89
596.387	26482.67
596.746	26581.19
597.104	26477.02
597.463	26462.78
597.822	26487.64
598.18	26482.89
598.538	26434.08
598.897	26512.49
599.255	26334.42
599.613	26825.26
599.972	26560.4
600.33	26648.08
600.688	26657.12
601.046	26683.11
601.404	26897.57
601.762	26830.45
602.12	26840.4
602.478	26896.89
602.836	26891.69
603.194	26848.76
603.552	26919.49
603.91	26872.94
604.268	26976.66
604.625	26857.8
604.983	27063.21
605.341	26858.25
605.698	27124
606.056	27068.86
606.413	26994.97
606.771	27171.91
607.128	27170.78
607.485	27002.65
607.843	27026.83
608.2	27245.13
608.557	27241.97
608.914	27208.75
609.272	27257.33
609.629	27266.6
609.986	27430.89
610.343	27293.72
610.7	27410.32
611.057	27455.52
611.414	27466.59
611.771	27338.91
612.127	27648.28
612.484	27635.86
612.841	27699.36
613.198	27437.67
613.554	27659.13
613.911	27663.43
614.267	27622.3
614.624	27646.02
614.98	27670.66
615.337	27837.66
615.693	27787.04
616.05	27630.43
616.406	27874.95
616.762	27742.97
617.118	27799.24
617.475	27937.77
617.831	27986.58
618.187	28043.53
618.543	27976.86
618.899	28183.19
619.255	28002.85
619.611	28087.14
619.967	28087.37
620.323	28140.7
620.678	27955.85
621.034	28015.28
621.39	27909.29
621.746	27914.27
622.101	28282.62
622.457	28028.84
622.812	28091.66
623.168	28095.96
623.523	28043.3
623.879	28316.29
624.234	27930.99
624.589	28203.98
624.945	28098.22
625.3	28048.27
625.655	28046.01
626.01	28088.27
626.365	28039.01
626.72	28097.99
627.075	28121.04
627.43	28003.98
627.785	27972.34
628.14	28057.77
628.495	28059.35
628.85	28003.3
629.205	27824.55
629.559	28025.68
629.914	27960.82
630.269	27915.62
630.623	27985.68
630.978	27864.32
631.332	27891.44
631.687	28043.75
632.041	27877.88
632.396	27915.17
632.75	27761.5
633.104	27707.72
633.459	27525.12
633.813	27531.68
634.167	27658.45
634.521	27610.77
634.875	27648.96
635.229	27533.26
635.583	27414.62
635.937	27447.16
636.291	27328.52
636.645	27409.87
636.999	27316.99
637.352	27308.18
637.706	27174.17
638.06	27359.25
638.413	27324.45
638.767	27159.03
639.121	27214.62
639.474	27154.06
639.828	27053.05
640.181	27145.47
640.534	27130.56
640.888	26944.35
641.241	26893.95
641.594	26889.66
641.947	27075.19
642.301	26859.38
642.654	26863.9
643.007	26890.79
643.36	26703.22
643.713	26649.67
644.066	26724.47
644.419	26532.16
644.771	26423.91
645.124	26169.45
645.477	26112.73
645.83	25942.34
646.182	25775.79
646.535	25732.63
646.888	25915.9
647.24	25724.72
647.593	25802.68
647.945	25771.27
648.298	25638.39
648.65	25472.3
649.002	25556.81
649.355	25588.68
649.707	25594.33
650.059	25617.83
650.411	25901.89
650.763	25969.68
651.115	26305.72
651.467	26126.97
651.819	26107.08
652.171	26004.26
652.523	26030.47
652.875	26071.83
653.227	26033.41
653.578	26030.47
653.93	25979.63
654.282	25946.63
654.633	25914.77
654.985	25855.79
655.337	26002.68
655.688	25872.96
656.039	25971.04
656.391	25835.9
656.742	25817.6
657.094	25718.84
657.445	25817.82
657.796	25702.12
658.147	25594.1
658.498	25654.89
658.849	25654.21
659.2	25557.94
659.551	25592.75
659.902	25599.98
660.253	25645.85
660.604	25486.99
660.955	25518.4
661.306	25634.33
661.656	25521.79
662.007	25530.83
662.358	25470.26
662.708	25456.25
663.059	25462.13
663.409	25265.3
663.76	25430.04
664.11	25458.96
664.461	25477.72
664.811	25526.31
665.161	25378.06
665.511	25320.89
665.862	25411.96
666.212	25399.53
666.562	25484.27
666.912	25321.11
667.262	25371.96
667.612	25364.95
667.962	25504.39
668.312	25324.73
668.662	25553.65
669.011	25477.27
669.361	25227.56
669.711	25206.54
670.06	25196.82
670.41	25116.37
670.76	25166.09
671.109	25253.55
671.459	25213.09
671.808	25105.98
672.157	25117.73
672.507	24989.82
672.856	25063.49
673.205	25041.8
673.554	25130.38
673.904	25063.72
674.253	25192.08
674.602	24908.92
674.951	24669.38
675.3	24582.6
675.649	24915.93
675.998	24904.63
676.346	24837.74
676.695	25004.74
677.044	24855.59
677.393	24844.74
677.741	24943.95
678.09	24889.49
678.438	24828.7
678.787	24860.79
679.135	24847
679.484	24656.27
679.832	24717.97
680.181	24686.55
680.529	24851.52
680.877	24654.46
681.225	24664.86
681.573	24592.77
681.922	24465.32
682.27	24414.92
682.618	24414.25
682.966	24436.39
683.314	24415.6
683.661	24352.33
684.009	24259.22
684.357	24179.67
684.705	24221.26
685.053	24261.48
685.4	24120.92
685.748	24095.38
686.095	23996.63
686.443	23879.8
686.79	23807.48
687.138	24002.5
687.485	23936.29
687.832	23710.31
688.18	23783.98
688.527	23788.27
688.874	23617.66
689.221	23624.66
689.568	23507.6
689.915	23443.2
690.262	23510.99
690.609	23498.34
690.956	23278.91
691.303	23406.59
691.65	23303.09
691.997	23277.78
692.344	23101.51
692.69	23135.86
693.037	23028.74
693.383	22957.11
693.73	23058.12
694.077	22782.2
694.423	22876.43
694.769	22723.22
695.116	22681.18
695.462	22673.95
695.808	22604.12
696.155	22598.25
696.501	22453.84
696.847	22488.42
697.193	22236.9
697.539	22344.47
697.885	22141.31
698.231	22081.2
698.577	22123.23
698.923	22055.21
699.269	21969.34
699.614	21794.2
699.96	21853.63
700.306	21728.44
700.651	21649.35
700.997	21542
701.342	21563.02
701.688	21557.82
702.033	21484.15
702.379	21501.1
702.724	21368
703.069	21506.98
703.415	21140.66
703.76	21188.12
704.105	21135.91
704.45	21133.65
704.795	21099.53
705.14	20906.31
705.485	20898.63
705.83	20896.6
706.175	20858.63
706.52	20829.71
706.865	20800.78
707.209	20778.86
707.554	20673.1
707.899	20633.33
708.243	20497.96
708.588	20554.01
708.932	20370.74
709.277	20330.74
709.621	20380.68
709.966	20222.49
710.31	20351.75
710.654	19960.58
710.998	20046.9
711.342	20118.99
711.687	19955.83
712.031	19895.04
712.375	19926
712.719	19938.66
713.063	19846
713.407	19902.05
713.75	19704.76
714.094	19762.62
714.438	19602.85
714.782	19650.08
715.125	19602.17
715.469	19626.12
715.812	19575.5
716.156	19471.55
716.499	19478.56
716.843	19483.53
717.186	19272.23
717.53	19479.91
717.873	19416.41
718.216	19308.84
718.559	19239.24
718.902	19079.92
719.246	19202.63
719.589	19095.74
719.932	19088.06
720.275	19150.88
720.617	19032.69
720.96	19046.02
721.303	19019.13
721.646	18935.07
721.989	18890.55
722.331	18933.49
722.674	18824.11
723.016	18751.12
723.359	18801.51
723.701	18770.33
724.044	18695.53
724.386	18620.95
724.729	18667.28
725.071	18590.44
725.413	18618.24
725.755	18534.85
726.097	18469.99
726.439	18295.08
726.782	18383.9
727.124	18497.56
727.465	18321.52
727.807	18311.35
728.149	18298.7
728.491	18191.36
728.833	18291.92
729.175	18138.93
729.516	18103.68
729.858	18029.33
730.199	18050.57
730.541	18006.28
730.882	18024.13
731.224	18038.14
731.565	17896.68
731.906	17881.54
732.248	17909.78
732.589	17793.85
732.93	17683.35
733.271	17797.7
733.612	17796.57
733.953	17742.56
734.294	17684.7
734.635	17630.02
734.976	17747.75
735.317	17620.75
735.658	17627.76
735.999	17628.66
736.339	17566.29
736.68	17605.84
737.021	17576.23
737.361	17501.21
737.702	17502.79
738.042	17447.65
738.383	17380.76
738.723	17441.32
739.063	17382.11
739.404	17366.75
739.744	17351.61
740.084	17373.53
740.424	17322.45
740.764	17279.29
741.104	17353.41
741.444	17108
741.784	17109.35
742.124	17144.38
742.464	17094.66
742.804	17119.52
743.143	16966.53
743.483	16996.14
743.823	16890.38
744.162	16798.17
744.502	16861.68
744.841	16827.78
745.181	16900.54
745.52	16832.07
745.86	16801.34
746.199	16695.35
746.538	16716.59
746.877	16727.89
747.216	16614.68
747.556	16679.53
747.895	16670.95
748.234	16607.67
748.573	16583.94
748.911	16544.17
749.25	16492.42
749.589	16457.39
749.928	16387.34
750.267	16403.16
750.605	16325.87
750.944	16364.51
751.283	16197.74
751.621	16357.06
751.96	16283.39
752.298	16187.57
752.636	16201.58
752.975	16104.86
753.313	16060.57
753.651	15993
753.989	16014.92
754.327	15960.23
754.666	15939.89
755.004	15911.19
755.342	15886.33
755.679	15845.43
756.017	15703.97
756.355	15807.92
756.693	15670.75
757.031	15806.79
757.368	15638.2
757.706	15663.29
758.044	15556.85
758.381	15515.5
758.719	15412
759.056	15564.53
759.394	15439.57
759.731	15385.78
760.068	15320.92
760.405	15313.24
760.743	15179.91
761.08	15288.16
761.417	15177.65
761.754	15131.55
762.091	15134.49
762.428	15130.42
762.765	15068.95
763.102	15077.77
763.438	14908.05
763.775	14894.04
764.112	14864.67
764.449	14851.11
764.785	14688.85
765.122	14665.35
765.458	14649.76
765.795	14632.81
766.131	14571.11
766.467	14558.01
766.804	14416.54
767.14	14432.36
767.476	14350.55
767.812	14276.21
768.148	14217.9
768.485	14179.94
768.821	14151.24
769.157	14130.45
769.492	14080.73
769.828	13951.24
770.164	13941.3
770.5	13928.65
770.836	13832.15
771.171	13723.23
771.507	13683.23
771.842	13662.21
772.178	13631.93
772.513	13623.79
772.849	13622.66
773.184	13449.34
773.519	13466.74
773.855	13366.63
774.19	13315.78
774.525	13274.42
774.86	13317.81
775.195	13195.11
775.53	13219.06
775.865	13165.28
776.2	13014.77
776.535	12912.17
776.87	13015.22
777.205	12921.67
777.539	12862.46
777.874	12927.54
778.209	12725.51
778.543	12752.18
778.878	12728.9
779.212	12679.64
779.547	12558.96
779.881	12613.43
780.215	12452.07
780.55	12523.71
780.884	12457.5
781.218	12418.18
781.552	12385.63
781.886	12329.14
782.22	12154
782.554	12212.31
782.888	12068.81
783.222	12128.92
783.556	12041.01
783.889	11919.43
784.223	11862.94
784.557	11837.17
784.89	11900.9
785.224	11791.07
785.557	11716.95
785.891	11770.74
786.224	11689.16
786.558	11654.81
786.891	11640.8
787.224	11551.31
787.557	11526
787.891	11509.5
788.224	11546.56
788.557	11556.05
788.89	11456.39
789.223	11471.53
789.556	11276.96
789.888	11322.16
790.221	11224.76
790.554	11107.02
790.887	11199.9
791.219	11202.39
791.552	11012.11
791.884	11032.68
792.217	11038.1
792.549	10945.9
792.882	10872.68
793.214	10855.51
793.546	10880.59
793.879	10841.27
794.211	10781.61
794.543	10791.78
794.875	10826.13
795.207	10742.29
795.539	10703.42
795.871	10712.01
796.203	10573.25
796.535	10630.43
796.867	10563.31
797.198	10537.32
797.53	10489.41
797.862	10451.9
798.193	10467.49
798.525	10351.79
798.856	10435.63
799.188	10305.01
799.519	10243.32
799.85	10159.7
800.182	10232.25
800.513	10229.99
800.844	10155.18
801.175	10140.72
801.506	10129.87
801.837	10040.84
802.168	10058.46
802.499	9969.65
802.83	9937.34
803.161	9919.71
803.491	9913.61
803.822	9920.61
804.153	9814.18
804.483	9745.25
804.814	9736.89
805.145	9723.56
805.475	9681.07
805.805	9587.06
806.136	9663.22
806.466	9706.84
806.796	9711.13
807.126	9570.79
807.457	9585.48
807.787	9548.65
808.117	9416
808.447	9477.24
808.777	9511.13
809.107	9481.08
809.436	9426.84
809.766	9446.05
810.096	9397.92
810.426	9320.18
810.755	9324.25
811.085	9339.16
811.414	9315.43
811.744	9194.76
812.073	9164.93
812.403	9216.9
812.732	9126.29
813.061	9115.21
813.39	9077.7
813.719	9080.18
814.049	9101.65
814.378	9039.28
814.707	8990.02
815.036	8944.37
815.365	8946.18
815.693	8845.39
816.022	8881.32
816.351	8892.62
816.68	8845.84
817.008	8872.73
817.337	8840.19
817.665	8763.36
817.994	8780.76
818.322	8715
818.651	8737.37
818.979	8708.9
819.307	8715.67
819.636	8642.23
819.964	8657.82
820.292	8621.44
820.62	8623.7
820.948	8589.35
821.276	8597.49
821.604	8590.25
821.932	8626.64
822.259	8668.9
822.587	8583.47
822.915	8524.72
823.243	8563.36
823.57	8583.25
823.898	8554.1
824.225	8592.06
824.553	8555.45
824.88	8595.45
825.207	8564.72
825.535	8551.84
825.862	8629.8
826.189	8585.73
826.516	8663.7
826.843	8673.19
827.17	8625.51
827.497	8613.98
827.824	8620.54
828.151	8602.23
828.478	8559.97
828.805	8599.75
829.131	8604.94
829.458	8618.28
829.785	8513.42
830.111	8528.56
830.438	8560.65
830.764	8562.91
831.09	8559.97
831.417	8586.41
831.743	8542.12
832.069	8612.17
832.395	8536.24
832.722	8610.14
833.048	8485.4
833.374	8554.78
833.7	8539.41
834.026	8485.4
834.351	8493.53
834.677	8477.26
835.003	8415.57
835.329	8491.5
835.654	8437.72
835.98	8407.21
836.306	8432.07
836.631	8409.92
836.956	8446.98
837.282	8444.27
837.607	8340.09
837.932	8305.29
838.258	8369.47
838.583	8382.35
838.908	8293.31
839.233	8274.1
839.558	8275.69
839.883	8236.14
840.208	8227.1
840.533	8224.61
840.858	8251.51
841.182	8158.63
841.507	8160.66
841.832	8147.55
842.156	8245.63
842.481	8076.14
842.805	8095.13
843.13	8088.8
843.454	8064.84
843.778	8083.38
844.103	8038.4
844.427	8035.69
844.751	8059.42
845.075	8003.38
845.399	7972.64
845.723	7897.17
846.047	7969.03
846.371	7885.64
846.695	7895.13
847.019	7799.99
847.343	7792.99
847.666	7777.17
847.99	7716.15
848.313	7662.6
848.637	7637.29
848.96	7636.61
849.284	7621.47
849.607	7576.95
849.931	7565.2
850.254	7469.38
850.577	7444.97
850.9	7449.49
851.223	7455.14
851.546	7379.21
851.869	7361.36
852.192	7365.65
852.515	7363.85
852.838	7261.02
853.161	7289.05
853.483	7217.41
853.806	7190.29
854.129	7230.29
854.451	7218.09
854.774	7153.46
855.096	7085.44
855.419	7050.18
855.741	7077.3
856.063	7040.46
856.385	7056.74
856.708	7019
857.03	7006.57
857.352	6996.4
857.674	6913.91
857.996	7000.69
858.318	6844.54
858.64	6933.12
858.961	6845.67
859.283	6915.72
859.605	6830.75
859.926	6836.18
860.248	6860.36
860.57	6778.78
860.891	6777.19
861.212	6690.64
861.534	6773.58
861.855	6674.15
862.176	6715.28
862.498	6738.78
862.819	6749.62
863.14	6712.56
863.461	6687.25
863.782	6658.55
864.103	6645.45
864.424	6645.67
864.745	6575.17
865.065	6582.62
865.386	6600.25
865.707	6561.61
866.027	6580.36
866.348	6571.1
866.668	6535.85
866.989	6519.35
867.309	6457.66
867.63	6497.2
867.95	6475.28
868.27	6477.99
868.59	6510.54
868.91	6494.94
869.23	6453.14
869.55	6409.97
869.87	6464.21
870.19	6425.34
870.51	6471.44
870.83	6421.95
871.15	6383.98
871.469	6385.11
871.789	6362.74
872.109	6363.42
872.428	6347.38
872.748	6361.61
873.067	6361.61
873.386	6285.46
873.706	6305.12
874.025	6247.72
874.344	6234.61
874.663	6235.74
874.982	6259.24
875.301	6276.64
875.62	6281.84
875.939	6238
876.258	6204.33
876.577	6218.11
876.896	6206.14
877.214	6194.16
877.533	6186.7
877.852	6149.41
878.17	6168.85
878.489	6152.8
878.807	6162.75
879.125	6191.45
879.444	6129.53
879.762	6120.49
880.08	6130.21
880.398	6109.42
880.716	6147.38
881.034	6072.81
881.352	6087.95
881.67	6010.21
881.988	6011.57
882.306	6009.53
882.624	6046.59
882.941	6000.94
883.259	5974.28
883.577	5945.35
883.894	5986.71
884.212	5918.91
884.529	5925.24
884.846	5904.9
885.164	5937.67
885.481	5890.66
885.798	5831.68
886.115	5834.62
886.432	5827.62
886.75	5846.6
887.067	5799.59
887.383	5774.28
887.7	5750.33
888.017	5765.92
888.334	5743.1
888.651	5823.1
888.967	5715.08
889.284	5708.75
889.6	5683.44
889.917	5664.46
890.233	5617.68
890.55	5630.33
890.866	5658.13
891.182	5639.15
891.498	5580.39
891.815	5615.42
892.131	5559.15
892.447	5578.58
892.763	5589.66
893.079	5533.16
893.395	5542.42
893.71	5499.26
894.026	5446.61
894.342	5478.47
894.657	5441.41
894.973	5435.31
895.289	5408.87
895.604	5414.29
895.92	5347.63
896.235	5384.01
896.55	5380.85
896.865	5360.51
897.181	5269.89
897.496	5322.77
897.811	5251.59
898.126	5249.55
898.441	5248.65
898.756	5260.85
899.071	5229.44
899.386	5256.56
899.7	5193.28
900.015	5199.38
900.33	5095.21
900.644	5152.6
900.959	5123.9
901.273	5099.5
901.588	5050.01
901.902	5021.99
902.216	5001.65
902.531	5028.31
902.845	5002.1
903.159	4994.87
903.473	4971.82
903.787	4934.08
904.101	4953.06
904.415	4906.06
904.729	4872.39
905.042	4889.56
905.356	4861.99
905.67	4818.83
905.984	4836
906.297	4809.34
906.611	4796.23
906.924	4807.98
907.237	4775.67
907.551	4757.59
907.864	4700.64
908.177	4689.11
908.491	4728.66
908.804	4685.95
909.117	4660.64
909.43	4680.3
909.743	4654.99
910.056	4604.37
910.368	4566.41
910.681	4535.45
910.994	4584.26
911.307	4550.36
911.619	4545.84
911.932	4494.77
912.244	4462.68
912.557	4483.47
912.869	4435.11
913.181	4441.89
913.494	4429.01
913.806	4367.99
914.118	4385.39
914.43	4372.29
914.742	4310.82
915.054	4303.14
915.366	4316.47
915.678	4349.69
915.99	4282.12
916.302	4214.32
916.613	4227.66
916.925	4219.52
917.236	4205.28
917.548	4156.7
917.859	4170.71
918.171	4144.5
918.482	4120.77
918.794	4134.33
919.105	4118.96
919.416	4045.74
919.727	4080.99
920.038	4018.17
920.349	4015.23
920.66	3988.12
920.971	4035.8
921.282	3995.35
921.593	3935.69
921.903	3946.76
922.214	3949.7
922.525	3947.66
922.835	3882.36
923.146	3855.92
923.456	3916.03
923.767	3885.52
924.077	3911.06
924.387	3830.61
924.697	3836.03
925.008	3802.36
925.318	3798.74
925.628	3773.43
925.938	3704.73
926.248	3745.64
926.558	3728.91
926.867	3721.23
927.177	3680.33
927.487	3694.34
927.796	3634
928.106	3666.99
928.416	3633.55
928.725	3630.84
929.034	3611.85
929.344	3607.11
929.653	3562.36
929.962	3537.05
930.271	3576.15
930.581	3560.78
930.89	3512.42
931.199	3534.12
931.508	3479.2
931.817	3453.89
932.125	3442.14
932.434	3431.29
932.743	3396.27
933.051	3388.81
933.36	3404.63
933.669	3393.78
933.977	3339.54
934.286	3376.15
934.594	3378.64
934.902	3349.04
935.21	3336.38
935.519	3357.4
935.827	3315.82
936.135	3288.47
936.443	3286.21
936.751	3269.49
937.059	3253.22
937.367	3190.85
937.674	3238.3
937.982	3233.56
938.29	3198.08
938.597	3214.8
938.905	3181.36
939.213	3145.88
939.52	3121.7
939.827	3160.34
940.135	3117.4
940.442	3090.51
940.749	3119.66
941.056	3098.42
941.363	3040.34
941.67	3102.49
941.977	3033.34
942.284	3008.93
942.591	3040.8
942.898	3038.76
943.205	3002.38
943.511	2985.2
943.818	2973.68
944.125	2933.45
944.431	2953.34
944.738	2959.44
945.044	2917.64
945.35	2917.18
945.657	2912.44
945.963	2864.08
946.269	2843.06
946.575	2869.05
946.881	2843.06
947.187	2815.04
947.493	2830.41
947.799	2817.3
948.105	2802.38
948.41	2791.54
948.716	2783.85
949.022	2742.95
949.327	2756.96
949.633	2726.91
949.938	2734.36
950.244	2741.37
950.549	2680.81
950.854	2698.21
951.16	2707.7
951.465	2671.99
951.77	2611.65
952.075	2646.91
952.38	2599.9
952.685	2647.13
952.99	2609.39
953.294	2590.86
953.599	2609.62
953.904	2590.41
954.209	2588.38
954.513	2562.39
954.818	2591.32
955.122	2576.85
955.426	2531.66
955.731	2498.89
956.035	2510.64
956.339	2526.68
956.643	2509.96
956.948	2522.39
957.252	2469.29
957.556	2484.2
957.86	2460.02
958.163	2436.07
958.467	2469.51
958.771	2447.37
959.075	2457.76
959.378	2417.54
959.682	2448.04
959.985	2417.31
960.289	2387.03
960.592	2380.7
960.896	2355.62
961.199	2361.49
961.502	2326.01
961.805	2319.01
962.108	2337.76
962.411	2310.87
962.714	2267.48
963.017	2326.92
963.32	2290.53
963.623	2261.38
963.926	2273.58
964.228	2242.4
964.531	2241.49
964.833	2272.45
965.136	2233.59
965.438	2234.26
965.741	2221.61
966.043	2201.72
966.345	2167.15
966.648	2187.48
966.95	2159.46
967.252	2166.47
967.554	2176.19
967.856	2167.6
968.158	2141.16
968.46	2137.54
968.761	2130.54
969.063	2144.1
969.365	2098.67
969.666	2113.59
969.968	2101.84
970.269	2089.86
970.571	2096.87
970.872	2060.03
971.174	2058.45
971.475	2055.96
971.776	2045.57
972.077	2034.95
972.378	2050.09
972.679	2011.67
972.98	2032.01
973.281	1988.62
973.582	2019.35
973.883	1985.46
974.183	1986.59
974.484	1951.78
974.785	1954.5
975.085	1975.51
975.386	1969.86
975.686	1936.19
975.986	1940.49
976.287	1926.25
976.587	1925.34
976.887	1919.47
977.187	1893.93
977.487	1905.46
977.787	1880.6
978.087	1834.95
978.387	1880.37
978.687	1883.99
978.987	1862.75
979.286	1799.92
979.586	1841.73
979.885	1853.71
980.185	1815.29
980.484	1805.35
980.784	1778
981.083	1786.59
981.382	1800.6
981.682	1788.85
981.981	1755.63
982.28	1762.19
982.579	1749.53
982.878	1772.58
983.177	1768.29
983.475	1749.08
983.774	1760.38
984.073	1708.63
984.372	1687.84
984.67	1708.85
984.969	1703.88
985.267	1703.88
985.566	1677.22
985.864	1667.5
986.162	1657.33
986.461	1666.59
986.759	1648.97
987.057	1644.22
987.355	1629.31
987.653	1625.69
987.951	1604.9
988.249	1651.68
988.547	1618.91
988.844	1613.71
989.142	1607.84
989.44	1604.9
989.737	1598.57
990.035	1571.23
990.332	1564.9
990.63	1592.02
990.927	1571.46
991.224	1554.51
991.521	1549.76
991.819	1541.63
992.116	1530.1
992.413	1558.8
992.71	1525.58
993.006	1527.62
993.303	1546.37
993.6	1507.05
993.897	1522.19
994.193	1488.29
994.49	1491.23
994.787	1504.56
995.083	1472.25
995.379	1476.54
995.676	1488.07
995.972	1467.28
996.268	1471.57
996.565	1415.75
996.861	1422.76
997.157	1427.28
997.453	1423.66
997.749	1428.86
998.044	1398.35
998.34	1396.32
998.636	1416.21
998.932	1382.76
999.227	1392.93
999.523	1387.51
999.818	1362.2
1000.114	1379.6
1000.409	1352.03
1000.704	1363.1
1001	1330.33
1001.295	1327.17
1001.59	1345.02
1001.885	1326.94
1002.18	1331.46
1002.475	1343.44
1002.77	1316.32
1003.065	1317.23
1003.359	1295.76
1003.654	1292.37
1003.949	1277.68
1004.243	1287.62
1004.538	1285.59
1004.832	1293.5
1005.127	1276.1
1005.421	1251.46
1005.715	1268.64
1006.009	1237.91
1006.304	1235.65
1006.598	1256.44
1006.892	1229.32
1007.186	1230.9
1007.48	1219.6
1007.773	1217.34
1008.067	1193.39
1008.361	1199.94
1008.655	1184.12
1008.948	1167.85
1009.242	1171.01
1009.535	1174.63
1009.829	1188.19
1010.122	1159.04
1010.415	1150.22
1010.708	1179.38
1011.001	1131.92
1011.295	1149.55
1011.588	1127.17
1011.881	1126.72
1012.173	1109.77
1012.466	1114.97
1012.759	1098.47
1013.052	1120.17
1013.344	1121.52
1013.637	1089.21
1013.93	1102.32
1014.222	1104.58
1014.514	1090.34
1014.807	1078.81
1015.099	1079.27
1015.391	1043.56
1015.683	1057.8
1015.976	1023.45
1016.268	1032.49
1016.56	1026.84
1016.851	1033.84
1017.143	1047.18
1017.435	1029.32
1017.727	1010.57
1018.018	1049.89
1018.31	1025.48
1018.602	1000.85
1018.893	992.71
1019.185	987.97
1019.476	995.43
1019.767	980.74
1020.058	969.44
1020.35	970.79
1020.641	939.61
1020.932	968.53
1021.223	982.32
1021.514	966.5
1021.804	943.22
1022.095	944.13
1022.386	958.14
1022.677	919.27
1022.967	907.52
1023.258	932.15
1023.548	906.61
1023.839	927.4
1024.129	903.9
1024.419	895.54
1024.709	876.78
1025	860.51
1025.29	881.3
1025.58	887.86
1025.87	886.05
1026.16	886.73
1026.449	872.94
1026.739	873.17
1027.029	843.11
1027.319	850.34
1027.608	835.66
1027.898	850.12
1028.187	837.69
1028.477	839.27
1028.766	846.5
1029.055	828.2
1029.344	807.41
1029.634	823.9
1029.923	800.18
1030.212	792.04
1030.501	814.87
1030.79	795.88
1031.078	793.85
1031.367	795.21
1031.656	776
1031.945	772.38
1032.233	785.94
1032.522	755.88
1032.81	771.25
1033.099	754.3
1033.387	743
1033.675	745.49
1033.963	760.4
1034.251	727.18
1034.54	744.58
1034.828	740.07
1035.116	736
1035.403	737.81
1035.691	723.57
1035.979	734.19
1036.267	735.09
1036.554	714.3
1036.842	725.15
1037.129	703.23
1037.417	697.13
1037.704	677.47
1037.992	714.3
1038.279	712.27
1038.566	704.59
1038.853	704.59
1039.14	704.59
