Data from foam_black_FLMS001491_00002.txt Node
Date: Wed Feb 08 10:43:24 GMT 2017
User: dcchb
Spectrometer: FLMS00149
Trigger mode: 0
Integration Time (sec): 2.000000E-2
Scans to average: 10
Electric dark correction enabled: true
Nonlinearity correction enabled: false
Boxcar width: 0
XAxis mode: Wavelengths
Number of Pixels in Spectrum: 2048
>>>>>Begin Spectral Data<<<<<
341.393	-17.29
341.776	-17.29
342.16	-17.29
342.543	-63.61
342.927	-67.23
343.31	-75.37
343.693	-57.96
344.077	-65.2
344.46	-64.07
344.843	-41.24
345.226	-22.26
345.61	-24.29
345.993	-8.47
346.376	-19.32
346.759	2.37
347.142	31.98
347.525	27.68
347.908	46.89
348.291	77.4
348.674	87.79
349.057	104.07
349.44	118.3
349.823	145.42
350.206	150.39
350.588	187
350.971	234.68
351.354	246.89
351.737	251.18
352.119	264.96
352.502	263.61
352.884	279.65
353.267	286.43
353.65	287.79
354.032	297.73
354.414	301.57
354.797	320.56
355.179	332.99
355.562	330.5
355.944	323.49
356.326	330.05
356.709	330.05
357.091	351.52
357.473	334.12
357.855	335.02
358.238	337.73
358.62	332.31
359.002	332.08
359.384	353.1
359.766	363.04
360.148	361.46
360.53	351.06
360.912	348.8
361.294	331.18
361.676	339.99
362.057	354.45
362.439	356.04
362.821	334.12
363.203	325.98
363.584	334.34
363.966	335.7
364.348	356.26
364.729	337.73
365.111	323.49
365.493	326.21
365.874	332.08
366.256	335.7
366.637	325.08
367.019	348.35
367.4	339.09
367.781	341.57
368.163	317.62
368.544	314
368.925	334.57
369.306	339.99
369.688	347
370.069	320.56
370.45	311.07
370.831	327.56
371.212	333.44
371.593	322.14
371.974	360.1
372.355	327.34
372.736	344.74
373.117	350.39
373.498	353.78
373.879	346.32
374.26	333.21
374.641	346.54
375.021	347.67
375.402	347.45
375.783	342.25
376.163	339.54
376.544	376.37
376.925	366.66
377.305	328.24
377.686	358.07
378.066	356.94
378.447	371.4
378.827	357.39
379.208	342.93
379.588	374.34
379.968	386.09
380.349	383.61
380.729	363.95
381.109	380.44
381.489	358.52
381.87	396.94
382.25	377.96
382.63	403.04
383.01	387.67
383.39	376.83
383.77	379.31
384.15	384.74
384.53	376.83
384.91	384.51
385.29	389.93
385.67	388.13
386.049	399.65
386.429	402.36
386.809	425.41
387.189	383.83
387.568	403.49
387.948	412.76
388.328	406.88
388.707	393.55
389.087	415.7
389.466	410.5
389.846	443.04
390.225	421.12
390.605	434
390.984	441.23
391.363	426.32
391.743	435.36
392.122	446.2
392.501	433.1
392.881	454.11
393.26	447.11
393.639	459.31
394.018	466.77
394.397	478.29
394.776	455.69
395.155	458.41
395.534	460.89
395.913	452.98
396.292	461.34
396.671	493.89
397.05	488.01
397.429	490.04
397.808	492.98
398.186	486.43
398.565	477.61
398.944	492.98
399.323	491.17
399.701	497.73
400.08	511.51
400.458	495.69
400.837	511.06
401.215	530.27
401.594	489.82
401.972	531.85
402.351	529.14
402.729	544.51
403.107	539.99
403.486	528.91
403.864	512.19
404.242	541.34
404.62	557.84
404.999	550.83
405.377	559.65
405.755	569.14
406.133	569.36
406.511	546.99
406.889	579.08
407.267	563.94
407.645	566.43
408.023	603.49
408.401	608.23
408.779	594.22
409.156	585.41
409.534	623.83
409.912	618.18
410.29	620.44
410.667	615.69
411.045	630.38
411.422	649.36
411.8	659.98
412.178	655.01
412.555	646.65
412.933	655.69
413.31	664.95
413.687	691.62
414.065	651.17
414.442	680.55
414.819	681.9
415.197	689.13
415.574	681
415.951	703.6
416.328	706.76
416.705	734.78
417.082	724.16
417.46	717.16
417.837	742.69
418.214	724.39
418.591	742.69
418.967	761
419.344	764.16
419.721	769.58
420.098	746.08
420.475	787.44
420.852	768.23
421.228	785.63
421.605	787.66
421.982	824.5
422.358	812.07
422.735	815.46
423.111	821.33
423.488	820.2
423.864	818.4
424.241	841.45
424.617	841.9
424.994	860.43
425.37	861.56
425.746	847.32
426.123	884.16
426.499	874.21
426.875	866.08
427.251	901.78
427.627	923.7
428.003	931.16
428.379	920.54
428.756	927.09
429.132	935.91
429.507	957.83
429.883	961.44
430.259	979.07
430.635	991.27
431.011	970.93
431.387	1020.43
431.763	1016.81
432.138	1017.04
432.514	1017.04
432.89	1034.44
433.265	1090.03
433.641	1057.71
434.016	1068.33
434.392	1094.32
434.767	1080.99
435.143	1109.69
435.518	1091.38
435.894	1126.86
436.269	1131.16
436.644	1133.64
437.02	1163.92
437.395	1159.86
437.77	1158.95
438.145	1190.82
438.52	1219.97
438.895	1213.41
439.271	1209.35
439.646	1247.09
440.021	1222.68
440.395	1236.92
440.77	1231.72
441.145	1244.6
441.52	1268.78
441.895	1264.49
442.27	1272.17
442.645	1320.76
443.019	1285.05
443.394	1294.09
443.769	1295.45
444.143	1294.54
444.518	1332.06
444.892	1330.7
445.267	1340.87
445.641	1335.67
446.016	1349.91
446.39	1358.27
446.764	1360.3
447.139	1389.45
447.513	1372.96
447.887	1384.71
448.262	1415.67
448.636	1418.15
449.01	1432.62
449.384	1476.23
449.758	1417.93
450.132	1451.83
450.506	1442.56
450.88	1475.1
451.254	1488.89
451.628	1490.24
452.002	1478.72
452.376	1497.7
452.75	1526.17
453.123	1571.82
453.497	1544.93
453.871	1559.62
454.244	1590.13
454.618	1585.61
454.992	1624.48
455.365	1630.8
455.739	1690.01
456.112	1683.91
456.486	1711.03
456.859	1698.83
457.232	1735.89
457.606	1745.83
457.979	1765.49
458.352	1808.88
458.725	1784.02
459.099	1811.14
459.472	1871.02
459.845	1879.39
460.218	1858.82
460.591	1896.11
460.964	1917.35
461.337	1943.79
461.71	1992.38
462.083	1936.56
462.456	1994.18
462.829	1979.95
463.201	2050.68
463.574	2029.66
463.947	2056.78
464.32	2112.15
464.692	2118.02
465.065	2146.95
465.438	2162.99
465.81	2192.37
466.183	2197.57
466.555	2240.96
466.928	2276.21
467.3	2274.63
467.672	2292.93
468.045	2322.54
468.417	2378.81
468.789	2364.34
469.161	2401.18
469.534	2465.36
469.906	2463.1
470.278	2452.93
470.65	2488.18
471.022	2532.02
471.394	2600.72
471.766	2644.56
472.138	2683.66
472.51	2681.4
472.882	2725.47
473.253	2783.77
473.625	2804.56
473.997	2865.57
474.369	2882.07
474.74	2926.14
475.112	2974.05
475.484	3021.5
475.855	3066.93
476.227	3089.3
476.598	3152.57
476.97	3132.46
477.341	3229.63
477.713	3283.19
478.084	3305.34
478.455	3390.76
478.827	3428.72
479.198	3511.89
479.569	3575.84
479.94	3616.06
480.311	3654.25
480.682	3727.02
481.053	3802.27
481.424	3871.65
481.795	3877.53
482.166	3969.95
482.537	4011.76
482.908	4044.98
483.279	4099.21
483.65	4167.69
484.021	4262.15
484.391	4299.43
484.762	4333.33
485.133	4378.98
485.503	4396.38
485.874	4510.95
486.244	4577.17
486.615	4649.03
486.985	4675.02
487.356	4775.35
487.726	4818.97
488.097	4876.82
488.467	4915.01
488.837	4997.5
489.207	5057.38
489.578	5077.27
489.948	5203.37
490.318	5245.85
490.688	5221.9
491.058	5326.53
491.428	5362.46
491.798	5405.39
492.168	5507.31
492.538	5529.69
492.908	5604.94
493.278	5652.39
493.648	5712.05
494.017	5703.69
494.387	5815.55
494.757	5885.83
495.126	5905.72
495.496	5912.73
495.866	5983.01
496.235	6093.06
496.605	6103.68
496.974	6123.12
497.344	6174.87
497.713	6234.75
498.082	6278.82
498.452	6338.7
498.821	6384.8
499.19	6383.67
499.559	6469.32
499.928	6485.14
500.298	6555.19
500.667	6642.88
501.036	6586.15
501.405	6723.33
501.774	6632.25
502.143	6789.99
502.512	6788.86
502.88	6860.05
503.249	6803.32
503.618	6955.18
503.987	6938.91
504.356	6971.68
504.724	7088.29
505.093	7030.21
505.462	7090.32
505.83	7224.1
506.199	7167.83
506.567	7288.96
506.936	7332.58
507.304	7419.8
507.672	7406.7
508.041	7467.26
508.409	7456.64
508.777	7624.09
509.145	7627.48
509.514	7627.26
509.882	7704.32
510.25	7714.03
510.618	7852.34
510.986	7834.71
511.354	7944.76
511.722	8010.52
512.09	8078.09
512.458	8069.51
512.826	8138.66
513.193	8148.83
513.561	8223.63
513.929	8246.68
514.297	8384.07
514.664	8403.06
515.032	8455.71
515.4	8548.14
515.767	8504.3
516.135	8598.53
516.502	8610.51
516.869	8754.46
517.237	8804.85
517.604	8794.91
517.972	8835.13
518.339	8909.26
518.706	8933.89
519.073	9047.56
519.44	9092.3
519.808	9125.97
520.175	9193.09
520.542	9292.3
520.909	9339.98
521.276	9376.59
521.643	9434.67
522.009	9552.18
522.376	9635.11
522.743	9654.77
523.11	9746.3
523.477	9839.63
523.843	9944.03
524.21	10013.64
524.577	10102.22
524.943	10172.05
525.31	10213.18
525.676	10306.51
526.043	10405.72
526.409	10443.45
526.776	10461.31
527.142	10557.8
527.508	10568.2
527.874	10668.99
528.241	10792.37
528.607	10832.82
528.973	10945.81
529.339	10939.26
529.705	11065.36
530.071	11189.88
530.437	11124.57
530.803	11244.34
531.169	11273.94
531.535	11316.43
531.901	11419.25
532.267	11415.86
532.632	11534.5
532.998	11580.83
533.364	11640.48
533.73	11709.41
534.095	11770.42
534.461	11866.47
534.826	11847.49
535.192	11901.72
535.557	11952.57
535.923	11997.99
536.288	12041.15
536.653	12151.66
537.019	12139.45
537.384	12230.53
537.749	12223.07
538.114	12244.99
538.479	12337.19
538.845	12460.58
539.21	12415.38
539.575	12436.85
539.94	12395.49
540.305	12628.71
540.67	12637.97
541.034	12615.83
541.399	12678.88
541.764	12772.88
542.129	12842.71
542.494	12836.16
542.858	12895.14
543.223	12934.01
543.587	12995.48
543.952	12968.13
544.316	12975.14
544.681	13096.72
545.045	13149.82
545.41	13251.06
545.774	13246.09
546.138	13236.83
546.503	13354.56
546.867	13368.35
547.231	13506.88
547.595	13557.27
547.959	13637.95
548.324	13561.11
548.688	13612.18
549.052	13591.17
549.416	13680.43
549.779	13733.09
550.143	13750.49
550.507	13921.33
550.871	13985.28
551.235	13917.71
551.599	14125.39
551.962	14133.07
552.326	14111.15
552.689	14234.09
553.053	14187.54
553.417	14238.38
553.78	14371.71
554.143	14428.21
554.507	14426.63
554.87	14505.95
555.234	14585.04
555.597	14582.78
555.96	14693.51
556.323	14798.59
556.686	14824.58
557.05	14952.04
557.413	14978.02
557.776	15032.49
558.139	15102.09
558.502	15100.05
558.865	15168.75
559.228	15339.14
559.59	15383.66
559.953	15366.26
560.316	15518.12
560.679	15518.35
561.041	15611.45
561.404	15774.16
561.767	15909.3
562.129	15823.43
562.492	16041.73
562.854	16010.77
563.217	15985.46
563.579	16049.41
563.941	16191.1
564.304	16289.85
564.666	16312.68
565.028	16362.85
565.39	16488.04
565.753	16591.54
566.115	16672.89
566.477	16638.55
566.839	16766.23
567.201	16824.53
567.563	16958.31
567.925	17043.05
568.287	16937.75
568.648	16996.5
569.01	17093.9
569.372	17213.22
569.734	17247.34
570.095	17301.13
570.457	17362.59
570.819	17391.29
571.18	17552.65
571.542	17618.41
571.903	17587.67
572.265	17656.6
572.626	17814.33
572.987	17763.04
573.349	17778.18
573.71	17892.75
574.071	17884.61
574.432	17882.81
574.794	18118.96
575.155	18090.03
575.516	18008.68
575.877	18191.73
576.238	18130.71
576.599	18286.64
576.96	18292.51
577.32	18290.25
577.681	18355.56
578.042	18428.55
578.403	18388.78
578.763	18330.93
579.124	18421.32
579.485	18512.39
579.845	18565.95
580.206	18545.84
580.566	18552.85
580.927	18492.51
581.287	18656.57
581.648	18623.35
582.008	18684.59
582.368	18550.13
582.728	18697.02
583.089	18658.15
583.449	18598.49
583.809	18648.44
584.169	18708.55
584.529	18680.98
584.889	18766.4
585.249	18626.74
585.609	18707.42
585.969	18772.73
586.329	18757.81
586.688	18812.27
587.048	18784.48
587.408	18673.07
587.768	18769.11
588.127	18702.45
588.487	18640.53
588.846	18885.94
589.206	18765.95
589.565	18836.45
589.925	18932.72
590.284	18810.47
590.643	18762.33
591.003	19002.1
591.362	18964.81
591.721	19004.81
592.08	18902.21
592.44	19077.13
592.799	19128.42
593.158	19090.46
593.517	19037.8
593.876	19101.31
594.235	18962.55
594.593	19105.37
594.952	19217.91
595.311	18941.08
595.67	19143.56
596.029	19251.13
596.387	19227.4
596.746	19287.74
597.104	19151.7
597.463	19247.97
597.822	19338.81
598.18	19271.47
598.538	19233.28
598.897	19354.18
599.255	19223.56
599.613	19491.13
599.972	19381.98
600.33	19511.46
600.688	19362.32
601.046	19477.11
601.404	19547.4
601.762	19537.45
602.12	19626.94
602.478	19679.14
602.836	19559.15
603.194	19437.79
603.552	19665.58
603.91	19516.44
604.268	19581.52
604.625	19530.67
604.983	19656.77
605.341	19565.25
605.698	19622.87
606.056	19649.99
606.413	19627.62
606.771	19750.78
607.128	19689.76
607.485	19661.97
607.843	19652.03
608.2	19725.92
608.557	19770.67
608.914	19796.2
609.272	19821.51
609.629	19770.44
609.986	19818.8
610.343	19793.49
610.7	19919.36
611.057	19955.75
611.414	19927.05
611.771	19854.51
612.127	20017.44
612.484	20035.74
612.841	19946.71
613.198	19988.51
613.554	19900.83
613.911	19954.16
614.267	20023.77
614.624	19998.46
614.98	20070.32
615.337	20050.43
615.693	20059.7
616.05	20113.71
616.406	20146.93
616.762	20101.96
617.118	20038.91
617.475	20143.76
617.831	20096.53
618.187	20186.02
618.543	20178.57
618.899	20253.82
619.255	20238.22
619.611	20198
619.967	20268.05
620.323	20292.46
620.678	20198.23
621.034	20252.46
621.39	20193.93
621.746	20103.99
622.101	20359.58
622.457	20175.63
622.812	20227.6
623.168	20376.3
623.523	20314.61
623.879	20275.06
624.234	20103.09
624.589	20224.21
624.945	20329.52
625.3	20252.46
625.655	20190.54
626.01	20221.05
626.365	20159.81
626.72	20178.79
627.075	20179.92
627.43	20151.22
627.785	20018.12
628.14	20186.02
628.495	20140.6
628.85	20207.04
629.205	20042.75
629.559	20220.6
629.914	20160.71
630.269	20088.62
630.623	20081.84
630.978	20079.36
631.332	20060.6
631.687	20100.6
632.041	20056.99
632.396	20122.3
632.75	19954.39
633.104	19988.74
633.459	19853.15
633.813	19919.82
634.167	19902.64
634.521	19922.53
634.875	19929.31
635.229	19847.05
635.583	19695.41
635.937	19770.44
636.291	19819.25
636.645	19736.32
636.999	19658.13
637.352	19692.48
637.706	19589.2
638.06	19721.63
638.413	19631.46
638.767	19631.91
639.121	19668.97
639.474	19498.81
639.828	19565.25
640.181	19625.36
640.534	19553.5
640.888	19579.49
641.241	19480.28
641.594	19508.75
641.947	19470.34
642.301	19409.77
642.654	19453.39
643.007	19550.11
643.36	19497
643.713	19421.07
644.066	19559.82
644.419	19449.55
644.771	19315.76
645.124	19079.84
645.477	19037.8
645.83	18904.93
646.182	18991.93
646.535	18881.42
646.888	18952.38
647.24	18977.69
647.593	18946.06
647.945	18997.13
648.298	18906.06
648.65	18858.83
649.002	18749.68
649.355	18836.91
649.707	18764.82
650.059	18844.59
650.411	19158.48
650.763	19027.41
651.115	19312.83
651.467	19283.67
651.819	19172.94
652.171	19185.37
652.523	19070.12
652.875	19200.29
653.227	19058.37
653.578	19160.51
653.93	19120.51
654.282	19045.71
654.633	18953.51
654.985	19072.15
655.337	19137.91
655.688	18987.86
656.039	19085.26
656.391	18855.44
656.742	18950.58
657.094	18932.72
657.445	18940.41
657.796	18962.55
658.147	18896.79
658.498	18944.93
658.849	18864.02
659.2	18895.66
659.551	18851.82
659.902	18871.71
660.253	18860.18
660.604	18883.68
660.955	18706.74
661.306	18806.17
661.656	18804.14
662.007	18767.76
662.358	18699.06
662.708	18782.22
663.059	18743.8
663.409	18660.19
663.76	18770.92
664.11	18770.01
664.461	18729.56
664.811	18746.29
665.161	18655.67
665.511	18556.01
665.862	18707.87
666.212	18662.45
666.562	18641.66
666.912	18561.88
667.262	18584.71
667.612	18530.02
667.962	18630.13
668.312	18504.49
668.662	18533.64
669.011	18494.09
669.361	18407.09
669.711	18412.96
670.06	18482.56
670.41	18447.99
670.76	18332.51
671.109	18386.75
671.459	18300.42
671.808	18293.19
672.157	18400.99
672.507	18222.46
672.856	18262.01
673.205	18219.07
673.554	18307.65
673.904	18146.3
674.253	18210.71
674.602	18183.82
674.951	17884.61
675.3	17762.58
675.649	17989.92
675.998	18041.22
676.346	18003.48
676.695	18102.46
677.044	17998.28
677.393	18058.62
677.741	18024.95
678.09	17942.24
678.438	17966.42
678.787	17854.78
679.135	17870.83
679.484	17786.99
679.832	17826.54
680.181	17718.52
680.529	17815.92
680.877	17702.7
681.225	17604.62
681.573	17740.89
681.922	17629.48
682.27	17655.92
682.618	17688.01
682.966	17640.78
683.314	17600.33
683.661	17533.21
684.009	17482.37
684.357	17372.09
684.705	17347.23
685.053	17410.5
685.4	17370.05
685.748	17344.52
686.095	17262.71
686.443	17201.92
686.79	17203.05
687.138	17219.32
687.485	17269.26
687.832	17149.27
688.18	17191.75
688.527	17145.65
688.874	17046.67
689.221	17054.35
689.568	17028.59
689.915	17005.77
690.262	16948.59
690.609	16943.62
690.956	16999.67
691.303	16906.79
691.65	16882.83
691.997	16811.2
692.344	16767.58
692.69	16746.11
693.037	16706.57
693.383	16573.91
693.73	16595.61
694.077	16532.79
694.423	16556.29
694.769	16416.63
695.116	16415.73
695.462	16495.72
695.808	16366.01
696.155	16416.86
696.501	16278.78
696.847	16231.32
697.193	16238.1
697.539	16247.37
697.885	16171.21
698.231	16032.91
698.577	16142.51
698.923	16098.67
699.269	16039.47
699.614	15943.87
699.96	15996.3
700.306	15924.21
700.651	15810.77
700.997	15866.81
701.342	15850.32
701.688	15782.75
702.033	15741.85
702.379	15743.2
702.724	15722.41
703.069	15703.43
703.415	15519.93
703.76	15510.21
704.105	15512.7
704.45	15561.06
704.795	15415.75
705.14	15398.58
705.485	15361.74
705.83	15321.07
706.175	15328.75
706.52	15244.91
706.865	15220.96
707.209	15168.98
707.554	15164.46
707.899	15141.18
708.243	15146.38
708.588	15072.26
708.932	14989.1
709.277	14944.58
709.621	14993.62
709.966	14934.18
710.31	14898.25
710.654	14766.05
710.998	14777.8
711.342	14792.49
711.687	14818.03
712.031	14777.35
712.375	14747.52
712.719	14748.65
713.063	14670.69
713.407	14767.18
713.75	14566.51
714.094	14673.17
714.438	14461.65
714.782	14557.02
715.125	14534.65
715.469	14471.6
715.812	14403.12
716.156	14291.94
716.499	14304.37
716.843	14346.4
717.186	14259.4
717.53	14261.43
717.873	14303.01
718.216	14197.71
718.559	14231.38
718.902	14108.44
719.246	14026.18
719.589	14008.11
719.932	14019.18
720.275	14030.48
720.617	13965.62
720.96	14019.18
721.303	13995
721.646	13995.23
721.989	13922.68
722.331	13896.47
722.674	13890.37
723.016	13852.18
723.359	13785.97
723.701	13814.67
724.044	13706.19
724.386	13705.52
724.729	13735.57
725.071	13656.48
725.413	13625.74
725.755	13575.8
726.097	13636.36
726.439	13523.37
726.782	13560.89
727.124	13628
727.465	13470.49
727.807	13436.14
728.149	13465.3
728.491	13359.08
728.833	13381
729.175	13402.25
729.516	13342.14
729.858	13317.5
730.199	13334.23
730.541	13304.85
730.882	13200.22
731.224	13295.58
731.565	13178.75
731.906	13192.76
732.248	13142.14
732.589	13110.5
732.93	13075.02
733.271	13066.89
733.612	13164.06
733.953	13060.11
734.294	13033.67
734.635	12988.25
734.976	13092.42
735.317	12981.69
735.658	12929.72
735.999	12962.94
736.339	12808.59
736.68	12904.18
737.021	12816.05
737.361	12838.65
737.702	12841.36
738.042	12798.87
738.383	12767.69
738.723	12721.59
739.063	12657.63
739.404	12736.95
739.744	12647.01
740.084	12560.91
740.424	12657.86
740.764	12602.27
741.104	12609.05
741.444	12585.32
741.784	12511.87
742.124	12546.9
742.464	12538.99
742.804	12426.68
743.143	12380.35
743.483	12436.85
743.823	12353.01
744.162	12348.71
744.502	12414.48
744.841	12370.86
745.181	12301.48
745.52	12306
745.86	12320.02
746.199	12343.97
746.538	12290.41
746.877	12275.72
747.216	12228.27
747.556	12188.95
747.895	12122.96
748.234	12124.31
748.573	12112.34
748.911	12063.52
749.25	12079.12
749.589	11995.28
749.928	11988.05
750.267	12149.4
750.605	12044.99
750.944	11965.67
751.283	11945.34
751.621	11929.06
751.96	11832.12
752.298	11886.35
752.636	11838.45
752.975	11736.08
753.313	11759.35
753.651	11822.85
753.989	11786.92
754.327	11707.6
754.666	11690.43
755.004	11619.24
755.342	11682.74
755.679	11620.82
756.017	11623.31
756.355	11616.53
756.693	11500.15
757.031	11496.53
757.368	11479.81
757.706	11457.44
758.044	11495.18
758.381	11414.95
758.719	11349.87
759.056	11400.94
759.394	11261.74
759.731	11237.78
760.068	11190.33
760.405	11216.54
760.743	11181.97
761.08	11139.71
761.417	11090.89
761.754	11049.77
762.091	11083.44
762.428	11015.19
762.765	10955.98
763.102	11028.75
763.438	10947.4
763.775	10911.46
764.112	10907.62
764.449	10930
764.785	10894.29
765.122	10772.71
765.458	10745.82
765.795	10712.15
766.131	10723.67
766.467	10713.5
766.804	10675.31
767.14	10618.36
767.476	10612.94
767.812	10533.85
768.148	10592.38
768.485	10539.27
768.821	10485.04
769.157	10416.11
769.492	10361.87
769.828	10425.6
770.164	10328.43
770.5	10297.47
770.836	10317.81
771.171	10266.06
771.507	10224.25
771.842	10151.26
772.178	10144.25
772.513	10200.97
772.849	10093.41
773.184	10077.36
773.519	10051.37
773.855	9990.36
774.19	9954.65
774.525	9917.37
774.86	9933.86
775.195	9933.64
775.53	9908.55
775.865	9836.01
776.2	9786.3
776.535	9828.33
776.87	9764.83
777.205	9728.67
777.539	9683.7
777.874	9728.22
778.209	9592.63
778.543	9627.66
778.878	9602.8
779.212	9555.12
779.547	9570.93
779.881	9485.97
780.215	9492.52
780.55	9453.65
780.884	9435.12
781.218	9373.65
781.552	9383.82
781.886	9314.22
782.22	9243.94
782.554	9187.22
782.888	9224.28
783.222	9186.31
783.556	9159.42
783.889	9139.31
784.223	9065.19
784.557	9077.39
784.89	9057.73
785.224	8972.76
785.557	8980.44
785.891	8949.26
786.224	8952.65
786.558	8937.05
786.891	8943.15
787.224	8856.83
787.557	8845.98
787.891	8759.2
788.224	8756.04
788.557	8784.29
788.89	8734.8
789.223	8666.1
789.556	8623.84
789.888	8640.56
790.221	8594.92
790.554	8602.82
790.887	8536.84
791.219	8547.91
791.552	8490.06
791.884	8471.75
792.217	8431.53
792.549	8385.88
792.882	8373.23
793.214	8313.34
793.546	8368.71
793.879	8302.04
794.211	8244.87
794.543	8295.26
794.875	8232.66
795.207	8141.14
795.539	8160.12
795.871	8129.62
796.203	8119.45
796.535	8068.38
796.867	8038.55
797.198	8021.6
797.53	8021.6
797.862	8037.42
798.193	7942.5
798.525	7945.44
798.856	7961.49
799.188	7835.61
799.519	7793.35
799.85	7724.66
800.182	7769.17
800.513	7767.59
800.844	7700.93
801.175	7715.62
801.506	7669.06
801.837	7688.5
802.168	7619.35
802.499	7590.42
802.83	7609.63
803.161	7512.01
803.491	7548.16
803.822	7542.29
804.153	7435.85
804.483	7416.42
804.814	7376.64
805.145	7400.6
805.475	7411.67
805.805	7326.47
806.136	7351.56
806.466	7326.02
806.796	7296.64
807.126	7290.99
807.457	7178.91
807.787	7122.86
808.117	7144.33
808.447	7101.85
808.777	7161.73
809.107	7074.28
809.436	7044.22
809.766	7031.11
810.096	7071.11
810.426	6993.83
810.755	7023.66
811.085	6950.66
811.414	6957.22
811.744	6877.67
812.073	6879.48
812.403	6893.72
812.732	6801.74
813.061	6806.94
813.39	6770.56
813.719	6799.48
814.049	6878.35
814.378	6785.25
814.707	6749.77
815.036	6756.09
815.365	6734.4
815.693	6630.9
816.022	6611.24
816.351	6623.89
816.68	6558.13
817.008	6642.42
817.337	6543.44
817.665	6524.24
817.994	6584.8
818.322	6574.4
818.651	6495.99
818.979	6508.64
819.307	6512.03
819.636	6478.13
819.964	6429.55
820.292	6438.81
820.62	6440.62
820.948	6374.86
821.276	6448.08
821.604	6407.18
821.932	6514.97
822.259	6408.53
822.587	6370.11
822.915	6369.89
823.243	6374.18
823.57	6368.76
823.898	6361.75
824.225	6323.34
824.553	6310.23
824.88	6324.69
825.207	6390
825.535	6388.19
825.862	6374.63
826.189	6375.09
826.516	6397.46
826.843	6363.34
827.17	6372.15
827.497	6350
827.824	6342.32
828.151	6391.13
828.478	6383.22
828.805	6346.39
829.131	6359.95
829.458	6337.12
829.785	6310.68
830.111	6332.38
830.438	6315.65
830.764	6337.35
831.09	6397.01
831.417	6341.64
831.743	6352.04
832.069	6353.17
832.395	6306.84
832.722	6379.15
833.048	6343.45
833.374	6316.11
833.7	6294.18
834.026	6364.01
834.351	6311.81
834.677	6317.46
835.003	6347.52
835.329	6308.87
835.654	6280.17
835.98	6260.97
836.306	6288.54
836.631	6265.03
836.956	6323.79
837.282	6293.05
837.607	6278.82
837.932	6217.58
838.258	6259.16
838.583	6256.22
838.908	6154.53
839.233	6174.64
839.558	6134.87
839.883	6190.91
840.208	6180.74
840.533	6186.62
840.858	6180.06
841.182	6231.81
841.507	6176.67
841.832	6111.59
842.156	6101.65
842.481	6145.49
842.805	6055.1
843.13	6073.63
843.454	6086.96
843.778	6097.58
844.103	6068.43
844.427	6035.43
844.751	6042.44
845.075	6025.49
845.399	6012.84
845.723	5984.81
846.047	6018.49
846.371	6016.9
846.695	5956.57
847.019	5945.72
847.343	5906.4
847.666	5874.31
847.99	5864.14
848.313	5832.95
848.637	5839.28
848.96	5823.69
849.284	5790.02
849.607	5785.05
849.931	5784.14
850.254	5740.75
850.577	5742.79
850.9	5711.83
851.223	5720.19
851.546	5665.73
851.869	5606.07
852.192	5651.72
852.515	5597.03
852.838	5602.68
853.161	5580.53
853.483	5552.74
853.806	5459.4
854.129	5475
854.451	5465.73
854.774	5522.91
855.096	5444.04
855.419	5428.67
855.741	5440.87
856.063	5438.16
856.385	5361.55
856.708	5402.23
857.03	5408.78
857.352	5376.92
857.674	5345.51
857.996	5355.23
858.318	5325.17
858.64	5355
858.961	5349.8
859.283	5293.53
859.605	5277.04
859.926	5289.01
860.248	5247.88
860.57	5210.6
860.891	5226.87
861.212	5253.76
861.534	5234.33
861.855	5248.34
862.176	5244.72
862.498	5218.73
862.819	5178.28
863.14	5172.63
863.461	5148.45
863.782	5189.13
864.103	5189.36
864.424	5176.25
864.745	5171.95
865.065	5116.36
865.386	5114.55
865.707	5109.81
866.027	5103.03
866.348	5108.45
866.668	5091.96
866.989	5099.19
867.309	5091.28
867.63	5063.26
867.95	5072.52
868.27	5045.63
868.59	5055.8
868.91	5028.23
869.23	5094.89
869.55	5018.74
869.87	4990.49
870.19	5025.07
870.51	5018.29
870.83	5049.7
871.15	4986.42
871.469	4962.24
871.789	5024.84
872.109	4986.65
872.428	4936.93
872.748	4987.1
873.067	4993.43
873.386	4980.32
873.706	4990.72
874.025	4926.99
874.344	4893.77
874.663	4926.99
874.982	4915.01
875.301	4911.85
875.62	4903.03
875.939	4886.54
876.258	4864.84
876.577	4887.89
876.896	4818.07
877.214	4826.2
877.533	4854.9
877.852	4757.73
878.17	4861.45
878.489	4848.12
878.807	4799.76
879.125	4779.2
879.444	4833.66
879.762	4773.77
880.08	4790.72
880.398	4774.9
880.716	4721.12
881.034	4731.06
881.352	4747.11
881.67	4741.91
881.988	4720.44
882.306	4720.21
882.624	4745.07
882.941	4662.82
883.259	4665.98
883.577	4664.4
883.894	4659.43
884.212	4705.98
884.529	4642.93
884.846	4655.36
885.164	4618.97
885.481	4585.53
885.798	4568.81
886.115	4586.43
886.432	4558.41
886.75	4566.77
887.067	4546.89
887.383	4523.16
887.7	4515.7
888.017	4508.7
888.334	4503.5
888.651	4472.09
888.967	4469.15
889.284	4427.57
889.6	4453.1
889.917	4435.25
890.233	4369.49
890.55	4345.76
890.866	4418.08
891.182	4350.73
891.498	4360.68
891.815	4338.76
892.131	4325.42
892.447	4276.84
892.763	4303.28
893.079	4329.26
893.395	4294.46
893.71	4250.4
894.026	4260.79
894.342	4215.82
894.657	4211.75
894.973	4207.01
895.289	4185.77
895.604	4158.65
895.92	4186.22
896.235	4103.28
896.55	4110.51
896.865	4126.33
897.181	4105.32
897.496	4075.49
897.811	4053.11
898.126	4080.91
898.441	4019.67
898.756	4057.41
899.071	4012.89
899.386	4040.68
899.7	3954.36
900.015	3974.25
900.33	3935.15
900.644	3940.57
900.959	3960.23
901.273	3970.4
901.588	3854.93
901.902	3830.29
902.216	3791.65
902.531	3839.56
902.845	3804.53
903.159	3795.72
903.473	3793.01
903.787	3799.79
904.101	3769.96
904.415	3753.69
904.729	3737.64
905.042	3716.4
905.356	3716.17
905.67	3682.28
905.984	3685.44
906.297	3682.28
906.611	3680.24
906.924	3657.42
907.237	3599.11
907.551	3627.14
907.864	3606.12
908.177	3549.62
908.491	3576.52
908.804	3541.71
909.117	3576.06
909.43	3539.68
909.743	3513.47
910.056	3496.29
910.368	3494.03
910.681	3460.81
910.994	3467.37
911.307	3475.05
911.619	3434.6
911.932	3437.31
912.244	3362.51
912.557	3405.67
912.869	3390.76
913.181	3370.19
913.494	3310.76
913.806	3308.27
914.118	3355.73
914.43	3301.72
914.742	3312.12
915.054	3284.09
915.366	3248.16
915.678	3285.45
915.99	3278.67
916.302	3219.92
916.613	3263.3
916.925	3224.89
917.236	3221.05
917.548	3246.13
917.859	3193.93
918.171	3187.15
918.482	3137.88
918.794	3129.07
919.105	3138.34
919.416	3107.6
919.727	3052.91
920.038	3066.93
920.349	3063.76
920.66	3034.61
920.971	3018.56
921.282	3082.29
921.593	3038.23
921.903	3023.31
922.214	2960.04
922.525	2978.34
922.835	2944.44
923.146	2946.02
923.456	2954.84
923.767	2948.51
924.077	2918.91
924.387	2951.22
924.697	2928.85
925.008	2912.35
925.318	2882.75
925.628	2919.36
925.938	2858.57
926.248	2848.17
926.558	2853.82
926.867	2839.13
927.177	2812.92
927.487	2799.14
927.796	2790.32
928.106	2784.9
928.416	2789.42
928.725	2792.81
929.034	2779.25
929.344	2743.09
929.653	2716.88
929.962	2680.04
930.271	2711.68
930.581	2652.92
930.89	2700.83
931.199	2682.3
931.508	2669.87
931.817	2720.95
932.125	2653.15
932.434	2664.22
932.743	2625.81
933.051	2602.08
933.36	2563.89
933.669	2583.32
933.977	2583.77
934.286	2565.24
934.594	2587.84
934.902	2555.75
935.21	2546.03
935.519	2527.96
935.827	2551.91
936.135	2496.77
936.443	2488.41
936.751	2467.84
937.059	2455.19
937.367	2461.07
937.674	2509.65
937.982	2480.27
938.29	2466.94
938.597	2438.47
938.905	2447.05
939.213	2432.14
939.52	2398.69
939.827	2417
940.135	2409.32
940.442	2428.3
940.749	2375.19
941.056	2387.62
941.363	2332.93
941.67	2392.59
941.977	2371.12
942.284	2360.28
942.591	2305.14
942.898	2337.9
943.205	2328.19
943.511	2347.4
943.818	2373.61
944.125	2287.06
944.431	2278.02
944.738	2264.91
945.044	2269.66
945.35	2230.56
945.657	2268.08
945.963	2265.14
946.269	2260.17
946.575	2218.81
946.881	2232.37
947.187	2212.48
947.493	2213.39
947.799	2202.31
948.105	2180.62
948.41	2155.99
948.716	2184.01
949.022	2167.29
949.327	2177.68
949.633	2094.52
949.938	2145.37
950.244	2151.92
950.549	2103.33
950.854	2135.42
951.16	2103.56
951.465	2092.71
951.77	2086.39
952.075	2102.43
952.38	2062.21
952.685	2059.49
952.99	2071.02
953.294	2049.55
953.599	2065.6
953.904	2023.11
954.209	2034.18
954.513	2015.43
954.818	2030.79
955.122	2024.69
955.426	1999.16
955.731	1990.12
956.035	1981.76
956.339	1994.86
956.643	1968.42
956.948	1989.89
957.252	1987.41
957.556	1949.67
957.86	1919.84
958.163	1954.86
958.467	1944.47
958.771	1930.46
959.075	1945.37
959.378	1923.68
959.682	1911.48
959.985	1918.03
960.289	1903.34
960.592	1900.4
960.896	1870.57
961.199	1898.59
961.502	1894.53
961.805	1860.63
962.108	1866.5
962.411	1844.81
962.714	1817.69
963.017	1818.37
963.32	1839.84
963.623	1814.53
963.926	1833.29
964.228	1797.58
964.531	1784.25
964.833	1828.99
965.136	1773.17
965.438	1789.44
965.741	1758.03
966.043	1785.6
966.345	1756.23
966.648	1756.45
966.95	1762.55
967.252	1747.86
967.554	1706.96
967.856	1724.36
968.158	1729.56
968.46	1704.7
968.761	1719.62
969.063	1711.48
969.365	1707.41
969.666	1666.51
969.968	1692.95
970.269	1683.46
970.571	1669
970.872	1656.11
971.174	1693.85
971.475	1633.52
971.776	1634.19
972.077	1635.78
972.378	1645.04
972.679	1646.62
972.98	1600.07
973.281	1586.96
973.582	1610.69
973.883	1605.49
974.183	1597.36
974.484	1605.49
974.785	1583.35
975.085	1562.78
975.386	1605.04
975.686	1555.55
975.986	1553.74
976.287	1546.74
976.587	1562.78
976.887	1560.52
977.187	1549.45
977.487	1541.77
977.787	1524.37
978.087	1546.74
978.387	1533.63
978.687	1529.56
978.987	1521.43
979.286	1515.55
979.586	1500.41
979.885	1503.8
980.185	1482.56
980.484	1457.93
980.784	1485.5
981.083	1476.23
981.382	1473.29
981.682	1480.75
981.981	1455.67
982.28	1448.66
982.579	1412.73
982.878	1442.11
983.177	1448.89
983.475	1442.56
983.774	1435.78
984.073	1430.13
984.372	1417.25
984.67	1417.7
984.969	1395.1
985.267	1385.84
985.566	1384.71
985.864	1380.64
986.162	1383.13
986.461	1396.01
986.759	1340.87
987.057	1361.66
987.355	1356.91
987.653	1320.98
987.951	1343.58
988.249	1344.71
988.547	1335.67
988.844	1357.82
989.142	1323.47
989.44	1332.28
989.737	1313.52
990.035	1302.9
990.332	1275.79
990.63	1308.1
990.927	1296.12
991.224	1273.53
991.521	1282.34
991.819	1273.75
992.116	1266.75
992.413	1268.1
992.71	1254.54
993.006	1271.27
993.303	1236.46
993.6	1255.22
993.897	1229.91
994.193	1244.15
994.49	1234.66
994.787	1214.32
995.083	1239.4
995.379	1245.73
995.676	1173.64
995.972	1191.95
996.268	1198.05
996.565	1179.29
996.861	1178.61
997.157	1170.03
997.453	1182.23
997.749	1185.84
998.044	1163.7
998.34	1145.39
998.636	1144.72
998.932	1134.09
999.227	1134.09
999.523	1149.69
999.818	1142
1000.114	1127.77
1000.409	1100.2
1000.704	1114.89
1001	1121.44
1001.295	1118.28
1001.59	1070.82
1001.885	1085.28
1002.18	1083.7
1002.475	1064.72
1002.77	1078.95
1003.065	1078.05
1003.359	1062.23
1003.654	1054.32
1003.949	1077.6
1004.243	1046.19
1004.538	1054.32
1004.832	1040.99
1005.127	1035.34
1005.421	1031.05
1005.715	1016.36
1006.009	1043.48
1006.304	992.63
1006.598	1025.85
1006.892	1003.48
1007.186	1029.92
1007.48	1006.87
1007.773	977.04
1008.067	984.95
1008.361	1000.54
1008.655	977.71
1008.948	970.48
1009.242	955.79
1009.535	960.99
1009.829	934.33
1010.122	955.57
1010.415	938.62
1010.708	948.34
1011.001	931.84
1011.295	931.84
1011.588	925.96
1011.881	927.55
1012.173	888.68
1012.466	927.32
1012.759	908.79
1013.052	900.65
1013.344	918.51
1013.637	887.32
1013.93	881.22
1014.222	891.84
1014.514	870.6
1014.807	860.88
1015.099	875.57
1015.391	873.08
1015.683	885.29
1015.976	867.66
1016.268	865.85
1016.56	849.81
1016.851	852.07
1017.143	826.98
1017.435	828.57
1017.727	821.56
1018.018	828.57
1018.31	860.66
1018.602	833.09
1018.893	816.59
1019.185	829.92
1019.476	829.02
1019.767	782.92
1020.058	811.84
1020.35	801.67
1020.641	784.05
1020.932	768.68
1021.223	792.63
1021.514	785.4
1021.804	800.54
1022.095	746.53
1022.386	753.09
1022.677	762.35
1022.967	755.35
1023.258	758.96
1023.548	746.53
1023.839	745.63
1024.129	740.88
1024.419	747.66
1024.709	719.42
1025	746.31
1025.29	753.54
1025.58	700.43
1025.87	719.87
1026.16	733.65
1026.449	718.51
1026.739	692.07
1027.029	708.34
1027.319	699.3
1027.608	702.69
1027.898	685.52
1028.187	702.02
1028.477	675.58
1028.766	655.91
1029.055	662.69
1029.344	686.65
1029.634	662.92
1029.923	667.44
1030.212	653.2
1030.501	643.03
1030.79	648.23
1031.078	673.77
1031.367	643.94
1031.656	657.95
1031.945	653.43
1032.233	625.63
1032.522	650.72
1032.81	658.85
1033.099	629.7
1033.387	641.68
1033.675	642.36
1033.963	625.63
1034.251	626.09
1034.54	635.35
1034.828	608.23
1035.116	613.43
1035.403	612.75
1035.691	655.91
1035.979	589.02
1036.267	610.72
1036.554	583.83
1036.842	633.09
1037.129	592.19
1037.417	593.54
1037.704	566.2
1037.992	572.3
1038.279	574.79
1038.566	583.6
1038.853	583.6
1039.14	583.6
