Data from foam_black_FLMS001491_00045.txt Node
Date: Wed Feb 08 10:43:57 GMT 2017
User: dcchb
Spectrometer: FLMS00149
Trigger mode: 0
Integration Time (sec): 2.000000E-2
Scans to average: 10
Electric dark correction enabled: true
Nonlinearity correction enabled: false
Boxcar width: 0
XAxis mode: Wavelengths
Number of Pixels in Spectrum: 2048
>>>>>Begin Spectral Data<<<<<
341.393	-29.94
341.776	-29.94
342.16	-29.94
342.543	-47.8
342.927	-47.8
343.31	-81.92
343.693	-81.01
344.077	-68.13
344.46	-62.94
344.843	-49.38
345.226	-29.49
345.61	-30.62
345.993	-17.51
346.376	-11.41
346.759	25.2
347.142	27.68
347.525	63.84
347.908	57.06
348.291	80.34
348.674	92.99
349.057	85.31
349.44	126.44
349.823	160.79
350.206	174.35
350.588	170.73
350.971	209.82
351.354	217.73
351.737	254.8
352.119	252.76
352.502	253.89
352.884	272.42
353.267	291.86
353.65	303.38
354.032	298.86
354.414	310.61
354.797	332.08
355.179	301.57
355.562	334.34
355.944	322.36
356.326	321.46
356.709	311.97
357.091	329.6
357.473	336.38
357.855	347.9
358.238	317.17
358.62	337.96
359.002	352.42
359.384	346.77
359.766	323.95
360.148	332.53
360.53	325.3
360.912	331.63
361.294	350.61
361.676	316.94
362.057	333.66
362.439	334.57
362.821	313.78
363.203	330.05
363.584	301.8
363.966	309.26
364.348	324.17
364.729	326.21
365.111	309.26
365.493	332.08
365.874	325.3
366.256	313.78
366.637	330.05
367.019	316.49
367.4	328.01
367.781	308.81
368.163	304.51
368.544	301.8
368.925	318.3
369.306	332.99
369.688	314.91
370.069	321.46
370.45	316.04
370.831	307.45
371.212	307.22
371.593	322.14
371.974	342.25
372.355	293.21
372.736	323.49
373.117	323.04
373.498	309.03
373.879	303.83
374.26	313.1
374.641	315.81
375.021	319.2
375.402	336.38
375.783	332.31
376.163	349.26
376.544	346.77
376.925	356.49
377.305	348.35
377.686	352.87
378.066	357.39
378.447	334.34
378.827	339.99
379.208	342.7
379.588	350.84
379.968	332.76
380.349	340.67
380.729	337.51
381.109	335.7
381.489	353.55
381.87	370.95
382.25	371.63
382.63	346.54
383.01	367.33
383.39	365.08
383.77	350.39
384.15	341.35
384.53	358.52
384.91	361.91
385.29	370.27
385.67	383.15
386.049	390.61
386.429	371.85
386.809	368.24
387.189	378.41
387.568	367.56
387.948	377.05
388.328	378.63
388.707	382.48
389.087	389.26
389.466	389.26
389.846	399.2
390.225	400.78
390.605	410.05
390.984	384.74
391.363	389.48
391.743	379.76
392.122	398.75
392.501	405.53
392.881	409.59
393.26	395.58
393.639	397.16
394.018	396.94
394.397	411.4
394.776	387.45
395.155	422.02
395.534	386.77
395.913	390.61
396.292	416.83
396.671	432.19
397.05	424.28
397.429	417.05
397.808	423.15
398.186	411.63
398.565	425.86
398.944	441.91
399.323	436.03
399.701	457.28
400.08	428.35
400.458	439.2
400.837	451.63
401.215	442.36
401.594	463.15
401.972	445.75
402.351	450.5
402.729	441.91
403.107	460.67
403.486	451.63
403.864	459.76
404.242	462.7
404.62	459.76
404.999	446.65
405.377	480.55
405.755	455.24
406.133	478.97
406.511	463.6
406.889	474.22
407.267	501.79
407.645	476.71
408.023	510.38
408.401	506.09
408.779	499.31
409.156	503.6
409.534	519.65
409.912	498.86
410.29	538.63
410.667	532.75
411.045	539.99
411.422	523.72
411.8	528.46
412.178	546.54
412.555	546.09
412.933	540.89
413.31	559.42
413.687	571.85
414.065	554
414.442	554.22
414.819	558.29
415.197	556.71
415.574	579.98
415.951	593.32
416.328	583.83
416.705	610.72
417.082	602.36
417.46	575.69
417.837	612.3
418.214	592.41
418.591	615.69
418.967	583.83
419.344	613.66
419.721	612.3
420.098	618.85
420.475	625.63
420.852	606.2
421.228	631.51
421.605	633.32
421.982	651.17
422.358	640.77
422.735	665.41
423.111	677.84
423.488	685.97
423.864	644.84
424.241	671.28
424.617	643.94
424.994	669.25
425.37	668.34
425.746	692.75
426.123	698.4
426.499	695.01
426.875	691.62
427.251	708.57
427.627	696.37
428.003	741.34
428.379	730.94
428.756	717.38
429.132	743.14
429.507	727.1
429.883	749.7
430.259	763.93
430.635	749.92
431.011	764.16
431.387	773.65
431.763	798.51
432.138	789.7
432.514	782.01
432.89	809.81
433.265	831.5
433.641	796.48
434.016	831.5
434.392	821.79
434.767	823.37
435.143	813.2
435.518	851.62
435.894	859.53
436.269	850.49
436.644	873.31
437.02	884.16
437.395	878.06
437.77	872.41
438.145	909.47
438.52	887.55
438.895	894.1
439.271	900.65
439.646	947.43
440.021	933.87
440.395	927.09
440.77	936.13
441.145	937.26
441.52	993.08
441.895	958.51
442.27	960.77
442.645	958.73
443.019	969.13
443.394	952.86
443.769	985.17
444.143	965.74
444.518	998.05
444.892	982.01
445.267	980.88
445.641	1009.13
446.016	1023.59
446.39	1017.71
446.764	1035.34
447.139	1025.4
447.513	1045.96
447.887	1035.11
448.262	1036.24
448.636	1037.83
449.01	1075.56
449.384	1062.23
449.758	1081.89
450.132	1059.52
450.506	1082.8
450.88	1075.56
451.254	1097.49
451.628	1106.98
452.002	1126.41
452.376	1114.21
452.75	1142.91
453.123	1137.03
453.497	1159.4
453.871	1159.4
454.244	1156.01
454.618	1196.01
454.992	1182.68
455.365	1193.08
455.739	1219.97
456.112	1234.43
456.486	1248.22
456.859	1245.96
457.232	1269.68
457.606	1251.61
457.979	1291.83
458.352	1294.99
458.725	1320.76
459.099	1298.84
459.472	1353.07
459.845	1384.03
460.218	1352.39
460.591	1387.87
460.964	1404.82
461.337	1410.7
461.71	1431.71
462.083	1462.22
462.456	1433.07
462.829	1455.22
463.201	1483.92
463.574	1473.75
463.947	1502.22
464.32	1515.55
464.692	1535.21
465.065	1533.63
465.438	1553.74
465.81	1571.15
466.183	1610.92
466.555	1618.83
466.928	1610.24
467.3	1646.17
467.672	1635.78
468.045	1645.49
468.417	1672.39
468.789	1717.36
469.161	1732.27
469.534	1752.61
469.906	1773.4
470.278	1796
470.65	1814.75
471.022	1808.65
471.394	1850.23
471.766	1880.97
472.138	1897.24
472.51	1934.75
472.882	1924.81
473.253	1986.5
473.625	1998.7
473.997	2044.35
474.369	2051.36
474.74	2051.36
475.112	2099.94
475.484	2115.54
475.855	2169.1
476.227	2193.28
476.598	2224.46
476.97	2270.79
477.341	2297.23
477.713	2331.8
478.084	2348.3
478.455	2351.92
478.827	2399.6
479.198	2468.52
479.569	2428.75
479.94	2513.95
480.311	2520.5
480.682	2573.38
481.053	2625.81
481.424	2619.71
481.795	2693.38
482.166	2716.88
482.537	2798.23
482.908	2793.26
483.279	2831
483.65	2905.12
484.021	2963.65
484.391	2972.24
484.762	3048.85
485.133	3025.34
485.503	3122.06
485.874	3115.51
486.244	3141.27
486.615	3262.63
486.985	3244.55
487.356	3302.4
487.726	3331.78
488.097	3377.88
488.467	3383.3
488.837	3453.81
489.207	3455.84
489.578	3542.17
489.948	3583.75
490.318	3613.58
490.688	3629.62
491.058	3667.14
491.428	3714.82
491.798	3697.64
492.168	3845.66
492.538	3782.61
492.908	3899.9
493.278	3890.18
493.648	3909.61
494.017	3975.6
494.387	4000.46
494.757	4046.79
495.126	4064.19
495.496	4097.18
495.866	4121.81
496.235	4184.18
496.605	4210.85
496.974	4265.54
497.344	4291.53
497.713	4332.2
498.082	4310.96
498.452	4369.04
498.821	4417.62
499.19	4424.86
499.559	4474.8
499.928	4512.08
500.298	4484.74
500.667	4601.8
501.036	4529.71
501.405	4628.24
501.774	4639.77
502.143	4680.22
502.512	4693.1
502.88	4757.05
503.249	4728.35
503.618	4769.03
503.987	4780.33
504.356	4870.95
504.724	4845.18
505.093	4835.47
505.462	4898.06
505.83	4890.38
506.199	4926.99
506.567	4957.72
506.936	5006.31
507.304	5045.18
507.672	5086.76
508.041	5096.25
508.409	5184.16
508.777	5117.04
509.145	5228.22
509.514	5152.97
509.882	5253.08
510.25	5279.3
510.618	5318.39
510.986	5367.66
511.354	5417.82
511.722	5438.84
512.09	5524.49
512.458	5511.83
512.826	5580.98
513.193	5612.39
513.561	5578.5
513.929	5714.99
514.297	5707.08
514.664	5771.49
515.032	5816.01
515.4	5898.26
515.767	5859.39
516.135	5954.08
516.502	5863.46
516.869	6001.54
517.237	6017.81
517.604	6056.68
517.972	6097.81
518.339	6161.08
518.706	6231.14
519.073	6230.01
519.44	6210.57
519.808	6295.54
520.175	6304.81
520.542	6340.96
520.909	6417.12
521.276	6418.48
521.643	6523.78
522.009	6550
522.376	6630
522.743	6689.43
523.11	6695.98
523.477	6755.87
523.843	6831.57
524.21	6839.26
524.577	6946.6
524.943	6952.25
525.31	7002.64
525.676	7103.2
526.043	7132.81
526.409	7150.43
526.776	7246.7
527.142	7289.41
527.508	7320.6
527.874	7379.35
528.241	7430.43
528.607	7423.65
528.973	7575.73
529.339	7547.94
529.705	7645.56
530.071	7680.59
530.437	7662.06
530.803	7759.46
531.169	7748.38
531.535	7740.02
531.901	7865.22
532.267	7869.96
532.632	7939.11
532.998	7942.28
533.364	7970.98
533.73	8048.71
534.095	8077.19
534.461	8108.15
534.826	8112.44
535.192	8149.96
535.557	8154.93
535.923	8187.02
536.288	8282.61
536.653	8279.9
537.019	8300.01
537.384	8305.66
537.749	8408.71
538.114	8436.28
538.479	8485.77
538.845	8528.02
539.21	8540.68
539.575	8566.67
539.94	8624.74
540.305	8672.65
540.67	8700
541.034	8756.94
541.399	8838.75
541.764	8810.73
542.129	8917.84
542.494	8933.21
542.858	8921.23
543.223	8985.87
543.587	8990.61
543.952	9047.78
544.316	9102.25
544.681	9081.46
545.045	9135.92
545.41	9199.19
545.774	9240.77
546.138	9205.75
546.503	9298.85
546.867	9323.94
547.231	9311.73
547.595	9382.24
547.959	9354.22
548.324	9398.96
548.688	9388.11
549.052	9467.43
549.416	9474.21
549.779	9541.33
550.143	9507.89
550.507	9559.41
550.871	9615.23
551.235	9633.31
551.599	9736.13
551.962	9757.82
552.326	9847.99
552.689	9925.95
553.053	9902.45
553.417	9901.32
553.78	10025.16
554.143	9999.4
554.507	10007.99
554.87	9999.62
555.234	10119.17
555.597	10160.3
555.96	10175.89
556.323	10233.74
556.686	10277.58
557.05	10353.74
557.413	10340.18
557.776	10414.08
558.139	10488.42
558.502	10554.86
558.865	10478.03
559.228	10651.13
559.59	10670.34
559.953	10665.6
560.316	10761.19
560.679	10855.19
561.041	10869.66
561.404	10881.41
561.767	11002.76
562.129	10980.16
562.492	11090.22
562.854	11099.48
563.217	11169.76
563.579	11176.99
563.941	11243.43
564.304	11314.17
564.666	11401.85
565.028	11539.24
565.39	11463.31
565.753	11614.5
566.115	11606.81
566.477	11693.59
566.839	11739.01
567.201	11799.8
567.563	11838.45
567.925	11955.28
568.287	11979.46
568.648	12028.5
569.01	12131.32
569.372	12175.84
569.734	12194.14
570.095	12292.22
570.457	12308.26
570.819	12357.53
571.18	12376.74
571.542	12398.66
571.903	12454.02
572.265	12515.49
572.626	12524.98
572.987	12562.95
573.349	12599.78
573.71	12721.59
574.071	12762.26
574.432	12815.14
574.794	12923.16
575.155	12801.36
575.516	12814.69
575.877	12843.62
576.238	12898.76
576.599	12909.15
576.96	12934.46
577.32	12918.64
577.681	13001.81
578.042	13048.13
578.403	13001.13
578.763	12969.26
579.124	13034.57
579.485	13146.21
579.845	13112.99
580.206	13134.91
580.566	13133.78
580.927	13193.66
581.287	13203.83
581.648	13128.13
582.008	13182.82
582.368	13187.11
582.728	13258.75
583.089	13249.03
583.449	13174.68
583.809	13231.63
584.169	13282.93
584.529	13240.22
584.889	13325.19
585.249	13251.06
585.609	13254.68
585.969	13342.14
586.329	13310.5
586.688	13350.04
587.048	13363.6
587.408	13354.56
587.768	13344.62
588.127	13279.54
588.487	13319.99
588.846	13441.57
589.206	13404.96
589.565	13360.67
589.925	13524.05
590.284	13444.51
590.643	13491.51
591.003	13512.53
591.362	13533.77
591.721	13557.5
592.08	13607.66
592.44	13621.22
592.799	13591.39
593.158	13654.44
593.517	13563.37
593.876	13586.2
594.235	13566.31
594.593	13590.94
594.952	13677.49
595.311	13657.16
595.67	13685.4
596.029	13752.75
596.387	13701.45
596.746	13670.26
597.104	13713.2
597.463	13679.08
597.822	13814.89
598.18	13782.35
598.538	13699.64
598.897	13823.03
599.255	13675.23
599.613	13845.4
599.972	13724.95
600.33	13780.54
600.688	13773.54
601.046	13803.14
601.404	13865.29
601.762	13850.6
602.12	13911.39
602.478	13916.81
602.836	13845.4
603.194	13874.32
603.552	13779.41
603.91	13807.21
604.268	13837.26
604.625	13846.98
604.983	13925.62
605.341	13852.4
605.698	13911.39
606.056	13929.46
606.413	13944.61
606.771	13991.38
607.128	14057.37
607.485	13965.4
607.843	13935.34
608.2	14093.53
608.557	14047.88
608.914	14066.41
609.272	14125.39
609.629	14145.73
609.986	14223.92
610.343	14143.24
610.7	14227.54
611.057	14233.19
611.414	14204.26
611.771	14244.26
612.127	14241.77
612.484	14204.49
612.841	14332.17
613.198	14325.61
613.554	14288.55
613.911	14354.54
614.267	14340.3
614.624	14341.66
614.98	14373.29
615.337	14450.58
615.693	14478.15
616.05	14368.32
616.406	14551.59
616.762	14516.12
617.118	14456.68
617.475	14549.79
617.831	14646.51
618.187	14624.36
618.543	14606.06
618.899	14734.19
619.255	14655.32
619.611	14628.2
619.967	14701.87
620.323	14791.59
620.678	14716.56
621.034	14659.16
621.39	14660.74
621.746	14605.38
622.101	14845.82
622.457	14735.54
622.812	14730.57
623.168	14675.21
623.523	14732.61
623.879	14846.95
624.234	14658.26
624.589	14771.93
624.945	14736.45
625.3	14742.1
625.655	14743.68
626.01	14790.46
626.365	14726.51
626.72	14754.3
627.075	14730.12
627.43	14709.1
627.785	14788.88
628.14	14746.84
628.495	14744.13
628.85	14682.21
629.205	14726.05
629.559	14789.1
629.914	14723.57
630.269	14679.05
630.623	14659.84
630.978	14588.66
631.332	14668.65
631.687	14596.34
632.041	14627.98
632.396	14628.2
632.75	14535.32
633.104	14645.15
633.459	14502.78
633.813	14464.82
634.167	14478.38
634.521	14463.91
634.875	14463.46
635.229	14474.76
635.583	14426.4
635.937	14529.67
636.291	14432.28
636.645	14435.21
636.999	14456.91
637.352	14489.68
637.706	14278.16
638.06	14345.27
638.413	14271.6
638.767	14304.37
639.121	14327.19
639.474	14268.66
639.828	14310.47
640.181	14358.15
640.534	14335.33
640.888	14227.31
641.241	14098.27
641.594	14219.17
641.947	14270.25
642.301	14189.8
642.654	14289.23
643.007	14262.11
643.36	14262.11
643.713	14176.92
644.066	14214.65
644.419	14008.33
644.771	13940.76
645.124	13901.89
645.477	13924.27
645.83	13802.01
646.182	13812.18
646.535	13726.53
646.888	13798.85
647.24	13683.37
647.593	13816.7
647.945	13766.98
648.298	13668.91
648.65	13656.48
649.002	13712.07
649.355	13674.1
649.707	13594.11
650.059	13577.16
650.411	13767.66
650.763	13824.61
651.115	13994.55
651.467	13972.63
651.819	13862.57
652.171	13844.72
652.523	13882.23
652.875	13808.79
653.227	13806.53
653.578	13864.83
653.93	13836.59
654.282	13742.12
654.633	13720.66
654.985	13734.22
655.337	13736.7
655.688	13691.5
656.039	13743.25
656.391	13666.65
656.742	13698.74
657.094	13686.98
657.445	13703.03
657.796	13679.3
658.147	13674.1
658.498	13684.5
658.849	13702.35
659.2	13705.97
659.551	13538.51
659.902	13712.75
660.253	13658.28
660.604	13748.68
660.955	13572.64
661.306	13650.38
661.656	13648.12
662.007	13537.38
662.358	13693.09
662.708	13565.41
663.059	13647.89
663.409	13556.82
663.76	13694.89
664.11	13587.78
664.461	13694.89
664.811	13628.68
665.161	13631.39
665.511	13627.55
665.862	13676.59
666.212	13632.07
666.562	13694.89
666.912	13635.91
667.262	13610.38
667.612	13626.2
667.962	13591.17
668.312	13618.06
668.662	13649.7
669.011	13630.49
669.361	13662.58
669.711	13569.7
670.06	13503.49
670.41	13504.16
670.76	13584.39
671.109	13605.63
671.459	13531.96
671.808	13532.19
672.157	13601.11
672.507	13415.35
672.856	13468.69
673.205	13440.44
673.554	13433.21
673.904	13425.3
674.253	13463.49
674.602	13488.8
674.951	13209.94
675.3	13152.08
675.649	13392.08
675.998	13418.29
676.346	13346.43
676.695	13435.01
677.044	13343.04
677.393	13338.29
677.741	13304.4
678.09	13329.03
678.438	13317.73
678.787	13220.78
679.135	13369.25
679.484	13147.79
679.832	13237.05
680.181	13218.52
680.529	13328.12
680.877	13218.3
681.225	13197.51
681.573	13242.02
681.922	13156.15
682.27	13156.15
682.618	13110.73
682.966	13188.69
683.314	13177.39
683.661	13116.38
684.009	13019.21
684.357	12993.9
684.705	13022.6
685.053	12926.55
685.4	13008.81
685.748	12919.32
686.095	12899.66
686.443	12909.38
686.79	12839.32
687.138	12846.1
687.485	12854.24
687.832	12777.63
688.18	12830.74
688.527	12761.81
688.874	12740.57
689.221	12710.29
689.568	12666.45
689.915	12588.26
690.262	12622.61
690.609	12595.26
690.956	12489.5
691.303	12518.65
691.65	12480.46
691.997	12429.84
692.344	12303.07
692.69	12351.65
693.037	12342.61
693.383	12294.48
693.73	12303.97
694.077	12198.44
694.423	12221.94
694.769	12192.33
695.116	12182.62
695.462	12120.02
695.808	12008.61
696.155	12053.13
696.501	11999.12
696.847	11978.56
697.193	11871.21
697.539	11945.79
697.885	11898.33
698.231	11827.6
698.577	11843.42
698.923	11880.7
699.269	11792.12
699.614	11728.84
699.96	11698.11
700.306	11708.51
700.651	11702.63
700.997	11607.27
701.342	11632.8
701.688	11677.77
702.033	11554.61
702.379	11649.75
702.724	11617.21
703.069	11609.75
703.415	11518.91
703.76	11391.45
704.105	11462.41
704.45	11494.05
704.795	11440.26
705.14	11346.93
705.485	11366.59
705.83	11376.54
706.175	11381.06
706.52	11315.3
706.865	11306.93
707.209	11362.07
707.554	11343.32
707.899	11399.81
708.243	11233.49
708.588	11256.54
708.932	11128.86
709.277	11220.83
709.621	11260.38
709.966	11151.91
710.31	11182.42
710.654	11083.89
710.998	11131.57
711.342	11120.27
711.687	11064.45
712.031	11058.13
712.375	10929.77
712.719	11011.8
713.063	11016.09
713.407	10988.52
713.75	10940.39
714.094	10879.83
714.438	10911.69
714.782	10883.67
715.125	10813.16
715.469	10829.21
715.812	10749.21
716.156	10703.33
716.499	10705.37
716.843	10644.58
717.186	10599.61
717.53	10612.94
717.873	10609.33
718.216	10615.43
718.559	10535.66
718.902	10473.06
719.246	10469.67
719.589	10481.19
719.932	10412.49
720.275	10363.68
720.617	10377.47
720.96	10417.24
721.303	10263.57
721.646	10294.98
721.989	10219.73
722.331	10298.15
722.674	10165.27
723.016	10219.05
723.359	10200.07
723.701	10154.2
724.044	10101.32
724.386	10101.99
724.729	10094.76
725.071	10103.35
725.413	10083.69
725.755	10073.75
726.097	9967.08
726.439	10025.61
726.782	9938.38
727.124	9956.01
727.465	9981.09
727.807	9919.4
728.149	9942
728.491	9887.76
728.833	9895.9
729.175	9840.31
729.516	9887.08
729.858	9920.3
730.199	9831.94
730.541	9782.91
730.882	9867.2
731.224	9793.75
731.565	9773.42
731.906	9795.79
732.248	9831.72
732.589	9822.68
732.93	9803.7
733.271	9781.55
733.612	9757.6
733.953	9850.25
734.294	9831.72
734.635	9727.31
734.976	9801.89
735.317	9793.53
735.658	9802.12
735.999	9783.36
736.339	9747.88
736.68	9734.77
737.021	9725.06
737.361	9697.71
737.702	9688.9
738.042	9778.84
738.383	9743.59
738.723	9838.5
739.063	9702.68
739.404	9691.84
739.744	9683.7
740.084	9690.48
740.424	9651.38
740.764	9637.15
741.104	9700.87
741.444	9645.74
741.784	9594.66
742.124	9614.55
742.464	9587.43
742.804	9575
743.143	9537.94
743.483	9550.37
743.823	9423.82
744.162	9515.12
744.502	9464.95
744.841	9458.17
745.181	9463.82
745.52	9377.27
745.86	9446.64
746.199	9317.61
746.538	9325.97
746.877	9372.52
747.216	9429.02
747.556	9329.81
747.895	9308.34
748.234	9241.23
748.573	9225.41
748.911	9236.03
749.25	9199.19
749.589	9183.83
749.928	9228.12
750.267	9217.05
750.605	9130.72
750.944	9130.95
751.283	9085.07
751.621	9097.27
751.96	9121.91
752.298	9023.38
752.636	9146.09
752.975	9026.09
753.313	9029.03
753.651	9055.24
753.989	8986.54
754.327	8968.69
754.666	8921.91
755.004	8900.22
755.342	8886.43
755.679	8833.78
756.017	8881.46
756.355	8842.14
756.693	8827.23
757.031	8858.41
757.368	8701.35
757.706	8776.38
758.044	8772.76
758.381	8756.72
758.719	8718.3
759.056	8730.5
759.394	8688.47
759.731	8682.37
760.068	8669.49
760.405	8587.68
760.743	8592.88
761.08	8566.89
761.417	8561.7
761.754	8445.54
762.091	8477.4
762.428	8523.5
762.765	8423.17
763.102	8422.26
763.438	8419.33
763.775	8339.1
764.112	8385.43
764.449	8325.09
764.785	8274.7
765.122	8322.15
765.458	8248.03
765.795	8233.12
766.131	8273.79
766.467	8213.68
766.804	8153.34
767.14	8114.7
767.476	8114.02
767.812	8082.39
768.148	8109.5
768.485	8022.73
768.821	8022.05
769.157	7997.42
769.492	7938.21
769.828	7933.01
770.164	7836.74
770.5	7904.31
770.836	7862.05
771.171	7798.1
771.507	7773.02
771.842	7755.84
772.178	7736.86
772.513	7740.25
772.849	7699.8
773.184	7637.65
773.519	7726.24
773.855	7626.35
774.19	7567.37
774.525	7506.58
774.86	7547.49
775.195	7531.89
775.53	7450.76
775.865	7448.73
776.2	7428.17
776.535	7380.03
776.87	7342.07
777.205	7333.48
777.539	7304.33
777.874	7304.55
778.209	7209.19
778.543	7174.61
778.878	7103.2
779.212	7158.57
779.547	7136.2
779.881	7113.15
780.215	7060.49
780.55	7039.93
780.884	7003.09
781.218	7011
781.552	6958.57
781.886	6928.52
782.22	6943.66
782.554	6910.67
782.888	6848.75
783.222	6773.72
783.556	6824.79
783.889	6792.7
784.223	6766.26
784.557	6738.01
784.89	6763.32
785.224	6670.9
785.557	6736.89
785.891	6623.44
786.224	6689.2
786.558	6671.8
786.891	6632.93
787.224	6547.51
787.557	6573.73
787.891	6607.62
788.224	6591.58
788.557	6554.52
788.89	6571.92
789.223	6535.76
789.556	6506.38
789.888	6542.54
790.221	6423.9
790.554	6355.88
790.887	6400.17
791.219	6433.16
791.552	6388.65
791.884	6417.8
792.217	6335.99
792.549	6357.23
792.882	6313.62
793.214	6315.88
793.546	6338.48
793.879	6254.19
794.211	6267.29
794.543	6270.68
794.875	6310.68
795.207	6329.66
795.539	6219.61
795.871	6211.93
796.203	6171.02
796.535	6145.04
796.867	6176.67
797.198	6102.33
797.53	6153.62
797.862	6066.62
798.193	6095.09
798.525	6051.48
798.856	6056.9
799.188	6044.93
799.519	6017.81
799.85	5958.37
800.182	5983.23
800.513	5968.77
800.844	5947.53
801.175	5978.26
801.506	5922.22
801.837	5894.42
802.168	5855.1
802.499	5869.11
802.83	5819.85
803.161	5783.01
803.491	5796.34
803.822	5823.46
804.153	5744.37
804.483	5756.57
804.814	5746.18
805.145	5734.65
805.475	5679.74
805.805	5708.66
806.136	5736.91
806.466	5668.44
806.796	5674.99
807.126	5625.95
807.457	5580.53
807.787	5557.93
808.117	5577.59
808.447	5535.11
808.777	5589.8
809.107	5509.12
809.436	5499.63
809.766	5514.54
810.096	5467.31
810.426	5449.46
810.755	5460.53
811.085	5464.15
811.414	5474.32
811.744	5417.15
812.073	5410.82
812.403	5420.54
812.732	5317.71
813.061	5340.31
813.39	5300.99
813.719	5242.24
814.049	5284.49
814.378	5237.94
814.707	5269.58
815.036	5252.63
815.365	5217.83
815.693	5171.05
816.022	5168.34
816.351	5140.77
816.68	5166.98
817.008	5133.54
817.337	5112.29
817.665	5081.34
817.994	5078.85
818.322	5081.79
818.651	5070.94
818.979	5063.26
819.307	5057.83
819.636	5051.96
819.964	4996.37
820.292	5024.39
820.62	5030.04
820.948	5004.05
821.276	5011.05
821.604	4999.3
821.932	4996.14
822.259	4996.59
822.587	5010.6
822.915	4973.77
823.243	4992.52
823.57	4977.61
823.898	5006.76
824.225	4972.86
824.553	4947.1
824.88	4943.71
825.207	4970.6
825.535	4981.22
825.862	4963.82
826.189	4945.52
826.516	5010.38
826.843	4964.73
827.17	4957.5
827.497	4968.34
827.824	5022.81
828.151	4972.41
828.478	4995.24
828.805	5020.32
829.131	4968.57
829.458	4994.11
829.785	4976.48
830.111	4980.77
830.438	4999.53
830.764	4964.73
831.09	5001.34
831.417	4926.09
831.743	4978.06
832.069	4978.06
832.395	4973.77
832.722	4947.33
833.048	4989.81
833.374	4980.77
833.7	4958.17
834.026	4939.42
834.351	4996.14
834.677	4915.01
835.003	5005.18
835.329	4942.58
835.654	4957.27
835.98	4943.71
836.306	4931.51
836.631	4937.38
836.956	4955.24
837.282	4932.19
837.607	4936.25
837.932	4953.43
838.258	4939.19
838.583	4897.16
838.908	4866.88
839.233	4908.46
839.558	4861.91
839.883	4931.73
840.208	4886.09
840.533	4892.64
840.858	4890.61
841.182	4844.73
841.507	4817.39
841.832	4800.44
842.156	4849.7
842.481	4858.74
842.805	4852.41
843.13	4825.07
843.454	4831.62
843.778	4809.25
844.103	4820.78
844.427	4804.51
844.751	4827.1
845.075	4752.3
845.399	4719.54
845.723	4720.89
846.047	4727.22
846.371	4696.26
846.695	4715.24
847.019	4672.98
847.343	4623.27
847.666	4623.49
847.99	4615.81
848.313	4633.66
848.637	4600.67
848.96	4592.99
849.284	4593.66
849.607	4576.26
849.931	4600.44
850.254	4525.64
850.577	4541.24
850.9	4464.63
851.223	4485.42
851.546	4460.79
851.869	4425.76
852.192	4475.02
852.515	4430.05
852.838	4379.88
853.161	4405.42
853.483	4379.21
853.806	4324.52
854.129	4344.18
854.451	4343.05
854.774	4303.5
855.096	4295.59
855.419	4282.26
855.741	4278.87
856.063	4253.11
856.385	4300.56
856.708	4289.49
857.03	4277.51
857.352	4280.23
857.674	4231.41
857.996	4223.28
858.318	4173.79
858.64	4172.88
858.961	4167.01
859.283	4138.08
859.605	4175.6
859.926	4126.11
860.248	4085.2
860.57	4108.03
860.891	4130.17
861.212	4101.7
861.534	4112.32
861.855	4102.6
862.176	4145.54
862.498	4110.29
862.819	4086.79
863.14	4115.94
863.461	4095.37
863.782	4025.32
864.103	4006.11
864.424	4033.68
864.745	4032.1
865.065	3977.18
865.386	3987.35
865.707	3997.75
866.027	3991.42
866.348	3972.21
866.668	3963.62
866.989	3940.8
867.309	3941.93
867.63	3938.54
867.95	3918.88
868.27	3917.3
868.59	3897.41
868.91	3900.8
869.23	3921.14
869.55	3862.16
869.87	3940.57
870.19	3879.78
870.51	3888.6
870.83	3851.09
871.15	3875.49
871.469	3862.16
871.789	3873.23
872.109	3839.33
872.428	3828.26
872.748	3823.06
873.067	3833.68
873.386	3847.7
873.706	3851.31
874.025	3804.98
874.344	3802.72
874.663	3813.35
874.982	3794.82
875.301	3776.74
875.62	3772.44
875.939	3734.03
876.258	3725.21
876.577	3705.55
876.896	3709.17
877.214	3704.87
877.533	3721.6
877.852	3686.12
878.17	3691.32
878.489	3717.08
878.807	3722.28
879.125	3684.76
879.444	3660.81
879.762	3644.08
880.08	3609.06
880.398	3611.54
880.716	3597.76
881.034	3632.56
881.352	3639.79
881.67	3588.04
881.988	3618.55
882.306	3598.21
882.624	3594.59
882.941	3550.3
883.259	3551.88
883.577	3522.96
883.894	3528.38
884.212	3524.77
884.529	3516.86
884.846	3496.74
885.164	3561.38
885.481	3517.08
885.798	3500.81
886.115	3478.44
886.432	3480.7
886.75	3509.85
887.067	3439.12
887.383	3464.2
887.7	3466.24
888.017	3479.57
888.334	3490.64
888.651	3457.65
888.967	3434.82
889.284	3451.1
889.6	3406.58
889.917	3390.08
890.233	3404.32
890.55	3421.04
890.866	3401.15
891.182	3365.22
891.498	3405.67
891.815	3353.02
892.131	3362.51
892.447	3330.19
892.763	3334.49
893.079	3320.7
893.395	3276.41
893.71	3296.07
894.026	3297.43
894.342	3287.71
894.657	3280.93
894.973	3280.93
895.289	3236.64
895.604	3325
895.92	3280.25
896.235	3275.06
896.55	3273.47
896.865	3260.82
897.181	3206.36
897.496	3254.04
897.811	3209.52
898.126	3193.7
898.441	3232.8
898.756	3192.35
899.071	3196.64
899.386	3192.12
899.7	3158.67
900.015	3167.04
900.33	3164.55
900.644	3118.45
900.959	3127.71
901.273	3112.57
901.588	3126.36
901.902	3138.56
902.216	3105.34
902.531	3086.59
902.845	3092.46
903.159	3097.21
903.473	3043.42
903.787	3037.1
904.101	3033.03
904.415	3038.9
904.729	3027.38
905.042	3041.61
905.356	3062.86
905.67	3026.25
905.984	3029.19
906.297	3007.27
906.611	2988.06
906.924	2975.85
907.237	2993.71
907.551	2976.98
907.864	3002.75
908.177	2956.19
908.491	2985.35
908.804	2962.52
909.117	2929.08
909.43	2915.97
909.743	2887.04
910.056	2909.19
910.368	2901.28
910.681	2858.79
910.994	2852.24
911.307	2859.02
911.619	2838.46
911.932	2874.84
912.244	2866.7
912.557	2813.6
912.869	2839.36
913.181	2835.97
913.494	2799.59
913.806	2813.37
914.118	2753.26
914.43	2778.8
914.742	2764.79
915.054	2713.04
915.366	2749.42
915.678	2686.82
915.99	2737.44
916.302	2712.36
916.613	2679.14
916.925	2698.57
917.236	2654.05
917.548	2648.63
917.859	2694.96
918.171	2668.97
918.482	2656.99
918.794	2624.45
919.105	2612.25
919.416	2591.46
919.727	2634.17
920.038	2615.41
920.349	2554.85
920.66	2583.55
920.971	2567.96
921.282	2555.75
921.593	2563.66
921.903	2514.17
922.214	2532.25
922.525	2498.58
922.835	2472.14
923.146	2487.51
923.456	2465.81
923.767	2459.94
924.077	2457.68
924.387	2424
924.697	2449.09
925.008	2399.82
925.318	2386.49
925.628	2400.73
925.938	2396.89
926.248	2375.42
926.558	2369.77
926.867	2352.37
927.177	2341.97
927.487	2345.59
927.796	2307.17
928.106	2311.69
928.416	2307.62
928.725	2319.37
929.034	2291.35
929.344	2290.45
929.653	2284.57
929.962	2247.96
930.271	2262.65
930.581	2199.6
930.89	2231.69
931.199	2217.91
931.508	2185.14
931.817	2213.16
932.125	2218.59
932.434	2164.8
932.743	2183.11
933.051	2149.66
933.36	2142.88
933.669	2128.42
933.977	2137.68
934.286	2115.31
934.594	2130
934.902	2088.87
935.21	2074.86
935.519	2114.18
935.827	2105.59
936.135	2045.93
936.443	2044.13
936.751	2059.04
937.059	2081.87
937.367	2041.42
937.674	2001.64
937.982	2012.94
938.29	2047.74
938.597	1971.36
938.905	1963
939.213	1974.98
939.52	1989.67
939.827	1957.58
940.135	1943.56
940.442	1913.51
940.749	1969.78
941.056	1917.58
941.363	1908.31
941.67	1898.59
941.977	1912.38
942.284	1905.83
942.591	1883.23
942.898	1853.4
943.205	1843
943.511	1867.41
943.818	1855.88
944.125	1857.01
944.431	1861.08
944.738	1828.77
945.044	1809.1
945.35	1808.65
945.657	1808.43
945.963	1821.76
946.269	1806.17
946.575	1794.19
946.881	1766.85
947.187	1768.65
947.493	1787.41
947.799	1773.63
948.105	1715.32
948.41	1714.87
948.716	1740.18
949.022	1724.36
949.327	1754.87
949.633	1707.19
949.938	1729.11
950.244	1730.01
950.549	1699.96
950.854	1687.98
951.16	1729.56
951.465	1697.92
951.77	1689.79
952.075	1685.27
952.38	1672.61
952.685	1682.55
952.99	1660.63
953.294	1645.27
953.599	1667.87
953.904	1656.34
954.209	1648.21
954.513	1650.47
954.818	1654.98
955.122	1646.62
955.426	1620.64
955.731	1625.16
956.035	1602.33
956.339	1609.34
956.643	1618.6
956.948	1588.09
957.252	1581.77
957.556	1571.82
957.86	1605.27
958.163	1554.87
958.467	1562.78
958.771	1545.16
959.075	1565.5
959.378	1537.93
959.682	1537.7
959.985	1570.69
960.289	1524.14
960.592	1547.64
960.896	1554.42
961.199	1513.75
961.502	1522.56
961.805	1520.98
962.108	1504.48
962.411	1527.53
962.714	1497.7
963.017	1498.6
963.32	1495.67
963.623	1505.61
963.926	1478.27
964.228	1473.07
964.531	1462
964.833	1468.1
965.136	1441.21
965.438	1445.72
965.741	1458.61
966.043	1445.27
966.345	1439.62
966.648	1447.76
966.95	1444.59
967.252	1409.57
967.554	1424.03
967.856	1441.66
968.158	1410.25
968.46	1411.83
968.761	1407.08
969.063	1396.01
969.365	1404.82
969.666	1398.72
969.968	1393.97
970.269	1386.29
970.571	1391.94
970.872	1402.79
971.174	1365.05
971.475	1379.96
971.776	1362.34
972.077	1369.79
972.378	1399.17
972.679	1365.27
972.98	1340.19
973.281	1322.34
973.582	1356.46
973.883	1328.89
974.183	1327.54
974.484	1320.3
974.785	1328.89
975.085	1303.36
975.386	1294.99
975.686	1307.65
975.986	1318.04
976.287	1325.73
976.587	1311.72
976.887	1264.49
977.187	1301.1
977.487	1284.15
977.787	1284.37
978.087	1278.72
978.387	1323.92
978.687	1278.27
978.987	1277.37
979.286	1270.59
979.586	1265.62
979.885	1228.33
980.185	1227.2
980.484	1236.01
980.784	1235.79
981.083	1217.48
981.382	1245.05
981.682	1226.75
981.981	1210.25
982.28	1203.02
982.579	1211.38
982.878	1197.6
983.177	1188.1
983.475	1196.47
983.774	1191.95
984.073	1203.47
984.372	1193.98
984.67	1189.69
984.969	1179.97
985.267	1172.51
985.566	1170.93
985.864	1160.99
986.162	1177.71
986.461	1155.79
986.759	1132.51
987.057	1140.42
987.355	1124.15
987.653	1165.28
987.951	1120.31
988.249	1111.72
988.547	1109.46
988.844	1135.22
989.142	1123.02
989.44	1134.77
989.737	1139.74
990.035	1086.41
990.332	1080.76
990.63	1086.86
990.927	1092.51
991.224	1104.49
991.521	1067.43
991.819	1095.23
992.116	1083.47
992.413	1064.27
992.71	1075.34
993.006	1050.03
993.303	1068.79
993.6	1046.41
993.897	1046.19
994.193	1057.71
994.49	1045.51
994.787	1037.83
995.083	1040.54
995.379	1033.08
995.676	1024.04
995.972	1002.8
996.268	1015.91
996.565	1006.41
996.861	1029.69
997.157	1005.96
997.453	1005.28
997.749	999.86
998.044	1002.35
998.34	972.06
998.636	983.59
998.932	974.78
999.227	965.29
999.523	974.78
999.818	941.78
1000.114	965.29
1000.409	944.27
1000.704	932.97
1001	934.55
1001.295	926.64
1001.59	941.33
1001.885	950.14
1002.18	913.08
1002.475	914.89
1002.77	911.95
1003.065	916.47
1003.359	887.32
1003.654	930.94
1003.949	927.09
1004.243	908.34
1004.538	871.28
1004.832	890.94
1005.127	896.59
1005.421	909.24
1005.715	892.52
1006.009	880.99
1006.304	865.4
1006.598	882.58
1006.892	874.21
1007.186	883.71
1007.48	886.64
1007.773	867.21
1008.067	862.01
1008.361	857.49
1008.655	826.98
1008.948	828.57
1009.242	804.16
1009.535	826.31
1009.829	836.93
1010.122	805.74
1010.415	815.01
1010.708	808.68
1011.001	801.67
1011.295	780.43
1011.588	780.88
1011.881	787.21
1012.173	790.6
1012.466	812.75
1012.759	797.61
1013.052	819.75
1013.344	795.35
1013.637	811.39
1013.93	801.67
1014.222	755.35
1014.514	765.06
1014.807	766.19
1015.099	765.06
1015.391	747.89
1015.683	741.11
1015.976	761.67
1016.268	767.1
1016.56	743.6
1016.851	739.3
1017.143	734.56
1017.435	734.33
1017.727	722.81
1018.018	742.69
1018.31	718.51
1018.602	702.92
1018.893	720.09
1019.185	727.1
1019.476	711.51
1019.767	717.38
1020.058	690.72
1020.35	705.86
1020.641	695.24
1020.932	716.48
1021.223	693.88
1021.514	713.77
1021.804	701.34
1022.095	678.06
1022.386	668.12
1022.677	682.13
1022.967	687.1
1023.258	684.39
1023.548	680.55
1023.839	668.57
1024.129	667.21
1024.419	652.98
1024.709	662.92
1025	635.35
1025.29	649.81
1025.58	638.06
1025.87	631.73
1026.16	639.87
1026.449	646.88
1026.739	627.89
1027.029	635.8
1027.319	637.61
1027.608	608.46
1027.898	622.24
1028.187	612.07
1028.477	602.81
1028.766	617.27
1029.055	617.95
1029.344	638.06
1029.634	616.82
1029.923	633.77
1030.212	627.67
1030.501	600.55
1030.79	602.81
1031.078	592.19
1031.367	592.19
1031.656	609.14
1031.945	586.09
1032.233	591.96
1032.522	586.09
1032.81	597.61
1033.099	592.64
1033.387	579.31
1033.675	569.59
1033.963	572.53
1034.251	589.7
1034.54	558.29
1034.828	571.85
1035.116	569.36
1035.403	559.42
1035.691	554.45
1035.979	567.1
1036.267	549.03
1036.554	542.25
1036.842	549.93
1037.129	515.35
1037.417	538.4
1037.704	543.38
1037.992	559.42
1038.279	541.12
1038.566	517.16
1038.853	517.16
1039.14	517.16
