Data from foam1_polythene_foam_FLMS001491_00084.txt Node
Date: Wed Feb 08 10:55:30 GMT 2017
User: dcchb
Spectrometer: FLMS00149
Trigger mode: 0
Integration Time (sec): 2.000000E-2
Scans to average: 10
Electric dark correction enabled: true
Nonlinearity correction enabled: false
Boxcar width: 0
XAxis mode: Wavelengths
Number of Pixels in Spectrum: 2048
>>>>>Begin Spectral Data<<<<<
341.393	11.88
341.776	11.88
342.16	11.88
342.543	-76.03
342.927	-59.08
343.31	-63.6
343.693	-67.44
344.077	-57.05
344.46	-76.03
344.843	-41.23
345.226	-44.84
345.61	-20.89
345.993	-24.96
346.376	-12.3
346.759	6.91
347.142	26.34
347.525	53.01
347.908	50.75
348.291	64.53
348.674	82.16
349.057	124.64
349.44	119.22
349.823	144.08
350.206	180.69
350.588	195.83
350.971	210.52
351.354	229.73
351.737	240.12
352.119	244.19
352.502	262.95
352.884	269.72
353.267	262.72
353.65	292.55
354.032	285.32
354.414	299.33
354.797	290.74
355.179	305.88
355.562	326.67
355.944	314.47
356.326	327.35
356.709	309.5
357.091	328.93
357.473	309.05
357.855	347.69
358.238	330.06
358.62	326.9
359.002	328.03
359.384	316.95
359.766	303.17
360.148	323.28
360.53	330.29
360.912	331.64
361.294	317.63
361.676	301.14
362.057	331.64
362.439	314.47
362.821	310.63
363.203	312.89
363.584	309.5
363.966	308.59
364.348	306.33
364.729	302.27
365.111	287.58
365.493	308.37
365.874	290.97
366.256	299.55
366.637	323.51
367.019	313.57
367.4	293.23
367.781	284.41
368.163	279.67
368.544	309.5
368.925	300.46
369.306	314.7
369.688	318.54
370.069	318.54
370.45	306.11
370.831	308.82
371.212	312.89
371.593	309.5
371.974	312.89
372.355	315.37
372.736	319.44
373.117	301.59
373.498	293.23
373.879	317.18
374.26	321.47
374.641	289.61
375.021	302.27
375.402	311.53
375.783	328.25
376.163	345.65
376.544	300.68
376.925	325.09
377.305	323.51
377.686	333
378.066	320.12
378.447	321.93
378.827	324.19
379.208	327.58
379.588	330.29
379.968	335.71
380.349	341.36
380.729	333.9
381.109	331.42
381.489	342.72
381.87	323.73
382.25	337.75
382.63	337.75
383.01	342.27
383.39	331.87
383.77	351.76
384.15	354.69
384.53	335.49
384.91	352.66
385.29	341.36
385.67	324.19
386.049	355.6
386.429	322.83
386.809	331.19
387.189	348.82
387.568	341.14
387.948	359.21
388.328	348.37
388.707	361.02
389.087	353.56
389.466	362.83
389.846	365.77
390.225	368.25
390.605	369.83
390.984	351.3
391.363	363.96
391.743	363.96
392.122	365.32
392.501	383.17
392.881	366.67
393.26	372.55
393.639	375.48
394.018	359.44
394.397	370.96
394.776	364.41
395.155	386.33
395.534	396.95
395.913	381.36
396.292	355.82
396.671	399.21
397.05	408.25
397.429	384.98
397.808	370.74
398.186	406.67
398.565	425.2
398.944	398.99
399.323	382.94
399.701	413.45
400.08	413.22
400.458	392.89
400.837	412.09
401.215	405.99
401.594	417.29
401.972	389.72
402.351	401.47
402.729	415.71
403.107	424.75
403.486	417.52
403.864	413
404.242	420.23
404.62	407.57
404.999	431.3
405.377	427.91
405.755	419.33
406.133	417.29
406.511	427.46
406.889	462.04
407.267	460.91
407.645	464.52
408.023	465.2
408.401	464.97
408.779	443.96
409.156	456.16
409.534	454.35
409.912	447.12
410.29	476.72
410.667	471.98
411.045	485.76
411.422	479.89
411.8	471.75
412.178	478.31
412.555	495.03
412.933	493.67
413.31	487.57
413.687	489.15
414.065	485.54
414.442	484.18
414.819	508.14
415.197	493
415.574	518.76
415.951	494.58
416.328	490.96
416.705	504.07
417.082	513.33
417.46	513.56
417.837	531.41
418.214	502.26
418.591	527.34
418.967	538.42
419.344	530.51
419.721	530.28
420.098	552.2
420.475	536.38
420.852	551.75
421.228	546.33
421.605	559.43
421.982	556.04
422.358	551.07
422.735	567.12
423.111	566.44
423.488	546.33
423.864	572.99
424.241	576.38
424.617	596.95
424.994	586.55
425.37	598.76
425.746	580.45
426.123	598.3
426.499	583.39
426.875	605.53
427.251	624.52
427.627	613.22
428.003	609.6
428.379	627.68
428.756	623.84
429.132	643.95
429.507	627.46
429.883	626.55
430.259	632.65
430.635	645.76
431.011	654.12
431.387	658.64
431.763	670.17
432.138	697.96
432.514	669.49
432.89	678.08
433.265	701.13
433.641	707.68
434.016	708.58
434.392	713.33
434.767	740.45
435.143	753.78
435.518	734.57
435.894	736.38
436.269	767.11
436.644	745.42
437.02	746.55
437.395	786.55
437.77	770.95
438.145	806.43
438.52	768.47
438.895	814.79
439.271	793.78
439.646	809.82
440.021	813.67
440.395	816.83
440.77	813.21
441.145	821.12
441.52	848.47
441.895	856.38
442.27	857.28
442.645	838.07
443.019	852.76
443.394	870.16
443.769	905.41
444.143	862.03
444.518	874.45
444.892	879.65
445.267	902.48
445.641	904.51
446.016	913.78
446.39	921.01
446.764	910.39
447.139	915.36
447.513	924.85
447.887	930.95
448.262	935.02
448.636	928.01
449.01	971.18
449.384	954.9
449.758	961.91
450.132	982.47
450.506	970.05
450.88	962.81
451.254	1005.3
451.628	1016.82
452.002	1030.16
452.376	1034.45
452.75	1047.56
453.123	1050.95
453.497	1038.97
453.871	1063.83
454.244	1085.07
454.618	1063.15
454.992	1092.08
455.365	1097.27
455.739	1132.07
456.112	1103.15
456.486	1142.02
456.859	1124.17
457.232	1134.56
457.606	1146.76
457.979	1174.79
458.352	1138.63
458.725	1151.06
459.099	1179.76
459.472	1210.26
459.845	1198.97
460.218	1227.67
460.591	1217.04
460.964	1224.5
461.337	1234.9
461.71	1224.5
462.083	1256.14
462.456	1241
462.829	1273.09
463.201	1274.44
463.574	1287.78
463.947	1288.91
464.32	1333.2
464.692	1309.02
465.065	1321.45
465.438	1362.13
465.81	1352.18
466.183	1373.2
466.555	1403.93
466.928	1380.2
467.3	1393.08
467.672	1401.45
468.045	1437.83
468.417	1416.59
468.789	1461.33
469.161	1482.35
469.534	1481.22
469.906	1479.18
470.278	1517.38
470.65	1525.74
471.022	1545.62
471.394	1598.05
471.766	1590.37
472.138	1574.32
472.51	1637.15
472.882	1661.1
473.253	1695
473.625	1702.23
473.997	1716.92
474.369	1706.52
474.74	1750.36
475.112	1764.6
475.484	1775.9
475.855	1818.61
476.227	1827.2
476.598	1874.43
476.97	1882.34
477.341	1934.31
477.713	1937.7
478.084	1942.9
478.455	1984.48
478.827	1967.76
479.198	2055.21
479.569	2071.71
479.94	2120.75
480.311	2117.81
480.682	2175.21
481.053	2191.03
481.424	2259.5
481.795	2254.98
482.166	2288.2
482.537	2278.26
482.908	2349.22
483.279	2368.65
483.65	2421.53
484.021	2439.84
484.391	2469.44
484.762	2499.04
485.133	2516.67
485.503	2574.07
485.874	2605.26
486.244	2618.82
486.615	2676.67
486.985	2697.68
487.356	2738.81
487.726	2742.2
488.097	2800.28
488.467	2799.38
488.837	2853.84
489.207	2912.37
489.578	2913.27
489.948	2998.24
490.318	3000.73
490.688	2986.49
491.058	3028.07
491.428	3078.46
491.798	3132.7
492.168	3179.93
492.538	3180.16
492.908	3230.55
493.278	3242.53
493.648	3273.94
494.017	3312.58
494.387	3349.19
494.757	3361.39
495.126	3428.51
495.496	3445.69
495.866	3442.3
496.235	3486.14
496.605	3484.33
496.974	3520.03
497.344	3529.07
497.713	3567.94
498.082	3602.52
498.452	3672.12
498.821	3699.46
499.19	3687.71
499.559	3704.44
499.928	3763.87
500.298	3783.53
500.667	3782.63
501.036	3796.41
501.405	3822.63
501.774	3820.37
502.143	3852.46
502.512	3880.25
502.88	3935.62
503.249	3967.25
503.618	3959.12
503.987	4025.78
504.356	4101.94
504.724	4059
505.093	4099
505.462	4125.22
505.83	4137.42
506.199	4149.85
506.567	4214.48
506.936	4207.93
507.304	4243.41
507.672	4259.68
508.041	4323.4
508.409	4327.7
508.777	4413.57
509.145	4434.36
509.514	4421.48
509.882	4438.65
510.25	4480.01
510.618	4511.42
510.986	4493.12
511.354	4553.68
511.722	4572.44
512.09	4630.29
512.458	4599.78
512.826	4667.58
513.193	4724.97
513.561	4765.43
513.929	4820.11
514.297	4822.83
514.664	4859.43
515.032	4840.23
515.4	4921.58
515.767	4922.94
516.135	4916.38
516.502	4905.99
516.869	4999.09
517.237	5016.72
517.604	5031.63
517.972	5127.9
518.339	5237.05
518.706	5202.7
519.073	5202.48
519.44	5274.56
519.808	5286.77
520.175	5307.33
520.542	5357.27
520.909	5382.81
521.276	5358.86
521.643	5423.04
522.009	5512.52
522.376	5557.72
522.743	5624.84
523.11	5677.94
523.477	5700.09
523.843	5762.01
524.21	5826.64
524.577	5850.14
524.943	5889.92
525.31	5905.96
525.676	5965.62
526.043	5959.74
526.409	5975.34
526.776	6047.2
527.142	6074.09
527.508	6139.17
527.874	6226.4
528.241	6277.93
528.607	6271.15
528.973	6359.06
529.339	6357.02
529.705	6429.56
530.071	6441.09
530.437	6449.68
530.803	6491.48
531.169	6557.69
531.535	6500.75
531.901	6507.75
532.267	6514.31
532.632	6562.21
532.998	6681.99
533.364	6688.99
533.73	6732.83
534.095	6839.04
534.461	6865.71
534.826	6905.48
535.192	6869.1
535.557	6949.32
535.923	6935.76
536.288	6994.75
536.653	6994.75
537.019	6957.91
537.384	7013.73
537.749	7020.73
538.114	7058.25
538.479	7127.17
538.845	7153.39
539.21	7180.05
539.575	7238.35
539.94	7250.56
540.305	7320.16
540.67	7316.09
541.034	7295.08
541.399	7307.28
541.764	7369.2
542.129	7366.94
542.494	7396.99
542.858	7415.53
543.223	7464.11
543.587	7508.18
543.952	7455.3
544.316	7524.9
544.681	7553.15
545.045	7603.09
545.41	7690.32
545.774	7683.31
546.138	7708.85
546.503	7708.4
546.867	7739.81
547.231	7732.58
547.595	7725.57
547.959	7790.2
548.324	7763.09
548.688	7826.36
549.052	7866.81
549.416	7891.22
549.779	7926.47
550.143	7957.88
550.507	8018.67
550.871	8115.39
551.235	8052.34
551.599	8085.34
551.962	8200.59
552.326	8172.34
552.689	8197.2
553.053	8192
553.417	8169.4
553.78	8270.64
554.143	8248.05
554.507	8310.42
554.87	8308.61
555.234	8439.91
555.597	8420.7
555.96	8499.11
556.323	8514.48
556.686	8544.99
557.05	8669.05
557.413	8623.86
557.776	8640.13
558.139	8730.97
558.502	8670.18
558.865	8733.46
559.228	8708.15
559.59	8789.27
559.953	8787.92
560.316	8937.07
560.679	8878.31
561.041	9020.91
561.404	9066.33
561.767	9129.15
562.129	9193.56
562.492	9198.98
562.854	9208.02
563.217	9230.84
563.579	9275.82
563.941	9265.65
564.304	9317.85
564.666	9361.69
565.028	9391.97
565.39	9427.68
565.753	9446.88
566.115	9505.41
566.477	9584.73
566.839	9609.59
567.201	9670.16
567.563	9736.14
567.925	9800.32
568.287	9789.47
568.648	9824.5
569.01	9882.58
569.372	9902.24
569.734	9872.86
570.095	9913.99
570.457	9981.11
570.819	9989.24
571.18	9989.24
571.542	10042.8
571.903	10082.35
572.265	10045.74
572.626	10106.98
572.987	10207.99
573.349	10150.37
573.71	10248.22
574.071	10308.1
574.432	10386.52
574.794	10405.28
575.155	10386.07
575.516	10421.1
575.877	10444.6
576.238	10365.05
576.599	10420.87
576.96	10481.21
577.32	10469.23
577.681	10448.21
578.042	10560.98
578.403	10544.26
578.763	10501.32
579.124	10586.74
579.485	10598.49
579.845	10579.28
580.206	10629
580.566	10622.22
580.927	10722.56
581.287	10795.55
581.648	10631.49
582.008	10751.26
582.368	10692.05
582.728	10622.45
583.089	10651.82
583.449	10633.75
583.809	10629.9
584.169	10684.82
584.529	10663.58
584.889	10821.54
585.249	10644.59
585.609	10717.81
585.969	10909.9
586.329	10838.71
586.688	10845.27
587.048	10720.3
587.408	10778.15
587.768	10836.68
588.127	10723.23
588.487	10721.43
588.846	10811.14
589.206	10711.48
589.565	10669.45
589.925	10673.52
590.284	10683.69
590.643	10741.54
591.003	10644.37
591.362	10801.65
591.721	10727.75
592.08	10807.53
592.44	10821.54
592.799	10859.5
593.158	10903.34
593.517	10876.23
593.876	10904.93
594.235	10824.02
594.593	10858.6
594.952	10777.02
595.311	10806.17
595.67	10826.96
596.029	10882.78
596.387	10828.99
596.746	10822.22
597.104	10879.39
597.463	10776.79
597.822	10881.42
598.18	10921.2
598.538	10834.87
598.897	10942.89
599.255	10868.54
599.613	11073.51
599.972	10923.68
600.33	11026.73
600.688	10951.48
601.046	10972.04
601.404	11081.87
601.762	10904.47
602.12	11043.23
602.478	10936.79
602.836	10922.33
603.194	10841.65
603.552	10892.5
603.91	10939.05
604.268	11013.85
604.625	10966.84
604.983	11002.1
605.341	11012.04
605.698	11060.63
606.056	11087.97
606.413	11100.63
606.771	11128.42
607.128	11175.2
607.485	11067.41
607.843	11124.13
608.2	11113.06
608.557	11135.2
608.914	11114.86
609.272	11178.59
609.629	11076.45
609.986	11148.08
610.343	11105.37
610.7	11204.58
611.057	11150.57
611.414	11095.88
611.771	11223.33
612.127	11189.89
612.484	11201.87
612.841	11344.24
613.198	11291.13
613.554	11279.15
613.911	11407.28
614.267	11268.53
614.624	11306.04
614.98	11361.18
615.337	11341.52
615.693	11408.87
616.05	11329.77
616.406	11371.13
616.762	11284.12
617.118	11300.17
617.475	11380.17
617.831	11330.68
618.187	11376.1
618.543	11370.45
618.899	11450
619.255	11381.07
619.611	11393.05
619.967	11509.88
620.323	11513.72
620.678	11438.24
621.034	11458.81
621.39	11484.12
621.746	11440.96
622.101	11548.3
622.457	11482.99
622.812	11372.94
623.168	11450
623.523	11433.72
623.879	11418.81
624.234	11381.3
624.589	11428.98
624.945	11346.5
625.3	11395.08
625.655	11440.28
626.01	11422.2
626.365	11469.88
626.72	11435.76
627.075	11521.63
627.43	11457.9
627.785	11469.88
628.14	11441.86
628.495	11573.16
628.85	11485.93
629.205	11402.54
629.559	11462.42
629.914	11424.46
630.269	11350.56
630.623	11369.09
630.978	11256.55
631.332	11336.78
631.687	11261.53
632.041	11249.55
632.396	11245.71
632.75	11246.39
633.104	11301.3
633.459	11198.93
633.813	11241.64
634.167	11252.03
634.521	11195.76
634.875	11279.38
635.229	11240.74
635.583	11213.62
635.937	11224.92
636.291	11164.58
636.645	11254.75
636.999	11174.52
637.352	11226.5
637.706	11102.66
638.06	11099.04
638.413	10997.13
638.767	11018.37
639.121	11012.04
639.474	10971.14
639.828	10923.91
640.181	10927.07
640.534	10919.84
640.888	10928.88
641.241	10869.67
641.594	10905.83
641.947	10934.98
642.301	10927.75
642.654	10965.04
643.007	10953.06
643.36	10946.96
643.713	10908.54
644.066	10900.86
644.419	10901.99
644.771	10755.78
645.124	10688.66
645.477	10617.48
645.83	10477.14
646.182	10476.46
646.535	10445.73
646.888	10430.36
647.24	10379.29
647.593	10441.89
647.945	10433.75
648.298	10429.46
648.65	10388.1
649.002	10299.07
649.355	10376.8
649.707	10344.49
650.059	10380.65
650.411	10566.63
650.763	10554.88
651.115	10689.34
651.467	10680.52
651.819	10653.18
652.171	10620.19
652.523	10561.66
652.875	10597.59
653.227	10504.94
653.578	10650.02
653.93	10513.07
654.282	10452.73
654.633	10414.54
654.985	10356.92
655.337	10418.61
655.688	10394.66
656.039	10442.79
656.391	10362.79
656.742	10369.57
657.094	10356.69
657.445	10354.88
657.796	10419.97
658.147	10392.62
658.498	10407.76
658.849	10437.37
659.2	10451.38
659.551	10391.49
659.902	10474.43
660.253	10488.89
660.604	10404.83
660.955	10405.73
661.306	10398.72
661.656	10337.48
662.007	10320.99
662.358	10289.12
662.708	10322.34
663.059	10273.08
663.409	10184.27
663.76	10225.39
664.11	10219.75
664.461	10184.04
664.811	10160.99
665.161	10164.61
665.511	10094.1
665.862	10179.07
666.212	10237.15
666.562	10302
666.912	10270.59
667.262	10257.03
667.612	10324.38
667.962	10300.87
668.312	10304.26
668.662	10360.53
669.011	10322.79
669.361	10280.08
669.711	10249.58
670.06	10248.67
670.41	10242.34
670.76	10125.51
671.109	10210.03
671.459	10085.96
671.808	10050.94
672.157	10090.03
672.507	10038.06
672.856	10012.52
673.205	10032.41
673.554	10007.55
673.904	9993.76
674.253	10069.92
674.602	10108.56
674.951	9917.61
675.3	9883.94
675.649	10043.25
675.998	10077.83
676.346	10076.7
676.695	10113.53
677.044	10085.51
677.393	10089.58
677.741	10157.15
678.09	10155.57
678.438	10075.12
678.787	10020.88
679.135	10015.23
679.484	9962.8
679.832	9923.26
680.181	9915.8
680.529	9924.84
680.877	9802.58
681.225	9827.89
681.573	9884.39
681.922	9799.19
682.27	9760.55
682.618	9792.19
682.966	9704.96
683.314	9752.41
683.661	9742.92
684.009	9750.15
684.357	9754.22
684.705	9725.97
685.053	9721.68
685.4	9828.34
685.748	9655.92
686.095	9759.87
686.443	9648.91
686.79	9694.11
687.138	9667.9
687.485	9702.92
687.832	9626.54
688.18	9595.36
688.527	9579.54
688.874	9547.67
689.221	9437.39
689.568	9388.13
689.915	9368.47
690.262	9349.94
690.609	9348.81
690.956	9307.9
691.303	9245.08
691.65	9251.41
691.997	9205.31
692.344	9229.94
692.69	9133.9
693.037	9246.44
693.383	9142.49
693.73	9238.08
694.077	9205.76
694.423	9172.99
694.769	9182.48
695.116	9195.14
695.462	9220.45
695.808	9158.08
696.155	9167.34
696.501	9055.48
696.847	9043.73
697.193	9040.12
697.539	8956.05
697.885	8854.36
698.231	8958.54
698.577	8865.88
698.923	8786.34
699.269	8746.34
699.614	8671.54
699.96	8767.13
700.306	8658.43
700.651	8641.26
700.997	8641.93
701.342	8620.24
701.688	8568.49
702.033	8553.35
702.379	8616.4
702.724	8581.82
703.069	8648.94
703.415	8521.48
703.76	8547.92
704.105	8511.54
704.45	8616.4
704.795	8509.51
705.14	8516.06
705.485	8509.28
705.83	8443.97
706.175	8479.23
706.52	8439
706.865	8437.19
707.209	8392.22
707.554	8300.7
707.899	8345.44
708.243	8281.49
708.588	8250.76
708.932	8156.97
709.277	8192.91
709.621	8164.43
709.966	8151.55
710.31	8152.91
710.654	8072.91
710.998	8051.44
711.342	8001.72
711.687	8067.71
712.031	7961.05
712.375	7971.89
712.719	8054.6
713.063	8048.73
713.407	8072.68
713.75	8046.24
714.094	7988.39
714.438	7989.52
714.782	8054.83
715.125	8003.98
715.469	8000.82
715.812	7991.33
716.156	7869.98
716.499	7967.38
716.843	7927.15
717.186	7845.8
717.53	7867.49
717.873	7842.41
718.216	7815.74
718.559	7714.95
718.902	7702.75
719.246	7627.72
719.589	7632.92
719.932	7581.4
720.275	7592.24
720.617	7531.23
720.96	7544.34
721.303	7625.01
721.646	7569.42
721.989	7615.75
722.331	7601.74
722.674	7552.24
723.016	7588.63
723.359	7613.71
723.701	7617.78
724.044	7551.12
724.386	7547.95
724.729	7605.58
725.071	7645.58
725.413	7582.53
725.755	7557.67
726.097	7584.79
726.439	7495.98
726.782	7545.24
727.124	7542.75
727.465	7391.8
727.807	7414.85
728.149	7421.4
728.491	7368.52
728.833	7354.74
729.175	7298.24
729.516	7272.25
729.858	7262.54
730.199	7282.65
730.541	7249.2
730.882	7215.98
731.224	7255.08
731.565	7206.72
731.906	7238.13
732.248	7258.69
732.589	7202.2
732.93	7183.44
733.271	7246.04
733.612	7279.71
733.953	7267.51
734.294	7262.08
734.635	7203.1
734.976	7206.49
735.317	7194.74
735.658	7188.86
735.999	7214.63
736.339	7206.27
736.68	7157.68
737.021	7113.16
737.361	7067.06
737.702	7154.06
738.042	7109.54
738.383	7076.55
738.723	7041.3
739.063	6985.25
739.404	6962.2
739.744	6974.86
740.084	6960.85
740.424	6994.29
740.764	6929.21
741.104	6914.52
741.444	6874.52
741.784	6888.76
742.124	6895.54
742.464	6883.11
742.804	6878.59
743.143	6873.39
743.483	6922.43
743.823	6910.91
744.162	6858.7
744.502	6872.94
744.841	6875.88
745.181	6905.26
745.52	6846.5
745.86	6949.1
746.199	6889.21
746.538	6884.01
746.877	6865.94
747.216	6871.81
747.556	6874.07
747.895	6829.33
748.234	6769.21
748.573	6739.16
748.911	6735.32
749.25	6729.22
749.589	6615.09
749.928	6732.15
750.267	6702.1
750.605	6625.49
750.944	6575.77
751.283	6579.16
751.621	6547.98
751.96	6517.24
752.298	6585.94
752.636	6545.94
752.975	6486.06
753.313	6506.62
753.651	6544.81
753.989	6498.94
754.327	6560.41
754.666	6527.19
755.004	6546.85
755.342	6576.23
755.679	6538.71
756.017	6543.46
756.355	6489
756.693	6467.98
757.031	6503.68
757.368	6495.78
757.706	6444.7
758.044	6461.88
758.381	6422.11
758.719	6398.15
759.056	6423.24
759.394	6325.16
759.731	6406.74
760.068	6278.61
760.405	6236.8
760.743	6256.46
761.08	6237.03
761.417	6179.17
761.754	6157.25
762.091	6152.73
762.428	6124.26
762.765	6063.7
763.102	6086.52
763.438	6026.41
763.775	6026.18
764.112	6034.09
764.449	6014.88
764.785	5998.61
765.122	6031.38
765.458	5922.91
765.795	5936.24
766.131	5983.7
766.467	5994.77
766.804	5980.31
767.14	6023.47
767.476	5999.07
767.812	5947.32
768.148	5930.59
768.485	5858.96
768.821	5878.16
769.157	5837.49
769.492	5830.71
769.828	5870.03
770.164	5792.07
770.5	5711.84
770.836	5771.95
771.171	5666.87
771.507	5713.88
771.842	5642.69
772.178	5633.88
772.513	5588.23
772.849	5612.41
773.184	5550.72
773.519	5518.85
773.855	5517.72
774.19	5459.19
774.525	5475.24
774.86	5489.47
775.195	5439.53
775.53	5461.45
775.865	5427.33
776.2	5424.17
776.535	5360.89
776.87	5378.74
777.205	5406.99
777.539	5353.88
777.874	5377.16
778.209	5369.03
778.543	5346.43
778.878	5291.97
779.212	5333.32
779.547	5319.76
779.881	5231.63
780.215	5230.27
780.55	5284.51
780.884	5217.84
781.218	5180.78
781.552	5169.93
781.886	5191.18
782.22	5110.28
782.554	5119.77
782.888	5084.51
783.222	5027.57
783.556	4987.11
783.889	4992.76
784.223	4920.45
784.557	4932.88
784.89	4933.56
785.224	4924.07
785.557	4960.45
785.891	4899.66
786.224	4871.64
786.558	4793.67
786.891	4799.1
787.224	4840.45
787.557	4793.67
787.891	4755.26
788.224	4834.58
788.557	4768.14
788.89	4788.02
789.223	4796.39
789.556	4717.29
789.888	4739.44
790.221	4763.84
790.554	4743.51
790.887	4718.42
791.219	4660.34
791.552	4717.74
791.884	4649.04
792.217	4669.38
792.549	4647.24
792.882	4595.26
793.214	4606.11
793.546	4589.38
793.879	4547.8
794.211	4553.45
794.543	4500.35
794.875	4548.26
795.207	4540.12
795.539	4449.73
795.871	4497.41
796.203	4437.75
796.535	4402.05
796.867	4406.56
797.198	4360.01
797.53	4363.85
797.862	4372.44
798.193	4354.14
798.525	4345.78
798.856	4368.37
799.188	4251.99
799.519	4292.44
799.85	4293.8
800.182	4291.09
800.513	4238.21
800.844	4230.52
801.175	4250.86
801.506	4271.88
801.837	4240.92
802.168	4222.84
802.499	4240.24
802.83	4233.69
803.161	4186.91
803.491	4192.79
803.822	4238.43
804.153	4148.27
804.483	4137.87
804.814	4149.85
805.145	4167.48
805.475	4101.26
805.805	4136.52
806.136	4104.88
806.466	4120.7
806.796	4069.62
807.126	4051.55
807.457	4014.71
807.787	4005.9
808.117	3999.12
808.447	3983.75
808.777	4015.16
809.107	4000.02
809.436	3959.8
809.766	3935.39
810.096	3926.8
810.426	3941.94
810.755	3957.54
811.085	3951.44
811.414	3912.11
811.744	3914.37
812.073	3892
812.403	3890.42
812.732	3860.36
813.061	3858.33
813.39	3866.01
813.719	3887.93
814.049	3874.83
814.378	3832.79
814.707	3834.38
815.036	3822.85
815.365	3845.45
815.693	3851.55
816.022	3795.51
816.351	3796.19
816.68	3780.37
817.008	3801.38
817.337	3787.15
817.665	3776.98
817.994	3773.59
818.322	3775.62
818.651	3747.37
818.979	3712.35
819.307	3760.25
819.636	3738.33
819.964	3680.26
820.292	3746.24
820.62	3694.95
820.948	3711.67
821.276	3721.39
821.604	3671.22
821.932	3660.82
822.259	3649.75
822.587	3642.97
822.915	3666.47
823.243	3630.54
823.57	3645.23
823.898	3638.68
824.225	3583.31
824.553	3680.48
824.88	3621.05
825.207	3608.39
825.535	3655.85
825.862	3666.7
826.189	3630.54
826.516	3635.29
826.843	3727.49
827.17	3736.98
827.497	3706.7
827.824	3661.05
828.151	3661.73
828.478	3679.58
828.805	3712.35
829.131	3701.95
829.458	3693.82
829.785	3692.91
830.111	3731.33
830.438	3709.63
830.764	3737.88
831.09	3701.05
831.417	3664.44
831.743	3683.65
832.069	3675.51
832.395	3633.7
832.722	3643.65
833.048	3645.23
833.374	3642.07
833.7	3668.05
834.026	3622.4
834.351	3583.54
834.677	3587.83
835.003	3605.91
835.329	3592.12
835.654	3628.96
835.98	3577.21
836.306	3548.06
836.631	3622.4
836.956	3560.71
837.282	3567.04
837.607	3594.61
837.932	3548.28
838.258	3527.27
838.583	3569.3
838.908	3517.32
839.233	3510.32
839.558	3519.58
839.883	3525.68
840.208	3533.59
840.533	3525.23
840.858	3503.31
841.182	3559.58
841.507	3535.18
841.832	3554.61
842.156	3522.52
842.481	3538.57
842.805	3494.27
843.13	3500.83
843.454	3529.75
843.778	3448.85
844.103	3463.76
844.427	3444.1
844.751	3480.04
845.075	3462.41
845.399	3431.45
845.723	3442.75
846.047	3413.14
846.371	3378.8
846.695	3375.86
847.019	3394.61
847.343	3345.35
847.666	3284.79
847.99	3306.93
848.313	3295.63
848.637	3274.17
848.96	3241.85
849.284	3297.22
849.607	3256.76
849.931	3239.59
850.254	3205.92
850.577	3186.26
850.9	3184.45
851.223	3189.65
851.546	3162.76
851.869	3186.48
852.192	3195.52
852.515	3164.79
852.838	3142.42
853.161	3158.46
853.483	3133.38
853.806	3106.94
854.129	3115.07
854.451	3109.65
854.774	3095.86
855.096	3074.85
855.419	3098.8
855.741	3105.36
856.063	3095.19
856.385	3083.66
856.708	3084.57
857.03	3061.29
857.352	3054.51
857.674	3069.42
857.996	3042.31
858.318	3063.1
858.64	3026.94
858.961	3030.33
859.283	2995.75
859.605	2973.38
859.926	2996.88
860.248	2979.48
860.57	2939.94
860.891	2986.49
861.212	2979.48
861.534	2940.84
861.855	2941.29
862.176	2935.19
862.498	2902.65
862.819	2925.7
863.14	2891.8
863.461	2892.03
863.782	2850.22
864.103	2894.06
864.424	2835.53
864.745	2895.64
865.065	2875.08
865.386	2849.32
865.707	2813.16
866.027	2839.6
866.348	2814.97
866.668	2821.97
866.989	2836.21
867.309	2834.4
867.63	2859.26
867.95	2791.47
868.27	2790.11
868.59	2829.43
868.91	2839.83
869.23	2795.99
869.55	2786.27
869.87	2855.42
870.19	2810
870.51	2820.17
870.83	2832.14
871.15	2814.06
871.469	2820.39
871.789	2776.78
872.109	2828.53
872.428	2785.82
872.748	2763.22
873.067	2798.02
873.386	2814.52
873.706	2795.31
874.025	2792.6
874.344	2739.49
874.663	2749.66
874.982	2741.75
875.301	2748.53
875.62	2763.9
875.939	2687.97
876.258	2744.01
876.577	2717.12
876.896	2706.27
877.214	2717.34
877.533	2733.16
877.852	2665.14
878.17	2686.16
878.489	2697.23
878.807	2659.27
879.125	2671.24
879.444	2680.06
879.762	2657.23
880.08	2689.55
880.398	2693.16
880.716	2655.88
881.034	2702.88
881.352	2640.51
881.67	2642.32
881.988	2677.8
882.306	2653.16
882.624	2655.65
882.941	2635.09
883.259	2591.7
883.577	2652.03
883.894	2618.14
884.212	2593.05
884.529	2606.84
884.846	2624.69
885.164	2630.57
885.481	2619.95
885.798	2585.82
886.115	2602.54
886.432	2636.44
886.75	2600.51
887.067	2584.69
887.383	2599.83
887.7	2593.96
888.017	2589.66
888.334	2579.27
888.651	2575.43
888.967	2554.41
889.284	2583.56
889.6	2582.43
889.917	2516.45
890.233	2527.07
890.55	2531.13
890.866	2518.7
891.182	2513.96
891.498	2487.75
891.815	2466.73
892.131	2459.27
892.447	2461.53
892.763	2442.1
893.079	2409.1
893.395	2400.29
893.71	2457.69
894.026	2403.91
894.342	2412.72
894.657	2431.48
894.973	2386.51
895.289	2429.67
895.604	2389.67
895.92	2396
896.235	2382.66
896.55	2382.66
896.865	2358.03
897.181	2353.06
897.496	2355.09
897.811	2352.61
898.126	2373.85
898.441	2365.71
898.756	2337.24
899.071	2339.5
899.386	2365.71
899.7	2338.82
900.015	2325.49
900.33	2321.2
900.644	2315.32
900.959	2326.62
901.273	2271.03
901.588	2331.37
901.902	2310.35
902.216	2324.36
902.531	2247.53
902.845	2270.8
903.159	2268.99
903.473	2231.25
903.787	2228.32
904.101	2267.86
904.415	2197.13
904.729	2246.85
905.042	2217.02
905.356	2226.74
905.67	2208.43
905.984	2169.11
906.297	2189.45
906.611	2148.09
906.924	2168.66
907.237	2173.86
907.551	2162.78
907.864	2141.31
908.177	2139.28
908.491	2145.38
908.804	2146.51
909.117	2087.3
909.43	2079.39
909.743	2093.86
910.056	2100.64
910.368	2077.36
910.681	2075.55
910.994	2058.15
911.307	2062.67
911.619	2070.58
911.932	2059.06
912.244	2026.97
912.557	2043.46
912.869	2015.89
913.181	2012.5
913.494	1997.59
913.806	1992.84
914.118	1974.09
914.43	2007.98
914.742	2005.72
915.054	1970.02
915.366	1983.13
915.678	2000.3
915.99	1996.01
916.302	1944.48
916.613	1952.84
916.925	1958.27
917.236	1938.38
917.548	1958.27
917.859	1949.91
918.171	1890.02
918.482	1944.03
918.794	1904.71
919.105	1908.78
919.416	1887.08
919.727	1899.96
920.038	1885.28
920.349	1888.67
920.66	1869.46
920.971	1865.39
921.282	1836.91
921.593	1852.06
921.903	1864.03
922.214	1827.42
922.525	1808.44
922.835	1798.27
923.146	1796.46
923.456	1804.37
923.767	1800.08
924.077	1751.27
924.387	1797.14
924.697	1772.51
925.008	1770.02
925.318	1755.79
925.628	1753.75
925.938	1753.08
926.248	1711.27
926.558	1753.53
926.867	1752.4
927.177	1684.38
927.487	1707.88
927.796	1699.07
928.106	1685.73
928.416	1709.23
928.725	1693.19
929.034	1685.51
929.344	1645.51
929.653	1677.15
929.962	1655.9
930.271	1665.62
930.581	1640.31
930.89	1617.71
931.199	1668.78
931.508	1657.94
931.817	1646.86
932.125	1675.34
932.434	1669.01
932.743	1628.78
933.051	1649.12
933.36	1627.43
933.669	1624.72
933.977	1615.23
934.286	1613.64
934.594	1610.93
934.902	1568.9
935.21	1584.27
935.519	1575.23
935.827	1560.99
936.135	1585.17
936.443	1544.27
936.751	1549.24
937.059	1559.63
937.367	1542.91
937.674	1565.06
937.982	1564.83
938.29	1552.63
938.597	1541.56
938.905	1510.82
939.213	1483.7
939.52	1501.1
939.827	1503.36
940.135	1484.83
940.442	1455.91
940.749	1463.14
941.056	1464.27
941.363	1447.55
941.67	1467.89
941.977	1463.59
942.284	1437.83
942.591	1441.67
942.898	1457.72
943.205	1457.94
943.511	1425.17
943.818	1404.16
944.125	1398.51
944.431	1437.83
944.738	1434.89
945.044	1390.15
945.35	1417.04
945.657	1408.68
945.963	1397.83
946.269	1358.96
946.575	1381.11
946.881	1398.28
947.187	1371.39
947.493	1382.24
947.799	1377.49
948.105	1403.71
948.41	1363.48
948.716	1370.71
949.022	1354.89
949.327	1380.43
949.633	1342.92
949.938	1337.72
950.244	1350.83
950.549	1324.16
950.854	1352.18
951.16	1349.7
951.465	1348.34
951.77	1321.45
952.075	1298.62
952.38	1292.75
952.685	1298.62
952.99	1295.69
953.294	1307.66
953.599	1291.84
953.904	1270.83
954.209	1273.99
954.513	1266.99
954.818	1255.46
955.122	1262.69
955.426	1245.74
955.731	1262.92
956.035	1227.89
956.339	1264.95
956.643	1252.52
956.948	1220.21
957.252	1220.66
957.556	1229.47
957.86	1216.14
958.163	1221.56
958.467	1213.65
958.771	1230.83
959.075	1203.71
959.378	1189.02
959.682	1215.24
959.985	1186.54
960.289	1198.29
960.592	1173.43
960.896	1178.18
961.199	1191.06
961.502	1186.99
961.805	1146.76
962.108	1150.83
962.411	1163.26
962.714	1176.59
963.017	1151.06
963.32	1135.01
963.623	1154.9
963.926	1159.87
964.228	1143.6
964.531	1139.53
964.833	1134.56
965.136	1119.19
965.438	1132.07
965.741	1119.87
966.043	1149.7
966.345	1131.62
966.648	1100.21
966.95	1109.93
967.252	1078.29
967.554	1092.3
967.856	1134.11
968.158	1067.67
968.46	1103.15
968.761	1094.34
969.063	1105.86
969.365	1073.09
969.666	1054.34
969.968	1079.19
970.269	1055.01
970.571	1050.72
970.872	1071.29
971.174	1064.05
971.475	1054.11
971.776	1070.83
972.077	1066.09
972.378	1043.04
972.679	1044.85
972.98	1023.83
973.281	1024.96
973.582	1028.35
973.883	1002.13
974.183	1030.83
974.484	1016.82
974.785	985.64
975.085	1018.41
975.386	1003.94
975.686	1028.57
975.986	999.2
976.287	992.42
976.587	996.26
976.887	1011.17
977.187	987.22
977.487	985.19
977.787	987.22
978.087	990.61
978.387	967.79
978.687	963.94
978.987	968.01
979.286	968.01
979.586	982.47
979.885	968.69
980.185	965.75
980.484	945.19
980.784	952.87
981.083	937.73
981.382	957.62
981.682	941.35
981.981	943.15
982.28	950.61
982.579	943.61
982.878	957.16
983.177	898.86
983.475	914.23
983.774	922.36
984.073	917.84
984.372	936.6
984.67	894.79
984.969	891.63
985.267	915.58
985.566	925.3
985.864	930.95
986.162	911.74
986.461	892.98
986.759	904.06
987.057	880.78
987.355	878.75
987.653	895.92
987.951	879.88
988.249	890.73
988.547	872.87
988.844	876.71
989.142	875.13
989.44	861.57
989.737	872.65
990.035	857.96
990.332	854.79
990.63	848.92
990.927	865.87
991.224	842.14
991.521	868.35
991.819	834.23
992.116	836.49
992.413	837.62
992.71	819.31
993.006	835.13
993.303	846.88
993.6	819.31
993.897	817.96
994.193	815.92
994.49	817.73
994.787	819.77
995.083	824.96
995.379	829.48
995.676	822.48
995.972	796.94
996.268	801.46
996.565	785.64
996.861	776.15
997.157	798.07
997.453	824.29
997.749	753.1
998.044	771.63
998.34	776.6
998.636	784.51
998.932	780.67
999.227	798.75
999.523	785.19
999.818	771.41
1000.114	759.88
1000.409	766.21
1000.704	761.46
1001	778.19
1001.295	755.36
1001.59	758.53
1001.885	764.85
1002.18	758.98
1002.475	747.23
1002.77	740.45
1003.065	727.57
1003.359	750.84
1003.654	754.68
1003.949	742.93
1004.243	735.02
1004.538	737.96
1004.832	725.76
1005.127	724.4
1005.421	726.89
1005.715	714.68
1006.009	723.95
1006.304	724.85
1006.598	721.01
1006.892	690.73
1007.186	721.92
1007.48	727.57
1007.773	728.24
1008.067	696.38
1008.361	700.45
1008.655	706.55
1008.948	686.21
1009.242	680.79
1009.535	689.6
1009.829	668.13
1010.122	702.71
1010.415	648.7
1010.708	681.69
1011.001	688.47
1011.295	653.22
1011.588	658.87
1011.881	670.62
1012.173	659.32
1012.466	656.83
1012.759	664.74
1013.052	674.46
1013.344	637.17
1013.637	653.9
1013.93	636.27
1014.222	667.23
1014.514	657.96
1014.807	647.34
1015.099	632.43
1015.391	640.34
1015.683	634.91
1015.976	637.62
1016.268	628.36
1016.56	617.74
1016.851	643.95
1017.143	613.9
1017.435	603.28
1017.727	646.89
1018.018	629.04
1018.31	609.6
1018.602	597.85
1018.893	615.03
1019.185	614.8
1019.476	610.96
1019.767	597.4
1020.058	597.17
1020.35	596.95
1020.641	597.85
1020.932	612.09
1021.223	601.47
1021.514	603.95
1021.804	603.95
1022.095	588.36
1022.386	587.91
1022.677	574.8
1022.967	598.53
1023.258	578.64
1023.548	575.48
1023.839	584.07
1024.129	591.07
1024.419	578.87
1024.709	593.11
1025	567.12
1025.29	572.32
1025.58	568.93
1025.87	559.66
1026.16	549.27
1026.449	560.56
1026.739	533.45
1027.029	559.21
1027.319	556.5
1027.608	536.16
1027.898	547.68
1028.187	524.86
1028.477	527.57
1028.766	510.62
1029.055	525.09
1029.344	519.21
1029.634	526.89
1029.923	518.76
1030.212	545.65
1030.501	522.83
1030.79	506.55
1031.078	512.66
1031.367	518.53
1031.656	504.29
1031.945	507.46
1032.233	510.17
1032.522	514.92
1032.81	528.25
1033.099	525.31
1033.387	522.15
1033.675	508.59
1033.963	491.87
1034.251	509.72
1034.54	501.81
1034.828	483.28
1035.116	517.63
1035.403	490.28
1035.691	497.06
1035.979	491.87
1036.267	487.8
1036.554	503.39
1036.842	479.66
1037.129	480.57
1037.417	481.02
1037.704	500.23
1037.992	486.44
1038.279	471.75
1038.566	497.97
1038.853	497.97
1039.14	497.97
