Data from foam1_polythene_foam_FLMS001491_00074.txt Node
Date: Wed Feb 08 10:55:22 GMT 2017
User: dcchb
Spectrometer: FLMS00149
Trigger mode: 0
Integration Time (sec): 2.000000E-2
Scans to average: 10
Electric dark correction enabled: true
Nonlinearity correction enabled: false
Boxcar width: 0
XAxis mode: Wavelengths
Number of Pixels in Spectrum: 2048
>>>>>Begin Spectral Data<<<<<
341.393	-22.98
341.776	-22.98
342.16	-22.98
342.543	-41.28
342.927	-80.61
343.31	-74.96
343.693	-69.31
344.077	-77.89
344.46	-37.44
344.843	-48.97
345.226	-47.84
345.61	-26.14
345.993	-14.17
346.376	-8.52
346.759	-9.19
347.142	31.71
347.525	50.24
347.908	58.37
348.291	75.1
348.674	96.57
349.057	102.44
349.44	132.5
349.823	142.89
350.206	176.34
350.588	191.03
350.971	201.42
351.354	209.56
351.737	227.86
352.119	220.18
352.502	230.12
352.884	265.83
353.267	292.94
353.65	274.64
354.032	281.65
354.414	287.07
354.797	268.54
355.179	292.27
355.562	321.19
355.944	321.42
356.326	304.47
356.709	319.61
357.091	323.45
357.473	329.33
357.855	319.61
358.238	327.07
358.62	334.75
359.002	336.11
359.384	323.45
359.766	317.58
360.148	350.12
360.53	341.53
360.912	339.27
361.294	323.23
361.676	329.1
362.057	317.58
362.439	327.75
362.821	335.43
363.203	303.57
363.584	316.22
363.966	335.2
364.348	296.56
364.729	320.97
365.111	308.54
365.493	308.99
365.874	297.92
366.256	291.14
366.637	311.93
367.019	290.68
367.4	320.74
367.781	314.19
368.163	317.35
368.544	311.02
368.925	307.41
369.306	320.06
369.688	292.27
370.069	325.71
370.45	317.35
370.831	314.64
371.212	312.38
371.593	323.23
371.974	309.89
372.355	324.81
372.736	297.24
373.117	306.28
373.498	322.32
373.879	311.25
374.26	308.31
374.641	298.14
375.021	308.09
375.402	328.65
375.783	323
376.163	313.73
376.544	345.37
376.925	318.48
377.305	328.65
377.686	320.97
378.066	332.94
378.447	337.01
378.827	334.07
379.208	340.63
379.588	320.29
379.968	301.08
380.349	348.76
380.729	333.4
381.109	352.38
381.489	344.02
381.87	333.85
382.25	339.04
382.63	343.79
383.01	334.75
383.39	351.7
383.77	383.79
384.15	344.47
384.53	343.79
384.91	338.14
385.29	360.29
385.67	349.44
386.049	368.42
386.429	382.43
386.809	370.46
387.189	382.89
387.568	372.49
387.948	369.33
388.328	369.33
388.707	347.63
389.087	381.53
389.466	355.09
389.846	355.99
390.225	382.43
390.605	379.95
390.984	376.78
391.363	395.09
391.743	372.49
392.122	398.48
392.501	392.6
392.881	391.7
393.26	395.54
393.639	403.22
394.018	396.67
394.397	421.3
394.776	414.97
395.155	396.22
395.534	407.74
395.913	420.4
396.292	421.98
396.671	418.14
397.05	429.89
397.429	394.18
397.808	404.35
398.186	429.21
398.565	418.59
398.944	440.74
399.323	443.45
399.701	434.41
400.08	437.35
400.458	458.82
400.837	435.09
401.215	438.7
401.594	448.19
401.972	445.48
402.351	473.73
402.729	443
403.107	449.78
403.486	483.22
403.864	451.13
404.242	461.08
404.62	484.13
404.999	477.8
405.377	480.51
405.755	491.58
406.133	474.41
406.511	475.31
406.889	494.52
407.267	520.96
407.645	491.13
408.023	502.2
408.401	491.58
408.779	513.05
409.156	498.81
409.534	511.7
409.912	507.85
410.29	527.06
410.667	534.52
411.045	541.3
411.422	532.71
411.8	544.69
412.178	554.63
412.555	565.93
412.933	557.34
413.31	531.58
413.687	565.48
414.065	585.14
414.442	574.29
414.819	574.74
415.197	573.84
415.574	602.54
415.951	594.41
416.328	593.5
416.705	604.8
417.082	588.3
417.46	608.64
417.837	614.07
418.214	610.45
418.591	588.76
418.967	609.09
419.344	640.96
419.721	619.49
420.098	626.72
420.475	651.58
420.852	647.51
421.228	646.83
421.605	661.75
421.982	641.86
422.358	670.11
422.735	686.83
423.111	694.97
423.488	688.41
423.864	697.23
424.241	711.69
424.617	701.3
424.994	692.93
425.37	715.31
425.746	729.77
426.123	715.31
426.499	719.6
426.875	750.33
427.251	747.62
427.627	750.11
428.003	753.5
428.379	768.41
428.756	769.99
429.132	799.6
429.507	813.83
429.883	796.21
430.259	812.93
430.635	809.31
431.011	817.45
431.387	849.54
431.763	858.58
432.138	861.97
432.514	870.1
432.89	867.17
433.265	862.19
433.641	876.88
434.016	909.88
434.392	896.09
434.767	915.98
435.143	931.8
435.518	955.3
435.894	963.89
436.269	954.62
436.644	992.13
437.02	975.41
437.395	984.9
437.77	1003.66
438.145	1005.69
438.52	1017.22
438.895	1020.61
439.271	1037.33
439.646	1058.57
440.021	1068.52
440.395	1082.3
440.77	1058.8
441.145	1074.84
441.52	1089.99
441.895	1120.04
442.27	1092.7
442.645	1091.57
443.019	1129.31
443.394	1137.89
443.769	1125.01
444.143	1157.1
444.518	1161.85
444.892	1164.11
445.267	1152.36
445.641	1199.14
446.016	1181.28
446.39	1211.79
446.764	1205.24
447.139	1221.06
447.513	1261.96
447.887	1245.01
448.262	1254.73
448.636	1261.73
449.01	1263.54
449.384	1266.93
449.758	1291.34
450.132	1305.57
450.506	1290.66
450.88	1298.79
451.254	1330.43
451.628	1364.55
452.002	1351.45
452.376	1369.75
452.75	1392.58
453.123	1393.25
453.497	1393.71
453.871	1419.47
454.244	1444.1
454.618	1447.04
454.992	1473.7
455.365	1466.7
455.739	1490.2
456.112	1511.9
456.486	1502.63
456.859	1526.13
457.232	1538.11
457.606	1526.81
457.979	1561.84
458.352	1590.99
458.725	1621.95
459.099	1625.11
459.472	1658.33
459.845	1655.39
460.218	1669.41
460.591	1686.81
460.964	1635.73
461.337	1717.31
461.71	1756.86
462.083	1768.84
462.456	1769.74
462.829	1749.63
463.201	1799.8
463.574	1817.88
463.947	1809.51
464.32	1868.72
464.692	1861.49
465.065	1886.8
465.438	1908.27
465.81	1956.4
466.183	1926.35
466.555	2006.8
466.928	2009.74
467.3	1990.07
467.672	2004.54
468.045	2064.2
468.417	2072.78
468.789	2096.29
469.161	2121.82
469.534	2114.37
469.906	2195.27
470.278	2216.28
470.65	2236.4
471.022	2274.36
471.394	2285.89
471.766	2317.07
472.138	2335.15
472.51	2374.02
472.882	2404.3
473.253	2477.29
473.625	2491.98
473.997	2533.79
474.369	2534.02
474.74	2571.3
475.112	2609.72
475.484	2639.55
475.855	2699.21
476.227	2710.28
476.598	2745.31
476.97	2798.19
477.341	2889.71
477.713	2912.08
478.084	2889.03
478.455	2965.87
478.827	2977.62
479.198	3099.2
479.569	3142.13
479.94	3196.14
480.311	3211.51
480.682	3291.74
481.053	3309.81
481.424	3385.52
481.795	3479.3
482.166	3452.41
482.537	3518.85
482.908	3550.49
483.279	3622.57
483.65	3680.2
484.021	3789.35
484.391	3766.98
484.762	3855.79
485.133	3843.13
485.503	3900.98
485.874	4006.29
486.244	4001.32
486.615	4112.28
486.985	4157.7
487.356	4253.07
487.726	4297.36
488.097	4364.93
488.467	4371.26
488.837	4465.94
489.207	4555.21
489.578	4617.35
489.948	4625.49
490.318	4644.24
490.688	4719.04
491.058	4763.56
491.428	4801.53
491.798	4854.18
492.168	4981.86
492.538	4971.92
492.908	5016.21
493.278	5115.87
493.648	5173.95
494.017	5251.01
494.387	5273.15
494.757	5260.72
495.126	5353.6
495.496	5398.8
495.866	5380.95
496.235	5432.47
496.605	5517.44
496.974	5577.33
497.344	5598.57
497.713	5686.93
498.082	5691.67
498.452	5799.24
498.821	5829.07
499.19	5833.82
499.559	5860.26
499.928	5898.22
500.298	5928.05
500.667	6015.28
501.036	6011.89
501.405	6135.28
501.774	6106.12
502.143	6185.44
502.512	6259.79
502.88	6235.84
503.249	6297.31
503.618	6342.95
503.987	6347.47
504.356	6355.38
504.724	6394.7
505.093	6460.69
505.462	6505.44
505.83	6651.65
506.199	6674.25
506.567	6762.83
506.936	6741.81
507.304	6799.21
507.672	6823.85
508.041	6807.58
508.409	6952.88
508.777	7017.29
509.145	7055.03
509.514	7040.11
509.882	7156.04
510.25	7135.25
510.618	7255.7
510.986	7277.17
511.354	7298.64
511.722	7324.17
512.09	7431.29
512.458	7451.85
512.826	7490.27
513.193	7535.92
513.561	7655.46
513.929	7619.53
514.297	7769.58
514.664	7826.98
515.032	7806.65
515.4	7891.61
515.767	7948.79
516.135	7931.39
516.502	7984.95
516.869	8073.98
517.237	8168.22
517.604	8168.9
517.972	8270.59
518.339	8351.72
518.706	8357.36
519.073	8350.13
519.44	8460.64
519.808	8540.19
520.175	8516.91
520.542	8719.39
520.909	8690.24
521.276	8779.73
521.643	8831.7
522.009	8957.58
522.376	9001.87
522.743	9121.41
523.11	9139.27
523.477	9197.57
523.843	9224.91
524.21	9391.01
524.577	9416.55
524.943	9492.7
525.31	9490.44
525.676	9696.99
526.043	9704.67
526.409	9758.46
526.776	9858.34
527.142	9917.55
527.508	9986.25
527.874	9986.93
528.241	10044.55
528.607	10091.33
528.973	10216.75
529.339	10146.02
529.705	10381.49
530.071	10412.68
530.437	10489.06
530.803	10546.23
531.169	10666
531.535	10562.5
531.901	10628.04
532.267	10701.71
532.632	10728.6
532.998	10802.27
533.364	10881.59
533.73	10886.34
534.095	11079.55
534.461	11059.67
534.826	11090.85
535.192	11149.61
535.557	11229.61
535.923	11259.21
536.288	11299.21
536.653	11343.73
537.019	11302.6
537.384	11407.45
537.749	11390.96
538.114	11502.82
538.479	11602.48
538.845	11642.48
539.21	11590.95
539.575	11637.5
539.94	11653.1
540.305	11818.06
540.67	11738.29
541.034	11792.53
541.399	11823.04
541.764	11829.36
542.129	11883.37
542.494	11918.4
542.858	12051.96
543.223	12078.4
543.587	12153.88
543.952	12140.99
544.316	12233.42
544.681	12161.78
545.045	12334.21
545.41	12388.67
545.774	12398.61
546.138	12349.58
546.503	12400.87
546.867	12435.68
547.231	12464.83
547.595	12483.58
547.959	12641.77
548.324	12644.48
548.688	12673.64
549.052	12647.2
549.416	12842.22
549.779	12823.01
550.143	12828.21
550.507	12844.48
550.871	12943.69
551.235	12932.84
551.599	13023.01
551.962	13070.91
552.326	13153.62
552.689	13166.96
553.053	13184.58
553.417	13246.5
553.78	13452.37
554.143	13371.92
554.507	13398.14
554.87	13459.6
555.234	13603.33
555.597	13550.45
555.96	13550.45
556.323	13700.73
556.686	13784.34
557.05	13815.3
557.413	13762.65
557.776	13944.79
558.139	14011.23
558.502	14011
558.865	14052.58
559.228	14141.85
559.59	14198.57
559.953	14238.57
560.316	14408.96
560.679	14335.29
561.041	14370.99
561.404	14538.67
561.767	14589.29
562.129	14517.43
562.492	14697.31
562.854	14688.95
563.217	14749.51
563.579	14792
563.941	14788.83
564.304	14945.89
564.666	14974.37
565.028	15052.33
565.39	15089.39
565.753	15333.9
566.115	15279.44
566.477	15390.17
566.839	15389.27
567.201	15467.69
567.563	15511.98
567.925	15611.19
568.287	15600.56
568.648	15722.37
569.01	15682.82
569.372	15869.03
569.734	15782.71
570.095	15956.71
570.457	15931.86
570.819	16016.6
571.18	16017.95
571.542	16147.67
571.903	16098.18
572.265	16092.53
572.626	16203.26
572.987	16219.31
573.349	16360.09
573.71	16437.83
574.071	16471.73
574.432	16473.08
574.794	16686.86
575.155	16564.38
575.516	16577.04
575.877	16636.02
576.238	16589.01
576.599	16689.58
576.96	16781.78
577.32	16736.81
577.681	16794.88
578.042	16844.83
578.403	16864.71
578.763	16871.27
579.124	16969.79
579.485	17007.76
579.845	17000.98
580.206	17028.78
580.566	17024.71
580.927	16970.02
581.287	17120.07
581.648	17046.4
582.008	17113.52
582.368	17023.35
582.728	17110.13
583.089	17117.81
583.449	17077.59
583.809	17141.54
584.169	17180.41
584.529	17165.27
584.889	17276.68
585.249	17209.56
585.609	17120.07
585.969	17179.51
586.329	17257.47
586.688	17117.81
587.048	17076.01
587.408	17077.81
587.768	17039.17
588.127	17085.5
588.487	17161.43
588.846	17316
589.206	17227.19
589.565	17134.54
589.925	17297.02
590.284	17295.89
590.643	17268.32
591.003	17294.31
591.362	17290.01
591.721	17195.78
592.08	17246.4
592.44	17241.2
592.799	17299.5
593.158	17300.18
593.517	17172.05
593.876	17246.62
594.235	17324.36
594.593	17215.89
594.952	17314.87
595.311	17273.51
595.67	17358.26
596.029	17346.96
596.387	17444.58
596.746	17425.83
597.104	17349.9
597.463	17329.56
597.822	17412.49
598.18	17280.52
598.538	17315.32
598.897	17441.87
599.255	17295.89
599.613	17635.54
599.972	17423.79
600.33	17493.4
600.688	17395.09
601.046	17539.5
601.404	17531.81
601.762	17540.85
602.12	17668.53
602.478	17583.79
602.836	17596.9
603.194	17476
603.552	17546.28
603.91	17490.23
604.268	17598.03
604.625	17498.14
604.983	17585.82
605.341	17467.41
605.698	17648.19
606.056	17687.06
606.413	17660.4
606.771	17706.72
607.128	17687.29
607.485	17561.87
607.843	17744.69
608.2	17874.4
608.557	17940.84
608.914	17850.9
609.272	17875.31
609.629	17879.15
609.986	17934.29
610.343	17826.95
610.7	17935.87
611.057	17990.11
611.414	17933.61
611.771	17963.44
612.127	18000.5
612.484	17946.04
612.841	17950.56
613.198	17844.57
613.554	17996.43
613.911	18077.34
614.267	18122.53
614.624	17993.95
614.98	18054.06
615.337	18184.9
615.693	18120.72
616.05	18123.89
616.406	18196.88
616.762	18117.56
617.118	18133.38
617.475	18184.68
617.831	18233.94
618.187	18205.69
618.543	18255.64
618.899	18433.71
619.255	18219.7
619.611	18300.61
619.967	18272.13
620.323	18386.25
620.678	18297.22
621.034	18292.02
621.39	18284.11
621.746	18254.73
622.101	18459.7
622.457	18228.52
622.812	18406.59
623.168	18406.37
623.523	18328.85
623.879	18316.2
624.234	18237.56
624.589	18266.71
624.945	18394.16
625.3	18389.19
625.655	18396.65
626.01	18426.25
626.365	18541.5
626.72	18300.61
627.075	18362.07
627.43	18265.13
627.785	18305.8
628.14	18357.78
628.495	18363.66
628.85	18263.55
629.205	18174.96
629.559	18248.18
629.914	18167.28
630.269	18162.3
630.623	18226.94
630.978	18163.66
631.332	18233.26
631.687	18308.29
632.041	18120.95
632.396	18167.95
632.75	18165.24
633.104	18176.99
633.459	18098.35
633.813	18104
634.167	17953.04
634.521	17971.35
634.875	18058.35
635.229	17974.97
635.583	17898.13
635.937	17909.88
636.291	17896.1
636.645	17937
636.999	17808.64
637.352	17913.05
637.706	17872.6
638.06	17926.38
638.413	17801.18
638.767	17797.12
639.121	17744.24
639.474	17624.01
639.828	17729.55
640.181	17658.14
640.534	17593.05
640.888	17589.21
641.241	17476.67
641.594	17494.53
641.947	17519.84
642.301	17431.02
642.654	17514.64
643.007	17562.32
643.36	17531.81
643.713	17462.44
644.066	17551.47
644.419	17360.97
644.771	17374.08
645.124	17325.49
645.477	17209.79
645.83	17080.98
646.182	16939.06
646.535	16835.33
646.888	16856.58
647.24	16646.41
647.593	16684.15
647.945	16637.15
648.298	16575.23
648.65	16659.75
649.002	16537.26
649.355	16676.69
649.707	16647.09
650.059	16707.88
650.411	17025.84
650.763	16893.64
651.115	17189.22
651.467	17089.56
651.819	17032.39
652.171	16953.75
652.523	16894.77
652.875	16846.63
653.227	16830.59
653.578	16848.22
653.93	16776.58
654.282	16795.79
654.633	16644.83
654.985	16791.27
655.337	16701.33
655.688	16849.57
656.039	16787.65
656.391	16692.51
656.742	16740.87
657.094	16752.4
657.445	16750.82
657.796	16813.87
658.147	16690.48
658.498	16624.04
658.849	16711.04
659.2	16608.45
659.551	16633.31
659.902	16579.52
660.253	16612.52
660.604	16618.84
660.955	16529.13
661.306	16466.98
661.656	16464.72
662.007	16575.45
662.358	16593.08
662.708	16637.6
663.059	16527.55
663.409	16509.47
663.76	16587.21
664.11	16612.29
664.461	16551.27
664.811	16472.41
665.161	16422.69
665.511	16471.28
665.862	16514.44
666.212	16413.88
666.562	16511.95
666.912	16398.06
667.262	16292.3
667.612	16345.86
667.962	16450.26
668.312	16293.88
668.662	16441.45
669.011	16422.24
669.361	16506.76
669.711	16491.16
670.06	16461.11
670.41	16409.81
670.76	16346.31
671.109	16481.45
671.459	16325.74
671.808	16342.92
672.157	16369.13
672.507	16219.76
672.856	16314.44
673.205	16128.01
673.554	16199.42
673.904	16117.84
674.253	16224.28
674.602	16120.55
674.951	15892.53
675.3	15903.61
675.649	16126.88
675.998	16111.06
676.346	16246.65
676.695	16163.71
677.044	16157.39
677.393	16128.91
677.741	16092.3
678.09	16083.04
678.438	16020.67
678.787	16131.17
679.135	16008.24
679.484	15915.36
679.832	16077.16
680.181	15868.81
680.529	15989.71
680.877	15917.17
681.225	15861.8
681.573	15922.36
681.922	15746.55
682.27	15756.72
682.618	15789.71
682.966	15613.9
683.314	15803.04
683.661	15683.5
684.009	15644.41
684.357	15585.42
684.705	15645.53
685.053	15686.66
685.4	15615.93
685.748	15562.83
686.095	15537.06
686.443	15494.35
686.79	15443.05
687.138	15452.77
687.485	15445.31
687.832	15404.64
688.18	15340.01
688.527	15209.16
688.874	15263.62
689.221	15136.4
689.568	15180.01
689.915	15108.15
690.262	15091.43
690.609	15111.31
690.956	15023.18
691.303	15069.05
691.65	14994.7
691.997	14967.13
692.344	14864.31
692.69	14910.64
693.037	14935.95
693.383	14796.97
693.73	14903.63
694.077	14775.28
694.423	14748.16
694.769	14579.35
695.116	14581.61
695.462	14551.1
695.808	14477.66
696.155	14551.33
696.501	14362.18
696.847	14317.66
697.193	14290.09
697.539	14288.06
697.885	14258.9
698.231	14189.98
698.577	14209.87
698.923	14181.17
699.269	14139.81
699.614	14094.62
699.96	14008.74
700.306	14111.34
700.651	13951.34
700.997	13960.38
701.342	13936.2
701.688	13957.44
702.033	13923.77
702.379	13757.22
702.724	13739.6
703.069	13906.6
703.415	13627.73
703.76	13653.04
704.105	13698.24
704.45	13528.75
704.795	13431.58
705.14	13413.05
705.485	13465.03
705.83	13362.66
706.175	13414.86
706.52	13405.82
706.865	13380.96
707.209	13426.16
707.554	13300.74
707.899	13424.8
708.243	13318.59
708.588	13265.26
708.932	13235.2
709.277	13261.42
709.621	13202.44
709.966	13059.16
710.31	13089.44
710.654	12947.07
710.998	12932.84
711.342	12917.02
711.687	12841.77
712.031	12837.7
712.375	12730.13
712.719	12728.78
713.063	12771.26
713.407	12738.04
713.75	12685.84
714.094	12744.59
714.438	12637.7
714.782	12672.73
715.125	12672.96
715.469	12666.4
715.812	12740.53
716.156	12605.61
716.499	12602.9
716.843	12690.58
717.186	12668.66
717.53	12574.43
717.873	12557.25
718.216	12517.26
718.559	12444.26
718.902	12312.29
719.246	12272.74
719.589	12332.18
719.932	12137.83
720.275	12184.61
720.617	12177.38
720.96	12136.47
721.303	12181.9
721.646	12188.22
721.989	12099.19
722.331	12151.16
722.674	12091.73
723.016	12137.83
723.359	12173.76
723.701	12146.19
724.044	12208.34
724.386	12041.56
724.729	12120.2
725.071	12148.45
725.413	12119.07
725.755	12041.79
726.097	11941.9
726.439	11882.24
726.782	11877.27
727.124	11872.3
727.465	11790.04
727.807	11765.18
728.149	11609.48
728.491	11636.37
728.833	11683.83
729.175	11658.97
729.516	11669.14
729.858	11657.62
730.199	11625.75
730.541	11720.67
730.882	11639.09
731.224	11734.23
731.565	11614.23
731.906	11634.34
732.248	11678.18
732.589	11518.19
732.93	11606.32
733.271	11639.31
733.612	11546.43
733.953	11566.32
734.294	11431.18
734.635	11424.85
734.976	11445.65
735.317	11346.66
735.658	11365.42
735.999	11324.52
736.339	11298.76
736.68	11305.31
737.021	11274.12
737.361	11157.74
737.702	11282.71
738.042	11190.28
738.383	11158.65
738.723	11263.5
739.063	11246.55
739.404	11302.6
739.744	11242.71
740.084	11226.22
740.424	11246.33
740.764	11140.57
741.104	11209.04
741.444	11126.33
741.784	11154.35
742.124	11120.23
742.464	11114.35
742.804	11028.93
743.143	11064.41
743.483	10971.53
743.823	10926.79
744.162	10855.83
744.502	10843.4
744.841	10817.87
745.181	10867.13
745.52	10872.33
745.86	10805.21
746.199	10851.54
746.538	10822.16
746.877	10882.72
747.216	10824.64
747.556	10827.81
747.895	10809.5
748.234	10736.06
748.573	10691.31
748.911	10755.72
749.25	10802.27
749.589	10706.46
749.928	10733.57
750.267	10790.97
750.605	10616.97
750.944	10634.37
751.283	10612.22
751.621	10579.91
751.96	10497.2
752.298	10413.36
752.636	10466.69
752.975	10361.83
753.313	10320.7
753.651	10357.54
753.989	10352.79
754.327	10338.56
754.666	10257.2
755.004	10286.13
755.342	10309.86
755.679	10274.6
756.017	10222.63
756.355	10271.89
756.693	10252.23
757.031	10256.3
757.368	10173.81
757.706	10132.23
758.044	10081.16
758.381	10155.96
758.719	10105.34
759.056	10031.9
759.394	10024.89
759.731	9942.86
760.068	9955.74
760.405	9852.69
760.743	9847.95
761.08	9925.91
761.417	9809.08
761.754	9818.8
762.091	9775.18
762.428	9734.73
762.765	9677.78
763.102	9667.84
763.438	9640.27
763.775	9596.2
764.112	9618.57
764.449	9638.46
764.785	9563.66
765.122	9476.66
765.458	9514.62
765.795	9489.76
766.131	9482.08
766.467	9462.42
766.804	9432.14
767.14	9338.81
767.476	9356.89
767.812	9294.74
768.148	9321.86
768.485	9220.62
768.821	9190.56
769.157	9183.78
769.492	9098.81
769.828	9109.21
770.164	9005.48
770.5	9022.88
770.836	8976.56
771.171	8897.69
771.507	8915.54
771.842	8901.08
772.178	8871.25
772.513	8832.83
772.849	8860.4
773.184	8758.48
773.519	8843.23
773.855	8786.51
774.19	8774.3
774.525	8705.38
774.86	8757.58
775.195	8655.66
775.53	8648.2
775.865	8606.62
776.2	8469.23
776.535	8491.82
776.87	8464.71
777.205	8399.4
777.539	8391.49
777.874	8365.95
778.209	8346.74
778.543	8330.93
778.878	8294.32
779.212	8235.33
779.547	8212.06
779.881	8194.21
780.215	8144.04
780.55	8204.83
780.884	8153.08
781.218	8085.96
781.552	8091.61
781.886	8070.82
782.22	8027.43
782.554	7977.94
782.888	7855.46
783.222	7915.79
783.556	7850.49
783.889	7846.19
784.223	7881.9
784.557	7824.72
784.89	7857.94
785.224	7831.96
785.557	7680.09
785.891	7787.44
786.224	7660.66
786.558	7695.46
786.891	7649.14
787.224	7519.65
787.557	7533.43
787.891	7507.67
788.224	7475.58
788.557	7444.62
788.89	7476.26
789.223	7414.11
789.556	7314.45
789.888	7327.11
790.221	7319.88
790.554	7250.95
790.887	7250.5
791.219	7226.32
791.552	7261.8
791.884	7194.91
792.217	7226.1
792.549	7176.15
792.882	7118.08
793.214	7137.51
793.546	7177.28
793.879	7075.14
794.211	7079.66
794.543	7101.8
794.875	7074.01
795.207	7037.63
795.539	7020.23
795.871	7039.21
796.203	6967.8
796.535	6855.94
796.867	6858.65
797.198	6856.84
797.53	6838.08
797.862	6822.72
798.193	6817.29
798.525	6775.49
798.856	6775.49
799.188	6686.45
799.519	6663.62
799.85	6640.57
800.182	6626.79
800.513	6653
800.844	6555.6
801.175	6628.6
801.506	6631.76
801.837	6611.87
802.168	6552.89
802.499	6537.3
802.83	6540.69
803.161	6513.8
803.491	6537.98
803.822	6506.79
804.153	6479.22
804.483	6432.67
804.814	6457.53
805.145	6449.39
805.475	6398.77
805.805	6395.16
806.136	6370.75
806.466	6339.11
806.796	6310.64
807.126	6257.31
807.457	6258.89
807.787	6240.13
808.117	6229.51
808.447	6194.71
808.777	6227.25
809.107	6171.43
809.436	6101.38
809.766	6086.24
810.096	6101.38
810.426	6024.54
810.755	6076.07
811.085	6121.49
811.414	6044.88
811.744	6061.38
812.073	6003.08
812.403	5980.93
812.732	5961.04
813.061	6045.56
813.39	5984.09
813.719	5939.35
814.049	5946.13
814.378	5973.25
814.707	5939.12
815.036	5951.55
815.365	5879.92
815.693	5865.68
816.022	5883.98
816.351	5809.86
816.68	5791.78
817.008	5797.43
817.337	5743.2
817.665	5716.08
817.994	5754.27
818.322	5768.73
818.651	5702.07
818.979	5653.48
819.307	5710.2
819.636	5726.7
819.964	5670.88
820.292	5660.94
820.62	5675.85
820.948	5622.97
821.276	5619.81
821.604	5673.14
821.932	5633.59
822.259	5636.08
822.587	5640.83
822.915	5640.37
823.243	5688.73
823.57	5693.48
823.898	5685.57
824.225	5624.1
824.553	5639.02
824.88	5639.92
825.207	5660.71
825.535	5646.7
825.862	5679.92
826.189	5679.92
826.516	5688.73
826.843	5709.98
827.17	5668.85
827.497	5654.61
827.824	5657.1
828.151	5650.54
828.478	5653.71
828.805	5669.98
829.131	5643.99
829.458	5566.93
829.785	5559.92
830.111	5600.38
830.438	5632.69
830.764	5573.94
831.09	5566.48
831.417	5560.6
831.743	5612.8
832.069	5602.18
832.395	5580.94
832.722	5576.42
833.048	5548.63
833.374	5622.3
833.7	5557.89
834.026	5605.12
834.351	5552.24
834.677	5583.43
835.003	5574.61
835.329	5515.63
835.654	5566.93
835.98	5544.11
836.306	5558.12
836.631	5571.45
836.956	5547.27
837.282	5544.56
837.607	5547.72
837.932	5561.51
838.258	5533.48
838.583	5490.32
838.908	5476.08
839.233	5491
839.558	5452.13
839.883	5432.92
840.208	5353.83
840.533	5374.62
840.858	5370.78
841.182	5377.56
841.507	5420.95
841.832	5369.19
842.156	5265.69
842.481	5370.78
842.805	5335.3
843.13	5274.28
843.454	5349.53
843.778	5250.1
844.103	5232.48
844.427	5242.87
844.751	5258.92
845.075	5202.87
845.399	5202.42
845.723	5128.52
846.047	5214.85
846.371	5141.18
846.695	5178.92
847.019	5125.13
847.343	5088.07
847.666	5144.57
847.99	5128.3
848.313	5056.89
848.637	5080.84
848.96	5051.46
849.284	5105.25
849.607	4987.06
849.931	5049.43
850.254	4984.8
850.577	4915.2
850.9	4894.63
851.223	4918.59
851.546	4889.43
851.869	4833.62
852.192	4820.51
852.515	4809.21
852.838	4752.71
853.161	4755.43
853.483	4720.17
853.806	4681.3
854.129	4702.55
854.451	4667.74
854.774	4681.98
855.096	4675.65
855.419	4685.15
855.741	4655.77
856.063	4656.22
856.385	4604.24
856.708	4620.74
857.03	4571.93
857.352	4601.31
857.674	4596.11
857.996	4562.89
858.318	4559.27
858.64	4568.09
858.961	4557.69
859.283	4494.42
859.605	4518.14
859.926	4526.05
860.248	4515.66
860.57	4476.79
860.891	4534.19
861.212	4494.87
861.534	4493.51
861.855	4465.26
862.176	4491.48
862.498	4406.06
862.819	4440.63
863.14	4387.75
863.461	4409.9
863.782	4410.58
864.103	4382.1
864.424	4335.55
864.745	4372.16
865.065	4366.06
865.386	4352.05
865.707	4334.42
866.027	4369.9
866.348	4292.61
866.668	4324.7
866.989	4333.97
867.309	4264.37
867.63	4299.84
867.95	4260.3
868.27	4270.69
868.59	4217.81
868.91	4255.55
869.23	4264.59
869.55	4233.86
869.87	4274.99
870.19	4262.78
870.51	4246.96
870.83	4251.48
871.15	4222.11
871.469	4227.98
871.789	4268.88
872.109	4254.2
872.428	4238.83
872.748	4254.2
873.067	4232.5
873.386	4230.24
873.706	4225.72
874.025	4185.95
874.344	4217.59
874.663	4196.57
874.982	4192.05
875.301	4160.87
875.62	4124.93
875.939	4156.57
876.258	4161.09
876.577	4098.27
876.896	4121.54
877.214	4087.19
877.533	4106.18
877.852	4095.78
878.17	4059.62
878.489	4067.31
878.807	4065.27
879.125	4066.86
879.444	4042
879.762	4019.17
880.08	3981.43
880.398	3999.06
880.716	4009.91
881.034	4020.3
881.352	4011.26
881.67	3983.47
881.988	4024.15
882.306	3991.15
882.624	4043.58
882.941	3998.84
883.259	4000.19
883.577	3964.26
883.894	3983.02
884.212	3978.95
884.529	3922.91
884.846	3955.22
885.164	3942.11
885.481	3942.11
885.798	3942.34
886.115	3913.64
886.432	3924.04
886.75	3903.7
887.067	3911.38
887.383	3829.57
887.7	3876.8
888.017	3805.17
888.334	3857.6
888.651	3854.21
888.967	3796.35
889.284	3790.03
889.6	3781.21
889.917	3753.64
890.233	3759.97
890.55	3752.06
890.866	3738.73
891.182	3740.99
891.498	3733.08
891.815	3718.16
892.131	3696.92
892.447	3667.09
892.763	3641.78
893.079	3647.88
893.395	3683.14
893.71	3668.45
894.026	3653.31
894.342	3638.84
894.657	3628.68
894.973	3610.82
895.289	3595
895.604	3632.07
895.92	3607.89
896.235	3565.85
896.55	3588.45
896.865	3550.49
897.181	3569.02
897.496	3549.58
897.811	3558.4
898.126	3555.68
898.441	3510.03
898.756	3501.67
899.071	3502.13
899.386	3512.75
899.7	3487.89
900.015	3442.01
900.33	3427.55
900.644	3436.36
900.959	3419.19
901.273	3395.24
901.588	3383.48
901.902	3381.22
902.216	3376.25
902.531	3329.02
902.845	3332.64
903.159	3290.15
903.473	3303.71
903.787	3287.22
904.101	3267.78
904.415	3266.88
904.729	3257.16
905.042	3233.21
905.356	3255.8
905.67	3233.66
905.984	3225.52
906.297	3235.24
906.611	3200.21
906.924	3198.63
907.237	3181.23
907.551	3142.13
907.864	3163.15
908.177	3197.05
908.491	3145.3
908.804	3152.98
909.117	3138.07
909.43	3108.01
909.743	3134.68
910.056	3129.25
910.368	3099.2
910.681	3065.98
910.994	3095.36
911.307	3079.54
911.619	3106.2
911.932	3064.17
912.244	3032.99
912.557	3052.65
912.869	3016.94
913.181	3007.22
913.494	2996.15
913.806	2951.18
914.118	2987.34
914.43	2933.55
914.742	2934
915.054	2913.44
915.366	2921.12
915.678	2926.32
915.99	2858.53
916.302	2832.31
916.613	2857.17
916.925	2838.64
917.236	2816.49
917.548	2820.34
917.859	2807.23
918.171	2788.92
918.482	2779.21
918.794	2766.1
919.105	2789.6
919.416	2743.73
919.727	2774.01
920.038	2763.84
920.349	2726.78
920.66	2698.08
920.971	2705.08
921.282	2712.54
921.593	2710.06
921.903	2674.12
922.214	2650.17
922.525	2671.19
922.835	2656.5
923.146	2626.67
923.456	2648.14
923.767	2648.59
924.077	2679.77
924.387	2612.21
924.697	2588.7
925.008	2614.24
925.318	2573.11
925.628	2593.45
925.938	2593.67
926.248	2560.23
926.558	2545.31
926.867	2532.89
927.177	2553.45
927.487	2508.03
927.796	2480.01
928.106	2483.85
928.416	2481.14
928.725	2486.11
929.034	2429.39
929.344	2482.27
929.653	2430.74
929.962	2392.32
930.271	2389.61
930.581	2390.74
930.89	2368.14
931.199	2359.56
931.508	2388.48
931.817	2396.39
932.125	2365.88
932.434	2348.71
932.743	2309.84
933.051	2319.78
933.36	2341.93
933.669	2336.51
933.977	2324.08
934.286	2308.03
934.594	2289.73
934.902	2306.9
935.21	2290.41
935.519	2266
935.827	2270.97
936.135	2227.58
936.443	2241.14
936.751	2230.52
937.059	2204.76
937.367	2200.46
937.674	2215.38
937.982	2216.74
938.29	2189.39
938.597	2203.18
938.905	2185.32
939.213	2177.64
939.52	2147.58
939.827	2172.67
940.135	2153.69
940.442	2150.52
940.749	2144.87
941.056	2132.44
941.363	2127.7
941.67	2084.08
941.977	2109.39
942.284	2092.9
942.591	2089.28
942.898	2061.94
943.205	2081.82
943.511	2085.21
943.818	2048.6
944.125	2019.9
944.431	2042.28
944.738	2026.01
945.044	2028.27
945.35	2016.74
945.657	1993.01
945.963	1979.23
946.269	1962.96
946.575	2002.73
946.881	1983.3
947.187	1926.12
947.493	1956.86
947.799	1945.33
948.105	1946.01
948.41	1904.88
948.716	1940.36
949.022	1935.39
949.327	1931.09
949.633	1914.14
949.938	1920.25
950.244	1897.42
950.549	1893.58
950.854	1902.39
951.16	1870.76
951.465	1878.44
951.77	1869.17
952.075	1821.72
952.38	1873.02
952.685	1840.7
952.99	1811.55
953.294	1809.06
953.599	1820.14
953.904	1832.11
954.209	1796.86
954.513	1791.66
954.818	1764.54
955.122	1805.22
955.426	1791.66
955.731	1768.39
956.035	1758.67
956.339	1760.02
956.643	1762.06
956.948	1750.31
957.252	1715.51
957.556	1773.36
957.86	1707.14
958.163	1733.58
958.467	1723.64
958.771	1698.78
959.075	1698.11
959.378	1685
959.682	1701.04
959.985	1699.23
960.289	1686.58
960.592	1646.36
960.896	1664.66
961.199	1645.68
961.502	1630.99
961.805	1630.99
962.108	1605.9
962.411	1639.12
962.714	1619.01
963.017	1591.89
963.32	1595.51
963.623	1598.9
963.926	1574.94
964.228	1610.88
964.531	1584.44
964.833	1596.41
965.136	1582.4
965.438	1579.46
965.741	1535.62
966.043	1552.8
966.345	1541.72
966.648	1545.57
966.95	1556.41
967.252	1497.43
967.554	1532.01
967.856	1546.47
968.158	1506.92
968.46	1486.81
968.761	1508.73
969.063	1511.9
969.365	1494.49
969.666	1485.23
969.968	1501.73
970.269	1462.86
970.571	1485.46
970.872	1463.08
971.174	1495.62
971.475	1468.28
971.776	1469.86
972.077	1446.36
972.378	1471.9
972.679	1444.78
972.98	1428.51
973.281	1440.03
973.582	1446.36
973.883	1431.45
974.183	1398.45
974.484	1410.65
974.785	1396.19
975.085	1412.01
975.386	1398.23
975.686	1356.42
975.986	1378.11
976.287	1383.54
976.587	1357.1
976.887	1353.71
977.187	1381.5
977.487	1337.21
977.787	1346.25
978.087	1313.03
978.387	1306.7
978.687	1318
978.987	1304.44
979.286	1340.37
979.586	1320.04
979.885	1291.56
980.185	1288.85
980.484	1308.28
980.784	1287.27
981.083	1283.2
981.382	1307.15
981.682	1271
981.981	1283.88
982.28	1299.02
982.579	1276.87
982.878	1286.14
983.177	1250.43
983.475	1234.84
983.774	1282.52
984.073	1270.09
984.372	1267.16
984.67	1258.57
984.969	1263.09
985.267	1263.99
985.566	1241.17
985.864	1242.3
986.162	1229.64
986.461	1252.24
986.759	1245.69
987.057	1204.56
987.355	1220.15
987.653	1211.56
987.951	1202.52
988.249	1198.23
988.547	1174.05
988.844	1174.73
989.142	1196.88
989.44	1146.71
989.737	1174.5
990.035	1157.55
990.332	1165.69
990.63	1142.87
990.927	1163.2
991.224	1147.16
991.521	1144.22
991.819	1108.74
992.116	1113.94
992.413	1114.17
992.71	1122.75
993.006	1111.68
993.303	1134.28
993.6	1082.3
993.897	1098.8
994.193	1097.67
994.49	1099.48
994.787	1093.6
995.083	1075.3
995.379	1074.17
995.676	1068.97
995.972	1074.62
996.268	1092.25
996.565	1084.79
996.861	1040.5
997.157	1059.48
997.453	1024.45
997.749	1031
998.044	1028.74
998.34	1035.3
998.636	1021.29
998.932	1047.95
999.227	1022.42
999.523	1017.44
999.818	1007.28
1000.114	1011.34
1000.409	1011.34
1000.704	1008.41
1001	1035.98
1001.295	1001.4
1001.59	996.43
1001.885	1005.24
1002.18	1007.28
1002.475	965.24
1002.77	976.77
1003.065	1016.54
1003.359	983.32
1003.654	954.85
1003.949	951.23
1004.243	977.67
1004.538	963.21
1004.832	979.48
1005.127	939.93
1005.421	945.36
1005.715	936.32
1006.009	959.82
1006.304	910.33
1006.598	930.44
1006.892	931.8
1007.186	926.83
1007.48	911.01
1007.773	918.01
1008.067	909.65
1008.361	914.4
1008.655	906.71
1008.948	905.81
1009.242	882.76
1009.535	882.99
1009.829	893.61
1010.122	893.38
1010.415	851.8
1010.708	894.74
1011.001	872.59
1011.295	848.64
1011.588	855.87
1011.881	855.87
1012.173	849.99
1012.466	838.01
1012.759	807.06
1013.052	854.29
1013.344	827.17
1013.637	838.69
1013.93	832.59
1014.222	816.09
1014.514	824.91
1014.807	813.83
1015.099	816.77
1015.391	842.76
1015.683	817.22
1015.976	845.47
1016.268	793.72
1016.56	798.02
1016.851	807.73
1017.143	790.33
1017.435	812.7
1017.727	786.49
1018.018	781.07
1018.31	775.19
1018.602	797.34
1018.893	774.51
1019.185	781.52
1019.476	763.21
1019.767	762.99
1020.058	779.26
1020.35	760.73
1020.641	752.37
1020.932	743.78
1021.223	727.96
1021.514	741.97
1021.804	738.36
1022.095	737
1022.386	713.5
1022.677	737.45
1022.967	687.74
1023.258	704.01
1023.548	711.69
1023.839	683.67
1024.129	705.59
1024.419	714.4
1024.709	697
1025	697
1025.29	685.93
1025.58	692.48
1025.87	671.92
1026.16	684.57
1026.449	679.37
1026.739	679.6
1027.029	665.59
1027.319	672.82
1027.608	668.3
1027.898	656.32
1028.187	668.53
1028.477	669.88
1028.766	650.45
1029.055	669.43
1029.344	639.6
1029.634	650.45
1029.923	645.93
1030.212	656.78
1030.501	661.97
1030.79	651.35
1031.078	639.83
1031.367	630.11
1031.656	640.05
1031.945	630.56
1032.233	618.59
1032.522	604.8
1032.81	626.04
1033.099	631.47
1033.387	612.48
1033.675	583.33
1033.963	598.47
1034.251	595.99
1034.54	605.48
1034.828	614.97
1035.116	592.15
1035.403	585.37
1035.691	624.23
1035.979	607.96
1036.267	607.51
1036.554	573.16
1036.842	593.73
1037.129	582.65
1037.417	564.8
1037.704	569.77
1037.992	577.23
1038.279	568.87
1038.566	560.73
1038.853	560.73
1039.14	560.73
