Data from foam2_polystyrene_foam_FLMS001491_00061.txt Node
Date: Wed Feb 08 10:58:19 GMT 2017
User: dcchb
Spectrometer: FLMS00149
Trigger mode: 0
Integration Time (sec): 2.000000E-2
Scans to average: 10
Electric dark correction enabled: true
Nonlinearity correction enabled: false
Boxcar width: 0
XAxis mode: Wavelengths
Number of Pixels in Spectrum: 2048
>>>>>Begin Spectral Data<<<<<
341.393	-14.93
341.776	-14.93
342.16	-14.93
342.543	-81.59
342.927	-79.33
343.31	-75.49
343.693	-81.59
344.077	-73.46
344.46	-64.87
344.843	-59.9
345.226	-39.11
345.61	-35.27
345.993	-5.21
346.376	19.42
346.759	-0.01
347.142	27.56
347.525	40.44
347.908	65.75
348.291	74.11
348.674	88.12
349.057	119.53
349.44	131.28
349.823	131.96
350.206	161.79
350.588	192.3
350.971	200.88
351.354	215.12
351.737	237.72
352.119	240.43
352.502	252.18
352.884	257.38
353.267	277.94
353.65	281.11
354.032	285.85
354.414	287.89
354.797	323.82
355.179	300.99
355.562	314.33
355.944	347.32
356.326	319.3
356.709	340.77
357.091	335.12
357.473	347.55
357.855	337.83
358.238	336.7
358.62	343.25
359.002	347.1
359.384	342.35
359.766	344.38
360.148	344.16
360.53	350.03
360.912	332.18
361.294	337.83
361.676	326.3
362.057	330.82
362.439	333.99
362.821	342.58
363.203	306.19
363.584	329.24
363.966	322.92
364.348	338.96
364.729	347.77
365.111	332.41
365.493	342.12
365.874	306.19
366.256	322.92
366.637	303.93
367.019	334.21
367.4	303.03
367.781	316.59
368.163	336.02
368.544	337.38
368.925	323.14
369.306	336.25
369.688	311.84
370.069	317.49
370.45	325.85
370.831	322.01
371.212	317.27
371.593	316.59
371.974	349.13
372.355	326.08
372.736	340.09
373.117	331.73
373.498	330.82
373.879	343.48
374.26	336.7
374.641	339.41
375.021	339.64
375.402	359.3
375.783	352.52
376.163	349.36
376.544	369.69
376.925	371.05
377.305	352.29
377.686	358.62
378.066	350.94
378.447	339.19
378.827	360.65
379.208	363.14
379.588	350.03
379.968	368.56
380.349	375.12
380.729	377.6
381.109	354.78
381.489	366.76
381.87	383.93
382.25	371.73
382.63	373.31
383.01	399.07
383.39	382.12
383.77	395.91
384.15	392.74
384.53	383.93
384.91	395.46
385.29	376.93
385.67	387.09
386.049	430.03
386.429	401.56
386.809	415.34
387.189	424.61
387.568	404.95
387.948	423.03
388.328	425.06
388.707	418.28
389.087	400.43
389.466	443.14
389.846	435.91
390.225	442.01
390.605	432.74
390.984	435
391.363	423.7
391.743	468.67
392.122	433.42
392.501	432.97
392.881	454.21
393.26	460.54
393.639	480.43
394.018	483.59
394.397	457.6
394.776	468
395.155	477.04
395.534	477.26
395.913	490.59
396.292	484.94
396.671	477.71
397.05	458.05
397.429	486.75
397.808	495.34
398.186	498.05
398.565	489.46
398.944	497.6
399.323	481.78
399.701	499.18
400.08	520.88
400.458	521.33
400.837	510.03
401.215	517.03
401.594	499.86
401.972	543.7
402.351	541.44
402.729	548.9
403.107	521.33
403.486	555.68
403.864	532.18
404.242	561.78
404.62	550.25
404.999	574.43
405.377	548.67
405.755	566.75
406.133	569.91
406.511	561.1
406.889	559.07
407.267	593.42
407.645	576.69
408.023	595.9
408.401	589.12
408.779	600.42
409.156	628.22
409.534	633.42
409.912	621.21
410.29	640.2
410.667	643.13
411.045	651.49
411.422	651.49
411.8	637.94
412.178	659.86
412.555	669.12
412.933	691.04
413.31	666.41
413.687	696.92
414.065	698.95
414.442	689.23
414.819	678.61
415.197	703.24
415.574	702.34
415.951	693.53
416.328	736.46
416.705	740.53
417.082	741.89
417.46	736.01
417.837	729.46
418.214	760.64
418.591	760.87
418.967	763.13
419.344	778.72
419.721	787.31
420.098	791.15
420.475	787.99
420.852	814.43
421.228	818.72
421.605	817.82
421.982	821.89
422.358	847.2
422.735	830.02
423.111	823.24
423.488	802.45
423.864	837.03
424.241	884.03
424.617	876.57
424.994	878.83
425.37	891.26
425.746	880.41
426.123	910.02
426.499	885.16
426.875	907.98
427.251	921.32
427.627	927.87
428.003	929
428.379	969.9
428.756	966.06
429.132	966.29
429.507	986.17
429.883	993.86
430.259	997.25
430.635	1014.2
431.011	1000.19
431.387	1052.61
431.763	1065.72
432.138	1078.6
432.514	1060.52
432.89	1112.72
433.265	1102.56
433.641	1101.43
434.016	1094.42
434.392	1158.83
434.767	1133.29
435.143	1153.85
435.518	1174.64
435.894	1154.53
436.269	1180.29
436.644	1203.8
437.02	1209.22
437.395	1220.52
437.77	1257.81
438.145	1275.21
438.52	1266.17
438.895	1279.05
439.271	1277.69
439.646	1302.78
440.021	1323.79
440.395	1314.98
440.77	1306.39
441.145	1336
441.52	1349.55
441.895	1353.4
442.27	1392.27
442.645	1375.09
443.019	1382.32
443.394	1408.99
443.769	1412.38
444.143	1427.74
444.518	1431.13
444.892	1420.29
445.267	1420.51
445.641	1467.97
446.016	1466.39
446.39	1485.6
446.764	1510.45
447.139	1498.25
447.513	1521.08
447.887	1498.25
448.262	1549.78
448.636	1537.35
449.01	1545.71
449.384	1577.35
449.758	1613.73
450.132	1568.76
450.506	1583.45
450.88	1610.56
451.254	1630.23
451.628	1663.22
452.002	1643.56
452.376	1673.39
452.75	1695.76
453.123	1713.16
453.497	1711.58
453.871	1761.52
454.244	1761.75
454.618	1789.77
454.992	1792.03
455.365	1807.17
455.739	1809.43
456.112	1838.58
456.486	1845.36
456.859	1894.63
457.232	1885.13
457.606	1897.79
457.979	1935.3
458.352	1959.71
458.725	1960.84
459.099	1967.39
459.472	1963.78
459.845	1999.26
460.218	2030.67
460.591	2053.94
460.964	2055.07
461.337	2113.38
461.71	2129.87
462.083	2149.76
462.456	2143.88
462.829	2157.67
463.201	2164.22
463.574	2213.04
463.947	2197.67
464.32	2273.37
464.692	2291.23
465.065	2301.62
465.438	2349.75
465.81	2361.05
466.183	2363.77
466.555	2410.32
466.928	2404.22
467.3	2456.87
467.672	2505.68
468.045	2530.99
468.417	2520.6
468.789	2528.05
469.161	2570.09
469.534	2585.68
469.906	2657.54
470.278	2679.92
470.65	2688.5
471.022	2773.02
471.394	2763.3
471.766	2817.99
472.138	2884.66
472.51	2907.71
472.882	2933.69
473.253	2928.72
473.625	2994.71
473.997	3053.24
474.369	3048.72
474.74	3127.14
475.112	3141.37
475.484	3223.86
475.855	3239.67
476.227	3292.78
476.598	3383.85
476.97	3396.28
477.341	3449.61
477.713	3519.44
478.084	3516.5
478.455	3630.17
478.827	3661.13
479.198	3723.96
479.569	3760.11
479.94	3837.85
480.311	3871.97
480.682	3951.75
481.053	4036.49
481.424	4055.7
481.795	4127.11
482.166	4168.69
482.537	4244.62
482.908	4318.52
483.279	4369.59
483.65	4476.48
484.021	4506.99
484.391	4572.52
484.762	4640.77
485.133	4663.14
485.503	4698.17
485.874	4776.81
486.244	4837.82
486.615	4927.99
486.985	5015.67
487.356	5100.87
487.726	5160.3
488.097	5213.86
488.467	5210.47
488.837	5375.66
489.207	5386.28
489.578	5520.97
489.948	5530.69
490.318	5571.14
490.688	5649.1
491.058	5708.08
491.428	5764.58
491.798	5800.06
492.168	5901.75
492.538	5983.56
492.908	6047.06
493.278	6115.31
493.648	6115.98
494.017	6219.94
494.387	6244.12
494.757	6320.05
495.126	6451.57
495.496	6394.39
495.866	6444.56
496.235	6485.92
496.605	6603.88
496.974	6668.06
497.344	6669.42
497.713	6711.67
498.082	6811.11
498.452	6777.66
498.821	6882.74
499.19	6889.97
499.559	6992.8
499.928	7005.45
500.298	7015.62
500.667	7176.52
501.036	7169.29
501.405	7261.49
501.774	7254.94
502.143	7271.89
502.512	7298.78
502.88	7468.04
503.249	7438.66
503.618	7499.68
503.987	7516.85
504.356	7563.18
504.724	7653.8
505.093	7673.23
505.462	7708.71
505.83	7791.19
506.199	7833.68
506.567	7879.33
506.936	7962.04
507.304	8024.86
507.672	8030.96
508.041	8053.33
508.409	8105.99
508.777	8218.75
509.145	8347.11
509.514	8274.57
509.882	8356.6
510.25	8413.32
510.618	8487.67
510.986	8560.44
511.354	8645.18
511.722	8676.59
512.09	8765.86
512.458	8742.13
512.826	8817.83
513.193	8846.76
513.561	8960.65
513.929	9017.6
514.297	9132.85
514.664	9190.93
515.032	9165.85
515.4	9296.46
515.767	9325.16
516.135	9394.54
516.502	9322.9
516.869	9527.19
517.237	9523.35
517.604	9474.54
517.972	9747.07
518.339	9717.02
518.706	9736.45
519.073	9849.67
519.44	9826.17
519.808	10087.4
520.175	9994.53
520.542	10104.35
520.909	10241.3
521.276	10216.21
521.643	10352.03
522.009	10413.27
522.376	10508.18
522.743	10551.35
523.11	10653.27
523.477	10774.39
523.843	10692.13
524.21	10838.12
524.577	11003.31
524.943	11077.66
525.31	11144.55
525.676	11242.85
526.043	11311.1
526.409	11341.38
526.776	11388.39
527.142	11479.01
527.508	11622.51
527.874	11556.52
528.241	11696.63
528.607	11765.78
528.973	11931.65
529.339	11890.97
529.705	12057.52
530.071	12088.03
530.437	12141.59
530.803	12276.27
531.169	12266.78
531.535	12312.88
531.901	12422.03
532.267	12444.86
532.632	12535.48
532.998	12596.72
533.364	12604.85
533.73	12684.4
534.095	12812.98
534.461	12809.82
534.826	12919.42
535.192	12981.11
535.557	13035.12
535.923	13028.8
536.288	13133.43
536.653	13247.1
537.019	13197.83
537.384	13284.61
537.749	13389.24
538.114	13368.67
538.479	13330.48
538.845	13414.32
539.21	13443.93
539.575	13621.32
539.94	13558.27
540.305	13629.91
540.67	13623.36
541.034	13701.09
541.399	13798.95
541.764	13881.43
542.129	13847.53
542.494	13907.19
542.858	14043.46
543.223	14077.81
543.587	14101.08
543.952	14169.1
544.316	14146.05
544.681	14173.62
545.045	14226.5
545.41	14345.15
545.774	14401.19
546.138	14346.73
546.503	14405.26
546.867	14431.47
547.231	14548.53
547.595	14611.81
547.959	14679.15
548.324	14637.57
548.688	14703.1
549.052	14822.2
549.416	14837.56
549.779	14865.13
550.143	14868.75
550.507	15051.57
550.871	15110.77
551.235	15068.74
551.599	15205.01
551.962	15204.11
552.326	15249.3
552.689	15345.35
553.053	15335.63
553.417	15387.38
553.78	15682.51
554.143	15426.02
554.507	15600.48
554.87	15718.44
555.234	15751.21
555.597	15784.43
555.96	15877.08
556.323	15908.72
556.686	15964.31
557.05	16061.26
557.413	16073.01
557.776	16223.06
558.139	16263.51
558.502	16309.39
558.865	16345.54
559.228	16519.55
559.59	16632.09
559.953	16632.99
560.316	16724.74
560.679	16684.07
561.041	16932.87
561.404	16974.68
561.767	17091.06
562.129	17092.42
562.492	17199.76
562.854	17166.31
563.217	17310.94
563.579	17307.55
563.941	17468.45
564.304	17494.89
564.666	17561.11
565.028	17692.85
565.39	17715.9
565.753	17834.77
566.115	17868.67
566.477	17967.42
566.839	17997.25
567.201	18105.5
567.563	18095.33
567.925	18277.02
568.287	18363.34
568.648	18380.07
569.01	18570.12
569.372	18548.2
569.734	18523.11
570.095	18647.18
570.457	18634.52
570.819	18805.14
571.18	18764.92
571.542	18966.94
571.903	19019.82
572.265	19077.9
572.626	19112.25
572.987	19110.67
573.349	19245.58
573.71	19338.01
574.071	19362.64
574.432	19395.41
574.794	19553.14
575.155	19549.75
575.516	19390.21
575.877	19609.87
576.238	19669.75
576.599	19665.91
576.96	19739.35
577.32	19751.78
577.681	19830.65
578.042	19901.61
578.403	19864.32
578.763	19825.45
579.124	19959.01
579.485	19946.81
579.845	20076.29
580.206	19988.84
580.566	20085.11
580.927	20056.86
581.287	20068.61
581.648	20119.46
582.008	20180.47
582.368	20083.3
582.728	20159.46
583.089	20040.59
583.449	20154.71
583.809	20167.82
584.169	20162.85
584.529	20124.2
584.889	20393.35
585.249	20228.38
585.609	20155.61
585.969	20247.14
586.329	20120.13
586.688	20227.48
587.048	20264.31
587.408	20252.79
587.768	20194.71
588.127	20268.38
588.487	20162.62
588.846	20277.87
589.206	20171.43
589.565	20238.55
589.925	20381.6
590.284	20352.67
590.643	20311.99
591.003	20297.53
591.362	20374.59
591.721	20331.43
592.08	20335.5
592.44	20380.69
592.799	20361.48
593.158	20372.78
593.517	20302.95
593.876	20410.97
594.235	20350.41
594.593	20332.11
594.952	20514.25
595.311	20330.07
595.67	20496.4
596.029	20544.08
596.387	20487.36
596.746	20558.54
597.104	20384.76
597.463	20446.91
597.822	20559.67
598.18	20571.65
598.538	20472.44
598.897	20506.11
599.255	20481.03
599.613	20685.54
599.972	20609.16
600.33	20679.44
600.688	20590.86
601.046	20627.92
601.404	20774.13
601.762	20676.73
602.12	20885.54
602.478	20745.88
602.836	20730.51
603.194	20591.08
603.552	20655.49
603.91	20639.44
604.268	20760.12
604.625	20748.59
604.983	20727.35
605.341	20721.47
605.698	20802.38
606.056	20748.14
606.413	20886.89
606.771	20975.93
607.128	20854.35
607.485	20763.96
607.843	20855.03
608.2	21002.82
608.557	21106.1
608.914	20874.24
609.272	20970.51
609.629	21089.15
609.986	21125.76
610.343	20970.06
610.7	21190.84
611.057	21116.49
611.414	21189.03
611.771	21152.2
612.127	21179.99
612.484	21171.86
612.841	21294.12
613.198	21182.48
613.554	21241.91
613.911	21339.09
614.267	21331.4
614.624	21311.97
614.98	21285.75
615.337	21535.24
615.693	21287.79
616.05	21375.02
616.406	21497.27
616.762	21393.1
617.118	21404.85
617.475	21368.69
617.831	21531.4
618.187	21571.85
618.543	21490.04
618.899	21648
619.255	21562.58
619.611	21562.13
619.967	21659.3
620.323	21708.34
620.678	21615.69
621.034	21618.63
621.39	21498.63
621.746	21471.74
622.101	21791.28
622.457	21389.71
622.812	21637.38
623.168	21634.22
623.523	21622.24
623.879	21744.27
624.234	21549.25
624.589	21581.34
624.945	21659.98
625.3	21598.29
625.655	21579.08
626.01	21530.95
626.365	21616.82
626.72	21618.4
627.075	21531.4
627.43	21566.65
627.785	21438.97
628.14	21543.6
628.495	21529.14
628.85	21614.78
629.205	21512.19
629.559	21643.48
629.914	21502.25
630.269	21520.32
630.623	21508.8
630.978	21365.98
631.332	21501.12
631.687	21477.16
632.041	21357.16
632.396	21498.4
632.75	21327.56
633.104	21259.77
633.459	21197.17
633.813	21289.6
634.167	21259.54
634.521	21138.41
634.875	21198.98
635.229	21206.66
635.583	21067
635.937	21125.31
636.291	21013.22
636.645	20950.85
636.999	20880.11
637.352	20903.39
637.706	20822.94
638.06	20895.71
638.413	20851.87
638.767	20782.04
639.121	20811.87
639.474	20738.88
639.828	20778.87
640.181	20716.28
640.534	20600.57
640.888	20613.91
641.241	20570.52
641.594	20614.59
641.947	20669.95
642.301	20609.16
642.654	20628.37
643.007	20675.6
643.36	20488.94
643.713	20525.55
644.066	20641.25
644.419	20462.27
644.771	20238.32
645.124	20013.02
645.477	19975.05
645.83	19881.72
646.182	19726.02
646.535	19775.51
646.888	19879.01
647.24	19757.21
647.593	19877.88
647.945	19904.77
648.298	19705.68
648.65	19679.47
649.002	19583.43
649.355	19711.11
649.707	19541.17
650.059	19648.06
650.411	19820.26
650.763	19877.66
651.115	20065.45
651.467	19963.08
651.819	19862.97
652.171	19858.45
652.523	19900.71
652.875	19827.26
653.227	19679.02
653.578	19928.05
653.93	19803.76
654.282	19692.35
654.633	19677.21
654.985	19699.81
655.337	19698.68
655.688	19819.13
656.039	19675.85
656.391	19524.44
656.742	19528.06
657.094	19728.28
657.445	19608.06
657.796	19551.56
658.147	19537.78
658.498	19549.53
658.849	19518.79
659.2	19596.76
659.551	19485.8
659.902	19515.86
660.253	19539.81
660.604	19589.53
660.955	19442.19
661.306	19537.33
661.656	19449.87
662.007	19366.03
662.358	19425.92
662.708	19327.84
663.059	19366.26
663.409	19192.25
663.76	19366.71
664.11	19335.75
664.461	19343.21
664.811	19298.01
665.161	19355.41
665.511	19212.14
665.862	19251.68
666.212	19274.73
666.562	19262.98
666.912	19361.06
667.262	19213.94
667.612	19245.81
667.962	19234.73
668.312	19246.71
668.662	19169.2
669.011	19193.83
669.361	19226.6
669.711	19154.96
670.06	19111.12
670.41	19069.77
670.76	19037.9
671.109	19136.66
671.459	19092.82
671.808	19130.56
672.157	19127.62
672.507	19098.69
672.856	18952.03
673.205	18929.21
673.554	19016.66
673.904	18964.23
674.253	19055.53
674.602	18956.78
674.951	18708.87
675.3	18554.98
675.649	18991.35
675.998	18852.6
676.346	18938.02
676.695	19004.46
677.044	18848.08
677.393	18857.12
677.741	18865.03
678.09	18826.16
678.438	18809.43
678.787	18754.52
679.135	18798.59
679.484	18625.48
679.832	18733.5
680.181	18573.96
680.529	18672.04
680.877	18591.59
681.225	18523.57
681.573	18625.94
681.922	18486.51
682.27	18468.88
682.618	18504.36
682.966	18405.6
683.314	18467.07
683.661	18462.33
684.009	18258.26
684.357	18323.12
684.705	18200.64
685.053	18321.76
685.4	18294.87
685.748	18106.85
686.095	18199.96
686.443	18119.51
686.79	18003.13
687.138	18042
687.485	18038.16
687.832	18010.36
688.18	18026.18
688.527	17938.95
688.874	17838.39
689.221	17793.87
689.568	17759.29
689.915	17688.11
690.262	17700.76
690.609	17636.13
690.956	17585.51
691.303	17610.82
691.65	17451.28
691.997	17457.38
692.344	17431.84
692.69	17423.48
693.037	17401.34
693.383	17282.92
693.73	17272.98
694.077	17217.16
694.423	17074.57
694.769	17074.57
695.116	17071.63
695.462	17088.8
695.808	16929.26
696.155	17048.8
696.501	16827.34
696.847	16862.37
697.193	16769.04
697.539	16831.41
697.885	16781.47
698.231	16632.54
698.577	16574.47
698.923	16654.01
699.269	16527.01
699.614	16422.83
699.96	16390.52
700.306	16420.12
700.651	16404.07
700.997	16296.28
701.342	16230.07
701.688	16270.52
702.033	16187.58
702.379	16137.87
702.724	16080.02
703.069	16149.84
703.415	16007.93
703.76	16003.41
704.105	15918.44
704.45	15882.51
704.795	15841.83
705.14	15840.93
705.485	15783.07
705.83	15754.6
706.175	15748.05
706.52	15614.04
706.865	15620.14
707.209	15627.37
707.554	15538.11
707.899	15540.14
708.243	15477.77
708.588	15427.15
708.932	15341.28
709.277	15444.78
709.621	15376.98
709.966	15226.25
710.31	15353.93
710.654	15091.34
710.998	15211.11
711.342	15163.2
711.687	15043.66
712.031	15045.24
712.375	14945.36
712.719	15061.51
713.063	14931.12
713.407	15020.61
713.75	14917.79
714.094	14881.4
714.438	14867.17
714.782	14851.57
715.125	14810.44
715.469	14819.48
715.812	14711.46
716.156	14661.52
716.499	14654.06
716.843	14646.38
717.186	14587.17
717.53	14616.32
717.873	14606.61
718.216	14592.6
718.559	14456.33
718.902	14363
719.246	14446.39
719.589	14362.55
719.932	14292.94
720.275	14218.14
720.617	14380.85
720.96	14311.7
721.303	14226.96
721.646	14257.24
721.989	14196
722.331	14211.82
722.674	14175.88
723.016	14157.13
723.359	14125.26
723.701	14146.73
724.044	14080.07
724.386	14065.6
724.729	14131.82
725.071	14029.22
725.413	13993.29
725.755	13977.47
726.097	13962.56
726.439	13925.04
726.782	13792.84
727.124	13871.94
727.465	13845.05
727.807	13877.14
728.149	13895.44
728.491	13770.7
728.833	13837.14
729.175	13748.55
729.516	13633.07
729.858	13704.71
730.199	13657.93
730.541	13598.27
730.882	13570.93
731.224	13587.65
731.565	13505.85
731.906	13542.23
732.248	13521.89
732.589	13493.64
732.93	13439.63
733.271	13381.1
733.612	13445.28
733.953	13435.56
734.294	13387.43
734.635	13406.41
734.976	13501.55
735.317	13333.65
735.658	13322.57
735.999	13314.21
736.339	13239.19
736.68	13295.46
737.021	13246.87
737.361	13233.54
737.702	13252.74
738.042	13154.44
738.383	13153.99
738.723	13112.18
739.063	13198.96
739.404	13101.34
739.744	13082.35
740.084	13045.97
740.424	13057.27
740.764	12998.29
741.104	13043.26
741.444	12974.56
741.784	12862.02
742.124	12993.54
742.464	12951.96
742.804	12952.87
743.143	12842.81
743.483	12872.64
743.823	12805.98
744.162	12739.99
744.502	12790.61
744.841	12652.99
745.181	12697.28
745.52	12782.25
745.86	12749.03
746.199	12624.29
746.538	12611.86
746.877	12728.46
747.216	12615.25
747.556	12673.32
747.895	12589.26
748.234	12508.13
748.573	12481.01
748.911	12536.15
749.25	12535.48
749.589	12570.5
749.928	12482.37
750.267	12411.86
750.605	12438.3
750.944	12456.83
751.283	12294.8
751.621	12337.06
751.96	12276.05
752.298	12297.29
752.636	12250.29
752.975	12243.05
753.313	12176.16
753.651	12289.61
753.989	12161.93
754.327	12082.61
754.666	12083.28
755.004	12032.66
755.342	12114.02
755.679	12043.96
756.017	11978.65
756.355	11900.01
756.693	11907.24
757.031	11963.06
757.368	11918.32
757.706	11889.62
758.044	11845.32
758.381	11777.53
758.719	11723.52
759.056	11668.38
759.394	11763.74
759.731	11664.54
760.068	11691.43
760.405	11578.89
760.743	11518.78
761.08	11579.34
761.417	11455.73
761.754	11565.33
762.091	11398.78
762.428	11439.23
762.765	11281.72
763.102	11335.73
763.438	11268.62
763.775	11265
764.112	11194.95
764.449	11255.51
764.785	11142.07
765.122	11098.45
765.458	11039.47
765.795	11007.38
766.131	11137.09
766.467	10959.02
766.804	10913.82
767.14	10914.28
767.476	10836.31
767.812	10858.91
768.148	10860.94
768.485	10795.63
768.821	10653.94
769.157	10665.47
769.492	10657.56
769.828	10663.43
770.164	10501.18
770.5	10525.58
770.836	10574.4
771.171	10506.38
771.507	10482.65
771.842	10350.45
772.178	10350.9
772.513	10324.01
772.849	10321.07
773.184	10263.67
773.519	10307.29
773.855	10191.81
774.19	10148.42
774.525	10134.41
774.86	10126.95
775.195	10171.7
775.53	10042.21
775.865	9964.92
776.2	9994.07
776.535	9910.46
776.87	9948.42
777.205	9802.21
777.539	9835.43
777.874	9850.12
778.209	9798.15
778.543	9747.75
778.878	9617.81
779.212	9706.62
779.547	9638.15
779.881	9641.77
780.215	9508.89
780.55	9592.05
780.884	9505.27
781.218	9499.4
781.552	9452.39
781.886	9446.29
782.22	9353.19
782.554	9386.63
782.888	9199.29
783.222	9141.67
783.556	9121.55
783.889	9155.68
784.223	9153.87
784.557	9098.73
784.89	9065.96
785.224	9073.87
785.557	8983.25
785.891	9024.38
786.224	8983.7
786.558	8990.71
786.891	8853.31
787.224	8839.08
787.557	8813.99
787.891	8819.19
788.224	8766.31
788.557	8800.21
788.89	8749.13
789.223	8686.54
789.556	8684.28
789.888	8641.34
790.221	8606.54
790.554	8529.93
790.887	8524.73
791.219	8562.7
791.552	8551.63
791.884	8373.33
792.217	8507.11
792.549	8407.45
792.882	8400.44
793.214	8369.94
793.546	8349.37
793.879	8263.5
794.211	8229.6
794.543	8231.63
794.875	8266.44
795.207	8284.29
795.539	8251.97
795.871	8233.67
796.203	8103.73
796.535	8047.91
796.867	8071.41
797.198	8080
797.53	8016.95
797.862	7970.17
798.193	8003.84
798.525	7996.61
798.856	7929.72
799.188	7886.78
799.519	7892.21
799.85	7821.25
800.182	7797.75
800.513	7807.01
800.844	7738.77
801.175	7747.13
801.506	7772.66
801.837	7715.26
802.168	7717.52
802.499	7659.45
802.83	7584.42
803.161	7578.32
803.491	7619.9
803.822	7621.25
804.153	7501.71
804.483	7497.42
804.814	7463.52
805.145	7488.15
805.475	7482.95
805.805	7467.81
806.136	7437.76
806.466	7407.7
806.796	7344.43
807.126	7310.08
807.457	7335.84
807.787	7357.76
808.117	7263.75
808.447	7273.47
808.777	7298.33
809.107	7233.69
809.436	7193.24
809.766	7252.9
810.096	7225.78
810.426	7164.54
810.755	7114.15
811.085	7087.03
811.414	7157.54
811.744	7104.88
812.073	7059.24
812.403	7037.99
812.732	6970.65
813.061	7040.03
813.39	6991.67
813.719	6952.8
814.049	6976.07
814.378	6964.55
814.707	6940.82
815.036	6865.12
815.365	6856.98
815.693	6848.17
816.022	6857.43
816.351	6802.74
816.68	6788.28
817.008	6837.09
817.337	6771.56
817.665	6736.76
817.994	6700.83
818.322	6790.32
818.651	6748.06
818.979	6678.91
819.307	6735.4
819.636	6708.74
819.964	6650.21
820.292	6664.44
820.62	6669.87
820.948	6613.82
821.276	6591.68
821.604	6599.59
821.932	6678.91
822.259	6626.93
822.587	6628.06
822.915	6577.44
823.243	6602.3
823.57	6570.21
823.898	6596.65
824.225	6548.06
824.553	6583.32
824.88	6576.54
825.207	6601.17
825.535	6565.91
825.862	6570.66
826.189	6548.29
826.516	6588.97
826.843	6644.78
827.17	6597.55
827.497	6567.5
827.824	6531.34
828.151	6616.08
828.478	6526.37
828.805	6585.8
829.131	6558.01
829.458	6542.19
829.785	6475.75
830.111	6513.03
830.438	6600.72
830.764	6573.37
831.09	6575.41
831.417	6494.73
831.743	6563.88
832.069	6579.47
832.395	6554.62
832.722	6574.05
833.048	6491.57
833.374	6536.76
833.7	6482.98
834.026	6539.02
834.351	6545.8
834.677	6508.97
835.003	6520.49
835.329	6501.51
835.654	6480.27
835.98	6509.42
836.306	6471.45
836.631	6501.51
836.956	6466.93
837.282	6530.66
837.607	6473.26
837.932	6446.82
838.258	6403.89
838.583	6409.53
838.908	6405.69
839.233	6391.23
839.558	6358.46
839.883	6340.84
840.208	6377.9
840.533	6311.01
840.858	6282.98
841.182	6334.73
841.507	6294.51
841.832	6265.81
842.156	6282.31
842.481	6310.33
842.805	6277.11
843.13	6256.77
843.454	6237.34
843.778	6215.87
844.103	6195.08
844.427	6230.78
844.751	6165.47
845.075	6183.55
845.399	6146.94
845.723	6106.49
846.047	6127.73
846.371	6055.87
846.695	6133.61
847.019	6045.25
847.343	5966.61
847.666	6038.25
847.99	5920.73
848.313	5960.73
848.637	5875.31
848.96	5871.47
849.284	5865.14
849.607	5858.36
849.931	5816.33
850.254	5773.17
850.577	5779.95
850.9	5756.44
851.223	5723.9
851.546	5688.2
851.869	5662.44
852.192	5675.09
852.515	5586.51
852.838	5589.67
853.161	5613.62
853.483	5615.43
853.806	5607.07
854.129	5554.42
854.451	5543.57
854.774	5532.95
855.096	5530.91
855.419	5488.66
855.741	5492.5
856.063	5427.64
856.385	5466.28
856.708	5423.8
857.03	5346.74
857.352	5426.06
857.674	5356
857.996	5360.07
858.318	5294.31
858.64	5321.88
858.961	5346.74
859.283	5253.18
859.605	5237.36
859.926	5259.51
860.248	5308.77
860.57	5263.58
860.891	5226.74
861.212	5239.17
861.534	5217.93
861.855	5175.44
862.176	5199.4
862.498	5201.43
862.819	5200.53
863.14	5175.22
863.461	5140.42
863.782	5113.07
864.103	5132.51
864.424	5144.26
864.745	5169.12
865.065	5137.7
865.386	5115.11
865.707	5096.12
866.027	5121.43
866.348	5048.44
866.668	5032.17
866.989	5047.08
867.309	5013.64
867.63	5026.75
867.95	5034.66
868.27	5024.94
868.59	5026.29
868.91	4979.06
869.23	5036.69
869.55	4958.73
869.87	4937.94
870.19	4974.54
870.51	4931.38
870.83	4994.88
871.15	4953.75
871.469	4963.7
871.789	4996.01
872.109	4919.4
872.428	4907.65
872.748	4927.54
873.067	4935
873.386	4920.76
873.706	4911.27
874.025	4855.23
874.344	4833.76
874.663	4900.2
874.982	4859.29
875.301	4866.3
875.62	4877.6
875.939	4878.05
876.258	4845.06
876.577	4796.92
876.896	4826.07
877.214	4788.79
877.533	4764.38
877.852	4746.98
878.17	4787.2
878.489	4798.28
878.807	4760.76
879.125	4759.63
879.444	4763.7
879.762	4731.39
880.08	4707.88
880.398	4732.06
880.716	4755.57
881.034	4747.21
881.352	4743.14
881.67	4692.07
881.988	4720.31
882.306	4701.33
882.624	4709.01
882.941	4672.63
883.259	4610.94
883.577	4628.34
883.894	4683.25
884.212	4626.98
884.529	4614.55
884.846	4654.78
885.164	4586.76
885.481	4572.52
885.798	4573.2
886.115	4540.43
886.432	4546.98
886.75	4552.18
887.067	4509.47
887.383	4494.78
887.7	4518.96
888.017	4477.61
888.334	4505.86
888.651	4524.84
888.967	4491.85
889.284	4442.58
889.6	4419.08
889.917	4401.9
890.233	4429.7
890.55	4400.55
890.866	4369.36
891.182	4433.54
891.498	4389.7
891.815	4356.93
892.131	4377.27
892.447	4309.48
892.763	4312.41
893.079	4289.82
893.395	4270.38
893.71	4313.32
894.026	4296.14
894.342	4226.09
894.657	4185.41
894.973	4209.82
895.289	4205.3
895.604	4212.76
895.92	4184.51
896.235	4173.44
896.55	4182.02
896.865	4149.03
897.181	4146.09
897.496	4129.59
897.811	4106.54
898.126	4099.99
898.441	4073.55
898.756	4087.79
899.071	4048.47
899.386	4056.15
899.7	4013.67
900.015	4000.56
900.33	4008.24
900.644	3972.76
900.959	3981.35
901.273	3955.59
901.588	3953.33
901.902	3909.04
902.216	3919.88
902.531	3924.63
902.845	3879.66
903.159	3858.19
903.473	3857.06
903.787	3855.03
904.101	3859.55
904.415	3855.7
904.729	3825.42
905.042	3754.92
905.356	3783.84
905.67	3775.93
905.984	3768.02
906.297	3780
906.611	3713.79
906.924	3749.94
907.237	3674.47
907.551	3714.92
907.864	3721.24
908.177	3675.14
908.491	3693.9
908.804	3689.83
909.117	3598.99
909.43	3602.38
909.743	3615.26
910.056	3594.24
910.368	3598.31
910.681	3584.3
910.994	3594.47
911.307	3556.95
911.619	3519.67
911.932	3519.67
912.244	3485.54
912.557	3496.17
912.869	3451.65
913.181	3428.37
913.494	3429.27
913.806	3413.23
914.118	3436.05
914.43	3408.94
914.742	3388.6
915.054	3381.82
915.366	3365.1
915.678	3321.71
915.99	3348.37
916.302	3299.56
916.613	3343.63
916.925	3288.71
917.236	3297.53
917.548	3290.52
917.859	3303.63
918.171	3261.14
918.482	3220.24
918.794	3241.71
919.105	3230.64
919.416	3160.58
919.727	3162.16
920.038	3128.27
920.349	3146.12
920.66	3148.38
920.971	3133.01
921.282	3104.99
921.593	3097.98
921.903	3073.35
922.214	3079.23
922.525	3062.96
922.835	3044.88
923.146	3059.34
923.456	3054.14
923.767	3022.28
924.077	3042.84
924.387	2987.7
924.697	2994.26
925.008	2972.79
925.318	2965.11
925.628	2956.29
925.938	2938.44
926.248	2925.11
926.558	2892.11
926.867	2899.12
927.177	2934.6
927.487	2864.77
927.796	2849.85
928.106	2858.22
928.416	2836.3
928.725	2845.56
929.034	2806.24
929.344	2823.19
929.653	2775.05
929.962	2788.16
930.271	2796.07
930.581	2715.39
930.89	2755.85
931.199	2710.42
931.508	2686.02
931.817	2720.37
932.125	2688.28
932.434	2709.07
932.743	2708.62
933.051	2646.02
933.36	2652.12
933.669	2634.49
933.977	2643.98
934.286	2610.31
934.594	2618.67
934.902	2582.06
935.21	2569.41
935.519	2608.5
935.827	2581.61
936.135	2567.15
936.443	2543.2
936.751	2540.94
937.059	2567.15
937.367	2544.55
937.674	2554.72
937.982	2559.69
938.29	2484.89
938.597	2508.17
938.905	2504.33
939.213	2480.37
939.52	2439.7
939.827	2448.96
940.135	2422.07
940.442	2392.69
940.749	2395.63
941.056	2422.75
941.363	2423.88
941.67	2358.79
941.977	2374.39
942.284	2368.51
942.591	2381.84
942.898	2385.46
943.205	2349.98
943.511	2315.86
943.818	2329.42
944.125	2320.38
944.431	2319.7
944.738	2313.82
945.044	2296.42
945.35	2268.4
945.657	2280.83
945.963	2270.21
946.269	2239.25
946.575	2260.94
946.881	2227.72
947.187	2251.23
947.493	2201.06
947.799	2220.72
948.105	2197.89
948.41	2182.3
948.716	2201.51
949.022	2179.59
949.327	2160.38
949.633	2152.02
949.938	2164.9
950.244	2165.35
950.549	2108.41
950.854	2109.08
951.16	2143.88
951.465	2089.2
951.77	2077.22
952.075	2087.39
952.38	2087.61
952.685	2091.23
952.99	2077.9
953.294	2059.14
953.599	2035.64
953.904	2058.91
954.209	1978.92
954.513	2014.62
954.818	1994.96
955.122	2015.07
955.426	2005.58
955.731	2016.43
956.035	1960.84
956.339	1979.82
956.643	1941.4
956.948	1954.28
957.252	1943.21
957.556	1970.78
957.86	1924.23
958.163	1945.92
958.467	1919.26
958.771	1921.74
959.075	1945.92
959.378	1919.48
959.682	1910.9
959.985	1916.77
960.289	1872.03
960.592	1894.17
960.896	1848.3
961.199	1829.77
961.502	1820.28
961.805	1830.45
962.108	1839.03
962.411	1834.29
962.714	1799.71
963.017	1819.15
963.32	1820.95
963.623	1770.11
963.926	1779.37
964.228	1820.05
964.531	1771.46
964.833	1772.14
965.136	1746.83
965.438	1735.76
965.741	1759.94
966.043	1733.95
966.345	1734.63
966.648	1730.79
966.95	1725.59
967.252	1698.02
967.554	1709.55
967.856	1693.73
968.158	1677.91
968.46	1666.16
968.761	1661.64
969.063	1692.6
969.365	1666.83
969.666	1663.22
969.968	1672.48
970.269	1645.37
970.571	1667.74
970.872	1627.97
971.174	1603.11
971.475	1629.32
971.776	1638.81
972.077	1608.53
972.378	1608.08
972.679	1614.63
972.98	1620.06
973.281	1605.59
973.582	1573.5
973.883	1609.89
974.183	1591.36
974.484	1574.41
974.785	1574.41
975.085	1561.98
975.386	1560.17
975.686	1549.1
975.986	1528.76
976.287	1527.86
976.587	1559.94
976.887	1521.53
977.187	1513.62
977.487	1534.18
977.787	1526.05
978.087	1512.71
978.387	1488.31
978.687	1454.41
978.987	1464.81
979.286	1473.17
979.586	1449.67
979.885	1461.87
980.185	1461.19
980.484	1442.43
980.784	1422.1
981.083	1461.64
981.382	1479.04
981.682	1449.44
981.981	1411.7
982.28	1423.68
982.579	1387.75
982.878	1396.33
983.177	1390.68
983.475	1369.89
983.774	1390.46
984.073	1384.81
984.372	1389.33
984.67	1370.35
984.969	1393.17
985.267	1361.08
985.566	1325.15
985.864	1340.74
986.162	1328.09
986.461	1343.45
986.759	1312.27
987.057	1295.32
987.355	1304.36
987.653	1312.04
987.951	1306.62
988.249	1326.73
988.547	1301.87
988.844	1286.96
989.142	1320.86
989.44	1273.62
989.737	1278.14
990.035	1273.4
990.332	1273.17
990.63	1274.08
990.927	1247.86
991.224	1250.8
991.521	1234.53
991.819	1229.56
992.116	1232.95
992.413	1229.33
992.71	1261.87
993.006	1212.84
993.303	1243.34
993.6	1229.11
993.897	1194.3
994.193	1206.51
994.49	1213.51
994.787	1201.08
995.083	1204.7
995.379	1194.3
995.676	1187.75
995.972	1184.81
996.268	1172.16
996.565	1176.45
996.861	1166.96
997.157	1156.11
997.453	1150.46
997.749	1165.83
998.044	1145.04
998.34	1117.47
998.636	1122.44
998.932	1145.04
999.227	1117.47
999.523	1102.56
999.818	1121.31
1000.114	1121.09
1000.409	1108.66
1000.704	1083.57
1001	1093.52
1001.295	1110.47
1001.59	1064.82
1001.885	1063.69
1002.18	1077.7
1002.475	1054.87
1002.77	1070.69
1003.065	1052.61
1003.359	1058.72
1003.654	1038.38
1003.949	1046.06
1004.243	1035.66
1004.538	1047.87
1004.832	1018.26
1005.127	1034.08
1005.421	1020.52
1005.715	1016.91
1006.009	1010.58
1006.304	1005.38
1006.598	986.17
1006.892	1009.45
1007.186	982.33
1007.48	1011.03
1007.773	1015.55
1008.067	976.91
1008.361	1004.25
1008.655	972.84
1008.948	965.84
1009.242	968.32
1009.535	973.29
1009.829	946.63
1010.122	962.45
1010.415	943.46
1010.708	931.03
1011.001	953.18
1011.295	940.3
1011.588	907.76
1011.881	918.61
1012.173	913.41
1012.466	896.69
1012.759	908.21
1013.052	877.25
1013.344	917.7
1013.637	910.24
1013.93	918.38
1014.222	891.49
1014.514	890.36
1014.807	888.1
1015.099	872.96
1015.391	862.11
1015.683	863.01
1015.976	865.05
1016.268	865.27
1016.56	836.12
1016.851	846.07
1017.143	841.32
1017.435	849
1017.727	810.81
1018.018	850.81
1018.31	816.01
1018.602	813.3
1018.893	829.57
1019.185	831.15
1019.476	814.88
1019.767	790.7
1020.058	806.97
1020.35	802.22
1020.641	790.93
1020.932	799.06
1021.223	788.21
1021.514	817.59
1021.804	783.92
1022.095	775.78
1022.386	785.73
1022.677	765.62
1022.967	760.42
1023.258	753.41
1023.548	753.86
1023.839	753.19
1024.129	762
1024.419	742.11
1024.709	738.05
1025	753.19
1025.29	738.95
1025.58	736.46
1025.87	717.03
1026.16	770.59
1026.449	730.59
1026.739	720.87
1027.029	698.05
1027.319	714.77
1027.608	711.83
1027.898	712.28
1028.187	697.14
1028.477	703.47
1028.766	714.32
1029.055	684.04
1029.344	700.53
1029.634	691.72
1029.923	695.11
1030.212	686.07
1030.501	687.88
1030.79	664.83
1031.078	670.93
1031.367	664.6
1031.656	653.08
1031.945	631.61
1032.233	633.19
1032.522	650.82
1032.81	657.14
1033.099	660.08
1033.387	666.86
1033.675	639.52
1033.963	639.07
1034.251	640.2
1034.54	622.34
1034.828	628.44
1035.116	592.74
1035.403	618.27
1035.691	620.31
1035.979	607.88
1036.267	609.91
1036.554	595.68
1036.842	611.27
1037.129	614.66
1037.417	601.78
1037.704	596.35
1037.992	579.86
1038.279	589.8
1038.566	595.45
1038.853	595.45
1039.14	595.45
