Data from foam_black_FLMS001491_00073.txt Node
Date: Wed Feb 08 10:44:36 GMT 2017
User: dcchb
Spectrometer: FLMS00149
Trigger mode: 0
Integration Time (sec): 2.000000E-2
Scans to average: 10
Electric dark correction enabled: true
Nonlinearity correction enabled: false
Boxcar width: 0
XAxis mode: Wavelengths
Number of Pixels in Spectrum: 2048
>>>>>Begin Spectral Data<<<<<
341.393	-33.35
341.776	-33.35
342.16	-33.35
342.543	-57.75
342.927	-40.35
343.31	-81.71
343.693	-67.7
344.077	-55.72
344.46	-46.91
344.843	-51.65
345.226	-55.49
345.61	-37.64
345.993	-30.18
346.376	6.43
346.759	7.56
347.142	18.86
347.525	36.48
347.908	57.95
348.291	78.29
348.674	101.57
349.057	119.87
349.44	123.49
349.823	154.22
350.206	146.54
350.588	157.61
350.971	190.15
351.354	218.4
351.737	213.88
352.119	247.55
352.502	238.51
352.884	265.18
353.267	261.79
353.65	262.69
354.032	264.5
354.414	282.13
354.797	294.1
355.179	313.54
355.562	324.16
355.944	301.56
356.326	321.45
356.709	320.54
357.091	302.24
357.473	326.19
357.855	317.6
358.238	317.83
358.62	324.84
359.002	324.61
359.384	337.27
359.766	296.81
360.148	312.41
360.53	317.15
360.912	310.6
361.294	299.75
361.676	293.42
362.057	323.71
362.439	291.62
362.821	322.58
363.203	288.9
363.584	308.34
363.966	301.33
364.348	294.78
364.729	306.53
365.111	314.89
365.493	317.83
365.874	293.88
366.256	308.79
366.637	301.56
367.019	295.91
367.4	292.97
367.781	289.13
368.163	282.8
368.544	309.92
368.925	278.06
369.306	292.07
369.688	299.07
370.069	307.44
370.45	285.97
370.831	290.03
371.212	292.97
371.593	304.05
371.974	299.53
372.355	304.95
372.736	307.66
373.117	298.17
373.498	302.24
373.879	310.83
374.26	315.8
374.641	299.3
375.021	304.95
375.402	283.93
375.783	293.65
376.163	303.82
376.544	333.42
376.925	287.1
377.305	301.11
377.686	293.88
378.066	305.85
378.447	305.4
378.827	316.02
379.208	322.58
379.588	308.57
379.968	302.24
380.349	323.03
380.729	309.24
381.109	326.64
381.489	329.36
381.87	307.21
382.25	330.26
382.63	328
383.01	335.01
383.39	325.29
383.77	319.64
384.15	332.29
384.53	304.27
384.91	325.06
385.29	295.23
385.67	337.94
386.049	329.58
386.429	315.57
386.809	334.1
387.189	335.68
387.568	329.36
387.948	333.88
388.328	331.84
388.707	330.26
389.087	323.25
389.466	354.67
389.846	340.65
390.225	351.28
390.605	332.52
390.984	348.34
391.363	329.58
391.743	366.87
392.122	345.85
392.501	346.08
392.881	372.52
393.26	359.19
393.639	345.63
394.018	349.92
394.397	384.04
394.776	370.94
395.155	379.75
395.534	362.58
395.913	369.81
396.292	377.49
396.671	368
397.05	372.29
397.429	372.52
397.808	379.3
398.186	370.48
398.565	376.81
398.944	366.42
399.323	374.55
399.701	371.84
400.08	390.37
400.458	374.33
400.837	395.12
401.215	406.87
401.594	379.3
401.972	392.18
402.351	390.37
402.729	391.28
403.107	409.35
403.486	395.34
403.864	394.21
404.242	398.73
404.62	398.51
404.999	404.83
405.377	405.51
405.755	406.64
406.133	399.41
406.511	425.62
406.889	432.18
407.267	421.33
407.645	401.67
408.023	431.05
408.401	401.22
408.779	407.77
409.156	429.01
409.534	439.86
409.912	431.5
410.29	435.34
410.667	452.97
411.045	442.12
411.422	447.32
411.8	460.88
412.178	458.39
412.555	475.57
412.933	454.1
413.31	469.69
413.687	477.6
414.065	448.22
414.442	464.49
414.819	459.75
415.197	463.36
415.574	469.24
415.951	478.05
416.328	498.16
416.705	480.99
417.082	485.96
417.46	481.89
417.837	467.43
418.214	491.84
418.591	500.2
418.967	462.69
419.344	501.78
419.721	509.92
420.098	518.96
420.475	519.63
420.852	525.28
421.228	499.29
421.605	483.48
421.982	513.98
422.358	521.44
422.735	545.17
423.111	540.2
423.488	546.98
423.864	537.94
424.241	531.61
424.617	539.52
424.994	544.94
425.37	533.87
425.746	545.4
426.123	558.5
426.499	560.31
426.875	569.58
427.251	538.39
427.627	564.83
428.003	586.75
428.379	560.99
428.756	579.07
429.132	585.62
429.507	573.64
429.883	575.68
430.259	604.6
430.635	589.69
431.011	607.99
431.387	606.41
431.763	626.52
432.138	621.33
432.514	631.27
432.89	635.56
433.265	624.72
433.641	641.21
434.016	636.69
434.392	639.4
434.767	664.94
435.143	649.12
435.518	656.8
435.894	671.49
436.269	667.88
436.644	667.88
437.02	675.34
437.395	720.53
437.77	701.32
438.145	694.77
438.52	696.35
438.895	708.78
439.271	697.48
439.646	681.89
440.021	715.11
440.395	714.2
440.77	693.64
441.145	705.84
441.52	736.8
441.895	744.26
442.27	729.57
442.645	746.75
443.019	743.58
443.394	739.97
443.769	759.4
444.143	741.77
444.518	758.05
444.892	755.33
445.267	747.65
445.641	768.89
446.016	782.68
446.39	756.46
446.764	769.34
447.139	758.5
447.513	779.51
447.887	784.03
448.262	794.88
448.636	787.2
449.01	810.7
449.384	807.76
449.758	811.6
450.132	837.82
450.506	828.55
450.88	826.97
451.254	844.82
451.628	838.27
452.002	831.49
452.376	854.09
452.75	860.87
453.123	858.16
453.497	897.48
453.871	901.09
454.244	897.7
454.618	885.5
454.992	892.96
455.365	906.29
455.739	927.76
456.112	911.71
456.486	945.16
456.859	957.59
457.232	931.37
457.606	955.55
457.979	963.92
458.352	996
458.725	996.46
459.099	1011.82
459.472	1021.09
459.845	1003.91
460.218	1029
460.591	1009.79
460.964	1000.52
461.337	1023.57
461.71	1053.86
462.083	1064.7
462.456	1042.33
462.829	1070.35
463.201	1101.76
463.574	1104.93
463.947	1073.97
464.32	1131.37
464.692	1132.95
465.065	1123.01
465.438	1139.96
465.81	1173.63
466.183	1174.98
466.555	1172.72
466.928	1191.03
467.3	1191.71
467.672	1218.15
468.045	1223.12
468.417	1232.38
468.789	1259.95
469.161	1246.17
469.534	1285.71
469.906	1270.57
470.278	1295.66
470.65	1312.15
471.022	1354.64
471.394	1382.44
471.766	1384.02
472.138	1400.06
472.51	1418.37
472.882	1406.39
473.253	1439.61
473.625	1453.39
473.997	1492.71
474.369	1456.56
474.74	1520.06
475.112	1523.67
475.484	1568.19
475.855	1574.29
476.227	1583.11
476.598	1649.1
476.97	1619.04
477.341	1655.87
477.713	1664.01
478.084	1685.48
478.455	1697.23
478.827	1732.93
479.198	1792.37
479.569	1784.23
479.94	1852.48
480.311	1840.95
480.682	1835.98
481.053	1905.59
481.424	1919.14
481.795	1950.33
482.166	1969.54
482.537	1998.24
482.908	2018.58
483.279	2052.47
483.65	2084.79
484.021	2124.56
484.391	2164.56
484.762	2148.97
485.133	2183.77
485.503	2177.89
485.874	2256.08
486.244	2236.65
486.615	2256.31
486.985	2323.2
487.356	2328.17
487.726	2359.81
488.097	2365.23
488.467	2416.76
488.837	2458.79
489.207	2517.55
489.578	2481.62
489.948	2501.95
490.318	2582.18
490.688	2545.79
491.058	2652.91
491.428	2687.49
491.798	2639.58
492.168	2687.94
492.538	2733.81
492.908	2734.72
493.278	2741.95
493.648	2819.46
494.017	2774.04
494.387	2844.09
494.757	2841.61
495.126	2926.58
495.496	2877.76
495.866	2929.97
496.235	2927.71
496.605	2913.69
496.974	2973.35
497.344	2983.75
497.713	3045.44
498.082	3021.94
498.452	3050.64
498.821	3073.24
499.19	3115.27
499.559	3144.2
499.928	3121.37
500.298	3155.27
500.667	3207.7
501.036	3246.12
501.405	3209.51
501.774	3276.85
502.143	3295.61
502.512	3315.04
502.88	3303.74
503.249	3294.93
503.618	3369.5
503.987	3364.98
504.356	3389.84
504.724	3431.87
505.093	3465.09
505.462	3475.94
505.83	3476.62
506.199	3546.22
506.567	3596.16
506.936	3555.26
507.304	3594.13
507.672	3615.15
508.041	3659.66
508.409	3625.77
508.777	3676.39
509.145	3678.42
509.514	3685.2
509.882	3718.65
510.25	3752.32
510.618	3805.65
510.986	3762.71
511.354	3774.91
511.722	3857.62
512.09	3889.71
512.458	3859.21
512.826	3906.21
513.193	3928.13
513.561	3954.8
513.929	3934.23
514.297	4001.8
514.664	4050.39
515.032	4047.68
515.4	4098.3
515.767	4114.11
516.135	4131.29
516.502	4116.83
516.869	4205.19
517.237	4164.06
517.604	4198.41
517.972	4221.91
518.339	4303.71
518.706	4318.63
519.073	4353.43
519.44	4365.86
519.808	4399.76
520.175	4371.28
520.542	4443.82
520.909	4474.56
521.276	4489.25
521.643	4560.88
522.009	4553.88
522.376	4646.53
522.743	4641.78
523.11	4656.02
523.477	4730.37
523.843	4751.39
524.21	4813.31
524.577	4802.46
524.943	4847.88
525.31	4863.25
525.676	4944.15
526.043	4971.95
526.409	4985.05
526.776	5040.64
527.142	5005.39
527.508	5047.2
527.874	5114.09
528.241	5133.07
528.607	5169.68
528.973	5185.05
529.339	5204.26
529.705	5282.9
530.071	5289.9
530.437	5340.3
530.803	5396.34
531.169	5380.07
531.535	5426.4
531.901	5458.03
532.267	5445.15
532.632	5502.78
532.998	5522.67
533.364	5540.29
533.73	5582.78
534.095	5657.8
534.461	5668.65
534.826	5621.65
535.192	5709.1
535.557	5708.42
535.923	5735.09
536.288	5772.6
536.653	5783.68
537.019	5811.7
537.384	5809.66
537.749	5846.72
538.114	5771.92
538.479	5870.45
538.845	5912.03
539.21	5846.72
539.575	5930.34
539.94	6006.72
540.305	5966.72
540.67	6022.31
541.034	5978.02
541.399	5999.04
541.764	5987.51
542.129	6116.77
542.494	6133.95
542.858	6101.41
543.223	6121.97
543.587	6185.47
543.952	6204.46
544.316	6164.46
544.681	6131.46
545.045	6178.92
545.41	6225.7
545.774	6269.31
546.138	6274.06
546.503	6268.86
546.867	6272.48
547.231	6284.23
547.595	6319.93
547.959	6367.39
548.324	6386.37
548.688	6370.1
549.052	6338.92
549.416	6436.09
549.779	6392.02
550.143	6420.95
550.507	6507.5
550.871	6465.24
551.235	6507.95
551.599	6523.54
551.962	6580.49
552.326	6583.2
552.689	6658.91
553.053	6595.63
553.417	6651.22
553.78	6725.12
554.143	6745.23
554.507	6786.81
554.87	6799.24
555.234	6837.89
555.597	6855.29
555.96	6865.68
556.323	6905
556.686	6938.9
557.05	7046.02
557.413	7052.79
557.776	7005.11
558.139	7027.71
558.502	7108.39
558.865	7109.74
559.228	7189.06
559.59	7232.9
559.953	7208.27
560.316	7307.48
560.679	7392.9
561.041	7300.25
561.404	7425.89
561.767	7474.25
562.129	7449.17
562.492	7492.56
562.854	7490.3
563.217	7546.34
563.579	7579.11
563.941	7633.57
564.304	7711.53
564.666	7764.64
565.028	7732.1
565.39	7775.49
565.753	7841.7
566.115	7869.72
566.477	7827.01
566.839	7888.71
567.201	7947.23
567.563	7886.9
567.925	7955.37
568.287	7973.45
568.648	8038.08
569.01	8081.69
569.372	8098.64
569.734	8071.07
570.095	8144.97
570.457	8163.05
570.819	8173.9
571.18	8138.42
571.542	8227.23
571.903	8271.29
572.265	8308.13
572.626	8304.97
572.987	8360.33
573.349	8364.17
573.71	8466.32
574.071	8472.19
574.432	8436.26
574.794	8589.03
575.155	8610.49
575.516	8562.59
575.877	8620.89
576.238	8583.15
576.599	8617.27
576.96	8579.31
577.32	8635.13
577.681	8631.51
578.042	8729.59
578.403	8757.83
578.763	8789.92
579.124	8723.03
579.485	8822.24
579.845	8756.48
580.206	8819.3
580.566	8764.39
580.927	8838.51
581.287	8875.12
581.648	8837.15
582.008	8883.93
582.368	8912.86
582.728	8918.73
583.089	8900.88
583.449	8908.34
583.809	8912.86
584.169	8902.01
584.529	8914.44
584.889	8959.19
585.249	8908.57
585.609	8868.57
585.969	8928.68
586.329	8909.7
586.688	8883.03
587.048	8976.59
587.408	8853.65
587.768	8883.26
588.127	8900.88
588.487	8884.16
588.846	8927.32
589.206	8887.55
589.565	8875.12
589.925	8946.3
590.284	8903.82
590.643	8925.51
591.003	8915.57
591.362	8972.74
591.721	8930.26
592.08	8952.63
592.44	8926.42
592.799	8939.07
593.158	8945.85
593.517	8937.72
593.876	8855.91
594.235	8955.34
594.593	8893.65
594.952	8932.07
595.311	8927.55
595.67	8962.58
596.029	8973.87
596.387	8983.82
596.746	8954.89
597.104	8931.84
597.463	8942.46
597.822	9008.45
598.18	8985.85
598.538	8939.52
598.897	9002.12
599.255	8973.42
599.613	9093.65
599.972	9036.47
600.33	9038.05
600.688	9039.41
601.046	9036.92
601.404	9032.86
601.762	9122.34
602.12	9111.5
602.478	9057.04
602.836	9136.58
603.194	9104.04
603.552	9045.28
603.91	9053.87
604.268	9125.73
604.625	9086.64
604.983	9128.22
605.341	9064.72
605.698	9107.66
606.056	9179.97
606.413	9189.91
606.771	9152.63
607.128	9143.81
607.485	9194.21
607.843	9251.61
608.2	9214.55
608.557	9233.98
608.914	9274.21
609.272	9193.53
609.629	9338.61
609.986	9270.59
610.343	9229.23
610.7	9330.93
611.057	9341.77
611.414	9251.61
611.771	9271.95
612.127	9337.48
612.484	9310.59
612.841	9325.05
613.198	9333.41
613.554	9325.05
613.911	9386.52
614.267	9350.59
614.624	9333.19
614.98	9407.99
615.337	9325.96
615.693	9359.63
616.05	9405.05
616.406	9451.83
616.762	9345.62
617.118	9324.15
617.475	9394.65
617.831	9459.96
618.187	9390.36
618.543	9380.87
618.899	9468.32
619.255	9441.66
619.611	9403.24
619.967	9452.51
620.323	9471.94
620.678	9443.92
621.034	9381.32
621.39	9407.99
621.746	9396.69
622.101	9560.3
622.457	9437.82
622.812	9474.65
623.168	9420.87
623.523	9478.72
623.879	9474.65
624.234	9443.47
624.589	9520.98
624.945	9576.57
625.3	9572.28
625.655	9430.13
626.01	9474.65
626.365	9581.32
626.72	9450.7
627.075	9504.93
627.43	9515.78
627.785	9519.17
628.14	9560.3
628.495	9600.52
628.85	9607.08
629.205	9540.64
629.559	9642.33
629.914	9544.48
630.269	9545.38
630.623	9543.8
630.978	9534.31
631.332	9651.82
631.687	9651.14
632.041	9523.69
632.396	9523.01
632.75	9513.52
633.104	9555.33
633.459	9525.5
633.813	9567.3
634.167	9593.29
634.521	9582.67
634.875	9561.66
635.229	9562.11
635.583	9539.28
635.937	9569.11
636.291	9468.32
636.645	9497.25
636.999	9417.7
637.352	9491.37
637.706	9419.96
638.06	9472.39
638.413	9386.74
638.767	9405.05
639.121	9390.59
639.474	9373.86
639.828	9364.82
640.181	9387.65
640.534	9379.29
640.888	9354.2
641.241	9303.81
641.594	9381.32
641.947	9315.33
642.301	9319.63
642.654	9364.82
643.007	9312.17
643.36	9257.48
643.713	9238.27
644.066	9229.23
644.419	9213.19
644.771	9136.81
645.124	9067.66
645.477	9031.05
645.83	8909.47
646.182	8902.46
646.535	8853.43
646.888	8942.46
647.24	8880.77
647.593	8972.29
647.945	8895.23
648.298	8833.54
648.65	8862.24
649.002	8808.45
649.355	8851.84
649.707	8769.81
650.059	8792.86
650.411	8885.74
650.763	8899.98
651.115	8997.83
651.467	8921.22
651.819	8969.81
652.171	8970.94
652.523	8918.73
652.875	8961.22
653.227	8898.17
653.578	8975
653.93	8940.88
654.282	8880.09
654.633	8907.21
654.985	8859.3
655.337	8898.62
655.688	8931.84
656.039	8982.91
656.391	8926.87
656.742	8911.73
657.094	8844.16
657.445	8928.23
657.796	8894.33
658.147	8809.13
658.498	8863.37
658.849	8925.06
659.2	8840.54
659.551	8858.62
659.902	8867.21
660.253	8913.76
660.604	8885.97
660.955	8813.65
661.306	8854.1
661.656	8883.26
662.007	8846.65
662.358	8905.85
662.708	8871.28
663.059	8947.43
663.409	8814.78
663.76	8951.73
664.11	8819.75
664.461	8791.73
664.811	8840.77
665.161	8837.15
665.511	8836.02
665.862	8796.25
666.212	8883.48
666.562	8840.77
666.912	8751.96
667.262	8760.55
667.612	8810.49
667.962	8837.15
668.312	8785.86
668.662	8799.87
669.011	8787.89
669.361	8752.19
669.711	8746.31
670.06	8676.03
670.41	8710.83
670.76	8665.86
671.109	8707.67
671.459	8675.8
671.808	8711.28
672.157	8696.59
672.507	8652.53
672.856	8633.09
673.205	8643.71
673.554	8669.25
673.904	8658.85
674.253	8692.3
674.602	8613.43
674.951	8433.55
675.3	8460.67
675.649	8524.62
675.998	8568.24
676.346	8554.9
676.695	8565.07
677.044	8505.64
677.393	8517.39
677.741	8503.38
678.09	8417.05
678.438	8497.28
678.787	8495.02
679.135	8431.97
679.484	8389.03
679.832	8400.78
680.181	8415.7
680.529	8432.19
680.877	8387.9
681.225	8355.81
681.573	8382.93
681.922	8349.26
682.27	8341.12
682.618	8325.3
682.966	8315.81
683.314	8373.66
683.661	8279.43
684.009	8247.11
684.357	8275.14
684.705	8239.88
685.053	8278.07
685.4	8308.58
685.748	8264.51
686.095	8239.88
686.443	8182.48
686.79	8174.57
687.138	8164.86
687.485	8174.8
687.832	8161.01
688.18	8147.68
688.527	8121.02
688.874	8138.19
689.221	8104.97
689.568	8103.84
689.915	8067.68
690.262	8074.91
690.609	8093.22
690.956	8058.87
691.303	8074.46
691.65	8028.59
691.997	8073.33
692.344	8013
692.69	7970.96
693.037	8040.79
693.383	7921.7
693.73	7919.44
694.077	7912.89
694.423	7858.65
694.769	7864.98
695.116	7847.35
695.462	7871.3
695.808	7820.23
696.155	7863.62
696.501	7821.81
696.847	7774.81
697.193	7711.31
697.539	7782.72
697.885	7660.91
698.231	7664.53
698.577	7622.95
698.923	7707.24
699.269	7645.32
699.614	7562.16
699.96	7557.19
700.306	7617.53
700.651	7568.04
700.997	7510.18
701.342	7479.9
701.688	7498.43
702.033	7556.96
702.379	7511.77
702.724	7448.72
703.069	7433.8
703.415	7394.48
703.76	7358.32
704.105	7348.61
704.45	7344.99
704.795	7296.4
705.14	7281.26
705.485	7271.09
705.83	7232
706.175	7256.86
706.52	7199.01
706.865	7205.33
707.209	7219.8
707.554	7159.01
707.899	7185.9
708.243	7100.7
708.588	7089.86
708.932	6995.17
709.277	7017.54
709.621	7027.26
709.966	6993.81
710.31	6974.6
710.654	6938.67
710.998	6960.82
711.342	6903.65
711.687	6886.25
712.031	6855.96
712.375	6887.83
712.719	6872.01
713.063	6876.3
713.407	6869.07
713.75	6806.02
714.094	6825.23
714.438	6766.25
714.782	6791.56
715.125	6781.84
715.469	6715.63
715.812	6686.93
716.156	6687.15
716.499	6721.5
716.843	6714.72
717.186	6654.84
717.53	6672.24
717.873	6706.14
718.216	6642.86
718.559	6662.75
718.902	6586.82
719.246	6608.51
719.589	6572.81
719.932	6560.15
720.275	6548.63
720.617	6547.05
720.96	6579.36
721.303	6542.98
721.646	6563.32
721.989	6488.97
722.331	6550.66
722.674	6474.73
723.016	6523.09
723.359	6495.75
723.701	6486.26
724.044	6496.43
724.386	6504.79
724.729	6471.79
725.071	6469.76
725.413	6452.58
725.755	6389.08
726.097	6453.04
726.439	6436.31
726.782	6426.82
727.124	6474.28
727.465	6452.58
727.807	6445.13
728.149	6439.93
728.491	6437.44
728.833	6428.4
729.175	6380.72
729.516	6364.45
729.858	6364
730.199	6456.2
730.541	6380.5
730.882	6383.66
731.224	6333.04
731.565	6354.06
731.906	6367.62
732.248	6378.46
732.589	6361.29
732.93	6370.55
733.271	6320.16
733.612	6391.57
733.953	6377.11
734.294	6321.74
734.635	6323.77
734.976	6326.49
735.317	6282.42
735.658	6260.05
735.999	6323.55
736.339	6322.42
736.68	6269.09
737.021	6301.85
737.361	6303.66
737.702	6291.68
738.042	6222.76
738.383	6252.14
738.723	6255.75
739.063	6262.99
739.404	6191.57
739.744	6231.8
740.084	6227.51
740.424	6188.86
740.764	6194.96
741.104	6234.74
741.444	6225.92
741.784	6187.51
742.124	6213.95
742.464	6244.23
742.804	6151.12
743.143	6084.68
743.483	6131.92
743.823	6101.63
744.162	6082.88
744.502	6130.79
744.841	6058.7
745.181	6093.27
745.52	6048.53
745.86	6073.84
746.199	6078.13
746.538	6043.56
746.877	6034.97
747.216	6052.6
747.556	6071.35
747.895	6002.88
748.234	6017.57
748.573	5966.72
748.911	5966.27
749.25	6020.73
749.589	5920.62
749.928	5920.4
750.267	5933.5
750.605	5907.97
750.944	5863
751.283	5806.5
751.621	5899.83
751.96	5768.99
752.298	5798.14
752.636	5856.44
752.975	5779.61
753.313	5778.03
753.651	5748.2
753.989	5721.76
754.327	5727.63
754.666	5716.56
755.004	5697.58
755.342	5721.3
755.679	5702.1
756.017	5637.01
756.355	5667.97
756.693	5638.59
757.031	5664.81
757.368	5576.9
757.706	5545.04
758.044	5578.03
758.381	5527.86
758.719	5508.88
759.056	5540.07
759.394	5534.64
759.731	5479.73
760.068	5492.16
760.405	5458.03
760.743	5435.44
761.08	5430.46
761.417	5357.47
761.754	5439.5
762.091	5447.41
762.428	5390.69
762.765	5392.73
763.102	5356.57
763.438	5362.9
763.775	5309.11
764.112	5307.98
764.449	5315.67
764.785	5300.3
765.122	5302.78
765.458	5263.92
765.795	5213.07
766.131	5238.61
766.467	5252.16
766.804	5145.05
767.14	5202.67
767.476	5206.52
767.812	5162.9
768.148	5113.41
768.485	5160.64
768.821	5080.19
769.157	5114.31
769.492	5091.49
769.828	5093.75
770.164	4997.03
770.5	5046.52
770.836	5024.6
771.171	5031.6
771.507	5016.92
771.842	4956.35
772.178	4932.4
772.513	4948.22
772.849	4937.82
773.184	4876.58
773.519	4849.46
773.855	4866.19
774.19	4837.49
774.525	4860.54
774.86	4915
775.195	4865.51
775.53	4801.78
775.865	4770.14
776.2	4761.33
776.535	4702.57
776.87	4740.99
777.205	4726.08
777.539	4730.82
777.874	4701.44
778.209	4656.93
778.543	4744.83
778.878	4606.08
779.212	4661.9
779.547	4632.29
779.881	4594.55
780.215	4612.63
780.55	4624.16
780.884	4577.61
781.218	4572.63
781.552	4570.83
781.886	4526.99
782.22	4519.08
782.554	4488.34
782.888	4468
783.222	4468.68
783.556	4403.15
783.889	4398.63
784.223	4373.77
784.557	4358.18
784.89	4343.94
785.224	4318.18
785.557	4341.91
785.891	4307.56
786.224	4271.85
786.558	4279.99
786.891	4232.53
787.224	4249.48
787.557	4219.87
787.891	4204.96
788.224	4189.82
788.557	4191.63
788.89	4199.99
789.223	4199.54
789.556	4156.83
789.888	4108.92
790.221	4092.65
790.554	4098.97
790.887	4088.58
791.219	4047
791.552	4010.61
791.884	4024.4
792.217	3973.55
792.549	3997.51
792.882	4007.45
793.214	3963.84
793.546	3942.14
793.879	3952.31
794.211	3911.63
794.543	3908.24
794.875	3899.43
795.207	3890.39
795.539	3841.13
795.871	3845.87
796.203	3828.02
796.535	3819.66
796.867	3822.6
797.198	3789.83
797.53	3774.46
797.862	3775.14
798.193	3748.47
798.525	3747.12
798.856	3724.75
799.188	3659.44
799.519	3656.95
799.85	3719.1
800.182	3664.64
800.513	3690.85
800.844	3620.34
801.175	3677.97
801.506	3637.52
801.837	3642.71
802.168	3649.04
802.499	3601.13
802.83	3593.22
803.161	3631.19
803.491	3562.27
803.822	3562.04
804.153	3522.27
804.483	3507.8
804.814	3533.34
805.145	3497.18
805.475	3496.5
805.805	3490.63
806.136	3519.1
806.466	3526.11
806.796	3480.23
807.126	3514.13
807.457	3449.5
807.787	3470.97
808.117	3462.61
808.447	3445.88
808.777	3460.12
809.107	3426
809.436	3427.58
809.766	3435.49
810.096	3402.95
810.426	3400.69
810.755	3398.2
811.085	3400.01
811.414	3419.9
811.744	3366.34
812.073	3370.41
812.403	3385.32
812.732	3370.63
813.061	3408.82
813.39	3357.3
813.719	3388.03
814.049	3375.6
814.378	3357.07
814.707	3391.65
815.036	3338.32
815.365	3341.25
815.693	3302.38
816.022	3301.93
816.351	3316.4
816.68	3317.53
817.008	3297.64
817.337	3326.79
817.665	3266
817.994	3318.43
818.322	3308.03
818.651	3247.92
818.979	3281.37
819.307	3276.85
819.636	3258.77
819.964	3228.49
820.292	3259.9
820.62	3261.26
820.948	3263.74
821.276	3237.98
821.604	3223.52
821.932	3254.02
822.259	3289.05
822.587	3258.09
822.915	3237.98
823.243	3223.06
823.57	3252.67
823.898	3266
824.225	3209.51
824.553	3233.69
824.88	3247.25
825.207	3273.91
825.535	3249.73
825.862	3218.77
826.189	3212.44
826.516	3250.86
826.843	3226.91
827.17	3249.96
827.497	3215.38
827.824	3237.98
828.151	3231.88
828.478	3233.01
828.805	3291.76
829.131	3252.44
829.458	3249.5
829.785	3248.38
830.111	3265.1
830.438	3245.89
830.764	3268.04
831.09	3225.1
831.417	3254.93
831.743	3208.83
832.069	3226.23
832.395	3215.38
832.722	3214.03
833.048	3183.52
833.374	3211.99
833.7	3190.07
834.026	3197.08
834.351	3188.04
834.677	3167.93
835.003	3194.59
835.329	3188.04
835.654	3162.28
835.98	3161.37
836.306	3200.01
836.631	3187.81
836.956	3197.08
837.282	3192.56
837.607	3174.03
837.932	3179.22
838.258	3162.5
838.583	3151.88
838.908	3121.15
839.233	3171.99
839.558	3130.86
839.883	3111.43
840.208	3117.31
840.533	3148.94
840.858	3139.68
841.182	3129.28
841.507	3145.55
841.832	3077.76
842.156	3126.34
842.481	3106.68
842.805	3082.5
843.13	3097.87
843.454	3102.39
843.778	3077.53
844.103	3088.61
844.427	3056.29
844.751	3047.25
845.075	3074.37
845.399	3058.1
845.723	3049.74
846.047	3018.32
846.371	3005.9
846.695	3030.53
847.019	2970.87
847.343	2972
847.666	2922.28
847.99	2926.12
848.313	2964.99
848.637	2944.65
848.96	2955.73
849.284	2965.44
849.607	2917.76
849.931	2898.1
850.254	2907.37
850.577	2883.64
850.9	2866.24
851.223	2836.63
851.546	2858.55
851.869	2823.3
852.192	2856.07
852.515	2858.55
852.838	2832.11
853.161	2845.9
853.483	2806.35
853.806	2793.25
854.129	2797.09
854.451	2764.55
854.774	2778.33
855.096	2762.29
855.419	2767.94
855.741	2723.64
856.063	2758.9
856.385	2728.39
856.708	2767.03
857.03	2757.99
857.352	2739.01
857.674	2734.04
857.996	2724.1
858.318	2716.86
858.64	2665.79
858.961	2732.46
859.283	2676.41
859.605	2682.74
859.926	2709.63
860.248	2702.85
860.57	2657.66
860.891	2681.38
861.212	2647.94
861.534	2691.1
861.855	2671.44
862.176	2614.49
862.498	2648.62
862.819	2620.82
863.14	2612.91
863.461	2621.95
863.782	2609.97
864.103	2651.55
864.424	2669.41
864.745	2615.85
865.065	2614.04
865.386	2601.84
865.707	2606.81
866.027	2611.1
866.348	2607.49
866.668	2585.34
866.989	2580.37
867.309	2601.61
867.63	2605.23
867.95	2577.66
868.27	2558.22
868.59	2550.77
868.91	2555.29
869.23	2561.16
869.55	2543.53
869.87	2584.21
870.19	2555.06
870.51	2554.38
870.83	2539.02
871.15	2557.77
871.469	2509.64
871.789	2501.5
872.109	2553.48
872.428	2536.53
872.748	2538.56
873.067	2514.38
873.386	2523.42
873.706	2560.03
874.025	2488.85
874.344	2472.58
874.663	2482.07
874.982	2471.22
875.301	2506.47
875.62	2485.46
875.939	2471.45
876.258	2461.05
876.577	2482.97
876.896	2441.84
877.214	2434.84
877.533	2429.64
877.852	2451.33
878.17	2440.94
878.489	2461.73
878.807	2468.06
879.125	2462.41
879.444	2442.07
879.762	2412.92
880.08	2428.06
880.398	2406.14
880.716	2399.13
881.034	2419.92
881.352	2407.72
881.67	2381.51
881.988	2371.79
882.306	2434.16
882.624	2388.74
882.941	2384.67
883.259	2360.26
883.577	2308.74
883.894	2353.03
884.212	2310.77
884.529	2347.38
884.846	2312.13
885.164	2303.32
885.481	2318.46
885.798	2334.27
886.115	2302.41
886.432	2306.03
886.75	2303.09
887.067	2314.84
887.383	2293.82
887.7	2287.04
888.017	2272.36
888.334	2255.86
888.651	2248.85
888.967	2248.63
889.284	2219.7
889.6	2218.57
889.917	2216.09
890.233	2205.69
890.55	2184.67
890.866	2228.97
891.182	2213.37
891.498	2189.87
891.815	2179.93
892.131	2194.39
892.447	2200.49
892.763	2153.04
893.079	2169.76
893.395	2152.81
893.71	2154.84
894.026	2138.35
894.342	2150.32
894.657	2168.63
894.973	2134.05
895.289	2146.26
895.604	2117.11
895.92	2105.81
896.235	2103.32
896.55	2109.2
896.865	2089.31
897.181	2079.82
897.496	2085.69
897.811	2093.15
898.126	2110.1
898.441	2076.88
898.756	2051.57
899.071	2070.78
899.386	2044.34
899.7	2040.27
900.015	1994.17
900.33	2044.79
900.644	1999.37
900.959	2027.62
901.273	2014.96
901.588	1981.97
901.902	1983.78
902.216	1995.3
902.531	1962.31
902.845	1998.69
903.159	1961.4
903.473	1958.01
903.787	1940.84
904.101	1956.43
904.415	1945.58
904.729	1920.5
905.042	1934.74
905.356	1929.54
905.67	1914.4
905.984	1917.11
906.297	1905.36
906.611	1943.78
906.924	1927.73
907.237	1903.55
907.551	1887.96
907.864	1871.46
908.177	1885.02
908.491	1866.26
908.804	1851.12
909.117	1848.19
909.43	1848.64
909.743	1836.21
910.056	1836.66
910.368	1836.89
910.681	1829.88
910.994	1832.14
911.307	1806.15
911.619	1783.78
911.932	1768.87
912.244	1817.9
912.557	1794.85
912.869	1798.7
913.181	1786.72
913.494	1791.46
913.806	1757.79
914.118	1754.85
914.43	1746.95
914.742	1758.7
915.054	1728.19
915.366	1729.54
915.678	1742.2
915.99	1712.6
916.302	1712.82
916.613	1711.01
916.925	1658.81
917.236	1718.25
917.548	1717.79
917.859	1691.13
918.171	1690.68
918.482	1684.35
918.794	1673.05
919.105	1675.31
919.416	1671.92
919.727	1649.55
920.038	1660.85
920.349	1651.58
920.66	1616.78
920.971	1618.14
921.282	1623.11
921.593	1643.67
921.903	1606.61
922.214	1611.81
922.525	1609.55
922.835	1591.47
923.146	1584.01
923.456	1607.06
923.767	1595.31
924.077	1585.82
924.387	1590.79
924.697	1575.2
925.008	1581.3
925.318	1567.74
925.628	1579.04
925.938	1535.2
926.248	1569.78
926.558	1574.07
926.867	1531.13
927.177	1521.64
927.487	1542.66
927.796	1514.64
928.106	1543.79
928.416	1513.28
928.725	1539.04
929.034	1499.95
929.344	1499.72
929.653	1496.56
929.962	1498.82
930.271	1495.2
930.581	1456.78
930.89	1527.97
931.199	1493.17
931.508	1439.61
931.817	1466.05
932.125	1474.64
932.434	1473.51
932.743	1422.21
933.051	1446.84
933.36	1449.33
933.669	1437.12
933.977	1413.85
934.286	1428.31
934.594	1408.88
934.902	1414.98
935.21	1417.69
935.519	1386.5
935.827	1409.1
936.135	1384.24
936.443	1379.27
936.751	1370.01
937.059	1392.83
937.367	1353.06
937.674	1359.61
937.982	1371.36
938.29	1377.01
938.597	1379.72
938.905	1330.91
939.213	1348.99
939.52	1342.21
939.827	1327.07
940.135	1328.88
940.442	1324.13
940.749	1313.74
941.056	1305.83
941.363	1301.76
941.67	1290.91
941.977	1309.44
942.284	1274.19
942.591	1312.83
942.898	1272.16
943.205	1268.09
943.511	1294.98
943.818	1271.25
944.125	1272.61
944.431	1272.16
944.738	1247.52
945.044	1264.92
945.35	1262.44
945.657	1249.33
945.963	1248.65
946.269	1252.72
946.575	1237.13
946.881	1249.33
947.187	1221.99
947.493	1238.94
947.799	1221.08
948.105	1205.04
948.41	1201.42
948.716	1210.69
949.022	1238.26
949.327	1217.69
949.633	1222.21
949.938	1186.51
950.244	1195.55
950.549	1196.68
950.854	1194.87
951.16	1165.27
951.465	1164.36
951.77	1160.97
952.075	1175.21
952.38	1151.48
952.685	1178.15
952.99	1153.51
953.294	1124.82
953.599	1125.94
953.904	1160.52
954.209	1134.31
954.513	1144.48
954.818	1167.98
955.122	1108.09
955.426	1117.58
955.731	1120.07
956.035	1128.43
956.339	1094.31
956.643	1104.7
956.948	1116.23
957.252	1125.49
957.556	1091.6
957.86	1109
958.163	1096.12
958.467	1093.63
958.771	1084.14
959.075	1087.53
959.378	1061.99
959.682	1076.91
959.985	1055.66
960.289	1054.53
960.592	1069
960.896	1058.83
961.199	1070.13
961.502	1077.13
961.805	1033.52
962.108	1041.88
962.411	1052.05
962.714	1051.6
963.017	1042.33
963.32	1038.49
963.623	1042.56
963.926	1033.97
964.228	1019.96
964.531	1030.35
964.833	1010.47
965.136	1016.57
965.438	1004.14
965.741	1014.54
966.043	995.1
966.345	1008.66
966.648	1007.53
966.95	995.78
967.252	989.9
967.554	980.64
967.856	982.22
968.158	981.09
968.46	1004.59
968.761	976.34
969.063	969.56
969.365	967.98
969.666	983.8
969.968	952.62
970.269	960.3
970.571	978.15
970.872	970.24
971.174	958.94
971.475	957.14
971.776	925.72
972.077	931.83
972.378	926.4
972.679	954.65
972.98	953.97
973.281	942.9
973.582	927.53
973.883	928.89
974.183	920.3
974.484	922.79
974.785	918.94
975.085	911.94
975.386	930.02
975.686	908.1
975.986	909.68
976.287	900.87
976.587	919.85
976.887	899.74
977.187	931.6
977.487	885.73
977.787	880.75
978.087	884.14
978.387	872.39
978.687	888.44
978.987	898.83
979.286	883.47
979.586	867.19
979.885	876.01
980.185	862.68
980.484	890.47
980.784	882.56
981.083	864.71
981.382	869
981.682	867.87
981.981	866.29
982.28	850.47
982.579	843.69
982.878	846.63
983.177	831.94
983.475	845.05
983.774	836.91
984.073	861.09
984.372	842.34
984.67	834.2
984.969	841.21
985.267	812.96
985.566	807.76
985.864	810.02
986.162	832.85
986.461	817.7
986.759	829.23
987.057	809.57
987.355	800.98
987.653	796.46
987.951	803.69
988.249	812.73
988.547	819.06
988.844	793.98
989.142	824.03
989.44	780.64
989.737	810.25
990.035	780.42
990.332	806.86
990.63	796.46
990.927	778.16
991.224	772.73
991.521	741.1
991.819	757.82
992.116	786.07
992.413	754.66
992.71	776.35
993.006	774.09
993.303	771.6
993.6	771.6
993.897	735.22
994.193	745.84
994.49	736.58
994.787	742.45
995.083	758.72
995.379	753.98
995.676	744.26
995.972	742.9
996.268	749.23
996.565	734.54
996.861	722.57
997.157	739.06
997.453	731.15
997.749	728.22
998.044	733.64
998.34	718.5
998.636	713.3
998.932	715.33
999.227	735.22
999.523	723.7
999.818	690.25
1000.114	709.23
1000.409	685.5
1000.704	704.49
1001	697.03
1001.295	700.42
1001.59	687.54
1001.885	691.15
1002.18	678.73
1002.475	676.01
1002.77	674.43
1003.065	685.28
1003.359	677.37
1003.654	692.06
1003.949	669.46
1004.243	659.06
1004.538	646.18
1004.832	654.77
1005.127	643.47
1005.421	638.73
1005.715	637.14
1006.009	643.02
1006.304	635.56
1006.598	644.15
1006.892	627.43
1007.186	647.77
1007.48	627.65
1007.773	671.04
1008.067	647.31
1008.361	635.34
1008.655	629.01
1008.948	617.48
1009.242	621.33
1009.535	644.15
1009.829	598.28
1010.122	613.64
1010.415	591.95
1010.708	628.78
1011.001	620.65
1011.295	616.58
1011.588	599.86
1011.881	613.87
1012.173	613.64
1012.466	586.07
1012.759	599.18
1013.052	624.72
1013.344	583.59
1013.637	612.74
1013.93	589.91
1014.222	598.05
1014.514	586.98
1014.807	570.25
1015.099	589.24
1015.391	580.65
1015.683	590.59
1015.976	582.23
1016.268	581.33
1016.56	577.03
1016.851	566.41
1017.143	548.33
1017.435	565.06
1017.727	560.54
1018.018	559.41
1018.31	541.78
1018.602	552.4
1018.893	549.24
1019.185	546.07
1019.476	567.32
1019.767	533.42
1020.058	551.72
1020.35	535.45
1020.641	548.11
1020.932	558.05
1021.223	540.65
1021.514	543.81
1021.804	525.51
1022.095	547.2
1022.386	532.97
1022.677	532.97
1022.967	546.3
1023.258	515.57
1023.548	533.19
1023.839	520.31
1024.129	522.8
1024.419	515.79
1024.709	520.31
1025	521.44
1025.29	508.56
1025.58	504.49
1025.87	506.98
1026.16	498.39
1026.449	499.52
1026.739	516.7
1027.029	504.94
1027.319	505.17
1027.608	524.38
1027.898	497.71
1028.187	483.02
1028.477	500.42
1028.766	507.88
1029.055	491.84
1029.344	475.79
1029.634	496.36
1029.923	501.33
1030.212	476.02
1030.501	476.24
1030.79	490.48
1031.078	478.05
1031.367	456.81
1031.656	492.97
1031.945	483.48
1032.233	452.29
1032.522	478.73
1032.81	471.27
1033.099	492.29
1033.387	459.3
1033.675	463.82
1033.963	471.72
1034.251	449.58
1034.54	453.65
1034.828	445.06
1035.116	443.03
1035.403	453.42
1035.691	468.79
1035.979	454.32
1036.267	467.21
1036.554	463.36
1036.842	445.28
1037.129	455.91
1037.417	434.44
1037.704	445.51
1037.992	437.6
1038.279	423.82
1038.566	440.54
1038.853	440.54
1039.14	440.54
