Data from foam1_polythene_foam_FLMS001491_00014.txt Node
Date: Wed Feb 08 10:54:27 GMT 2017
User: dcchb
Spectrometer: FLMS00149
Trigger mode: 0
Integration Time (sec): 2.000000E-2
Scans to average: 10
Electric dark correction enabled: true
Nonlinearity correction enabled: false
Boxcar width: 0
XAxis mode: Wavelengths
Number of Pixels in Spectrum: 2048
>>>>>Begin Spectral Data<<<<<
341.393	-22.39
341.776	-22.39
342.16	-22.39
342.543	-58.77
342.927	-52.44
343.31	-55.15
343.693	-53.12
344.077	-60.8
344.46	-61.26
344.843	-53.35
345.226	-72.33
345.61	-40.92
345.993	-11.99
346.376	8.12
346.759	16.26
347.142	32.98
347.525	20.78
347.908	56.26
348.291	97.61
348.674	80.66
349.057	96.25
349.44	122.92
349.823	132.86
350.206	139.42
350.588	166.54
350.971	185.52
351.354	185.52
351.737	233.88
352.119	228.45
352.502	248.79
352.884	253.76
353.267	273.2
353.65	279.07
354.032	272.97
354.414	301.67
354.797	301.45
355.179	304.38
355.562	312.52
355.944	303.25
356.326	305.29
356.709	312.75
357.091	320.2
357.473	336.47
357.855	340.32
358.238	329.24
358.62	341.45
359.002	322.92
359.384	326.98
359.766	352.97
360.148	342.12
360.53	323.14
360.912	328.56
361.294	314.1
361.676	294.22
362.057	319.53
362.439	308.45
362.821	297.38
363.203	313.42
363.584	305.74
363.966	304.16
364.348	293.76
364.729	324.95
365.111	280.88
365.493	313.88
365.874	308.23
366.256	283.82
366.637	299.19
367.019	295.12
367.4	292.63
367.781	298.74
368.163	298.06
368.544	300.77
368.925	291.73
369.306	308.68
369.688	284.72
370.069	298.74
370.45	282.92
370.831	301.22
371.212	292.86
371.593	307.55
371.974	304.16
372.355	291.96
372.736	300.77
373.117	284.5
373.498	312.97
373.879	282.24
374.26	305.06
374.641	322.46
375.021	290.83
375.402	323.14
375.783	325.18
376.163	320.43
376.544	313.88
376.925	304.61
377.305	317.04
377.686	317.49
378.066	320.2
378.447	341.45
378.827	322.69
379.208	304.84
379.588	314.1
379.968	336.93
380.349	308
380.729	311.84
381.109	326.3
381.489	345.97
381.87	325.18
382.25	335.34
382.63	331.95
383.01	346.19
383.39	334.44
383.77	323.14
384.15	343.93
384.53	322.92
384.91	330.6
385.29	357.72
385.67	343.25
386.049	357.94
386.429	345.97
386.809	336.7
387.189	340.54
387.568	332.18
387.948	349.13
388.328	341.9
388.707	342.58
389.087	334.44
389.466	337.83
389.846	344.84
390.225	359.52
390.605	345.29
390.984	363.82
391.363	356.36
391.743	352.97
392.122	342.8
392.501	358.39
392.881	358.17
393.26	361.78
393.639	377.6
394.018	367.89
394.397	371.73
394.776	337.6
395.155	367.21
395.534	397.04
395.913	355.91
396.292	355
396.671	349.36
397.05	362.91
397.429	369.92
397.808	385.06
398.186	399.07
398.565	370.37
398.944	373.54
399.323	347.1
399.701	352.97
400.08	374.21
400.458	379.41
400.837	379.41
401.215	373.54
401.594	393.2
401.972	381.67
402.351	374.89
402.729	398.62
403.107	401.11
403.486	385.29
403.864	398.17
404.242	395.23
404.62	396.36
404.999	397.49
405.377	395.23
405.755	402.69
406.133	399.07
406.511	400.88
406.889	406.3
407.267	411.05
407.645	411.73
408.023	400.65
408.401	410.6
408.779	416.02
409.156	415.12
409.534	406.53
409.912	425.96
410.29	418.96
410.667	429.81
411.045	402.24
411.422	423.93
411.8	437.49
412.178	426.19
412.555	427.55
412.933	463.93
413.31	429.58
413.687	456.92
414.065	450.6
414.442	443.14
414.819	451.27
415.197	439.75
415.574	441.78
415.951	462.35
416.328	457.6
416.705	441.1
417.082	447.21
417.46	460.54
417.837	448.34
418.214	455.57
418.591	465.74
418.967	473.87
419.344	473.87
419.721	479.07
420.098	499.86
420.475	480.43
420.852	486.3
421.228	488.79
421.605	474.78
421.982	483.59
422.358	498.28
422.735	510.25
423.111	493.76
423.488	516.58
423.864	493.53
424.241	500.99
424.617	510.48
424.994	526.75
425.37	521.33
425.746	511.84
426.123	536.47
426.499	491.95
426.875	529.92
427.251	543.93
427.627	529.01
428.003	527.2
428.379	539.86
428.756	538.5
429.132	562.23
429.507	549.35
429.883	560.65
430.259	552.29
430.635	571.27
431.011	577.82
431.387	553.42
431.763	581.44
432.138	567.65
432.514	573.98
432.89	571.5
433.265	587.77
433.641	609.24
434.016	596.58
434.392	613.08
434.767	606.98
435.143	597.03
435.518	620.31
435.894	613.3
436.269	611.04
436.644	634.55
437.02	636.81
437.395	619.4
437.77	624.15
438.145	622.34
438.52	644.49
438.895	626.18
439.271	628.22
439.646	652.85
440.021	655.56
440.395	663.25
440.77	650.14
441.145	651.27
441.52	683.13
441.895	682
442.27	717.48
442.645	700.08
443.019	689.69
443.394	684.71
443.769	682.45
444.143	700.08
444.518	721.32
444.892	720.64
445.267	715
445.641	729.68
446.016	748.44
446.39	741.66
446.764	736.46
447.139	719.74
447.513	752.06
447.887	742.79
448.262	775.56
448.636	750.02
449.01	768.33
449.384	749.12
449.758	774.2
450.132	785.73
450.506	796.12
450.88	796.58
451.254	796.35
451.628	803.81
452.002	825.73
452.376	797.25
452.75	845.61
453.123	847.2
453.497	817.59
453.871	809.68
454.244	833.64
454.618	863.24
454.992	858.27
455.365	831.83
455.739	857.82
456.112	863.69
456.486	874.77
456.859	885.16
457.232	899.17
457.606	878.38
457.979	865.73
458.352	902.79
458.725	892.62
459.099	878.83
459.472	900.98
459.845	895.78
460.218	895.1
460.591	904.82
460.964	921.32
461.337	907.76
461.71	924.71
462.083	933.52
462.456	934.65
462.829	945.95
463.201	966.97
463.574	926.06
463.947	966.74
464.32	984.82
464.692	963.58
465.065	980.07
465.438	961.09
465.81	971.26
466.183	995.21
466.555	1017.81
466.928	994.08
467.3	1020.52
467.672	1031.82
468.045	1017.81
468.417	1046.29
468.789	1054.65
469.161	1033.41
469.534	1068.88
469.906	1076.57
470.278	1084.7
470.65	1074.53
471.022	1101.88
471.394	1128.54
471.766	1115.89
472.138	1122.22
472.51	1137.81
472.882	1149.33
473.253	1183.46
473.625	1171.71
473.997	1186.4
474.369	1184.81
474.74	1206.51
475.112	1237.69
475.484	1226.62
475.855	1223.46
476.227	1271.14
476.598	1227.07
476.97	1287.41
477.341	1291.48
477.713	1323.34
478.084	1303.23
478.455	1333.96
478.827	1347.07
479.198	1371.25
479.569	1383
479.94	1417.12
480.311	1394.3
480.682	1458.25
481.053	1458.03
481.424	1481.3
481.795	1499.61
482.166	1543.9
482.537	1503.68
482.908	1564.24
483.279	1558.59
483.65	1598.36
484.021	1621.86
484.391	1599.94
484.762	1639.26
485.133	1643.56
485.503	1655.54
485.874	1686.72
486.244	1683.56
486.615	1735.08
486.985	1750.67
487.356	1790
487.726	1768.3
488.097	1820.5
488.467	1811.46
488.837	1855.53
489.207	1851.01
489.578	1897.11
489.948	1894.85
490.318	1907.28
490.688	1921.07
491.058	1968.3
491.428	1953.61
491.798	1978.92
492.168	2011.46
492.538	2037.22
492.908	2070.67
493.278	2064.11
493.648	2075.41
494.017	2093.49
494.387	2102.3
494.757	2140.04
495.126	2145.24
495.496	2100.95
495.866	2160.16
496.235	2185.47
496.605	2183.66
496.974	2219.14
497.344	2234.28
497.713	2240.6
498.082	2246.71
498.452	2302.98
498.821	2281.51
499.19	2296.2
499.559	2309.76
499.928	2354.73
500.298	2358.57
500.667	2351.56
501.036	2346.59
501.405	2397.89
501.774	2368.96
502.143	2359.02
502.512	2390.66
502.88	2422.97
503.249	2434.5
503.618	2459.58
503.987	2453.93
504.356	2470.88
504.724	2487.6
505.093	2497.32
505.462	2518.34
505.83	2528.73
506.199	2565.34
506.567	2559.47
506.936	2570.99
507.304	2607.15
507.672	2645.34
508.041	2658.45
508.409	2667.94
508.777	2654.15
509.145	2710.42
509.514	2674.27
509.882	2731.44
510.25	2726.02
510.618	2773.7
510.986	2760.82
511.354	2751.1
511.722	2796.07
512.09	2800.14
512.458	2813.7
512.826	2822.51
513.193	2837.88
513.561	2884.88
513.929	2895.28
514.297	2929.85
514.664	2908.38
515.032	2939.8
515.4	2978.66
515.767	2989.29
516.135	2976.86
516.502	2961.49
516.869	2998.55
517.237	3051.66
517.604	3035.39
517.972	3103.63
518.339	3111.09
518.706	3106.8
519.073	3126.23
519.44	3157.19
519.808	3130.98
520.175	3181.82
520.542	3215.04
520.909	3220.01
521.276	3234.93
521.643	3267.47
522.009	3297.53
522.376	3278.32
522.743	3329.16
523.11	3362.38
523.477	3375.26
523.843	3408.71
524.21	3417.75
524.577	3461.59
524.943	3453.23
525.31	3485.77
525.676	3533.23
526.043	3531.42
526.409	3533.23
526.776	3584.52
527.142	3613.45
527.508	3622.04
527.874	3662.94
528.241	3666.78
528.607	3667.69
528.973	3681.7
529.339	3701.36
529.705	3741.36
530.071	3699.55
530.437	3799.66
530.803	3799.89
531.169	3807.57
531.535	3808.47
531.901	3885.08
532.267	3907.91
532.632	3895.93
532.998	3901.13
533.364	3957.17
533.73	3954.01
534.095	3958.75
534.461	3971.41
534.826	3988.36
535.192	4029.48
535.557	4088.24
535.923	4070.61
536.288	4097.05
536.653	4094.79
537.019	4039.43
537.384	4096.83
537.749	4135.92
538.114	4151.52
538.479	4159.2
538.845	4176.37
539.21	4206.88
539.575	4181.34
539.94	4210.72
540.305	4229.48
540.67	4207.11
541.034	4209.37
541.399	4271.96
541.764	4291.62
542.129	4294.34
542.494	4367.1
542.858	4316.26
543.223	4361.23
543.587	4339.53
543.952	4380.89
544.316	4381.57
544.681	4377.95
545.045	4397.16
545.41	4470.6
545.774	4431.51
546.138	4477.16
546.503	4518.74
546.867	4421.79
547.231	4559.64
547.595	4498.4
547.959	4519.64
548.324	4559.87
548.688	4534.56
549.052	4580.2
549.416	4588.34
549.779	4610.49
550.143	4682.8
550.507	4643.71
550.871	4665.4
551.235	4694.1
551.599	4673.31
551.962	4664.72
552.326	4742.91
552.689	4745.62
553.053	4763.25
553.417	4765.06
553.78	4820.88
554.143	4830.14
554.507	4840.31
554.87	4860.65
555.234	4900.42
555.597	4899.29
555.96	4867.88
556.323	4926.18
556.686	4953.08
557.05	5000.98
557.413	5013.64
557.776	5033.07
558.139	5074.2
558.502	5073.98
558.865	5075.78
559.228	5127.53
559.59	5082.11
559.953	5116.91
560.316	5168.21
560.679	5193.52
561.041	5323.24
561.404	5246.85
561.767	5347.87
562.129	5266.29
562.492	5351.03
562.854	5389.22
563.217	5317.59
563.579	5430.13
563.941	5361.2
564.304	5466.51
564.666	5501.31
565.028	5516.9
565.39	5518.71
565.753	5529.78
566.115	5527.07
566.477	5603.68
566.839	5658.82
567.201	5619.27
567.563	5655.88
567.925	5737.69
568.287	5699.72
568.648	5692.72
569.01	5737.91
569.372	5766.16
569.734	5778.14
570.095	5803.68
570.457	5838.7
570.819	5832.83
571.18	5843.22
571.542	5822.66
571.903	5899.49
572.265	5905.14
572.626	5927.74
572.987	5960.73
573.349	6015.42
573.71	6013.84
574.071	6000.05
574.432	6036.89
574.794	6091.35
575.155	6167.96
575.516	6075.53
575.877	6078.24
576.238	6119.6
576.599	6148.3
576.96	6170.9
577.32	6165.7
577.681	6191.46
578.042	6165.93
578.403	6160.5
578.763	6165.7
579.124	6204.79
579.485	6237.34
579.845	6199.37
580.206	6257.45
580.566	6218.35
580.927	6247.73
581.287	6308.52
581.648	6299.71
582.008	6246.6
582.368	6291.12
582.728	6269.43
583.089	6268.07
583.449	6270.78
583.809	6298.13
584.169	6302.19
584.529	6278.69
584.889	6351.46
585.249	6276.88
585.609	6254.96
585.969	6317.56
586.329	6375.64
586.688	6349.2
587.048	6298.58
587.408	6325.24
587.768	6315.98
588.127	6308.75
588.487	6322.53
588.846	6331.57
589.206	6310.78
589.565	6331.12
589.925	6375.19
590.284	6352.14
590.643	6345.13
591.003	6333.15
591.362	6305.36
591.721	6341.29
592.08	6353.49
592.44	6326.37
592.799	6380.38
593.158	6370.89
593.517	6384.68
593.876	6329.31
594.235	6339.03
594.593	6405.92
594.952	6344.23
595.311	6348.52
595.67	6344.45
596.029	6440.72
596.387	6421.96
596.746	6415.86
597.104	6379.71
597.463	6350.55
597.822	6440.27
598.18	6396.43
598.538	6432.36
598.897	6470.78
599.255	6410.89
599.613	6393.26
599.972	6444.11
600.33	6485.92
600.688	6484.11
601.046	6444.79
601.404	6473.49
601.762	6490.21
602.12	6471.45
602.478	6454.05
602.836	6484.79
603.194	6398.91
603.552	6430.1
603.91	6435.3
604.268	6491.34
604.625	6519.14
604.983	6487.5
605.341	6495.63
605.698	6485.24
606.056	6489.31
606.413	6515.07
606.771	6515.75
607.128	6513.71
607.485	6456.99
607.843	6505.58
608.2	6515.97
608.557	6560.72
608.914	6518.91
609.272	6560.04
609.629	6604.78
609.986	6572.02
610.343	6593.26
610.7	6581.06
611.057	6592.13
611.414	6586.03
611.771	6555.52
612.127	6606.14
612.484	6521.4
612.841	6620.15
613.198	6562.3
613.554	6607.72
613.911	6668.29
614.267	6647.95
614.624	6632.81
614.98	6636.65
615.337	6654.5
615.693	6659.02
616.05	6614.5
616.406	6678
616.762	6656.31
617.118	6616.08
617.475	6619.7
617.831	6631.45
618.187	6645.46
618.543	6583.54
618.899	6680.71
619.255	6645.69
619.611	6678.91
619.967	6654.73
620.323	6702.18
620.678	6684.1
621.034	6638.46
621.39	6706.7
621.746	6653.6
622.101	6715.06
622.457	6697.44
622.812	6690.43
623.168	6727.27
623.523	6728.4
623.879	6708.96
624.234	6646.59
624.589	6687.72
624.945	6708.74
625.3	6679.13
625.655	6691.79
626.01	6603.65
626.365	6700.37
626.72	6638.91
627.075	6612.02
627.43	6634.39
627.785	6633.26
628.14	6636.65
628.495	6666.7
628.85	6684.56
629.205	6635.29
629.559	6669.42
629.914	6601.17
630.269	6587.61
630.623	6548.29
630.978	6592.81
631.332	6620.6
631.687	6628.06
632.041	6562.75
632.396	6637.1
632.75	6582.19
633.104	6542.64
633.459	6565.69
633.813	6554.62
634.167	6525.92
634.521	6555.29
634.875	6512.58
635.229	6536.31
635.583	6480.49
635.937	6512.13
636.291	6472.36
636.645	6481.85
636.999	6449.99
637.352	6449.53
637.706	6457.44
638.06	6435.75
638.413	6414.28
638.767	6460.15
639.121	6428.74
639.474	6381.06
639.828	6376.99
640.181	6457.44
640.534	6439.36
640.888	6441.17
641.241	6380.84
641.594	6350.55
641.947	6333.38
642.301	6355.52
642.654	6330.67
643.007	6347.39
643.36	6369.31
643.713	6305.36
644.066	6337.67
644.419	6279.14
644.771	6202.99
645.124	6085.02
645.477	6058.58
645.83	6047.96
646.182	6053.16
646.535	6139.94
646.888	6157.34
647.24	6178.58
647.593	6176.09
647.945	6113.5
648.298	6085.7
648.65	6079.83
649.002	6022.65
649.355	6090
649.707	6084.12
650.059	6005.25
650.411	6065.36
650.763	6086.15
651.115	6170.45
651.467	6165.7
651.819	6129.77
652.171	6130.67
652.523	6133.38
652.875	6166.15
653.227	6133.16
653.578	6140.39
653.93	6114.85
654.282	6050
654.633	6083.44
654.985	6011.35
655.337	6064.01
655.688	6091.58
656.039	6130.22
656.391	6029.66
656.742	6062.2
657.094	6013.16
657.445	6073.27
657.796	6107.17
658.147	6010
658.498	6020.84
658.849	6061.52
659.2	6000.73
659.551	5989.21
659.902	6068.53
660.253	6043.44
660.604	5964.35
660.955	5967.51
661.306	5989.21
661.656	5978.81
662.007	6025.14
662.358	5950.11
662.708	5947.85
663.059	6045.48
663.409	5930.23
663.76	5979.04
664.11	5967.29
664.461	5998.47
664.811	5984.46
665.161	6021.3
665.511	5937.23
665.862	5917.57
666.212	5937.46
666.562	5943.33
666.912	5936.78
667.262	5902.2
667.612	5901.53
667.962	5946.27
668.312	5984.46
668.662	5948.53
669.011	5936.1
669.361	5963.22
669.711	5906.5
670.06	5907.85
670.41	5920.51
670.76	5904.46
671.109	5950.11
671.459	5931.13
671.808	5910.79
672.157	5911.24
672.507	5848.42
672.856	5855.88
673.205	5858.59
673.554	5873.28
673.904	5816.56
674.253	5873.5
674.602	5873.05
674.951	5767.07
675.3	5778.59
675.649	5898.14
675.998	5799.16
676.346	5852.04
676.695	5874.86
677.044	5797.8
677.393	5828.53
677.741	5801.19
678.09	5819.72
678.438	5800.29
678.787	5793.51
679.135	5812.04
679.484	5805.93
679.832	5800.51
680.181	5748.99
680.529	5746.5
680.877	5694.07
681.225	5699.72
681.573	5786.5
681.922	5734.07
682.27	5742.89
682.618	5738.37
682.966	5725.94
683.314	5643.45
683.661	5724.58
684.009	5669.22
684.357	5646.62
684.705	5617.92
685.053	5613.85
685.4	5630.12
685.748	5608.65
686.095	5594.19
686.443	5559.61
686.79	5598.03
687.138	5635.77
687.485	5567.98
687.832	5519.16
688.18	5547.64
688.527	5553.06
688.874	5515.77
689.221	5549.9
689.568	5496.56
689.915	5503.8
690.262	5464.93
690.609	5450.24
690.956	5436.68
691.303	5426.96
691.65	5421.09
691.997	5400.97
692.344	5364.82
692.69	5399.84
693.037	5414.76
693.383	5355.55
693.73	5386.28
694.077	5385.16
694.423	5394.42
694.769	5313.74
695.116	5285.04
695.462	5275.55
695.808	5244.59
696.155	5268.1
696.501	5219.96
696.847	5189.45
697.193	5197.59
697.539	5214.99
697.885	5178.15
698.231	5158.95
698.577	5159.85
698.923	5203.46
699.269	5169.34
699.614	5141.09
699.96	5111.94
700.306	5149.23
700.651	5093.41
700.997	5112.39
701.342	5074.65
701.688	5051.83
702.033	5029.46
702.379	5055.9
702.724	5020.19
703.069	4976.13
703.415	4961.66
703.76	4986.3
704.105	4971.15
704.45	4925.51
704.795	4911.95
705.14	4929.57
705.485	4939.52
705.83	4909.91
706.175	4910.59
706.52	4933.19
706.865	4934.55
707.209	4887.77
707.554	4825.4
707.899	4905.39
708.243	4849.8
708.588	4846.86
708.932	4822.01
709.277	4790.82
709.621	4776.13
709.966	4756.7
710.31	4730.26
710.654	4738.39
710.998	4728.22
711.342	4797.15
711.687	4748.79
712.031	4751.95
712.375	4751.27
712.719	4744.72
713.063	4711.27
713.407	4770.26
713.75	4769.58
714.094	4652.07
714.438	4619.75
714.782	4679.86
715.125	4576.81
715.469	4627.89
715.812	4603.25
716.156	4590.37
716.499	4615.68
716.843	4624.27
717.186	4571.84
717.53	4601.67
717.873	4619.07
718.216	4615.68
718.559	4566.65
718.902	4577.94
719.246	4566.19
719.589	4546.08
719.932	4547.89
720.275	4544.95
720.617	4535.46
720.96	4510.6
721.303	4459.08
721.646	4481.68
721.989	4484.39
722.331	4463.37
722.674	4458.85
723.016	4431.06
723.359	4457.5
723.701	4462.24
724.044	4444.61
724.386	4393.32
724.729	4468.57
725.071	4451.39
725.413	4466.54
725.755	4439.64
726.097	4438.51
726.439	4420.21
726.782	4396.03
727.124	4386.99
727.465	4358.52
727.807	4363.71
728.149	4337.27
728.491	4342.7
728.833	4438.74
729.175	4386.31
729.516	4316.26
729.858	4327.33
730.199	4319.19
730.541	4308.57
730.882	4348.35
731.224	4317.39
731.565	4307.67
731.906	4326.2
732.248	4289.59
732.589	4297.27
732.93	4315.8
733.271	4290.04
733.612	4257.28
733.953	4235.13
734.294	4280.78
734.635	4231.29
734.976	4260.89
735.317	4232.42
735.658	4237.16
735.999	4196.49
736.339	4167.56
736.68	4175.92
737.021	4189.03
737.361	4187.67
737.702	4236.94
738.042	4191.51
738.383	4194
738.723	4195.13
739.063	4197.39
739.404	4190.61
739.744	4213.43
740.084	4183.83
740.424	4209.14
740.764	4162.14
741.104	4137.96
741.444	4175.02
741.784	4123.04
742.124	4118.07
742.464	4106.09
742.804	4097.96
743.143	4069.94
743.483	4064.29
743.823	4043.04
744.162	4030.84
744.502	4108.58
744.841	4054.34
745.181	4100.22
745.52	4067
745.86	4036.94
746.199	4057.51
746.538	4065.42
746.877	4067.45
747.216	4059.31
747.556	4037.39
747.895	4031.07
748.234	4041.24
748.573	4026.77
748.911	4005.98
749.25	3998.75
749.589	3965.08
749.928	3954.46
750.267	3996.04
750.605	3948.58
750.944	3947.23
751.283	3948.58
751.621	3968.02
751.96	3928.47
752.298	3947
752.636	3954.91
752.975	3927.57
753.313	3971.18
753.651	3992.88
753.989	3909.26
754.327	3927.79
754.666	3876.95
755.004	3836.72
755.342	3850.51
755.679	3847.57
756.017	3842.37
756.355	3853.22
756.693	3802.82
757.031	3851.86
757.368	3815.93
757.706	3801.47
758.044	3824.74
758.381	3795.59
758.719	3750.4
759.056	3832.2
759.394	3788.59
759.731	3743.84
760.068	3768.93
760.405	3750.4
760.743	3758.76
761.08	3741.36
761.417	3714.01
761.754	3726.44
762.091	3717.18
762.428	3693.67
762.765	3691.64
763.102	3665.43
763.438	3647.12
763.775	3652.32
764.112	3652.32
764.449	3634.24
764.785	3616.84
765.122	3622.94
765.458	3583.62
765.795	3599.44
766.131	3542.94
766.467	3590.63
766.804	3583.39
767.14	3590.17
767.476	3556.95
767.812	3554.92
768.148	3584.98
768.485	3538.42
768.821	3507.46
769.157	3499.33
769.492	3501.14
769.828	3458.43
770.164	3450.74
770.5	3463.17
770.836	3430.86
771.171	3403.29
771.507	3423.17
771.842	3403.96
772.178	3403.96
772.513	3400.12
772.849	3394.7
773.184	3370.52
773.519	3399.22
773.855	3366
774.19	3327.13
774.525	3339.79
774.86	3347.47
775.195	3377.98
775.53	3319.9
775.865	3279.9
776.2	3300.69
776.535	3254.36
776.87	3248.04
777.205	3264.31
777.539	3222.27
777.874	3265.89
778.209	3175.5
778.543	3189.96
778.878	3177.53
779.212	3191.09
779.547	3167.59
779.881	3155.16
780.215	3176.63
780.55	3158.32
780.884	3185.89
781.218	3108.38
781.552	3136.63
781.886	3124.2
782.22	3118.1
782.554	3092.11
782.888	3081.03
783.222	3080.81
783.556	3053.92
783.889	3057.53
784.223	3054.14
784.557	3057.31
784.89	3007.36
785.224	2990.42
785.557	2986.35
785.891	3008.04
786.224	2959.68
786.558	2941.15
786.891	2936.63
787.224	2943.41
787.557	2959.91
787.891	2982.28
788.224	2907.48
788.557	2905.22
788.89	2926.91
789.223	2925.78
789.556	2938.44
789.888	2904.09
790.221	2900.93
790.554	2889.63
790.887	2879.68
791.219	2874.03
791.552	2860.93
791.884	2806.01
792.217	2829.29
792.549	2790.87
792.882	2803.08
793.214	2775.73
793.546	2790.42
793.879	2778.67
794.211	2764.21
794.543	2753.81
794.875	2726.92
795.207	2750.2
795.539	2733.25
795.871	2718.56
796.203	2746.81
796.535	2724.21
796.867	2714.26
797.198	2730.54
797.53	2739.35
797.862	2690.99
798.193	2716.3
798.525	2713.81
798.856	2693.47
799.188	2691.44
799.519	2648.96
799.85	2638.11
800.182	2650.99
800.513	2621.61
800.844	2642.63
801.175	2610.99
801.506	2610.76
801.837	2627.71
802.168	2574.61
802.499	2599.24
802.83	2613.48
803.161	2564.21
803.491	2576.87
803.822	2561.73
804.153	2565.57
804.483	2573.48
804.814	2573.7
805.145	2562.4
805.475	2540.71
805.805	2526.25
806.136	2570.99
806.466	2556.3
806.796	2538.9
807.126	2499.13
807.457	2518.11
807.787	2501.84
808.117	2496.64
808.447	2505.91
808.777	2491.67
809.107	2493.03
809.436	2457.55
809.766	2462.52
810.096	2464.33
810.426	2418.91
810.755	2445.35
811.085	2453.93
811.414	2439.7
811.744	2431.79
812.073	2460.26
812.403	2463.65
812.732	2449.86
813.061	2470.43
813.39	2438.34
813.719	2425.91
814.049	2434.27
814.378	2367.38
814.707	2403.76
815.036	2414.39
815.365	2381.62
815.693	2355.63
816.022	2378.45
816.351	2352.92
816.68	2352.01
817.008	2363.09
817.337	2313.82
817.665	2282.19
817.994	2317.67
818.322	2334.39
818.651	2288.74
818.979	2295.07
819.307	2335.29
819.636	2274.73
819.964	2292.81
820.292	2323.31
820.62	2300.49
820.948	2310.43
821.276	2342.52
821.604	2343.43
821.932	2319.92
822.259	2342.52
822.587	2330.09
822.915	2301.17
823.243	2331
823.57	2297.1
823.898	2259.81
824.225	2302.75
824.553	2287.16
824.88	2265.01
825.207	2316.08
825.535	2259.59
825.862	2277.67
826.189	2290.55
826.516	2296.42
826.843	2307.27
827.17	2276.54
827.497	2266.37
827.824	2249.87
828.151	2300.94
828.478	2279.02
828.805	2300.49
829.131	2283.32
829.458	2294.61
829.785	2292.58
830.111	2278.12
830.438	2290.32
830.764	2281.06
831.09	2308.4
831.417	2301.62
831.743	2288.74
832.069	2274.05
832.395	2269.08
832.722	2265.24
833.048	2269.76
833.374	2267.72
833.7	2266.37
834.026	2263.66
834.351	2267.5
834.677	2239.7
835.003	2252.58
835.329	2266.59
835.654	2253.03
835.98	2227.27
836.306	2227.27
836.631	2271.34
836.956	2242.86
837.282	2246.03
837.607	2245.58
837.932	2264.56
838.258	2247.16
838.583	2267.5
838.908	2234.96
839.233	2230.89
839.558	2211.91
839.883	2257.1
840.208	2194.96
840.533	2196.99
840.858	2235.18
841.182	2218.91
841.507	2201.28
841.832	2194.28
842.156	2196.76
842.481	2200.15
842.805	2176.43
843.13	2180.72
843.454	2172.58
843.778	2157.44
844.103	2159.7
844.427	2186.82
844.751	2134.62
845.075	2141.85
845.399	2205.35
845.723	2137.1
846.047	2170.1
846.371	2153.6
846.695	2133.26
847.019	2126.94
847.343	2166.93
847.666	2158.57
847.99	2114.51
848.313	2168.06
848.637	2124.9
848.96	2152.92
849.284	2102.98
849.607	2089.2
849.931	2062.53
850.254	2063.89
850.577	2067.73
850.9	2029.31
851.223	2036.77
851.546	2024.11
851.869	2011.91
852.192	2023.66
852.515	1977.34
852.838	1970.78
853.161	1986.15
853.483	1966.71
853.806	1978.46
854.129	1981.63
854.451	1985.7
854.774	1971.91
855.096	1983.44
855.419	1973.49
855.741	1977.11
856.063	1967.39
856.385	1957.9
856.708	1976.88
857.03	1962.42
857.352	1964.45
857.674	1933.72
857.996	1964.45
858.318	1958.8
858.64	1912.48
858.961	1944.57
859.283	1905.02
859.605	1904.34
859.926	1919.03
860.248	1866.15
860.57	1874.06
860.891	1870.22
861.212	1871.12
861.534	1879.26
861.855	1880.39
862.176	1878.81
862.498	1865.25
862.819	1874.96
863.14	1845.59
863.461	1878.13
863.782	1866.38
864.103	1860.28
864.424	1865.93
864.745	1874.06
865.065	1862.31
865.386	1864.57
865.707	1881.97
866.027	1882.42
866.348	1848.07
866.668	1883.33
866.989	1872.7
867.309	1829.09
867.63	1815.53
867.95	1825.93
868.27	1807.4
868.59	1846.04
868.91	1821.63
869.23	1789.32
869.55	1782.54
869.87	1783.89
870.19	1777.34
870.51	1804.01
870.83	1826.38
871.15	1779.6
871.469	1765.36
871.789	1814.63
872.109	1784.12
872.428	1758.58
872.748	1776.44
873.067	1795.87
873.386	1821.63
873.706	1776.66
874.025	1771.92
874.344	1783.44
874.663	1820.95
874.982	1771.92
875.301	1825.93
875.62	1787.74
875.939	1795.42
876.258	1780.28
876.577	1765.59
876.896	1762.43
877.214	1761.97
877.533	1744.8
877.852	1736.44
878.17	1724.69
878.489	1758.81
878.807	1750.45
879.125	1745.48
879.444	1709.77
879.762	1718.58
880.08	1725.59
880.398	1703.22
880.716	1710.45
881.034	1725.59
881.352	1718.13
881.67	1715.2
881.988	1661.86
882.306	1744.12
882.624	1701.86
882.941	1713.39
883.259	1679.94
883.577	1691.69
883.894	1725.59
884.212	1726.27
884.529	1657.8
884.846	1700.51
885.164	1710.45
885.481	1720.17
885.798	1700.28
886.115	1693.05
886.432	1683.78
886.75	1667.96
887.067	1669.09
887.383	1636.78
887.7	1660.51
888.017	1642.43
888.334	1646.95
888.651	1661.64
888.967	1650.11
889.284	1634.52
889.6	1627.74
889.917	1630.68
890.233	1643.33
890.55	1628.64
890.866	1621.19
891.182	1639.49
891.498	1587.29
891.815	1605.59
892.131	1635.2
892.447	1620.28
892.763	1625.03
893.079	1634.52
893.395	1626.38
893.71	1612.82
894.026	1599.94
894.342	1603.11
894.657	1599.72
894.973	1601.75
895.289	1592.03
895.604	1603.33
895.92	1613.5
896.235	1592.94
896.55	1584.58
896.865	1552.94
897.181	1565.37
897.496	1538.48
897.811	1554.3
898.126	1544.13
898.441	1541.41
898.756	1508.87
899.071	1510.23
899.386	1474.75
899.7	1513.62
900.015	1499.83
900.33	1478.14
900.644	1471.59
900.959	1498.93
901.273	1437.91
901.588	1464.35
901.902	1478.37
902.216	1454.64
902.531	1478.37
902.845	1514.52
903.159	1481.53
903.473	1460.06
903.787	1479.72
904.101	1470.68
904.415	1465.71
904.729	1445.82
905.042	1454.41
905.356	1470.91
905.67	1442.43
905.984	1457.57
906.297	1440.63
906.611	1427.97
906.924	1404.69
907.237	1404.47
907.551	1400.18
907.864	1414.19
908.177	1399.27
908.491	1395.66
908.804	1399.05
909.117	1358.59
909.43	1341.87
909.743	1362.21
910.056	1379.61
910.368	1316.34
910.681	1349.55
910.994	1349.1
911.307	1343.91
911.619	1324.7
911.932	1347.3
912.244	1322.66
912.557	1340.29
912.869	1350.01
913.181	1325.6
913.494	1331.02
913.806	1310.23
914.118	1359.95
914.43	1340.74
914.742	1338.71
915.054	1345.71
915.366	1307.52
915.678	1321.31
915.99	1291.7
916.302	1287.64
916.613	1284.7
916.925	1289.22
917.236	1299.16
917.548	1265.49
917.859	1274.3
918.171	1268.65
918.482	1240.63
918.794	1262.78
919.105	1228.88
919.416	1224.59
919.727	1241.08
920.038	1211.48
920.349	1220.07
920.66	1234.76
920.971	1227.98
921.282	1216.45
921.593	1186.85
921.903	1194.3
922.214	1198.82
922.525	1187.07
922.835	1210.58
923.146	1200.86
923.456	1209.9
923.767	1195.21
924.077	1217.81
924.387	1191.14
924.697	1212.16
925.008	1203.8
925.318	1185.04
925.628	1189.33
925.938	1185.94
926.248	1173.06
926.558	1170.12
926.867	1149.56
927.177	1202.21
927.487	1125.83
927.796	1153.63
928.106	1148.88
928.416	1129.45
928.725	1140.97
929.034	1115.44
929.344	1119.73
929.653	1102.78
929.962	1092.61
930.271	1103.01
930.581	1105.04
930.89	1098.04
931.199	1098.94
931.508	1089
931.817	1093.29
932.125	1067.3
932.434	1079.05
932.743	1073.18
933.051	1085.83
933.36	1064.59
933.669	1097.58
933.977	1057.81
934.286	1096.91
934.594	1084.25
934.902	1051.26
935.21	1043.12
935.519	1063.01
935.827	1068.43
936.135	1012.61
936.443	1063.23
936.751	1066.4
937.059	1059.85
937.367	1041.77
937.674	1029.56
937.982	1046.74
938.29	1054.2
938.597	1040.64
938.905	1016
939.213	1020.07
939.52	997.25
939.827	997.93
940.135	991.6
940.442	1014.65
940.749	987.53
941.056	1004.93
941.363	983.24
941.67	957.93
941.977	994.76
942.284	984.82
942.591	981.2
942.898	984.14
943.205	988.21
943.511	972.84
943.818	948.89
944.125	961.99
944.431	983.24
944.738	979.4
945.044	977.81
945.35	963.8
945.657	978.94
945.963	952.96
946.269	954.09
946.575	960.41
946.881	942.79
947.187	945.72
947.493	931.03
947.799	966.06
948.105	928.1
948.41	921.32
948.716	933.52
949.022	915.44
949.327	934.42
949.633	913.63
949.938	913.63
950.244	925.84
950.549	885.39
950.854	905.72
951.16	897.59
951.465	899.17
951.77	887.65
952.075	867.76
952.38	887.19
952.685	877.7
952.99	827.76
953.294	865.95
953.599	901.88
953.904	841.77
954.209	851.49
954.513	882.9
954.818	850.13
955.122	848.55
955.426	877.7
955.731	841.09
956.035	859.17
956.339	829.79
956.643	874.99
956.948	864.14
957.252	830.47
957.556	852.62
957.86	877.02
958.163	843.13
958.467	853.75
958.771	814.43
959.075	845.84
959.378	854.65
959.682	841.77
959.985	822.56
960.289	816.01
960.592	845.61
960.896	814.88
961.199	826.18
961.502	836.35
961.805	798.83
962.108	792.06
962.411	789.57
962.714	787.99
963.017	779.63
963.32	808.55
963.623	787.31
963.926	782.11
964.228	796.58
964.531	779.85
964.833	773.75
965.136	769.91
965.438	790.7
965.741	773.75
966.043	788.21
966.345	763.13
966.648	760.87
966.95	768.55
967.252	760.87
967.554	770.14
967.856	768.1
968.158	757.71
968.46	761.32
968.761	745.95
969.063	758.61
969.365	761.1
969.666	750.47
969.968	737.14
970.269	742.79
970.571	757.25
970.872	752.28
971.174	741.89
971.475	749.57
971.776	753.41
972.077	746.18
972.378	735.33
972.679	747.76
972.98	713.64
973.281	729.68
973.582	726.07
973.883	729.46
974.183	708.44
974.484	717.71
974.785	731.72
975.085	708.44
975.386	711.83
975.686	710.93
975.986	714.77
976.287	698.27
976.587	684.04
976.887	675
977.187	686.52
977.487	700.76
977.787	704.6
978.087	688.33
978.387	697.59
978.687	685.84
978.987	683.58
979.286	666.41
979.586	691.49
979.885	667.76
980.185	671.15
980.484	675.67
980.784	678.39
981.083	694.43
981.382	671.61
981.682	665.28
981.981	688.33
982.28	675.67
982.579	668.44
982.878	671.15
983.177	659.63
983.475	663.92
983.774	664.83
984.073	656.24
984.372	665.51
984.67	656.69
984.969	667.99
985.267	670.93
985.566	642
985.864	652.17
986.162	640.65
986.461	631.38
986.759	641.55
987.057	642.68
987.355	636.58
987.653	658.73
987.951	625.05
988.249	629.57
988.547	628.9
988.844	633.64
989.142	642.23
989.44	621.89
989.737	614.88
990.035	633.64
990.332	630.48
990.63	622.57
990.927	613.53
991.224	606.07
991.521	628.67
991.819	635
992.116	610.82
992.413	625.05
992.71	610.59
993.006	599.97
993.303	624.83
993.6	617.6
993.897	618.05
994.193	619.18
994.49	606.07
994.787	596.35
995.083	623.25
995.379	583.02
995.676	596.13
995.972	578.28
996.268	597.71
996.565	601.55
996.861	602.91
997.157	592.06
997.453	566.52
997.749	565.39
998.044	564.26
998.34	580.08
998.636	596.81
998.932	566.3
999.227	573.08
999.523	576.69
999.818	567.43
1000.114	581.44
1000.409	567.65
1000.704	567.43
1001	563.36
1001.295	568.11
1001.59	564.04
1001.885	550.03
1002.18	553.42
1002.475	543.93
1002.77	558.84
1003.065	543.25
1003.359	533.53
1003.654	565.17
1003.949	545.28
1004.243	536.92
1004.538	558.39
1004.832	540.08
1005.127	544.83
1005.421	545.73
1005.715	549.8
1006.009	539.86
1006.304	536.69
1006.598	548.45
1006.892	526.07
1007.186	531.5
1007.48	525.17
1007.773	521.55
1008.067	532.63
1008.361	533.08
1008.655	518.16
1008.948	520.88
1009.242	536.24
1009.535	540.76
1009.829	531.05
1010.122	526.53
1010.415	517.71
1010.708	514.55
1011.001	511.61
1011.295	538.05
1011.588	505.96
1011.881	493.08
1012.173	520.88
1012.466	501.22
1012.759	509.35
1013.052	508.9
1013.344	507.32
1013.637	494.21
1013.93	493.76
1014.222	485.4
1014.514	510.93
1014.807	502.8
1015.099	470.71
1015.391	512.97
1015.683	465.96
1015.976	496.7
1016.268	479.75
1016.56	470.71
1016.851	483.59
1017.143	504.61
1017.435	498.5
1017.727	477.26
1018.018	489.46
1018.31	502.12
1018.602	462.35
1018.893	477.94
1019.185	479.97
1019.476	494.21
1019.767	489.69
1020.058	496.02
1020.35	474.78
1020.641	469.35
1020.932	474.55
1021.223	476.36
1021.514	473.87
1021.804	487.88
1022.095	475.68
1022.386	452.18
1022.677	455.34
1022.967	463.02
1023.258	475.45
1023.548	473.65
1023.839	463.93
1024.129	443.82
1024.419	439.07
1024.709	442.91
1025	430.71
1025.29	448.56
1025.58	457.83
1025.87	435
1026.16	432.52
1026.449	430.03
1026.739	441.56
1027.029	429.81
1027.319	438.17
1027.608	449.92
1027.898	444.27
1028.187	420.99
1028.477	454.89
1028.766	407.21
1029.055	432.97
1029.344	416.25
1029.634	415.12
1029.923	426.87
1030.212	437.49
1030.501	440.2
1030.79	406.53
1031.078	420.99
1031.367	404.95
1031.656	422.12
1031.945	428.45
1032.233	432.29
1032.522	430.48
1032.81	404.27
1033.099	425.51
1033.387	417.6
1033.675	414.89
1033.963	423.25
1034.251	408.56
1034.54	398.17
1034.828	430.26
1035.116	428.45
1035.403	420.09
1035.691	416.02
1035.979	410.6
1036.267	420.09
1036.554	436.13
1036.842	405.17
1037.129	395
1037.417	414.66
1037.704	393.2
1037.992	402.46
1038.279	394.33
1038.566	396.59
1038.853	396.59
1039.14	396.59
