Data from foam_black_FLMS001491_00086.txt Node
Date: Wed Feb 08 10:44:51 GMT 2017
User: dcchb
Spectrometer: FLMS00149
Trigger mode: 0
Integration Time (sec): 2.000000E-2
Scans to average: 10
Electric dark correction enabled: true
Nonlinearity correction enabled: false
Boxcar width: 0
XAxis mode: Wavelengths
Number of Pixels in Spectrum: 2048
>>>>>Begin Spectral Data<<<<<
341.393	-19.99
341.776	-19.99
342.16	-19.99
342.543	-49.36
342.927	-83.26
343.31	-48.23
343.693	-68.57
344.077	-79.42
344.46	-62.24
344.843	-55.92
345.226	-50.72
345.61	-37.84
345.993	-39.19
346.376	-6.88
346.759	7.36
347.142	33.35
347.525	48.04
347.908	54.36
348.291	80.13
348.674	100.01
349.057	125.77
349.44	105.21
349.823	134.59
350.206	155.15
350.588	194.92
350.971	223.62
351.354	228.37
351.737	232.89
352.119	249.61
352.502	262.27
352.884	257.52
353.267	257.07
353.65	296.62
354.032	301.36
354.414	287.35
354.797	294.13
355.179	304.53
355.562	311.08
355.944	316.95
356.326	323.96
356.709	351.76
357.091	337.07
357.473	308.14
357.855	313.34
358.238	325.09
358.62	330.29
359.002	346.33
359.384	327.12
359.766	323.06
360.148	330.74
360.53	324.19
360.912	341.59
361.294	348.14
361.676	314.24
362.057	335.26
362.439	329.38
362.821	332.1
363.203	335.03
363.584	332.1
363.966	341.36
364.348	313.34
364.729	318.54
365.111	307.24
365.493	321.02
365.874	312.66
366.256	299.55
366.637	306.11
367.019	326.22
367.4	328.93
367.781	307.01
368.163	318.99
368.544	299.78
368.925	312.44
369.306	329.38
369.688	312.44
370.069	317.18
370.45	332.55
370.831	305.66
371.212	344.52
371.593	328.25
371.974	323.06
372.355	322.83
372.736	328.48
373.117	331.19
373.498	316.5
373.879	313.11
374.26	326.67
374.641	306.33
375.021	316.73
375.402	346.11
375.783	341.14
376.163	319.44
376.544	343.39
376.925	330.97
377.305	347.91
377.686	330.29
378.066	329.38
378.447	355.37
378.827	338.42
379.208	347.91
379.588	337.29
379.968	336.84
380.349	364.41
380.729	359.21
381.109	352.66
381.489	367.35
381.87	377.74
382.25	327.58
382.63	336.62
383.01	365.32
383.39	348.37
383.77	382.72
384.15	347.46
384.53	371.87
384.91	375.94
385.29	362.6
385.67	375.48
386.049	371.42
386.429	403.28
386.809	391.08
387.189	368.25
387.568	375.03
387.948	390.85
388.328	399.21
388.707	378.42
389.087	396.5
389.466	398.99
389.846	393.79
390.225	388.14
390.605	382.94
390.984	393.56
391.363	403.28
391.743	386.33
392.122	406.67
392.501	391.53
392.881	406.67
393.26	413.45
393.639	423.62
394.018	417.07
394.397	412.09
394.776	425.65
395.155	451.64
395.534	438.76
395.913	419.1
396.292	439.44
396.671	439.89
397.05	435.82
397.429	429.04
397.808	445.31
398.186	426.1
398.565	446.22
398.944	441.7
399.323	449.83
399.701	469.27
400.08	460.23
400.458	486.67
400.837	448.7
401.215	471.75
401.594	475.37
401.972	462.26
402.351	461.81
402.729	470.85
403.107	469.27
403.486	470.62
403.864	472.66
404.242	469.27
404.62	466.78
404.999	501.36
405.377	490.74
405.755	488.48
406.133	516.95
406.511	481.92
406.889	497.52
407.267	521.92
407.645	512.66
408.023	534.12
408.401	537.29
408.779	512.2
409.156	521.7
409.534	525.76
409.912	530.96
410.29	554.91
410.667	543.62
411.045	545.88
411.422	532.09
411.8	540.23
412.178	558.98
412.555	583.39
412.933	560.56
413.31	557.85
413.687	569.6
414.065	578.87
414.442	589.04
414.819	580.9
415.197	600.56
415.574	596.5
415.951	609.6
416.328	615.93
416.705	591.52
417.082	620.45
417.46	614.35
417.837	606.66
418.214	642.37
418.591	634.23
418.967	627.46
419.344	629.49
419.721	637.85
420.098	631.07
420.475	661.58
420.852	665.87
421.228	677.85
421.605	658.64
421.982	664.52
422.358	693.89
422.735	693.67
423.111	681.01
423.488	709.94
423.864	690.73
424.241	698.87
424.617	710.39
424.994	740.67
425.37	730.73
425.746	744.51
426.123	719.66
426.499	731.41
426.875	738.41
427.251	747.9
427.627	777.06
428.003	780.9
428.379	767.79
428.756	770.95
429.132	790.39
429.507	800.56
429.883	794.68
430.259	819.77
430.635	808.69
431.011	828.58
431.387	842.59
431.763	853.44
432.138	847.56
432.514	858.41
432.89	869.03
433.265	870.61
433.641	861.12
434.016	877.84
434.392	916.71
434.767	916.71
435.143	907.67
435.518	920.78
435.894	950.84
436.269	940.44
436.644	961.23
437.02	951.06
437.395	951.74
437.77	997.62
438.145	991.74
438.52	978.86
438.895	996.94
439.271	1000.1
439.646	1061.79
440.021	1035.81
440.395	1020.44
440.77	1019.54
441.145	1056.37
441.52	1052.08
441.895	1062.47
442.27	1059.08
442.645	1058.4
443.019	1087.33
443.394	1056.14
443.769	1082.81
444.143	1085.3
444.518	1081.68
444.892	1087.56
445.267	1121.45
445.641	1126.65
446.016	1130.49
446.39	1105.41
446.764	1124.39
447.139	1156.25
447.513	1144.05
447.887	1134.11
448.262	1129.81
448.636	1134.79
449.01	1181.11
449.384	1191.96
449.758	1175.01
450.132	1214.33
450.506	1200.32
450.88	1203.03
451.254	1237.83
451.628	1221.34
452.002	1233.77
452.376	1236.25
452.75	1251.62
453.123	1279.64
453.497	1279.42
453.871	1306.31
454.244	1304.27
454.618	1342.01
454.992	1367.55
455.365	1327.78
455.739	1358.28
456.112	1363.26
456.486	1352.86
456.859	1390.37
457.232	1421.33
457.606	1452.29
457.979	1443.03
458.352	1447.77
458.725	1501.1
459.099	1495
459.472	1493.65
459.845	1543.14
460.218	1524.83
460.591	1596.47
460.964	1522.57
461.337	1586.98
461.71	1626.75
462.083	1629.69
462.456	1624.94
462.829	1626.3
463.201	1650.71
463.574	1664.94
463.947	1696.13
464.32	1722.57
464.692	1729.8
465.065	1712.85
465.438	1759.18
465.81	1808.67
466.183	1817.03
466.555	1799.4
466.928	1834.43
467.3	1845.73
467.672	1860.87
468.045	1914.88
468.417	1903.58
468.789	1920.53
469.161	1951.26
469.534	1958.95
469.906	1974.99
470.278	2016.12
470.65	2027.87
471.022	2067.64
471.394	2089.56
471.766	2139.28
472.138	2142.44
472.51	2143.57
472.882	2221.54
473.253	2252.95
473.625	2243.01
473.997	2284.36
474.369	2303.8
474.74	2341.53
475.112	2409.33
475.484	2439.39
475.855	2461.31
476.227	2482.55
476.598	2564.35
476.97	2594.64
477.341	2626.95
477.713	2648.19
478.084	2645.48
478.455	2721.41
478.827	2746.72
479.198	2836.89
479.569	2820.84
479.94	2884.57
480.311	2923.44
480.682	2970.9
481.053	3038.92
481.424	3073.49
481.795	3076.43
482.166	3162.76
482.537	3165.69
482.908	3231
483.279	3292.24
483.65	3329.53
484.021	3390.09
484.391	3392.35
484.762	3436.42
485.133	3472.35
485.503	3532.24
485.874	3556.64
486.244	3581.5
486.615	3632.35
486.985	3654.49
487.356	3780.37
487.726	3771.1
488.097	3852
488.467	3896.07
488.837	3913.02
489.207	3975.62
489.578	4054.94
489.948	4052
490.318	4134.03
490.688	4138.1
491.058	4204.08
491.428	4230.98
491.798	4295.61
492.168	4360.46
492.538	4404.08
492.908	4395.94
493.278	4505.09
493.648	4475.04
494.017	4520.91
494.387	4558.65
494.757	4614.7
495.126	4646.33
495.496	4620.34
495.866	4693.56
496.235	4753.67
496.605	4775.82
496.974	4793.45
497.344	4832.09
497.713	4901.69
498.082	4916.16
498.452	4957.28
498.821	4957.51
499.19	4929.72
499.559	5022.37
499.928	5087.9
500.298	5149.6
500.667	5120.22
501.036	5143.27
501.405	5178.52
501.774	5225.07
502.143	5302.13
502.512	5290.84
502.88	5351.17
503.249	5338.74
503.618	5402.47
503.987	5411.06
504.356	5456.71
504.724	5473.66
505.093	5486.31
505.462	5508.68
505.83	5553.88
506.199	5584.16
506.567	5664.38
506.936	5690.37
507.304	5710.94
507.672	5779.18
508.041	5763.59
508.409	5810.14
508.777	5887.43
509.145	5918.16
509.514	5851.5
509.882	5914.77
510.25	6020.76
510.618	5992.74
510.986	6039.06
511.354	6118.16
511.722	6125.39
512.09	6173.07
512.458	6183.69
512.826	6225.05
513.193	6282.45
513.561	6339.62
513.929	6368.32
514.297	6424.36
514.664	6442.44
515.032	6471.6
515.4	6534.19
515.767	6557.02
516.135	6627.07
516.502	6629.11
516.869	6784.13
517.237	6773.51
517.604	6739.38
517.972	6818.93
518.339	6881.53
518.706	6887.18
519.073	6914.07
519.44	7025.48
519.808	7105.93
520.175	7083.78
520.542	7155.42
520.909	7163.33
521.276	7260.73
521.643	7271.57
522.009	7334.85
522.376	7450.1
522.743	7469.31
523.11	7552.02
523.477	7603.32
523.843	7684.9
524.21	7819.81
524.577	7759.25
524.943	7825.91
525.31	7878.11
525.676	7945
526.043	7918.79
526.409	8064.32
526.776	8102.74
527.142	8095.28
527.508	8167.6
527.874	8281.27
528.241	8297.31
528.607	8344.31
528.973	8436.74
529.339	8425.67
529.705	8498.21
530.071	8620.01
530.437	8723.29
530.803	8691.88
531.169	8781.82
531.535	8785.66
531.901	8755.38
532.267	8841.93
532.632	8947.01
532.998	8990.4
533.364	8989.04
533.73	9035.6
534.095	9117.18
534.461	9129.15
534.826	9161.69
535.192	9156.5
535.557	9288.47
535.923	9262.93
536.288	9337.96
536.653	9422.48
537.019	9319.88
537.384	9450.05
537.749	9487.79
538.114	9464.29
538.479	9555.58
538.845	9631.06
539.21	9641.23
539.575	9642.13
539.94	9626.99
540.305	9763.71
540.67	9731.17
541.034	9762.81
541.399	9874.67
541.764	9895.69
542.129	9824.05
542.494	9911.5
542.858	9960.77
543.223	9965.29
543.587	10114.66
543.952	10000.54
544.316	10049.13
544.681	10096.13
545.045	10152.4
545.41	10250.48
545.774	10252.96
546.138	10243.02
546.503	10271.5
546.867	10273.98
547.231	10391.72
547.595	10413.86
547.959	10450.7
548.324	10483.24
548.688	10495.9
549.052	10558.04
549.416	10557.14
549.779	10571.83
550.143	10669.68
550.507	10701.31
550.871	10788.77
551.235	10789.9
551.599	10840.52
551.962	10918.03
552.326	10925.49
552.689	10974.98
553.053	10983.12
553.417	11041.19
553.78	11128.65
554.143	11136.56
554.507	11197.12
554.87	11251.81
555.234	11387.17
555.597	11313.05
555.96	11375.42
556.323	11471.92
556.686	11542.42
557.05	11594.85
557.413	11659.03
557.776	11602.76
558.139	11793.49
558.502	11717.11
558.865	11866.26
559.228	11956.2
559.59	12029.87
559.953	12016.31
560.316	12183.54
560.679	12170.2
561.041	12344.89
561.404	12329.52
561.767	12409.97
562.129	12426.92
562.492	12500.82
562.854	12571.1
563.217	12564.77
563.579	12696.74
563.941	12746.91
564.304	12850.86
564.666	12838.66
565.028	12944.87
565.39	12990.75
565.753	13002.72
566.115	13095.83
566.477	13174.47
566.839	13175.15
567.201	13305.31
567.563	13322.49
567.925	13467.12
568.287	13464.86
568.648	13583.05
569.01	13594.12
569.372	13648.36
569.734	13574.46
570.095	13815.81
570.457	13835.47
570.819	13898.07
571.18	13835.92
571.542	13971.74
571.903	14060.55
572.265	14085.41
572.626	14096.71
572.987	14089.02
573.349	14164.73
573.71	14189.36
574.071	14229.58
574.432	14268.68
574.794	14351.39
575.155	14375.79
575.516	14323.37
575.877	14507.99
576.238	14505.28
576.599	14611.27
576.96	14632.74
577.32	14638.16
577.681	14628.67
578.042	14615.79
578.403	14682
578.763	14752.06
579.124	14827.31
579.485	14749.12
579.845	14802.9
580.206	14775.11
580.566	14801.09
580.927	14792.28
581.287	14985.95
581.648	14878.61
582.008	15064.82
582.368	14968.1
582.728	14972.39
583.089	14976.91
583.449	14922.9
583.809	15032.95
584.169	14944.82
584.529	14963.12
584.889	15087.87
585.249	15001.09
585.609	14978.26
585.969	15025.72
586.329	15075.66
586.688	15202.21
587.048	15131.71
587.408	15124.7
587.768	15194.76
588.127	15098.49
588.487	15148.43
588.846	15218.26
589.206	15050.13
589.565	15160.41
589.925	15244.7
590.284	15141.42
590.643	15294.64
591.003	15212.83
591.362	15318.37
591.721	15260.97
592.08	15258.26
592.44	15299.84
592.799	15244.47
593.158	15211.93
593.517	15221.42
593.876	15353.85
594.235	15229.33
594.593	15279.73
594.952	15410.34
595.311	15278.37
595.67	15293.28
596.029	15338.03
596.387	15304.58
596.746	15429.55
597.104	15432.72
597.463	15370.57
597.822	15429.33
598.18	15389.33
598.538	15357.24
598.897	15451.47
599.255	15360.18
599.613	15605.59
599.972	15479.95
600.33	15541.19
600.688	15460.51
601.046	15558.59
601.404	15659.38
601.762	15606.72
602.12	15582.99
602.478	15561.98
602.836	15659.6
603.194	15512.94
603.552	15655.53
603.91	15620.28
604.268	15592.71
604.625	15670.22
604.983	15747.51
605.341	15571.02
605.698	15728.98
606.056	15747.74
606.413	15677
606.771	15824.57
607.128	15789.54
607.485	15648.08
607.843	15787.51
608.2	15833.84
608.557	15896.43
608.914	15898.69
609.272	15924.23
609.629	15980.72
609.986	15990.44
610.343	15954.51
610.7	15955.19
611.057	15978.69
611.414	15986.83
611.771	15922.65
612.127	16069.31
612.484	16147.95
612.841	16015.53
613.198	15970.1
613.554	16018.01
613.911	16125.35
614.267	16041.29
614.624	16109.53
614.98	16124
615.337	16216.42
615.693	16290.55
616.05	16167.61
616.406	16317.44
616.762	16258
617.118	16215.07
617.475	16208.97
617.831	16209.64
618.187	16323.54
618.543	16291.22
618.899	16273.82
619.255	16301.17
619.611	16265.24
619.967	16394.27
620.323	16392.01
620.678	16306.14
621.034	16265.91
621.39	16264.11
621.746	16162.19
622.101	16511.33
622.457	16307.04
622.812	16389.07
623.168	16447.6
623.523	16333.26
623.879	16349.08
624.234	16291.68
624.589	16323.99
624.945	16333.48
625.3	16422.97
625.655	16394.5
626.01	16434.72
626.365	16425.23
626.72	16418.45
627.075	16363.99
627.43	16343.65
627.785	16287.61
628.14	16438.34
628.495	16414.61
628.85	16348.85
629.205	16298.68
629.559	16411.9
629.914	16305.01
630.269	16300.49
630.623	16248.97
630.978	16239.47
631.332	16248.51
631.687	16290.32
632.041	16288.74
632.396	16378.91
632.75	16279.02
633.104	16256.87
633.459	16195.63
633.813	16193.83
634.167	16150.44
634.521	16266.59
634.875	16255.97
635.229	16249.64
635.583	16086.94
635.937	16024.56
636.291	16153.15
636.645	16074.73
636.999	16051.46
637.352	16098.91
637.706	16042.42
638.06	16048.29
638.413	16037.22
638.767	15912.25
639.121	16055.98
639.474	15959.03
639.828	15949.31
640.181	15909.77
640.534	15952.02
640.888	15835.64
641.241	15848.75
641.594	15909.77
641.947	15868.64
642.301	15833.61
642.654	15815.76
643.007	15807.62
643.36	15718.13
643.713	15688.53
644.066	15885.36
644.419	15687.62
644.771	15582.99
645.124	15335.54
645.477	15221.87
645.83	15254.19
646.182	15240.86
646.535	15255.09
646.888	15300.74
647.24	15151.59
647.593	15228.88
647.945	15203.8
648.298	15168.54
648.65	15134.64
649.002	15052.61
649.355	15120.18
649.707	14969.9
650.059	15078.15
650.411	15250.57
650.763	15226.17
651.115	15394.07
651.467	15281.53
651.819	15318.37
652.171	15277.01
652.523	15255.32
652.875	15283.79
653.227	15150.92
653.578	15274.3
653.93	15296.45
654.282	15136.9
654.633	15108.2
654.985	15137.81
655.337	15155.66
655.688	15250.35
656.039	15176.23
656.391	15028.88
656.742	15193.85
657.094	15063.91
657.445	15260.74
657.796	15182.1
658.147	15138.26
658.498	15090.58
658.849	15130.8
659.2	15051.03
659.551	15067.08
659.902	15060.3
660.253	15091.48
660.604	15120.63
660.955	14986.63
661.306	15073.4
661.656	15012.39
662.007	15001.54
662.358	14946.63
662.708	15076.11
663.059	15020.75
663.409	14911.37
663.76	15001.09
664.11	14910.92
664.461	14953.18
664.811	14947.08
665.161	15005.16
665.511	14960.86
665.862	14962.45
666.212	14930.81
666.562	14940.3
666.912	14888.1
667.262	14883.13
667.612	14849.68
667.962	14881.09
668.312	14907.31
668.662	15012.39
669.011	14879.96
669.361	14841.77
669.711	14867.31
670.06	14856.69
670.41	14797.7
670.76	14795.67
671.109	14849.68
671.459	14805.84
671.808	14810.36
672.157	14914.54
672.507	14779.85
672.856	14738.72
673.205	14793.64
673.554	14805.84
673.904	14761.32
674.253	14874.76
674.602	14744.15
674.951	14553.42
675.3	14489.24
675.649	14651.04
675.998	14672.28
676.346	14619.63
676.695	14713.41
677.044	14606.97
677.393	14690.14
677.741	14629.35
678.09	14597.26
678.438	14604.49
678.787	14627.09
679.135	14729.91
679.484	14492.85
679.832	14593.19
680.181	14466.64
680.529	14444.95
680.877	14498.73
681.225	14396.13
681.573	14531.04
681.922	14351.39
682.27	14307.55
682.618	14327.66
682.966	14347.55
683.314	14290.15
683.661	14406.75
684.009	14223.03
684.357	14189.81
684.705	14191.39
685.053	14152.75
685.4	14136.48
685.748	14116.82
686.095	14064.39
686.443	14058.74
686.79	14037.27
687.138	14051.06
687.485	14021.68
687.832	13976.71
688.18	13980.55
688.527	13920.89
688.874	13857.62
689.221	13843.83
689.568	13799.31
689.915	13786.66
690.262	13733.78
690.609	13778.75
690.956	13682.93
691.303	13665.98
691.65	13565.42
691.997	13600
692.344	13480.9
692.69	13430.28
693.037	13516.38
693.383	13408.36
693.73	13503.5
694.077	13355.93
694.423	13317.97
694.769	13345.31
695.116	13193.68
695.462	13191.42
695.808	13123.17
696.155	13145.32
696.501	13091.76
696.847	13045.21
697.193	12980.8
697.539	12995.27
697.885	12924.08
698.231	12849.51
698.577	12919.56
698.923	12886.79
699.269	12724.09
699.614	12698.55
699.96	12663.3
700.306	12640.92
700.651	12606.12
700.997	12604.99
701.342	12578.1
701.688	12579.91
702.033	12625.56
702.379	12493.13
702.724	12514.83
703.069	12536.52
703.415	12383.08
703.76	12273.93
704.105	12256.08
704.45	12388.5
704.795	12213.37
705.14	12175.63
705.485	12212.01
705.83	12093.82
706.175	12170.65
706.52	12106.02
706.865	12068.51
707.209	11960.72
707.554	11965.46
707.899	11955.74
708.243	11929.76
708.588	11915.97
708.932	11751.91
709.277	11732.47
709.621	11758.46
709.966	11614.96
710.31	11755.52
710.654	11637.11
710.998	11662.65
711.342	11577.45
711.687	11640.5
712.031	11536.77
712.375	11426.95
712.719	11503.78
713.063	11437.57
713.407	11456.1
713.75	11330.22
714.094	11362.54
714.438	11359.6
714.782	11373.39
715.125	11273.73
715.469	11363.44
715.812	11286.61
716.156	11288.42
716.499	11210.45
716.843	11282.09
717.186	11113.06
717.53	11258.36
717.873	11161.64
718.216	11210.68
718.559	11098.14
718.902	11042.77
719.246	11102.21
719.589	11006.39
719.932	10998.93
720.275	10940.86
720.617	10990.57
720.96	10954.87
721.303	10922.55
721.646	10912.16
721.989	10884.36
722.331	10849.56
722.674	10774.53
723.016	10854.08
723.359	10765.27
723.701	10857.69
724.044	10838.71
724.386	10694.31
724.729	10808.2
725.071	10747.64
725.413	10718.04
725.755	10626.97
726.097	10692.73
726.439	10575.44
726.782	10636.01
727.124	10626.97
727.465	10572.28
727.807	10568.21
728.149	10527.99
728.491	10483.47
728.833	10510.13
729.175	10483.02
729.516	10499.06
729.858	10453.19
730.199	10477.14
730.541	10445.28
730.882	10465.84
731.224	10408.22
731.565	10383.81
731.906	10340.87
732.248	10360.53
732.589	10274.66
732.93	10249.8
733.271	10279.4
733.612	10244.83
733.953	10253.87
734.294	10318.27
734.635	10215
734.976	10217.03
735.317	10190.82
735.658	10184.49
735.999	10159.41
736.339	10158.05
736.68	10166.19
737.021	10093.42
737.361	10005.97
737.702	10127.09
738.042	10125.74
738.383	10045.74
738.723	10044.16
739.063	10050.26
739.404	10014.78
739.744	9978.62
740.084	9939.3
740.424	9913.99
740.764	9908.57
741.104	9973.42
741.444	9878.06
741.784	9868.12
742.124	9845.07
742.464	9845.74
742.804	9899.75
743.143	9913.99
743.483	9869.7
743.823	9811.39
744.162	9717.39
744.502	9707.67
744.841	9703.37
745.181	9798.29
745.52	9694.79
745.86	9683.71
746.199	9582.25
746.538	9665.18
746.877	9708.35
747.216	9606.88
747.556	9579.08
747.895	9639.42
748.234	9589.71
748.573	9557.39
748.911	9485.98
749.25	9534.34
749.589	9552.64
749.928	9510.39
750.267	9525.53
750.605	9426.77
750.944	9451.86
751.283	9422.7
751.621	9436.49
751.96	9309.26
752.298	9393.55
752.636	9358.75
752.975	9378.41
753.313	9243.73
753.651	9274.23
753.989	9235.59
754.327	9264.52
754.666	9239.66
755.004	9219.77
755.342	9208.92
755.679	9181.13
756.017	9135.03
756.355	9181.35
756.693	9081.92
757.031	9103.16
757.368	9105.2
757.706	9040.79
758.044	8987.91
758.381	8982.94
758.719	8911.08
759.056	8894.36
759.394	8914.69
759.731	8855.04
760.068	8867.92
760.405	8821.82
760.743	8811.19
761.08	8820.01
761.417	8730.07
761.754	8731.42
762.091	8770.07
762.428	8696.62
762.765	8602.61
763.102	8671.54
763.438	8620.92
763.775	8576.4
764.112	8536.85
764.449	8584.76
764.785	8572.56
765.122	8502.28
765.458	8409.17
765.795	8489.4
766.131	8420.02
766.467	8402.84
766.804	8415.95
767.14	8377.08
767.476	8340.25
767.812	8299.12
768.148	8269.06
768.485	8239.68
768.821	8255.05
769.157	8173.47
769.492	8136.86
769.828	8141.61
770.164	8128.95
770.5	8068.84
770.836	8079.01
771.171	7961.27
771.507	7977.09
771.842	7961.27
772.178	7994.49
772.513	7886.47
772.849	7863.42
773.184	7847.38
773.519	7833.37
773.855	7870.43
774.19	7783.43
774.525	7722.18
774.86	7721.96
775.195	7682.64
775.53	7696.87
775.865	7660.49
776.2	7663.2
776.535	7623.43
776.87	7593.15
777.205	7625.46
777.539	7525.8
777.874	7556.99
778.209	7486.03
778.543	7479.93
778.878	7445.13
779.212	7400.61
779.547	7380.27
779.881	7372.59
780.215	7327.39
780.55	7307.05
780.884	7232.93
781.218	7259.6
781.552	7194.97
781.886	7211.91
782.22	7182.31
782.554	7130.11
782.888	7048.76
783.222	7092.14
783.556	7056.89
783.889	7068.42
784.223	6974.63
784.557	6966.27
784.89	6934.86
785.224	6881.53
785.557	6882.21
785.891	6881.75
786.224	6846.5
786.558	6861.64
786.891	6811.25
787.224	6758.82
787.557	6733.28
787.891	6739.16
788.224	6733.28
788.557	6722.44
788.89	6723.79
789.223	6737.13
789.556	6670.46
789.888	6649.44
790.221	6632.5
790.554	6603.34
790.887	6554.31
791.219	6518.83
791.552	6504.59
791.884	6487.19
792.217	6476.34
792.549	6437.25
792.882	6416.46
793.214	6442.44
793.546	6422.11
793.879	6348.43
794.211	6288.1
794.543	6345.05
794.875	6284.03
795.207	6292.84
795.539	6281.09
795.871	6302.11
796.203	6242
796.535	6211.94
796.867	6218.04
797.198	6180.3
797.53	6178.5
797.862	6149.57
798.193	6141.43
798.525	6082.23
798.856	6088.55
799.188	6117.48
799.519	6055.79
799.85	6034.54
800.182	6002.23
800.513	6034.09
800.844	5999.97
801.175	6009.91
801.506	5960.65
801.837	5885.17
802.168	5947.09
802.499	5858.96
802.83	5880.65
803.161	5818.05
803.491	5858.05
803.822	5837.94
804.153	5838.39
804.483	5814.66
804.814	5809.01
805.145	5781.67
805.475	5763.82
805.805	5728.11
806.136	5727.66
806.466	5714.1
806.796	5703.03
807.126	5673.2
807.457	5644.05
807.787	5678.4
808.117	5665.97
808.447	5614.22
808.777	5635.23
809.107	5588.45
809.436	5628.23
809.766	5593.43
810.096	5559.53
810.426	5604.95
810.755	5579.87
811.085	5562.92
811.414	5492.64
811.744	5500.77
812.073	5533.77
812.403	5546.2
812.732	5519.98
813.061	5496.25
813.39	5432.3
813.719	5441.11
814.049	5433.2
814.378	5447.22
814.707	5419.87
815.036	5396.6
815.365	5373.77
815.693	5318.63
816.022	5334.68
816.351	5326.54
816.68	5295.13
817.008	5302.13
817.337	5284.28
817.665	5256.94
817.994	5205.19
818.322	5213.55
818.651	5190.95
818.979	5221.46
819.307	5210.84
819.636	5178.3
819.964	5171.52
820.292	5134.23
820.62	5140.56
820.948	5133.1
821.276	5143.04
821.604	5159.99
821.932	5097.62
822.259	5189.37
822.587	5162.48
822.915	5123.83
823.243	5139.2
823.57	5139.43
823.898	5184.85
824.225	5123.83
824.553	5146.21
824.88	5136.26
825.207	5141.69
825.535	5131.74
825.862	5142.82
826.189	5144.17
826.516	5141.46
826.843	5139.2
827.17	5138.52
827.497	5179.2
827.824	5154.79
828.151	5138.3
828.478	5170.61
828.805	5140.1
829.131	5131.74
829.458	5116.83
829.785	5093.78
830.111	5128.81
830.438	5126.55
830.764	5123.38
831.09	5149.6
831.417	5139.65
831.743	5197.5
832.069	5122.25
832.395	5127.68
832.722	5094.46
833.048	5123.61
833.374	5127.22
833.7	5088.35
834.026	5095.36
834.351	5140.33
834.677	5150.27
835.003	5145.75
835.329	5091.07
835.654	5034.8
835.98	5045.42
836.306	5081.58
836.631	5047.45
836.956	5037.73
837.282	5014.23
837.607	4964.97
837.932	5037.73
838.258	5006.32
838.583	4985.98
838.908	4943.05
839.233	4970.39
839.558	4974.01
839.883	4951.18
840.208	4970.62
840.533	4947.12
840.858	4972.65
841.182	4945.08
841.507	4924.97
841.832	4900.11
842.156	4924.74
842.481	4943.5
842.805	4923.39
843.13	4889.26
843.454	4882.48
843.778	4865.76
844.103	4883.84
844.427	4855.37
844.751	4838.42
845.075	4818.31
845.399	4854.24
845.723	4790.06
846.047	4806.33
846.371	4756.16
846.695	4775.59
847.019	4703.96
847.343	4688.37
847.666	4681.13
847.99	4642.72
848.313	4667.58
848.637	4659.67
848.96	4676.61
849.284	4602.72
849.607	4582.83
849.931	4589.84
850.254	4567.69
850.577	4580.57
850.9	4549.61
851.223	4546.67
851.546	4510.07
851.869	4475.94
852.192	4439.11
852.515	4450.63
852.838	4435.49
853.161	4414.47
853.483	4409.28
853.806	4368.6
854.129	4397.75
854.451	4342.39
854.774	4354.59
855.096	4351.2
855.419	4298.55
855.741	4287.92
856.063	4293.12
856.385	4294.7
856.708	4317.53
857.03	4275.49
857.352	4258.09
857.674	4247.47
857.996	4222.61
858.318	4201.6
858.64	4198.66
858.961	4158.89
859.283	4147.59
859.605	4145.55
859.926	4161.37
860.248	4148.27
860.57	4147.81
860.891	4105.1
861.212	4132.22
861.534	4124.54
861.855	4115.05
862.176	4100.58
862.498	4132.67
862.819	4104.43
863.14	4101.71
863.461	4083.18
863.782	4062.39
864.103	4051.32
864.424	4024.65
864.745	4001.15
865.065	4005.67
865.386	4007.48
865.707	4032.79
866.027	4014.71
866.348	4016.29
866.668	4013.13
866.989	4029.4
867.309	3995.05
867.63	3979.46
867.95	3980.59
868.27	3947.59
868.59	3949.85
868.91	3985.33
869.23	3991.21
869.55	3946.46
869.87	3935.84
870.19	3952.11
870.51	3918.67
870.83	3926.13
871.15	3887.93
871.469	3931.78
871.789	3876.64
872.109	3901.72
872.428	3871.89
872.748	3896.75
873.067	3871.89
873.386	3866.24
873.706	3874.83
874.025	3877.54
874.344	3874.6
874.663	3867.6
874.982	3856.97
875.301	3827.6
875.62	3839.12
875.939	3829.18
876.258	3827.37
876.577	3801.16
876.896	3819.24
877.214	3788.95
877.533	3785.79
877.852	3826.92
878.17	3836.18
878.489	3879.12
878.807	3782.17
879.125	3795.73
879.444	3761.84
879.762	3779.01
880.08	3807.71
880.398	3747.37
880.716	3759.12
881.034	3742.4
881.352	3718.45
881.67	3748.05
881.988	3721.16
882.306	3714.61
882.624	3690.65
882.941	3706.7
883.259	3649.3
883.577	3626.92
883.894	3612.91
884.212	3642.74
884.529	3670.77
884.846	3606.59
885.164	3617.66
885.481	3620.82
885.798	3605.68
886.115	3620.37
886.432	3576.08
886.75	3607.49
887.067	3611.33
887.383	3605.23
887.7	3626.47
888.017	3560.26
888.334	3614.27
888.651	3555.74
888.967	3525.68
889.284	3531.79
889.6	3513.03
889.917	3478.23
890.233	3535.4
890.55	3542.86
890.866	3490.2
891.182	3461.28
891.498	3477.78
891.815	3460.6
892.131	3404.33
892.447	3465.35
892.763	3424.9
893.079	3433.48
893.395	3426.25
893.71	3447.95
894.026	3398.68
894.342	3379.47
894.657	3361.17
894.973	3356.65
895.289	3333.15
895.604	3315.29
895.92	3322.07
896.235	3345.58
896.55	3322.98
896.865	3333.15
897.181	3294.28
897.496	3268.06
897.811	3265.13
898.126	3220.16
898.441	3246.37
898.756	3282.75
899.071	3244.11
899.386	3238.01
899.7	3200.72
900.015	3222.64
900.33	3189.2
900.644	3206.6
900.959	3209.76
901.273	3136.32
901.588	3176.31
901.902	3122.08
902.216	3109.65
902.531	3113.72
902.845	3100.16
903.159	3081.18
903.473	3105.81
903.787	3122.76
904.101	3044.57
904.415	3073.04
904.729	3033.27
905.042	3049.76
905.356	3058.35
905.67	3017.22
905.984	3027.62
906.297	3011.57
906.611	3026.04
906.924	2982.2
907.237	2962.99
907.551	2963.44
907.864	2963.67
908.177	2953.95
908.491	2947.62
908.804	2883.89
909.117	2934.97
909.43	2888.19
909.743	2922.99
910.056	2869.88
910.368	2861.97
910.681	2809.32
910.994	2856.78
911.307	2813.61
911.619	2799.38
911.932	2783.78
912.244	2810.9
912.557	2786.49
912.869	2810.22
913.181	2776.1
913.494	2799.15
913.806	2763.9
914.118	2755.76
914.43	2746.72
914.742	2747.4
915.054	2705.82
915.366	2732.48
915.678	2693.84
915.99	2714.41
916.302	2660.4
916.613	2657.68
916.925	2670.57
917.236	2655.2
917.548	2647.29
917.859	2623.11
918.171	2639.38
918.482	2641.19
918.794	2606.61
919.105	2631.7
919.416	2583.56
919.727	2584.47
920.038	2582.43
920.349	2586.5
920.66	2551.92
920.971	2559.83
921.282	2541.76
921.593	2498.59
921.903	2508.08
922.214	2488.2
922.525	2520.29
922.835	2482.1
923.146	2464.24
923.456	2477.12
923.767	2438.26
924.077	2461.98
924.387	2441.87
924.697	2446.84
925.008	2396.67
925.318	2428.99
925.628	2405.49
925.938	2392.15
926.248	2367.52
926.558	2359.61
926.867	2372.27
927.177	2380.18
927.487	2354.64
927.796	2320.74
928.106	2320.29
928.416	2322.1
928.725	2316.45
929.034	2312.83
929.344	2283.68
929.653	2288.43
929.962	2268.32
930.271	2224.25
930.581	2239.84
930.89	2234.42
931.199	2200.07
931.508	2233.06
931.817	2262.67
932.125	2185.83
932.434	2244.59
932.743	2193.74
933.051	2159.39
933.36	2185.38
933.669	2198.26
933.977	2139.96
934.286	2167.08
934.594	2176.12
934.902	2142.44
935.21	2137.25
935.519	2133.86
935.827	2128.43
936.135	2113.74
936.443	2088.43
936.751	2088.66
937.059	2101.77
937.367	2077.36
937.674	2082.56
937.982	2083.24
938.29	2074.42
938.597	2047.98
938.905	2008.66
939.213	2038.04
939.52	1993.75
939.827	2038.49
940.135	1996.23
940.442	2017.02
940.749	1994.42
941.056	1998.27
941.363	1970.47
941.67	1986.06
941.977	1962.79
942.284	1950.81
942.591	1948.32
942.898	1944.71
943.205	1939.51
943.511	1956.91
943.818	1947.65
944.125	1918.27
944.431	1933.64
944.738	1904.03
945.044	1905.16
945.35	1883.02
945.657	1874.2
945.963	1873.52
946.269	1852.96
946.575	1862.45
946.881	1821.55
947.187	1871.26
947.493	1836.46
947.799	1847.76
948.105	1797.82
948.41	1804.37
948.716	1801.66
949.022	1820.19
949.327	1779.97
949.633	1786.52
949.938	1789.68
950.244	1796.92
950.549	1743.81
950.854	1773.41
951.16	1745.62
951.465	1755.11
951.77	1741.78
952.075	1749.46
952.38	1744.94
952.685	1760.76
952.99	1720.76
953.294	1730.03
953.599	1724.15
953.904	1712.17
954.209	1685.51
954.513	1678.05
954.818	1675.11
955.122	1680.31
955.426	1687.09
955.731	1658.84
956.035	1681.21
956.339	1665.62
956.643	1649.8
956.948	1639.41
957.252	1639.41
957.556	1637.37
957.86	1647.09
958.163	1622.01
958.467	1611.61
958.771	1577.03
959.075	1603.7
959.378	1601.67
959.682	1586.98
959.985	1579.52
960.289	1534.78
960.592	1561.44
960.896	1574.32
961.199	1538.39
961.502	1518.96
961.805	1551.27
962.108	1535.23
962.411	1546.08
962.714	1521.67
963.017	1514.21
963.32	1520.77
963.623	1524.15
963.926	1501.33
964.228	1482.57
964.531	1469.69
964.833	1502.01
965.136	1455.68
965.438	1482.8
965.741	1460.43
966.043	1471.95
966.345	1466.08
966.648	1464.04
966.95	1440.77
967.252	1443.7
967.554	1496.58
967.856	1434.89
968.158	1380.66
968.46	1431.28
968.761	1429.02
969.063	1405.51
969.365	1412.07
969.666	1402.12
969.968	1391.95
970.269	1368.68
970.571	1403.03
970.872	1372.75
971.174	1375.91
971.475	1366.42
971.776	1359.64
972.077	1375.68
972.378	1361.22
972.679	1355.8
972.98	1363.93
973.281	1344.05
973.582	1356.25
973.883	1302.69
974.183	1326.87
974.484	1297.95
974.785	1283.71
975.085	1335.23
975.386	1304.27
975.686	1314.67
975.986	1309.47
976.287	1318.06
976.587	1244.16
976.887	1275.35
977.187	1284.84
977.487	1254.78
977.787	1257.72
978.087	1278.51
978.387	1259.98
978.687	1261.11
978.987	1261.11
979.286	1246.2
979.586	1238.29
979.885	1245.97
980.185	1231.06
980.484	1243.48
980.784	1214.33
981.083	1216.59
981.382	1229.25
981.682	1215.46
981.981	1212.98
982.28	1176.59
982.579	1169.14
982.878	1165.75
983.177	1177.27
983.475	1188.34
983.774	1158.51
984.073	1156.71
984.372	1169.59
984.67	1152.87
984.969	1139.53
985.267	1148.12
985.566	1128.23
985.864	1125.07
986.162	1146.31
986.461	1125.52
986.759	1135.01
987.057	1143.15
987.355	1137.5
987.653	1126.2
987.951	1129.14
988.249	1101.57
988.547	1110.83
988.844	1097.95
989.142	1106.99
989.44	1119.19
989.737	1098.86
990.035	1115.58
990.332	1090.49
990.63	1091.62
990.927	1077.16
991.224	1071.29
991.521	1064.28
991.819	1076.26
992.116	1059.53
992.413	1069.7
992.71	1059.31
993.006	1056.14
993.303	1035.35
993.6	1048.91
993.897	1035.13
994.193	1026.09
994.49	1025.41
994.787	998.97
995.083	1001.46
995.379	1010.95
995.676	1015.47
995.972	1003.04
996.268	990.16
996.565	995.13
996.861	998.52
997.157	986.99
997.453	999.65
997.749	984.06
998.044	979.08
998.34	969.37
998.636	973.43
998.932	969.82
999.227	964.17
999.523	949.25
999.818	941.35
1000.114	929.14
1000.409	934.34
1000.704	940.22
1001	942.25
1001.295	948.58
1001.59	930.27
1001.885	958.07
1002.18	943.83
1002.475	958.75
1002.77	916.94
1003.065	930.5
1003.359	923.72
1003.654	910.61
1003.949	886.66
1004.243	890.27
1004.538	891.86
1004.832	915.13
1005.127	892.76
1005.421	896.83
1005.715	880.1
1006.009	884.62
1006.304	876.26
1006.598	862.48
1006.892	879.88
1007.186	876.04
1007.48	859.54
1007.773	834.46
1008.067	851.86
1008.361	867.67
1008.655	844.4
1008.948	851.86
1009.242	819.31
1009.535	861.12
1009.829	801.46
1010.122	830.61
1010.415	799.88
1010.708	794
1011.001	825.87
1011.295	771.86
1011.588	798.3
1011.881	797.62
1012.173	811.86
1012.466	805.76
1012.759	797.39
1013.052	778.19
1013.344	799.65
1013.637	774.8
1013.93	792.42
1014.222	790.16
1014.514	759.43
1014.807	775.93
1015.099	775.93
1015.391	775.47
1015.683	761.01
1015.976	756.49
1016.268	768.47
1016.56	737.06
1016.851	740.45
1017.143	771.18
1017.435	725.08
1017.727	732.99
1018.018	743.61
1018.31	713.33
1018.602	735.48
1018.893	713.33
1019.185	702.03
1019.476	721.92
1019.767	717.85
1020.058	723.05
1020.35	715.14
1020.641	703.61
1020.932	712.65
1021.223	715.59
1021.514	674.01
1021.804	662.71
1022.095	689.6
1022.386	676.04
1022.677	665.87
1022.967	694.57
1023.258	675.82
1023.548	662.48
1023.839	668.58
1024.129	661.8
1024.419	662.03
1024.709	643.5
1025	642.37
1025.29	629.04
1025.58	645.76
1025.87	641.69
1026.16	653.9
1026.449	636.49
1026.739	632.65
1027.029	619.77
1027.319	637.62
1027.608	640.34
1027.898	626.55
1028.187	613.9
1028.477	640.56
1028.766	627
1029.055	627.23
1029.344	626.78
1029.634	624.74
1029.923	596.72
1030.212	599.89
1030.501	601.92
1030.79	601.92
1031.078	609.83
1031.367	602.82
1031.656	606.89
1031.945	588.81
1032.233	584.97
1032.522	574.8
1032.81	575.03
1033.099	596.95
1033.387	581.35
1033.675	570.96
1033.963	549.94
1034.251	594.69
1034.54	589.94
1034.828	571.41
1035.116	566.67
1035.403	554.24
1035.691	570.96
1035.979	562.15
1036.267	572.77
1036.554	564.18
1036.842	568.25
1037.129	556.95
1037.417	546.78
1037.704	554.01
1037.992	526.89
1038.279	527.57
1038.566	532.09
1038.853	532.09
1039.14	532.09
