Data from foam2_polystyrene_foam_FLMS001491_00019.txt Node
Date: Wed Feb 08 10:57:36 GMT 2017
User: dcchb
Spectrometer: FLMS00149
Trigger mode: 0
Integration Time (sec): 2.000000E-2
Scans to average: 10
Electric dark correction enabled: true
Nonlinearity correction enabled: false
Boxcar width: 0
XAxis mode: Wavelengths
Number of Pixels in Spectrum: 2048
>>>>>Begin Spectral Data<<<<<
341.393	-12.57
341.776	-12.57
342.16	-12.57
342.543	-77.65
342.927	-53.47
343.31	-54.38
343.693	-77.43
344.077	-66.81
344.46	-49.18
344.843	-62.29
345.226	-42.63
345.61	-29.74
345.993	-25.45
346.376	-15.96
346.759	18.39
347.142	22.01
347.525	36.02
347.908	62.46
348.291	85.05
348.674	81.89
349.057	118.05
349.44	125.96
349.823	122.57
350.206	157.37
350.588	188.33
350.971	190.14
351.354	209.57
351.737	250.93
352.119	245.95
352.502	254.54
352.884	274.43
353.267	283.02
353.65	307.42
354.032	308.55
354.414	299.74
354.797	324.37
355.179	334.09
355.562	333.86
355.944	347.87
356.326	335.9
356.709	334.99
357.091	349.45
357.473	342.9
357.855	356.69
358.238	334.77
358.62	332.51
359.002	348.78
359.384	349.45
359.766	329.57
360.148	350.36
360.53	344.03
360.912	357.59
361.294	338.83
361.676	365.5
362.057	341.54
362.439	334.99
362.821	340.19
363.203	343.13
363.584	361.66
363.966	344.93
364.348	338.83
364.729	357.36
365.111	311.04
365.493	331.38
365.874	350.81
366.256	315.78
366.637	351.26
367.019	338.38
367.4	344.93
367.781	343.58
368.163	345.84
368.544	359.85
368.925	336.57
369.306	341.09
369.688	327.76
370.069	358.04
370.45	342.67
370.831	331.38
371.212	354.65
371.593	343.13
371.974	351.49
372.355	346.29
372.736	349.91
373.117	349
373.498	333.41
373.879	342.22
374.26	364.82
374.641	344.93
375.021	352.84
375.402	355.33
375.783	367.98
376.163	385.39
376.544	388.32
376.925	355.56
377.305	349
377.686	382.45
378.066	397.59
378.447	385.16
378.827	390.13
379.208	398.49
379.588	385.16
379.968	390.81
380.349	379.28
380.729	418.6
381.109	429.23
381.489	403.69
381.87	407.76
382.25	420.19
382.63	401.66
383.01	425.84
383.39	399.17
383.77	413.41
384.15	436.01
384.53	436.01
384.91	437.81
385.29	447.53
385.67	452.05
386.049	444.14
386.429	447.76
386.809	442.78
387.189	452.73
387.568	470.35
387.948	460.86
388.328	461.54
388.707	473.74
389.087	469.9
389.466	465.84
389.846	473.97
390.225	478.04
390.605	460.41
390.984	488.66
391.363	499.28
391.743	487.76
392.122	498.83
392.501	515.78
392.881	510.81
393.26	500.18
393.639	523.91
394.018	530.69
394.397	518.26
394.776	541.54
395.155	534.31
395.534	545.83
395.913	540.41
396.292	545.38
396.671	543.8
397.05	573.63
397.429	567.08
397.808	551.03
398.186	568.21
398.565	579.73
398.944	589.22
399.323	572.27
399.701	595.55
400.08	574.08
400.458	599.84
400.837	602.1
401.215	619.96
401.594	631.25
401.972	610.01
402.351	628.09
402.729	626.73
403.107	647.07
403.486	638.49
403.864	642.1
404.242	647.75
404.62	665.83
404.999	671.25
405.377	680.74
405.755	694.08
406.133	681.42
406.511	683.68
406.889	713.51
407.267	712.83
407.645	756
408.023	716.68
408.401	748.99
408.779	758.26
409.156	738.6
409.534	756.22
409.912	762.55
410.29	799.61
410.667	790.8
411.045	798.03
411.422	804.36
411.8	804.36
412.178	828.31
412.555	836.67
412.933	845.26
413.31	854.3
413.687	834.64
414.065	867.86
414.442	877.8
414.819	896.33
415.197	887.07
415.574	919.38
415.951	926.84
416.328	922.77
416.705	930
417.082	925.94
417.46	951.02
417.837	951.7
418.214	970
418.591	991.47
418.967	987.63
419.344	995.31
419.721	990.79
420.098	1030.79
420.475	1017.69
420.852	1010.68
421.228	1042.77
421.605	1051.81
421.982	1075.76
422.358	1076.44
422.735	1091.36
423.111	1088.42
423.488	1111.92
423.864	1113.05
424.241	1160.28
424.617	1147.85
424.994	1150.79
425.37	1161.86
425.746	1151.69
426.123	1173.16
426.499	1193.73
426.875	1205.93
427.251	1224.91
427.627	1245.93
428.003	1266.04
428.379	1302.65
428.756	1302.65
429.132	1287.06
429.507	1332.03
429.883	1356.89
430.259	1354.4
430.635	1380.84
431.011	1375.42
431.387	1416.77
431.763	1437.34
432.138	1433.49
432.514	1443.89
432.89	1468.97
433.265	1496.54
433.641	1545.81
434.016	1540.38
434.392	1545.81
434.767	1595.52
435.143	1593.94
435.518	1614.51
435.894	1634.84
436.269	1640.04
436.644	1692.92
437.02	1704.45
437.395	1700.83
437.77	1756.65
438.145	1730.89
438.52	1749.42
438.895	1790.09
439.271	1782.41
439.646	1814.05
440.021	1819.92
440.395	1822.86
440.77	1857.44
441.145	1874.16
441.52	1888.85
441.895	1904.67
442.27	1918.9
442.645	1935.18
443.019	1979.02
443.394	1969.75
443.769	1993.93
444.143	1995.29
444.518	2045.91
444.892	2033.48
445.267	2053.14
445.641	2072.8
446.016	2067.15
446.39	2117.54
446.764	2072.8
447.139	2120.93
447.513	2159.8
447.887	2162.06
448.262	2170.65
448.636	2198.45
449.01	2209.52
449.384	2222.63
449.758	2249.74
450.132	2305.56
450.506	2326.13
450.88	2345.79
451.254	2321.83
451.628	2341.27
452.002	2408.38
452.376	2446.35
452.75	2441.6
453.123	2462.39
453.497	2466.23
453.871	2475.95
454.244	2540.13
454.618	2582.62
454.992	2607.7
455.365	2583.75
455.739	2680.24
456.112	2736.28
456.486	2719.34
456.859	2734.93
457.232	2807.02
457.606	2777.19
457.979	2790.97
458.352	2888.14
458.725	2879.33
459.099	2930.18
459.472	2981.02
459.845	3017.41
460.218	3038.2
460.591	3034.58
460.964	3070.51
461.337	3091.53
461.71	3175.37
462.083	3219.21
462.456	3235.48
462.829	3247.91
463.201	3304.86
463.574	3309.83
463.947	3370.62
464.32	3445.87
464.692	3484.96
465.065	3514.79
465.438	3521.35
465.81	3590.27
466.183	3674.34
466.555	3735.13
466.928	3727.22
467.3	3762.47
467.672	3801.11
468.045	3867.1
468.417	3894.45
468.789	3915.91
469.161	3982.8
469.534	4063.03
469.906	4128.34
470.278	4231.61
470.65	4197.49
471.022	4300.54
471.394	4342.12
471.766	4410.36
472.138	4410.36
472.51	4590.02
472.882	4590.25
473.253	4591.83
473.625	4740.07
473.997	4844.93
474.369	4929.9
474.74	4913.18
475.112	5044.25
475.484	5090.8
475.855	5154.98
476.227	5273.17
476.598	5396.78
476.97	5382.77
477.341	5491.24
477.713	5569.43
478.084	5629.99
478.455	5799.71
478.827	5881.96
479.198	5979.36
479.569	6033.82
479.94	6206.25
480.311	6207.15
480.682	6336.64
481.053	6497.77
481.424	6566.69
481.795	6682.17
482.166	6797.19
482.537	6850.75
482.908	6997.64
483.279	6998.09
483.65	7143.17
484.021	7347.01
484.391	7459.78
484.762	7474.46
485.133	7575.25
485.503	7689.83
485.874	7921.01
486.244	7938.18
486.615	8102.02
486.985	8160.32
487.356	8318.28
487.726	8414.1
488.097	8624.94
488.467	8610.25
488.837	8818.16
489.207	8911.26
489.578	9022.67
489.948	9082.78
490.318	9171.82
490.688	9216.11
491.058	9394.87
491.428	9513.96
491.798	9618.14
492.168	9811.13
492.538	9859.71
492.908	9987.84
493.278	10118.91
493.648	10166.37
494.017	10326.82
494.387	10366.14
494.757	10582.63
495.126	10589.64
495.496	10629.18
495.866	10715.28
496.235	10894.94
496.605	10924.77
496.974	10984.43
497.344	11121.6
497.713	11211.99
498.082	11282.95
498.452	11461.03
498.821	11414.25
499.19	11520.23
499.559	11642.49
499.928	11738.99
500.298	11876.16
500.667	11968.36
501.036	11952.09
501.405	12032.54
501.774	12042.25
502.143	12279.31
502.512	12303.26
502.88	12457.84
503.249	12450.38
503.618	12552.3
503.987	12628
504.356	12740.99
504.724	12789.13
505.093	12886.98
505.462	12951.61
505.83	13003.13
506.199	13197.93
506.567	13332.39
506.936	13312.73
507.304	13453.06
507.672	13607.86
508.041	13598.37
508.409	13819.83
508.777	13838.14
509.145	14015.54
509.514	14027.51
509.882	14139.83
510.25	14203.33
510.618	14404.9
510.986	14360.39
511.354	14556.99
511.722	14637.67
512.09	14789.75
512.458	14796.31
512.826	14946.81
513.193	14987.49
513.561	15094.6
513.929	15268.38
514.297	15345.9
514.664	15510.64
515.032	15589.05
515.4	15732.55
515.767	15692.78
516.135	15921.7
516.502	15794.47
516.869	16157.85
517.237	16187.46
517.604	16128.93
517.972	16424.51
518.339	16464.74
518.706	16509.26
519.073	16643.94
519.44	16866.08
519.808	17046.19
520.175	17040.31
520.542	17172.97
520.909	17381.55
521.276	17369.57
521.643	17577.7
522.009	17714.42
522.376	17824.93
522.743	17965.26
523.11	18072.83
523.477	18125.71
523.843	18366.83
524.21	18563.44
524.577	18675.98
524.943	18876.65
525.31	18939.93
525.676	19097.21
526.043	19202.07
526.409	19379.91
526.776	19549.85
527.142	19698.1
527.508	19768.38
527.874	19900.8
528.241	19993.46
528.607	20195.03
528.973	20392.09
529.339	20417.63
529.705	20559.54
530.071	20675.7
530.437	20856.49
530.803	20987.1
531.169	21159.53
531.535	21082.47
531.901	21229.36
532.267	21353.2
532.632	21537.6
532.998	21576.69
533.364	21770.59
533.73	21850.58
534.095	21944.59
534.461	21989.11
534.826	22211.03
535.192	22228.65
535.557	22495.76
535.923	22450.12
536.288	22446.5
536.653	22655.53
537.019	22695.31
537.384	22706.83
537.749	22943.66
538.114	22899.82
538.479	23059.59
538.845	23269.3
539.21	23228.85
539.575	23416.64
539.94	23350.21
540.305	23582.29
540.67	23470.43
541.034	23650.54
541.399	23738.22
541.764	23740.93
542.129	23867.71
542.494	23894.6
542.858	24069.96
543.223	24173.91
543.587	24288.49
543.952	24343.63
544.316	24339.56
544.681	24449.16
545.045	24610.96
545.41	24666.33
545.774	24708.59
546.138	24781.81
546.503	24890.28
546.867	24911.07
547.231	25106.54
547.595	25181.57
547.959	25267.89
548.324	25341.57
548.688	25456.36
549.052	25612.07
549.416	25572.07
549.779	25633.76
550.143	25712.85
550.507	26025.84
550.871	25944.94
551.235	26020.64
551.599	26329.79
551.962	26330.69
552.326	26373.18
552.689	26588.76
553.053	26562.1
553.417	26762.54
553.78	26956.44
554.143	26810
554.507	27021.3
554.87	27074.85
555.234	27344.9
555.597	27212.02
555.96	27396.88
556.323	27503.32
556.686	27580.6
557.05	27770.65
557.413	27876.19
557.776	27929.29
558.139	28114.83
558.502	28117.99
558.865	28315.72
559.228	28569.05
559.59	28586.45
559.953	28695.38
560.316	28962.71
560.679	28939.21
561.041	29194.57
561.404	29270.28
561.767	29515.24
562.129	29482.7
562.492	29809.92
562.854	29797.04
563.217	29716.82
563.579	29963.36
563.941	30037.26
564.304	30367.65
564.666	30474.31
565.028	30552.73
565.39	30633.18
565.753	30858.48
566.115	30803.79
566.477	30973.96
566.839	31069.32
567.201	31404.68
567.563	31497.56
567.925	31536.66
568.287	31528.52
568.648	31629.08
569.01	31757.89
569.372	32020.03
569.734	31989.75
570.095	32081.95
570.457	32211.89
570.819	32263.19
571.18	32340.25
571.542	32449.4
571.903	32602.62
572.265	32672.9
572.626	32773.46
572.987	32765.78
573.349	32920.35
573.71	33197.63
574.071	33123.28
574.432	33408.25
574.794	33411.18
575.155	33476.27
575.516	33396.27
575.877	33514.01
576.238	33717.39
576.599	33775.24
576.96	33896.59
577.32	33756.94
577.681	33964.62
578.042	34046.87
578.403	34107.66
578.763	34145.4
579.124	34225.63
579.485	34251.84
579.845	34405.73
580.206	34210.94
580.566	34339.75
580.927	34508.33
581.287	34525.28
581.648	34369.8
582.008	34558.95
582.368	34397.37
582.728	34648.21
583.089	34506.07
583.449	34553.3
583.809	34534.77
584.169	34650.02
584.529	34708.32
584.889	34953.29
585.249	34623.36
585.609	34647.08
585.969	34828.55
586.329	34790.81
586.688	34844.14
587.048	34786.97
587.408	34827.42
587.768	34853.18
588.127	34860.64
588.487	34724.14
588.846	34973.4
589.206	34763.01
589.565	34897.7
589.925	34952.16
590.284	34862.22
590.643	34969.33
591.003	35045.72
591.362	35079.61
591.721	34943.12
592.08	35181.53
592.44	35092.72
592.799	35035.32
593.158	34948.09
593.517	34979.96
593.876	35070.58
594.235	35098.82
594.593	35019.5
594.952	35127.52
595.311	35021.76
595.67	35133.4
596.029	35273.51
596.387	35379.49
596.746	35367.97
597.104	35142.44
597.463	35137.47
597.822	35327.29
598.18	35201.42
598.538	35211.81
598.897	35527.51
599.255	35217.92
599.613	35785.13
599.972	35536.78
600.33	35715.08
600.688	35332.26
601.046	35591.92
601.404	35724.8
601.762	35550.11
602.12	35807.96
602.478	35781.29
602.836	35866.94
603.194	35727.96
603.552	35867.39
603.91	35803.21
604.268	35887.5
604.625	35842.08
604.983	35867.39
605.341	35898.8
605.698	36050.44
606.056	35971.57
606.413	36066.48
606.771	36073.94
607.128	36061.06
607.485	36031.23
607.843	36016.76
608.2	36247.49
608.557	36321.16
608.914	36314.38
609.272	36374.72
609.629	36263.76
609.986	36576.98
610.343	36433.7
610.7	36590.54
611.057	36614.49
611.414	36587.6
611.771	36531.33
612.127	36741.49
612.484	36769.51
612.841	36784.88
613.198	36754.6
613.554	36816.07
613.911	37057.64
614.267	36920.47
614.624	36819.23
614.98	36923.18
615.337	36994.14
615.693	37051.77
616.05	36909.85
616.406	37270.52
616.762	37163.85
617.118	37087.47
617.475	37079.56
617.831	37372.89
618.187	37350.06
618.543	37244.08
618.899	37519.78
619.255	37295.83
619.611	37292.44
619.967	37500.34
620.323	37555.71
620.678	37342.61
621.034	37296.51
621.39	37287.01
621.746	37274.13
622.101	37721.8
622.457	37281.59
622.812	37604.52
623.168	37406.33
623.523	37466.67
623.879	37585.09
624.234	37313
624.589	37418.08
624.945	37464.18
625.3	37291.31
625.655	37463.05
626.01	37489.04
626.365	37421.7
626.72	37382.83
627.075	37428.03
627.43	37313.68
627.785	37352.55
628.14	37387.8
628.495	37450.17
628.85	37360.23
629.205	37160.24
629.559	37379.44
629.914	37192.55
630.269	37355.71
630.623	37175.83
630.978	37085.44
631.332	37237.98
631.687	37280.23
632.041	37029.62
632.396	37030.07
632.75	36887.7
633.104	36817.87
633.459	36705.11
633.813	36792.11
634.167	36862.84
634.521	36715.5
634.875	36671.44
635.229	36688.16
635.583	36422.4
635.937	36367.72
636.291	36403.87
636.645	36538.56
636.999	36248.17
637.352	36252.69
637.706	36098.8
638.06	36239.13
638.413	36200.26
638.767	36056.76
639.121	36091.34
639.474	35874.17
639.828	35856.77
640.181	35973.6
640.534	36002.3
640.888	35821.97
641.241	35699.71
641.594	35759.14
641.947	35649.77
642.301	35586.72
642.654	35675.76
643.007	35563.44
643.36	35518.25
643.713	35404.58
644.066	35439.38
644.419	35192.15
644.771	35072.61
645.124	34814.99
645.477	34600.08
645.83	34381.33
646.182	34300.88
646.535	34159.41
646.888	34201.9
647.24	33937.27
647.593	34193.99
647.945	34040.77
648.298	33828.35
648.65	33734.56
649.002	33736.82
649.355	33862.92
649.707	33757.62
650.059	34020.21
650.411	34438.5
650.763	34366.86
651.115	34583.58
651.467	34398.5
651.819	34471.49
652.171	34495.9
652.523	34333.19
652.875	34273.53
653.227	34123.26
653.578	34298.84
653.93	34300.65
654.282	34130.49
654.633	34070.83
654.985	34140.66
655.337	34095.46
655.688	34077.83
656.039	34275.12
656.391	33797.61
656.742	33838.29
657.094	33933.2
657.445	33925.75
657.796	33908.12
658.147	33799.87
658.498	33772.08
658.849	33836.94
659.2	33681.91
659.551	33606.43
659.902	33669.03
660.253	33612.76
660.604	33601.24
660.955	33433.33
661.306	33625.19
661.656	33600.78
662.007	33444.4
662.358	33438.75
662.708	33484.63
663.059	33420.67
663.409	33292.77
663.76	33454.57
664.11	33273.11
664.461	33378.42
664.811	33288.7
665.161	33384.52
665.511	33215.48
665.862	33272.2
666.212	33351.75
666.562	33382.71
666.912	33190.4
667.262	33243.05
667.612	33161.7
667.962	33254.58
668.312	33087.58
668.662	33277.85
669.011	33078.09
669.361	33077.86
669.711	33093.9
670.06	33034.24
670.41	32885.77
670.76	32898.2
671.109	32984.3
671.459	32979.1
671.808	32884.19
672.157	32938.43
672.507	32733.46
672.856	32705.67
673.205	32777.98
673.554	32746.34
673.904	32699.79
674.253	32949.95
674.602	32737.53
674.951	32370.31
675.3	32130.99
675.649	32668.38
675.998	32548.61
676.346	32467.71
676.695	32698.89
677.044	32315.62
677.393	32225.45
677.741	32460.93
678.09	32384.54
678.438	32367.82
678.787	32362.17
679.135	32318.33
679.484	32039.24
679.832	32162.4
680.181	32060.26
680.529	32127.83
680.877	31956.53
681.225	32092.35
681.573	32108.85
681.922	31871.34
682.27	31869.08
682.618	31880.6
682.966	31879.7
683.314	31823.2
683.661	31581.18
684.009	31499.6
684.357	31347.06
684.705	31373.27
685.053	31379.82
685.4	31451.91
685.748	31352.48
686.095	31188.19
686.443	30989.55
686.79	30879.27
687.138	30854.19
687.485	30929.67
687.832	30843.79
688.18	30716.79
688.527	30600.86
688.874	30572.61
689.221	30489.45
689.568	30444.93
689.915	30448.32
690.262	30296.01
690.609	30267.76
690.956	30132.17
691.303	30070.71
691.65	29934.89
691.997	29917.49
692.344	29830.94
692.69	29767.66
693.037	29780.32
693.383	29618.06
693.73	29681.79
694.077	29472.53
694.423	29485.19
694.769	29369.93
695.116	29268.92
695.462	29237.28
695.808	29190.96
696.155	29271.63
696.501	29044.97
696.847	28974.46
697.193	28708.26
697.539	28854.69
697.885	28565.44
698.231	28670.29
698.577	28598.2
698.923	28529.96
699.269	28399.79
699.614	28252.22
699.96	28310.75
700.306	28220.59
700.651	28109.63
700.997	27967.94
701.342	27996.86
701.688	27947.6
702.033	27876.19
702.379	27990.08
702.724	27649.08
703.069	27816.75
703.415	27440.95
703.76	27500.15
704.105	27501.28
704.45	27437.33
704.795	27273.49
705.14	27105.59
705.485	27188.75
705.83	27113.27
706.175	27099.03
706.52	27012.26
706.865	26869.43
707.209	26954.4
707.554	26851.58
707.899	26912.37
708.243	26656.11
708.588	26717.57
708.932	26452.95
709.277	26499.73
709.621	26378.83
709.966	26308.32
710.31	26380.86
710.654	26180.64
710.998	26359.84
711.342	26176.57
711.687	26118.95
712.031	25958.95
712.375	25898.16
712.719	25842.12
713.063	25862.23
713.407	25920.31
713.75	25885.51
714.094	25862
714.438	25667.66
714.782	25707.21
715.125	25538.85
715.469	25557.15
715.812	25401.22
716.156	25259.53
716.499	25288.01
716.843	25307.67
717.186	25202.13
717.53	25370.04
717.873	25224.05
718.216	25081.91
718.559	25079.88
718.902	24964.63
719.246	25044.85
719.589	24913.1
719.932	24743.61
720.275	24938.64
720.617	24828.58
720.96	24848.47
721.303	24821.35
721.646	24771.86
721.989	24544.75
722.331	24681.02
722.674	24630.17
723.016	24532.77
723.359	24584.07
723.701	24500.91
724.044	24429.27
724.386	24326.9
724.729	24499.1
725.071	24394.47
725.413	24201.26
725.755	24278.54
726.097	24186.34
726.439	24103.18
726.782	24069.28
727.124	24137.08
727.465	24070.19
727.807	23996.97
728.149	23890.76
728.491	23819.35
728.833	23918.55
729.175	23808.27
729.516	23846.92
729.858	23782.96
730.199	23765.79
730.541	23681.27
730.882	23671.33
731.224	23751.1
731.565	23499.81
731.906	23564.89
732.248	23623.19
732.589	23411.22
732.93	23366.48
733.271	23394.5
733.612	23374.39
733.953	23408.06
734.294	23269.76
734.635	23231.79
734.976	23438.79
735.317	23264.78
735.658	23088.07
735.999	23168.52
736.339	23087.84
736.68	23119.02
737.021	23108.86
737.361	22949.31
737.702	23065.02
738.042	22888.07
738.383	22975.07
738.723	22929.65
739.063	22787.73
739.404	22878.13
739.744	22880.16
740.084	22716.1
740.424	22700.28
740.764	22672.71
741.104	22688.3
741.444	22571.47
741.784	22532.15
742.124	22612.82
742.464	22510.45
742.804	22395.2
743.143	22503.67
743.483	22438.14
743.823	22226.84
744.162	22328.54
744.502	22332.83
744.841	22208.77
745.181	22221.42
745.52	22138.26
745.86	22135.77
746.199	22135.1
746.538	22107.75
746.877	22057.81
747.216	22155.89
747.556	22008.55
747.895	21888.77
748.234	21846.97
748.573	21729.23
748.911	21793.18
749.25	21792.28
749.589	21659.4
749.928	21620.99
750.267	21518.39
750.605	21500.08
750.944	21540.08
751.283	21406.98
751.621	21417.37
751.96	21481.78
752.298	21368.79
752.636	21438.39
752.975	21353.65
753.313	21251.05
753.651	21154.56
753.989	21048.57
754.327	21163.37
754.666	20948.46
755.004	20999.76
755.342	21009.93
755.679	21021.45
756.017	20884.28
756.355	20900.78
756.693	20774
757.031	20828.01
757.368	20679.99
757.706	20554.8
758.044	20516.61
758.381	20542.6
758.719	20415.37
759.056	20454.46
759.394	20413.79
759.731	20147.8
760.068	20244.52
760.405	20111.65
760.743	20131.98
761.08	20089.73
761.417	20004.76
761.754	19908.04
762.091	19833.01
762.428	19834.37
762.765	19695.84
763.102	19852.67
763.438	19679.57
763.775	19641.15
764.112	19561.6
764.449	19561.15
764.785	19428.27
765.122	19266.24
765.458	19254.49
765.795	19132.92
766.131	19190.09
766.467	19075.29
766.804	18991.45
767.14	19005.01
767.476	18979.47
767.812	18792.36
768.148	18859.02
768.485	18693.83
768.821	18519.37
769.157	18651.35
769.492	18519.15
769.828	18487.51
770.164	18244.58
770.5	18288.42
770.836	18304.69
771.171	18139.49
771.507	18125.94
771.842	17979.05
772.178	18088.42
772.513	17920.97
772.849	17941.31
773.184	17809.33
773.519	17818.83
773.855	17577.93
774.19	17565.05
774.525	17497.93
774.86	17528.44
775.195	17429.23
775.53	17398.72
775.865	17316.01
776.2	17232.85
776.535	17070.37
776.87	17111.05
777.205	17045.96
777.539	16996.47
777.874	17008
778.209	16754.9
778.543	16772.53
778.878	16719.65
779.212	16738.18
779.547	16581.12
779.881	16685.3
780.215	16586.77
780.55	16553.77
780.884	16469.93
781.218	16445.53
781.552	16399.65
781.886	16291.41
782.22	16234.69
782.554	16097.74
782.888	15991.98
783.222	15947.91
783.556	15846.45
783.889	15813
784.223	15724.42
784.557	15608.71
784.89	15759.22
785.224	15568.71
785.557	15486.91
785.891	15519.22
786.224	15478.32
786.558	15414.59
786.891	15344.77
787.224	15229.74
787.557	15180.93
787.891	15188.84
788.224	15179.35
788.557	15104.32
788.89	15115.39
789.223	15015.06
789.556	14934.83
789.888	14913.36
790.221	14931.67
790.554	14717.89
790.887	14773.71
791.219	14620.04
791.552	14629.3
791.884	14564
792.217	14479.03
792.549	14387.96
792.882	14421.4
793.214	14266.6
793.546	14253.04
793.879	14220.5
794.211	14134.63
794.543	14125.59
794.875	14090.34
795.207	14185.25
795.539	13987.97
795.871	14055.31
796.203	13927.85
796.535	13774.19
796.867	13821.42
797.198	13751.81
797.53	13728.54
797.862	13728.76
798.193	13736.45
798.525	13568.09
798.856	13568.32
799.188	13467.08
799.519	13445.38
799.85	13319.73
800.182	13357.47
800.513	13385.72
800.844	13321.77
801.175	13324.48
801.506	13289
801.837	13201.77
802.168	13219.4
802.499	13122.68
802.83	13051.04
803.161	12943.93
803.491	13011.27
803.822	12920.2
804.153	12903.25
804.483	12819.63
804.814	12762.46
805.145	12781.44
805.475	12830.26
805.805	12742.57
806.136	12667.1
806.466	12644.05
806.796	12724.72
807.126	12569.02
807.457	12594.1
807.787	12523.37
808.117	12441.79
808.447	12471.85
808.777	12506.65
809.107	12282.7
809.436	12347.78
809.766	12302.81
810.096	12197.28
810.426	12223.94
810.755	12267.33
811.085	12189.59
811.414	12120.67
811.744	12101.69
812.073	12027.11
812.403	12021.01
812.732	11977.17
813.061	11964.29
813.39	11934.91
813.719	11891.52
814.049	12007
814.378	11937.17
814.707	11806.33
815.036	11894.91
815.365	11724.07
815.693	11663.96
816.022	11642.04
816.351	11601.81
816.68	11520.23
817.008	11614.02
817.337	11526.79
817.665	11454.92
817.994	11527.92
818.322	11445.43
818.651	11376.51
818.979	11393.23
819.307	11462.38
819.636	11431.2
819.964	11221.48
820.292	11310.75
820.62	11348.03
820.948	11250.86
821.276	11312.78
821.604	11276.4
821.932	11306.45
822.259	11346.91
822.587	11183.07
822.915	11236.63
823.243	11323.18
823.57	11320.47
823.898	11239.79
824.225	11212.22
824.553	11263.74
824.88	11247.25
825.207	11281.14
825.535	11266
825.862	11249.51
826.189	11225.78
826.516	11265.33
826.843	11333.8
827.17	11297.19
827.497	11249.51
827.824	11356.4
828.151	11297.19
828.478	11261.71
828.805	11331.76
829.131	11241.6
829.458	11220.13
829.785	11180.81
830.111	11260.35
830.438	11159.57
830.764	11082.05
831.09	11244.31
831.417	11136.52
831.743	11195.72
832.069	11218.32
832.395	11125.67
832.722	11156.63
833.048	11086.12
833.374	11148.72
833.7	11073.24
834.026	11099
834.351	11064.43
834.677	11051.77
835.003	11058.1
835.329	11014.71
835.654	11009.74
835.98	10969.74
836.306	11012.45
836.631	10991.66
836.956	11027.37
837.282	10933.58
837.607	10957.76
837.932	10934.49
838.258	10931.77
838.583	10944.66
838.908	10799.35
839.233	10812.91
839.558	10781.5
839.883	10849.07
840.208	10708.96
840.533	10781.5
840.858	10783.53
841.182	10788.05
841.507	10705.34
841.832	10685.91
842.156	10603.2
842.481	10632.35
842.805	10606.13
843.13	10572.91
843.454	10574.04
843.778	10542.86
844.103	10496.08
844.427	10539.02
844.751	10482.3
845.075	10491.11
845.399	10448.85
845.723	10372.02
846.047	10370.21
846.371	10310.55
846.695	10352.13
847.019	10237.33
847.343	10169.99
847.666	10147.84
847.99	10120.72
848.313	10097.22
848.637	10019.71
848.96	10026.71
849.284	9972.48
849.607	9858.81
849.931	9907.17
850.254	9819.26
850.577	9738.36
850.9	9654.29
851.223	9636.67
851.546	9658.14
851.869	9518.25
852.192	9600.51
852.515	9564.13
852.838	9462.66
853.161	9546.05
853.483	9408.88
853.806	9458.59
854.129	9380.4
854.451	9376.79
854.774	9309.9
855.096	9276
855.419	9235.32
855.741	9214.31
856.063	9126.4
856.385	9139.96
856.708	9125.95
857.03	9111.71
857.352	9059.06
857.674	9025.38
857.996	9044.82
858.318	8925.27
858.64	8928.21
858.961	8911.71
859.283	8950.58
859.605	8860.19
859.926	8938.38
860.248	8836.91
860.57	8884.37
860.891	8871.04
861.212	8857.7
861.534	8810.93
861.855	8840.76
862.176	8742.68
862.498	8787.88
862.819	8788.1
863.14	8716.47
863.461	8682.57
863.782	8654.77
864.103	8719.86
864.424	8706.97
864.745	8664.26
865.065	8662.68
865.386	8560.99
865.707	8581.33
866.027	8648.44
866.348	8557.37
866.668	8594.66
866.989	8532.97
867.309	8464.04
867.63	8487.55
867.95	8518.5
868.27	8382.92
868.59	8467.66
868.91	8452.97
869.23	8420.65
869.55	8341.33
869.87	8444.16
870.19	8402.35
870.51	8419.52
870.83	8317.83
871.15	8343.37
871.469	8309.24
871.789	8378.4
872.109	8332.97
872.428	8254.11
872.748	8302.24
873.067	8260.66
873.386	8258.17
873.706	8256.14
874.025	8199.19
874.344	8182.47
874.663	8272.18
874.982	8170.94
875.301	8189.7
875.62	8156.93
875.939	8073.32
876.258	8138.18
876.577	8054.56
876.896	8072.19
877.214	8092.53
877.533	8150.15
877.852	8022.92
878.17	8092.53
878.489	8009.59
878.807	8047.1
879.125	7982.02
879.444	7995.13
879.762	7987.67
880.08	8002.81
880.398	7952.64
880.716	7945.41
881.034	7926.88
881.352	7969.14
881.67	7931.18
881.988	7899.09
882.306	7875.81
882.624	7898.41
882.941	7830.16
883.259	7849.6
883.577	7819.54
883.894	7787.9
884.212	7770.95
884.529	7742.71
884.846	7732.99
885.164	7703.61
885.481	7675.14
885.798	7722.82
886.115	7644.18
886.432	7651.18
886.75	7630.17
887.067	7661.13
887.383	7621.35
887.7	7618.87
888.017	7579.32
888.334	7589.04
888.651	7561.02
888.967	7512.66
889.284	7540.68
889.6	7483.73
889.917	7408.7
890.233	7436.05
890.55	7372.09
890.866	7402.83
891.182	7312.21
891.498	7329.38
891.815	7315.15
892.131	7331.64
892.447	7308.82
892.763	7226.56
893.079	7204.42
893.395	7152.21
893.71	7183.85
894.026	7148.37
894.342	7185.66
894.657	7104.3
894.973	7072.67
895.289	7103.17
895.604	7091.65
895.92	7067.02
896.235	6989.51
896.55	6994.93
896.865	6984.08
897.181	6962.61
897.496	7008.49
897.811	6915.38
898.126	6875.16
898.441	6928.26
898.756	6855.72
899.071	6804.65
899.386	6811.21
899.7	6782.51
900.015	6767.36
900.33	6724.43
900.644	6736.18
900.959	6704.32
901.273	6633.36
901.588	6627.03
901.902	6616.41
902.216	6599.69
902.531	6578.22
902.845	6547.71
903.159	6522.4
903.473	6511.33
903.787	6418.9
904.101	6480.82
904.415	6433.14
904.729	6388.84
905.042	6387.26
905.356	6360.6
905.67	6345.91
905.984	6363.99
906.297	6355.4
906.611	6237.43
906.924	6236.76
907.237	6206.7
907.551	6264.78
907.864	6197.44
908.177	6175.74
908.491	6154.05
908.804	6131
909.117	6087.16
909.43	6070.66
909.743	6017.33
910.056	6065.24
910.368	6004.22
910.681	5948.63
910.994	6017.78
911.307	5964.45
911.619	5942.98
911.932	5946.37
912.244	5841.29
912.557	5888.07
912.869	5825.92
913.181	5786.15
913.494	5855.52
913.806	5782.08
914.118	5734.4
914.43	5687.17
914.742	5738.01
915.054	5668.18
915.366	5676.55
915.678	5628.19
915.99	5617.34
916.302	5569.66
916.613	5566.04
916.925	5511.35
917.236	5526.49
917.548	5432.94
917.859	5495.31
918.171	5469.09
918.482	5424.57
918.794	5391.36
919.105	5400.62
919.416	5341.87
919.727	5346.84
920.038	5329.44
920.349	5279.72
920.66	5247.63
920.971	5240.62
921.282	5190.46
921.593	5202.21
921.903	5165.6
922.214	5092.83
922.525	5145.94
922.835	5074.75
923.146	5079.27
923.456	5053.96
923.767	5042.66
924.077	5033.62
924.387	5013.29
924.697	4968.09
925.008	4929.9
925.318	4938.26
925.628	4941.65
925.938	4917.47
926.248	4869.34
926.558	4842.44
926.867	4791.37
927.177	4801.31
927.487	4762.45
927.796	4738.49
928.106	4731.71
928.416	4743.01
928.725	4726.06
929.034	4675.89
929.344	4727.19
929.653	4646.97
929.962	4613.97
930.271	4609.68
930.581	4566.97
930.89	4568.33
931.199	4500.53
931.508	4553.86
931.817	4466.41
932.125	4496.46
932.434	4489.01
932.743	4471.83
933.051	4442
933.36	4423.92
933.669	4393.42
933.977	4364.72
934.286	4382.12
934.594	4346.41
934.902	4330.14
935.21	4293.08
935.519	4307.77
935.827	4277.03
936.135	4213.08
936.443	4224.38
936.751	4200.88
937.059	4181.9
937.367	4148.45
937.674	4161.11
937.982	4127.43
938.29	4160.65
938.597	4136.02
938.905	4093.76
939.213	4120.2
939.52	4074.33
939.827	4074.1
940.135	4012.41
940.442	4024.39
940.749	4008.79
941.056	4022.58
941.363	3948.68
941.67	3913.65
941.977	3899.42
942.284	3867.55
942.591	3878.4
942.898	3873.2
943.205	3876.14
943.511	3838.63
943.818	3861.9
944.125	3771.96
944.431	3804.05
944.738	3771.29
945.044	3766.54
945.35	3725.18
945.657	3733.77
945.963	3750.04
946.269	3675.92
946.575	3669.14
946.881	3713.89
947.187	3688.12
947.493	3620.33
947.799	3622.59
948.105	3572.42
948.41	3607.22
948.716	3580.1
949.022	3550.27
949.327	3545.08
949.633	3528.35
949.938	3501.69
950.244	3517.05
950.549	3512.99
950.854	3465.3
951.16	3510.5
951.465	3448.58
951.77	3425.31
952.075	3420.11
952.38	3395.48
952.685	3382.14
952.99	3374.69
953.294	3367.45
953.599	3310.51
953.904	3283.84
954.209	3339.88
954.513	3329.49
954.818	3235.93
955.122	3245.42
955.426	3211.07
955.731	3217.85
956.035	3230.73
956.339	3216.27
956.643	3168.36
956.948	3179.89
957.252	3204.29
957.556	3166.1
957.86	3150.74
958.163	3132.21
958.467	3105.99
958.771	3114.35
959.075	3157.06
959.378	3107.35
959.682	3074.81
959.985	3035.71
960.289	3067.12
960.592	3023.51
960.896	3059.67
961.199	2998.65
961.502	3018.54
961.805	2990.06
962.108	2979.22
962.411	2934.92
962.714	2936.96
963.017	2927.92
963.32	2916.17
963.623	2927.47
963.926	2896.28
964.228	2886.11
964.531	2914.36
964.833	2879.56
965.136	2859.9
965.438	2849.73
965.741	2857.64
966.043	2826.9
966.345	2843.85
966.648	2763.85
966.95	2755.49
967.252	2748.04
967.554	2734.7
967.856	2739.9
968.158	2716.62
968.46	2734.25
968.761	2688.6
969.063	2686.79
969.365	2677.53
969.666	2677.53
969.968	2687.92
970.269	2631.65
970.571	2661.48
970.872	2639.56
971.174	2638.89
971.475	2641.15
971.776	2642.95
972.077	2575.61
972.378	2593.01
972.679	2545.78
972.98	2545.78
973.281	2551.88
973.582	2540.81
973.883	2549.4
974.183	2524.76
974.484	2493.58
974.785	2500.81
975.085	2487.03
975.386	2474.14
975.686	2493.8
975.986	2461.94
976.287	2455.61
976.587	2438.44
976.887	2409.96
977.187	2390.53
977.487	2426.91
977.787	2387.14
978.087	2360.47
978.387	2333.13
978.687	2366.35
978.987	2334.49
979.286	2320.25
979.586	2312.57
979.885	2301.27
980.185	2290.42
980.484	2285
980.784	2317.99
981.083	2268.95
981.382	2248.61
981.682	2287.48
981.981	2247.94
982.28	2267.14
982.579	2245.45
982.878	2238.44
983.177	2215.17
983.475	2217.65
983.774	2212.23
984.073	2216.52
984.372	2193.02
984.67	2179.01
984.969	2165.9
985.267	2168.39
985.566	2150.08
985.864	2099.46
986.162	2109.18
986.461	2109.86
986.759	2124.55
987.057	2091.1
987.355	2102.85
987.653	2080.48
987.951	2044.32
988.249	2093.14
988.547	2046.58
988.844	2037.77
989.142	2016.08
989.44	2022.86
989.737	2017.43
990.035	1999.58
990.332	1999.81
990.63	2011.56
990.927	1995.06
991.224	1976.53
991.521	1977.66
991.819	2008.62
992.116	1936.53
992.413	1931.11
992.71	1917.1
993.006	1904.44
993.303	1934.5
993.6	1932.46
993.897	1875.74
994.193	1898.34
994.49	1889.3
994.787	1852.24
995.083	1861.5
995.379	1869.87
995.676	1827.38
995.972	1833.26
996.268	1794.61
996.565	1797.1
996.861	1800.04
997.157	1812.69
997.453	1809.98
997.749	1779.02
998.044	1785.57
998.34	1762.07
998.636	1746.48
998.932	1721.4
999.227	1732.92
999.523	1741.73
999.818	1741.51
1000.114	1676.65
1000.409	1683.2
1000.704	1723.66
1001	1669.19
1001.295	1683.88
1001.59	1689.08
1001.885	1672.58
1002.18	1668.97
1002.475	1635.3
1002.77	1627.16
1003.065	1596.65
1003.359	1628.52
1003.654	1638.23
1003.949	1609.53
1004.243	1577.44
1004.538	1560.5
1004.832	1565.02
1005.127	1574.05
1005.421	1591.68
1005.715	1570.66
1006.009	1556.65
1006.304	1545.81
1006.598	1555.75
1006.892	1507.84
1007.186	1521.4
1007.48	1534.96
1007.773	1502.42
1008.067	1531.34
1008.361	1476.66
1008.655	1480.5
1008.948	1456.54
1009.242	1441.85
1009.535	1449.76
1009.829	1460.16
1010.122	1442.31
1010.415	1456.77
1010.708	1434.4
1011.001	1412.7
1011.295	1431.01
1011.588	1408.86
1011.881	1372.48
1012.173	1388.97
1012.466	1407.51
1012.759	1372.25
1013.052	1348.98
1013.344	1357.11
1013.637	1364.34
1013.93	1336.32
1014.222	1299.26
1014.514	1314.17
1014.807	1307.85
1015.099	1314.4
1015.391	1302.65
1015.683	1288.86
1015.976	1292.93
1016.268	1271.69
1016.56	1258.58
1016.851	1278.24
1017.143	1280.28
1017.435	1247.96
1017.727	1236.89
1018.018	1235.76
1018.31	1221.52
1018.602	1248.19
1018.893	1222.43
1019.185	1251.13
1019.476	1207.74
1019.767	1207.74
1020.058	1203.67
1020.35	1181.3
1020.641	1168.19
1020.932	1167.74
1021.223	1177.23
1021.514	1166.16
1021.804	1147.17
1022.095	1115.31
1022.386	1166.61
1022.677	1130
1022.967	1138.36
1023.258	1141.75
1023.548	1095.88
1023.839	1079.83
1024.129	1104.24
1024.419	1091.58
1024.709	1073.5
1025	1083.22
1025.29	1053.16
1025.58	1046.38
1025.87	1052.26
1026.16	1051.81
1026.449	1029.44
1026.739	1027.85
1027.029	1036.44
1027.319	999.38
1027.608	988.76
1027.898	1044.58
1028.187	1024.69
1028.477	985.14
1028.766	993.73
1029.055	945.82
1029.344	970.68
1029.634	988.31
1029.923	992.15
1030.212	948.31
1030.501	951.7
1030.79	979.04
1031.078	929.55
1031.367	937.91
1031.656	924.13
1031.945	954.86
1032.233	908.99
1032.522	913.73
1032.81	906.28
1033.099	904.69
1033.387	898.37
1033.675	868.76
1033.963	884.13
1034.251	896.11
1034.54	882.1
1034.828	879.38
1035.116	863.34
1035.403	861.08
1035.691	864.92
1035.979	864.92
1036.267	851.14
1036.554	830.8
1036.842	854.98
1037.129	832.83
1037.417	812.72
1037.704	819.5
1037.992	820.85
1038.279	824.7
1038.566	798.48
1038.853	798.48
1039.14	798.48
