Data from foam2_polystyrene_foam_FLMS001491_00051.txt Node
Date: Wed Feb 08 10:58:09 GMT 2017
User: dcchb
Spectrometer: FLMS00149
Trigger mode: 0
Integration Time (sec): 2.000000E-2
Scans to average: 10
Electric dark correction enabled: true
Nonlinearity correction enabled: false
Boxcar width: 0
XAxis mode: Wavelengths
Number of Pixels in Spectrum: 2048
>>>>>Begin Spectral Data<<<<<
341.393	-18.01
341.776	-18.01
342.16	-18.01
342.543	-40.15
342.927	-62.07
343.31	-72.24
343.693	-70.66
344.077	-68.18
344.46	-63.43
344.843	-39.7
345.226	-36.54
345.61	-34.28
345.993	-16.88
346.376	-12.36
346.759	4.36
347.142	33.29
347.525	52.95
347.908	72.16
348.291	53.4
348.674	85.72
349.057	112.38
349.44	111.03
349.823	152.38
350.206	165.72
350.588	198.03
350.971	221.99
351.354	228.77
351.737	268.09
352.119	246.62
352.502	252.04
352.884	292.27
353.267	288.65
353.65	285.71
354.032	299.5
354.414	315.77
354.797	337.91
355.179	321.64
355.562	323.68
355.944	337.46
356.326	322.32
356.709	346.05
357.091	333.85
357.473	337.69
357.855	341.53
358.238	369.55
358.62	338.14
359.002	354.19
359.384	351.25
359.766	351.02
360.148	357.58
360.53	318.03
360.912	337.91
361.294	355.54
361.676	328.2
362.057	324.81
362.439	351.25
362.821	343.56
363.203	345.6
363.584	337.69
363.966	330.68
364.348	344.47
364.729	331.14
365.111	349.67
365.493	348.99
365.874	324.58
366.256	338.14
366.637	353.51
367.019	345.37
367.4	355.77
367.781	327.97
368.163	337.01
368.544	333.85
368.925	337.91
369.306	316.9
369.688	319.84
370.069	359.16
370.45	343.56
370.831	336.56
371.212	340.4
371.593	348.08
371.974	333.62
372.355	346.95
372.736	352.38
373.117	364.13
373.498	358.48
373.879	331.81
374.26	360.97
374.641	358.25
375.021	336.78
375.402	364.35
375.783	354.41
376.163	349.21
376.544	374.52
376.925	380.85
377.305	376.56
377.686	337.01
378.066	365.26
378.447	385.6
378.827	364.35
379.208	372.04
379.588	375.88
379.968	388.76
380.349	409.78
380.729	378.14
381.109	384.47
381.489	383.11
381.87	416.56
382.25	400.29
382.63	405.03
383.01	407.52
383.39	406.39
383.77	411.13
384.15	398.48
384.53	416.1
384.91	418.36
385.29	411.59
385.67	410.23
386.049	423.56
386.429	409.78
386.809	434.86
387.189	417.01
387.568	439.83
387.948	416.56
388.328	439.83
388.707	441.87
389.087	445.71
389.466	454.07
389.846	468.76
390.225	457.46
390.605	457.91
390.984	445.48
391.363	483.67
391.743	462.21
392.122	471.24
392.501	499.04
392.881	463.56
393.26	488.19
393.639	512.15
394.018	491.81
394.397	513.28
394.776	504.92
395.155	512.37
395.534	513.28
395.913	509.66
396.292	508.76
396.671	506.05
397.05	532.71
397.429	528.64
397.808	532.26
398.186	525.48
398.565	541.98
398.944	524.58
399.323	566.61
399.701	551.92
400.08	568.42
400.458	560.51
400.837	565.48
401.215	563.22
401.594	584.69
401.972	567.29
402.351	564.35
402.729	595.08
403.107	584.46
403.486	584.24
403.864	598.02
404.242	604.12
404.62	612.94
404.999	624.69
405.377	602.54
405.755	646.38
406.133	628.3
406.511	626.95
406.889	634.86
407.267	639.6
407.645	697.91
408.023	646.83
408.401	676.66
408.779	673.73
409.156	687.06
409.534	674.63
409.912	711.24
410.29	693.84
410.667	707.17
411.045	732.71
411.422	706.49
411.8	737.23
412.178	750.56
412.555	747.85
412.933	738.81
413.31	777
413.687	751.46
414.065	789.65
414.442	807.73
414.819	791.46
415.197	773.61
415.574	803.67
415.951	819.48
416.328	821.07
416.705	833.04
417.082	844.57
417.46	835.75
417.837	832.82
418.214	850.22
418.591	842.08
418.967	867.84
419.344	903.78
419.721	892.7
420.098	887.5
420.475	913.72
420.852	905.58
421.228	909.2
421.605	915.07
421.982	923.44
422.358	923.21
422.735	948.29
423.111	966.15
423.488	976.54
423.864	951.91
424.241	988.07
424.617	972.25
424.994	981.74
425.37	993.72
425.746	1003.21
426.123	1017.67
426.499	1047.5
426.875	1035.52
427.251	1040.72
427.627	1077.33
428.003	1093.38
428.379	1093.15
428.756	1098.8
429.132	1123.43
429.507	1121.85
429.883	1124.11
430.259	1147.84
430.635	1157.1
431.011	1157.33
431.387	1197.55
431.763	1222.19
432.138	1260.15
432.514	1235.97
432.89	1241.39
433.265	1263.77
433.641	1263.54
434.016	1301.96
434.392	1310.09
434.767	1329.3
435.143	1344.89
435.518	1360.94
435.894	1368.17
436.269	1396.19
436.644	1403.88
437.02	1437.55
437.395	1429.86
437.77	1482.74
438.145	1482.97
438.52	1471.67
438.895	1494.72
439.271	1495.4
439.646	1531.33
440.021	1533.14
440.395	1559.58
440.77	1521.39
441.145	1565
441.52	1613.14
441.895	1596.41
442.27	1613.14
442.645	1619.24
443.019	1642.74
443.394	1646.13
443.769	1679.35
444.143	1646.13
444.518	1692.46
444.892	1721.16
445.267	1743.08
445.641	1725.9
446.016	1721.83
446.39	1753.47
446.764	1785.11
447.139	1765.67
447.513	1807.25
447.887	1782.62
448.262	1788.05
448.636	1814.71
449.01	1830.98
449.384	1866.01
449.758	1901.72
450.132	1894.26
450.506	1890.87
450.88	1934.71
451.254	1927.03
451.628	1964.76
452.002	1999.57
452.376	1984.88
452.75	1992.56
453.123	2004.31
453.497	2048.6
453.871	2082.73
454.244	2117.3
454.618	2102.61
454.992	2142.84
455.365	2128.38
455.739	2187.58
456.112	2223.06
456.486	2243.4
456.859	2268.71
457.232	2293.34
457.606	2312.1
457.979	2311.2
458.352	2384.19
458.725	2380.12
459.099	2378.77
459.472	2441.81
459.845	2478.88
460.218	2480.68
460.591	2465.09
460.964	2497.86
461.337	2542.6
461.71	2610.17
462.083	2613.56
462.456	2620.11
462.829	2627.12
463.201	2655.37
463.574	2700.79
463.947	2725.42
464.32	2778.08
464.692	2795.25
465.065	2817.85
465.438	2849.94
465.81	2905.76
466.183	2934.23
466.555	2992.53
466.928	2976.49
467.3	2972.87
467.672	3048.35
468.045	3100.33
468.417	3154.56
468.789	3197.05
469.161	3164.28
469.534	3223.94
469.906	3299.42
470.278	3321.11
470.65	3378.74
471.022	3401.79
471.394	3498.96
471.766	3473.65
472.138	3534.21
472.51	3600.2
472.882	3667.32
473.253	3717.71
473.625	3677.71
473.997	3785.06
474.369	3824.38
474.74	3905.73
475.112	3959.97
475.484	4020.53
475.855	4072.96
476.227	4122.9
476.598	4271.14
476.97	4226.85
477.341	4372.16
477.713	4422.78
478.084	4454.42
478.455	4527.41
478.827	4578.71
479.198	4702.55
479.569	4715.65
479.94	4840.17
480.311	4893.05
480.682	5024.12
481.053	5116.55
481.424	5185.02
481.795	5269.31
482.166	5356.54
482.537	5383.88
482.908	5499.81
483.279	5552.92
483.65	5651.45
484.021	5697.55
484.391	5799.01
484.762	5850.54
485.133	5913.81
485.503	6000.59
485.874	6166.46
486.244	6222.51
486.615	6340.02
486.985	6370.07
487.356	6414.82
487.726	6578.2
488.097	6674.92
488.467	6681.25
488.837	6813.22
489.207	6914.01
489.578	7024.07
489.948	7073.56
490.318	7116.72
490.688	7207.56
491.058	7285.3
491.428	7365.07
491.798	7474.22
492.168	7633.09
492.538	7620.89
492.908	7717.61
493.278	7845.06
493.648	7848.45
494.017	7928.45
494.387	8036.47
494.757	8109.24
495.126	8175.9
495.496	8206.18
495.866	8329.34
496.235	8398.27
496.605	8440.75
496.974	8496.57
497.344	8577.02
497.713	8670.8
498.082	8732.04
498.452	8861.98
498.821	8849.56
499.19	8909.89
499.559	8995.77
499.928	9040.28
500.298	9072.6
500.667	9174.52
501.036	9224.46
501.405	9312.82
501.774	9359.6
502.143	9431.91
502.512	9458.58
502.88	9483.66
503.249	9624.45
503.618	9732.92
503.987	9780.6
504.356	9775.18
504.724	9868.74
505.093	9919.81
505.462	9936.31
505.83	10044.55
506.199	10081.16
506.567	10243.64
506.936	10240.03
507.304	10364.32
507.672	10428.27
508.041	10504.65
508.409	10503.3
508.777	10570.87
509.145	10724.08
509.514	10734.03
509.882	10816.28
510.25	10887.47
510.618	10952.33
510.986	10925.66
511.354	11093.11
511.722	11156.39
512.09	11284.29
512.458	11347.79
512.826	11400.22
513.193	11536.94
513.561	11552.08
513.929	11621.01
514.297	11786.43
514.664	11881.79
515.032	11907.78
515.4	12056.48
515.767	12100.32
516.135	12137.83
516.502	12128.34
516.869	12364.27
517.237	12333.08
517.604	12342.12
517.972	12606.29
518.339	12605.61
518.706	12608.55
519.073	12743.24
519.44	12839.06
519.808	12965.38
520.175	12980.75
520.542	13138.03
520.909	13315.2
521.276	13207.41
521.643	13343.9
522.009	13491.47
522.376	13631.8
522.743	13668.64
523.11	13860.72
523.477	13996.76
523.843	14011.23
524.21	14203.09
524.577	14358.11
524.943	14396.98
525.31	14514.94
525.676	14653.7
526.043	14734.82
526.409	14832.67
526.776	14988.83
527.142	14966.46
527.508	15042.61
527.874	15300.69
528.241	15280.8
528.607	15351.31
528.973	15513.79
529.339	15553.33
529.705	15700.67
530.071	15751.97
530.437	15863.61
530.803	16009.37
531.169	16059.76
531.535	16043.26
531.901	16102.25
532.267	16254.78
532.632	16284.16
532.998	16507.89
533.364	16624.27
533.73	16584.49
534.095	16740.2
534.461	16854.32
534.826	16795.34
535.192	16889.34
535.557	16978.83
535.923	16997.14
536.288	17191.71
536.653	17214.08
537.019	17285.27
537.384	17352.38
537.749	17468.09
538.114	17521.87
538.479	17548.31
538.845	17632.15
539.21	17571.13
539.575	17726.38
539.94	17866.04
540.305	17883.22
540.67	17885.25
541.034	18004.79
541.399	18083.44
541.764	18101.06
542.129	18150.1
542.494	18278.01
542.858	18323.43
543.223	18268.06
543.587	18442.3
543.952	18399.81
544.316	18539.24
544.681	18581.95
545.045	18608.62
545.41	18699.92
545.774	18818.56
546.138	18803.42
546.503	18891.55
546.867	18811.33
547.231	19099.68
547.595	19175.61
547.959	19297.87
548.324	19151.43
548.688	19277.53
549.052	19354.14
549.416	19408.37
549.779	19510.29
550.143	19627.35
550.507	19626.45
550.871	19717.52
551.235	19727.91
551.599	19794.58
551.962	19881.58
552.326	20047
552.689	20130.61
553.053	20121.58
553.417	20214.91
553.78	20397.95
554.143	20234.11
554.507	20514.33
554.87	20478.63
555.234	20764.04
555.597	20680.43
555.96	20753.2
556.323	20826.87
556.686	20853.08
557.05	21073.19
557.413	21038.39
557.776	21129.91
558.139	21307.76
558.502	21324.03
558.865	21400.41
559.228	21498.49
559.59	21572.84
559.953	21601.31
560.316	21903.22
560.679	21950.91
561.041	22044.24
561.404	22144.8
561.767	22236.1
562.129	22235.42
562.492	22510.89
562.854	22420.05
563.217	22503.66
563.579	22554.73
563.941	22749.98
564.304	22830.2
564.666	23007.38
565.028	23064.32
565.39	23070.2
565.753	23250.76
566.115	23375.73
566.477	23450.3
566.839	23471.32
567.201	23659.56
567.563	23637.64
567.925	23830.63
568.287	23870.86
568.648	23933.68
569.01	24084.86
569.372	24239.66
569.734	24144.97
570.095	24431.07
570.457	24408.02
570.819	24450.5
571.18	24547.9
571.542	24670.16
571.903	24650.27
572.265	24830.83
572.626	24867.44
572.987	24805.97
573.349	24934.56
573.71	24985.85
574.071	25093.2
574.432	25117.6
574.794	25241.44
575.155	25334.09
575.516	25243.47
575.877	25377.03
576.238	25521.43
576.599	25460.19
576.96	25574.77
577.32	25643.24
577.681	25666.51
578.042	25758.94
578.403	25713.97
578.763	25717.81
579.124	25846.85
579.485	25869.67
579.845	25965.94
580.206	25848.43
580.566	25960.29
580.927	25968.88
581.287	26113.06
581.648	25898.6
582.008	26196.67
582.368	26103.79
582.728	26172.26
583.089	26052.72
583.449	26177.69
583.809	26117.35
584.169	26156.45
584.529	26164.13
584.889	26238.7
585.249	26076
585.609	26075.09
585.969	26157.35
586.329	26132.04
586.688	26160.51
587.048	26121.19
587.408	26120.29
587.768	26158.03
588.127	26136.56
588.487	26130.68
588.846	26323.22
589.206	26078.71
589.565	26041.65
589.925	26211.81
590.284	26138.82
590.643	26130.68
591.003	26250
591.362	26340.39
591.721	26189.44
592.08	26412.26
592.44	26324.8
592.799	26353.05
593.158	26312.15
593.517	26270.11
593.876	26345.59
594.235	26417.46
594.593	26367.74
594.952	26399.38
595.311	26343.78
595.67	26400.51
596.029	26469.88
596.387	26384.91
596.746	26537.9
597.104	26460.39
597.463	26248.42
597.822	26547.4
598.18	26407.96
598.538	26464.01
598.897	26647.73
599.255	26342.43
599.613	26704
599.972	26495.65
600.33	26657.22
600.688	26529.09
601.046	26639.6
601.404	26766.37
601.762	26642.76
602.12	26825.58
602.478	26924.56
602.836	26881.62
603.194	26769.99
603.552	26842.08
603.91	26842.75
604.268	27016.31
604.625	26802.08
604.983	26945.8
605.341	26840.95
605.698	27044.33
606.056	27010.43
606.413	26959.81
606.771	27090.43
607.128	27179.92
607.485	27000.04
607.843	26973.6
608.2	27241.61
608.557	27282.97
608.914	27153.48
609.272	27324.78
609.629	27375.4
609.986	27470.76
610.343	27201.16
610.7	27455.39
611.057	27449.29
611.414	27401.16
611.771	27502.17
612.127	27521.61
612.484	27474.83
612.841	27616.97
613.198	27517.54
613.554	27649.97
613.911	27685.22
614.267	27680.25
614.624	27578.55
614.98	27540.14
615.337	27747.14
615.693	27785.33
616.05	27768.15
616.406	27882.28
616.762	27747.59
617.118	27785.1
617.475	27831.43
617.831	27896.74
618.187	28001.82
618.543	27911.2
618.899	28105.77
619.255	27921.37
619.611	27976.06
619.967	28093.34
620.323	28127.24
620.678	27953.23
621.034	27984.42
621.39	27887.92
621.746	27864.65
622.101	28242.49
622.457	28085.21
622.812	28168.82
623.168	28106.9
623.523	28044.76
623.879	28164.53
624.234	27944.19
624.589	28111.2
624.945	28071.87
625.3	27962.95
625.655	28050.41
626.01	27974.7
626.365	28033.46
626.72	28014.48
627.075	28091.54
627.43	28014.48
627.785	27929.05
628.14	28020.35
628.495	28006.34
628.85	27998.43
629.205	27890.64
629.559	28109.61
629.914	27877.3
630.269	28009.96
630.623	27927.02
630.978	27843.86
631.332	27868.94
631.687	27950.75
632.041	27748.04
632.396	27752.56
632.75	27681.15
633.104	27687.7
633.459	27599.57
633.813	27605.67
634.167	27678.44
634.521	27629.85
634.875	27664.2
635.229	27503.98
635.583	27440.71
635.937	27463.98
636.291	27444.77
636.645	27346.02
636.999	27277.09
637.352	27334.27
637.706	27059.25
638.06	27264.89
638.413	27258.56
638.767	27163.2
639.121	27202.52
639.474	27044.11
639.828	27061.05
640.181	27130.43
640.534	26969.98
640.888	26951.45
641.241	26781.06
641.594	26862.19
641.947	26979.93
642.301	26838.23
642.654	26833.94
643.007	26768.18
643.36	26746.71
643.713	26750.55
644.066	26748.29
644.419	26524.8
644.771	26240.06
645.124	26150.12
645.477	26114.41
645.83	25942.89
646.182	25764.14
646.535	25753.07
646.888	25826.74
647.24	25692.73
647.593	25858.83
647.945	25698.15
648.298	25517.59
648.65	25504.71
649.002	25409.12
649.355	25524.15
649.707	25479.17
650.059	25591.49
650.411	25897.02
650.763	25984.25
651.115	26172.26
651.467	26055.2
651.819	26090.68
652.171	26029.22
652.523	26038.93
652.875	25935.89
653.227	25935.66
653.578	25996.9
653.93	26060.85
654.282	25935.89
654.633	25838.04
654.985	25859.28
655.337	25892.27
655.688	25873.06
656.039	25952.61
656.391	25754.65
656.742	25797.58
657.094	25751.48
657.445	25764.14
657.796	25756
658.147	25796.45
658.498	25638.94
658.849	25685.27
659.2	25479.17
659.551	25582.45
659.902	25619.51
660.253	25633.75
660.604	25590.13
660.955	25456.58
661.306	25620.19
661.656	25573.41
662.007	25516.01
662.358	25401.66
662.708	25403.7
663.059	25487.54
663.409	25210.03
663.76	25436.46
664.11	25407.99
664.461	25494.54
664.811	25519.85
665.161	25424.49
665.511	25325.96
665.862	25347.43
666.212	25364.83
666.562	25469.46
666.912	25353.53
667.262	25300.65
667.612	25367.77
667.962	25287.54
668.312	25362.57
668.662	25370.48
669.011	25356.69
669.361	25290.25
669.711	25262.01
670.06	25170.71
670.41	25172.52
670.76	25080.09
671.109	25245.96
671.459	25235.79
671.808	25106.76
672.157	25262.91
672.507	25047.32
672.856	24984.95
673.205	25054.78
673.554	25087.55
673.904	24989.24
674.253	25029.69
674.602	24988.11
674.951	24599.65
675.3	24458.64
675.649	24946.76
675.998	24935.01
676.346	24837.84
676.695	24987.44
677.044	24802.58
677.393	24871.73
677.741	24984.05
678.09	24782.02
678.438	24747.67
678.787	24829.93
679.135	24873.09
679.484	24686.43
679.832	24760.78
680.181	24596.49
680.529	24664.51
680.877	24578.63
681.225	24558.07
681.573	24729.59
681.922	24536.6
682.27	24492.08
682.618	24417.06
682.966	24376.6
683.314	24353.55
683.661	24300.45
684.009	24282.37
684.357	24239.43
684.705	24218.19
685.053	24264.29
685.4	23982.04
685.748	23911.08
686.095	24041.25
686.443	23877.41
686.79	23917.41
687.138	23929.16
687.485	23848.48
687.832	23848.94
688.18	23699.56
688.527	23633.35
688.874	23603.07
689.221	23668.15
689.568	23473.8
689.915	23546.12
690.262	23426.12
690.609	23437.65
690.956	23311.77
691.303	23370.3
691.65	23230.87
691.997	23346.58
692.344	23131.21
692.69	23060.26
693.037	23042.85
693.383	22956.08
693.73	22984.55
694.077	22835.85
694.423	22843.76
694.769	22732.58
695.116	22725.8
695.462	22608.06
695.808	22525.58
696.155	22477.67
696.501	22363.32
696.847	22444
697.193	22209.66
697.539	22369.65
697.885	22139.83
698.231	22128.75
698.577	21988.42
698.923	22119.94
699.269	21908.42
699.614	21790.23
699.96	21892.83
700.306	21693.74
700.651	21565.15
700.997	21694.19
701.342	21635.43
701.688	21517.24
702.033	21519.73
702.379	21544.59
702.724	21304.14
703.069	21413.52
703.415	21177.82
703.76	21143.02
704.105	21245.39
704.45	21132.4
704.795	20966.75
705.14	20983.02
705.485	21014.21
705.83	20912.06
706.175	20841.78
706.52	20818.51
706.865	20732.41
707.209	20688.57
707.554	20628.91
707.899	20733.99
708.243	20597.04
708.588	20497.84
708.932	20289.71
709.277	20307.33
709.621	20369.7
709.966	20209.26
710.31	20307.56
710.654	20073.67
710.998	20158.86
711.342	20025.98
711.687	20052.42
712.031	19918.42
712.375	19873.45
712.719	19972.2
713.063	19870.06
713.407	19875.71
713.75	19622.83
714.094	19726.11
714.438	19649.05
714.782	19600.46
715.125	19559.56
715.469	19626.9
715.812	19511.2
716.156	19415.15
716.499	19448.15
716.843	19494.25
717.186	19266.68
717.53	19404.76
717.873	19322.73
718.216	19268.72
718.559	19285.21
718.902	19206.35
719.246	19154.37
719.589	19092.9
719.932	19010.87
720.275	19102.17
720.617	19034.15
720.96	18936.97
721.303	18978.55
721.646	18951.21
721.989	18830.54
722.331	18844.55
722.674	18792.57
723.016	18707.38
723.359	18889.74
723.701	18760.03
724.044	18628.96
724.386	18595.97
724.729	18680.94
725.071	18583.54
725.413	18522.3
725.755	18473.94
726.097	18497.89
726.439	18472.58
726.782	18307.39
727.124	18403.88
727.465	18339.7
727.807	18284.11
728.149	18249.08
728.491	18159.82
728.833	18176.99
729.175	18082.98
729.516	18006.15
729.858	18033.72
730.199	17971.58
730.541	17938.81
730.882	17950.79
731.224	17970.67
731.565	17912.59
731.906	17931.8
732.248	17907.4
732.589	17810.45
732.93	17722.09
733.271	17751.92
733.612	17713.73
733.953	17766.38
734.294	17632.83
734.635	17595.54
734.976	17658.82
735.317	17631.47
735.658	17629.21
735.999	17480.29
736.339	17560.74
736.68	17611.13
737.021	17437.35
737.361	17403
737.702	17482.32
738.042	17479.84
738.383	17391.03
738.723	17412.04
739.063	17405.71
739.404	17335.66
739.744	17326.17
740.084	17313.06
740.424	17316.23
740.764	17228.54
741.104	17248.88
741.444	17114.65
741.784	17027.19
742.124	17144.25
742.464	17039.17
742.804	17039.62
743.143	16993.3
743.483	16981.77
743.823	16851.38
744.162	16797.37
744.502	16800.98
744.841	16795.11
745.181	16862.45
745.52	16736.81
745.86	16772.74
746.199	16761.89
746.538	16701.1
746.877	16790.82
747.216	16655.9
747.556	16674.43
747.895	16676.24
748.234	16552.4
748.573	16506.76
748.911	16521.67
749.25	16513.31
749.589	16414.78
749.928	16407.32
750.267	16425.63
750.605	16329.58
750.944	16264.05
751.283	16277.38
751.621	16273.32
751.96	16189.02
752.298	16144.05
752.636	16208.01
752.975	16067.9
753.313	16017.95
753.651	16055.47
753.989	15909.71
754.327	15980.22
754.666	15903.61
755.004	15959.88
755.342	15907.22
755.679	15873.55
756.017	15743.39
756.355	15816.15
756.693	15773.89
757.031	15768.92
757.368	15652.54
757.706	15565.31
758.044	15535.71
758.381	15586.1
758.719	15506.1
759.056	15489.15
759.394	15464.07
759.731	15361.93
760.068	15288.03
760.405	15322.61
760.743	15222.72
761.08	15239.22
761.417	15174.36
761.754	15091.43
762.091	15000.35
762.428	15063.63
762.765	14944.54
763.102	15013.24
763.438	14945.21
763.775	14791.77
764.112	14913.8
764.449	14841.49
764.785	14680.36
765.122	14656.18
765.458	14587.26
765.795	14541.16
766.131	14586.35
766.467	14458.45
766.804	14393.82
767.14	14363.53
767.476	14306.59
767.812	14278.57
768.148	14302.07
768.485	14155.18
768.821	14075.63
769.157	14083.09
769.492	14039.7
769.828	14063.43
770.164	13885.81
770.5	13825.92
770.836	13844.23
771.171	13674.29
771.507	13713.61
771.842	13586.38
772.178	13579.6
772.513	13513.84
772.849	13539.83
773.184	13481.75
773.519	13430.9
773.855	13394.97
774.19	13348.87
774.525	13278.82
774.86	13284.24
775.195	13225.94
775.53	13127.41
775.865	13034.76
776.2	13022.1
776.535	12849.22
776.87	12940.97
777.205	12926.28
777.539	12852.39
777.874	12815.55
778.209	12764.48
778.543	12732.84
778.878	12704.6
779.212	12621.43
779.547	12593.41
779.881	12635.67
780.215	12509.57
780.55	12514.77
780.884	12348.9
781.218	12360.2
781.552	12422.79
781.886	12252.18
782.22	12215.34
782.554	12148.45
782.888	12030.49
783.222	12086.98
783.556	12021
783.889	12050.6
784.223	11917.27
784.557	11889.48
784.89	11932.41
785.224	11825.07
785.557	11716.37
785.891	11679.54
786.224	11662.81
786.558	11740.1
786.891	11576.04
787.224	11534.46
787.557	11498.75
787.891	11510.28
788.224	11506.43
788.557	11468.02
788.89	11457.62
789.223	11422.6
789.556	11330.62
789.888	11315.93
790.221	11223.05
790.554	11147.8
790.887	11159.55
791.219	11120.91
791.552	11112.32
791.884	11139.21
792.217	10958.2
792.549	10967.01
792.882	10874.36
793.214	10869.16
793.546	10940.35
793.879	10832.1
794.211	10809.73
794.543	10834.14
794.875	10746
795.207	10784.65
795.539	10707.13
795.871	10687.7
796.203	10655.38
796.535	10596.18
796.867	10531.32
797.198	10491.77
797.53	10489.51
797.862	10408.16
798.193	10433.24
798.525	10319.35
798.856	10443.86
799.188	10295.85
799.519	10211.33
799.85	10200.71
800.182	10227.6
800.513	10186.02
800.844	10114.15
801.175	10196.64
801.506	10129.75
801.837	10051.33
802.168	10056.08
802.499	10014.04
802.83	9980.37
803.161	9894.05
803.491	9943.76
803.822	9908.74
804.153	9905.8
804.483	9736.76
804.814	9711
805.145	9747.38
805.475	9698.57
805.805	9716.65
806.136	9641.85
806.466	9667.16
806.796	9607.05
807.126	9587.62
807.457	9486.83
807.787	9447.05
808.117	9506.49
808.447	9422.42
808.777	9485.24
809.107	9423.1
809.436	9409.09
809.766	9315.08
810.096	9350.79
810.426	9269.21
810.755	9307.17
811.085	9285.48
811.414	9234.63
811.744	9221.52
812.073	9164.8
812.403	9190.11
812.732	9155.76
813.061	9106.5
813.39	9119.6
813.719	9091.58
814.049	9016.56
814.378	9028.08
814.707	8930.46
815.036	9011.36
815.365	8946.95
815.693	8876.45
816.022	8880.97
816.351	8810.46
816.68	8797.35
817.008	8828.54
817.337	8779.5
817.665	8698.37
817.994	8805.04
818.322	8760.74
818.651	8718.71
818.979	8687.53
819.307	8697.24
819.636	8695.21
819.964	8630.13
820.292	8626.28
820.62	8625.38
820.948	8585.61
821.276	8606.85
821.604	8579.51
821.932	8667.19
822.259	8647.75
822.587	8603.01
822.915	8587.64
823.243	8632.84
823.57	8540.41
823.898	8571.6
824.225	8519.17
824.553	8506.29
824.88	8552.61
825.207	8686.4
825.535	8579.96
825.862	8572.05
826.189	8527.3
826.516	8638.71
826.843	8621.31
827.17	8614.08
827.497	8619.05
827.824	8566.4
828.151	8577.7
828.478	8537.25
828.805	8612.05
829.131	8543.35
829.458	8581.31
829.785	8504.25
830.111	8493.41
830.438	8621.31
830.764	8561.43
831.09	8563.24
831.417	8518.04
831.743	8593.52
832.069	8532.28
832.395	8512.84
832.722	8518.26
833.048	8525.04
833.374	8555.78
833.7	8498.83
834.026	8506.97
834.351	8523.24
834.677	8450.24
835.003	8401.88
835.329	8432.62
835.654	8406.18
835.98	8351.04
836.306	8428.32
836.631	8380.19
836.956	8442.11
837.282	8382.45
837.607	8353.52
837.932	8371.6
838.258	8350.36
838.583	8339.51
838.908	8209.57
839.233	8278.05
839.558	8279.4
839.883	8264.03
840.208	8205.5
840.533	8269.68
840.858	8246.63
841.182	8264.26
841.507	8200.53
841.832	8180.42
842.156	8156.47
842.481	8128.9
842.805	8065.17
843.13	8094.55
843.454	8100.42
843.778	8024.04
844.103	8071.5
844.427	8005.51
844.751	8062.23
845.075	7982.23
845.399	7943.82
845.723	7922.57
846.047	7924.61
846.371	7857.49
846.695	7895
847.019	7784.95
847.343	7719.42
847.666	7708.57
847.99	7747.44
848.313	7630.6
848.637	7644.62
848.96	7635.35
849.284	7640.32
849.607	7540.44
849.931	7542.92
850.254	7495.47
850.577	7406.43
850.9	7415.02
851.223	7390.16
851.546	7396.03
851.869	7340.22
852.192	7309.93
852.515	7324.4
852.838	7300.22
853.161	7304.06
853.483	7299.77
853.806	7233.78
854.129	7225.64
854.451	7180.22
854.774	7083.5
855.096	7159.2
855.419	7088.47
855.741	7097.51
856.063	7024.52
856.385	7026.1
856.708	6987.68
857.03	6985.88
857.352	6964.18
857.674	6961.47
857.996	6954.92
858.318	6895.26
858.64	6909.27
858.961	6883.73
859.283	6861.59
859.605	6832.21
859.926	6748.59
860.248	6802.15
860.57	6722.38
860.891	6794.02
861.212	6740.91
861.534	6725.54
861.855	6717.41
862.176	6711.31
862.498	6676.05
862.819	6684.64
863.14	6661.59
863.461	6636.28
863.782	6618.65
864.103	6651.87
864.424	6601.03
864.745	6638.54
865.065	6578.65
865.386	6556.06
865.707	6620.24
866.027	6597.19
866.348	6572.78
866.668	6545.21
866.989	6563.06
867.309	6508.15
867.63	6536.85
867.95	6487.81
868.27	6448.04
868.59	6538.2
868.91	6454.36
869.23	6490.97
869.55	6423.63
869.87	6429.51
870.19	6457.3
870.51	6411.65
870.83	6416.63
871.15	6316.06
871.469	6392.67
871.789	6350.19
872.109	6369.17
872.428	6322.39
872.748	6378.43
873.067	6293.69
873.386	6322.16
873.706	6269.28
874.025	6259.57
874.344	6210.53
874.663	6279.91
874.982	6222.96
875.301	6248.95
875.62	6258.89
875.939	6202.85
876.258	6186.12
876.577	6228.38
876.896	6199.68
877.214	6211.21
877.533	6189.51
877.852	6147.03
878.17	6179.12
878.489	6155.39
878.807	6150.87
879.125	6110.87
879.444	6182.28
879.762	6111.77
880.08	6113.81
880.398	6090.98
880.716	6080.14
881.034	6075.62
881.352	6068.16
881.67	6034.94
881.988	6089.4
882.306	6028.84
882.624	6007.82
882.941	5958.11
883.259	6013.47
883.577	5986.58
883.894	5930.76
884.212	5872.68
884.529	5948.39
884.846	5931.89
885.164	5887.83
885.481	5865.91
885.798	5839.24
886.115	5860.71
886.432	5840.6
886.75	5788.62
887.067	5824.32
887.383	5768.05
887.7	5743.65
888.017	5764.66
888.334	5796.75
888.651	5734.61
888.967	5775.06
889.284	5651.9
889.6	5667.27
889.917	5659.36
890.233	5646.48
890.55	5660.94
890.866	5580.71
891.182	5607.83
891.498	5571.22
891.815	5600.6
892.131	5566.25
892.447	5556.31
892.763	5518.57
893.079	5509.53
893.395	5501.39
893.71	5497.78
894.026	5441.06
894.342	5461.4
894.657	5429.76
894.973	5411.91
895.289	5410.78
895.604	5377.56
895.92	5313.38
896.235	5351.12
896.55	5333.26
896.865	5344.56
897.181	5312.47
897.496	5285.81
897.811	5275.41
898.126	5308.18
898.441	5245.36
898.756	5220.27
899.071	5145.25
899.386	5222.53
899.7	5163.1
900.015	5135.98
900.33	5110.22
900.644	5123.55
900.959	5112.48
901.273	5079.49
901.588	5050.11
901.902	5054.18
902.216	5051.69
902.531	5011.24
902.845	4976.66
903.159	4951.35
903.473	4932.37
903.787	4937.79
904.101	4921.3
904.415	4913.39
904.729	4902.09
905.042	4834.07
905.356	4840.85
905.67	4841.53
905.984	4835.88
906.297	4821.41
906.611	4726.5
906.924	4737.8
907.237	4759.49
907.551	4736.44
907.864	4699.16
908.177	4714.07
908.491	4727.4
908.804	4684.24
909.117	4625.26
909.43	4574.87
909.743	4639.72
910.056	4631.36
910.368	4591.36
910.681	4550.01
910.994	4519.05
911.307	4487.64
911.619	4478.6
911.932	4504.36
912.244	4470.24
912.557	4422.1
912.869	4404.93
913.181	4420.75
913.494	4425.49
913.806	4386.85
914.118	4368.32
914.43	4378.26
914.742	4359.5
915.054	4311.6
915.366	4338.04
915.678	4278.83
915.99	4269.56
916.302	4260.07
916.613	4248.77
916.925	4235.21
917.236	4220.75
917.548	4205.38
917.859	4194.54
918.171	4136.23
918.482	4098.95
918.794	4111.37
919.105	4142.56
919.416	4042.9
919.727	4034.31
920.038	4016.01
920.349	4015.11
920.66	3999.51
920.971	4014.88
921.282	3973.98
921.593	3960.87
921.903	3936.01
922.214	3928.55
922.525	3922.91
922.835	3878.39
923.146	3869.57
923.456	3884.94
923.767	3830.93
924.077	3851.27
924.387	3826.86
924.697	3830.48
925.008	3779.41
925.318	3784.6
925.628	3770.82
925.938	3725.62
926.248	3711.61
926.558	3718.16
926.867	3701.67
927.177	3726.3
927.487	3646.53
927.796	3606.98
928.106	3673.65
928.416	3601.11
928.725	3628.68
929.034	3606.53
929.344	3628
929.653	3587.55
929.962	3577.6
930.271	3597.72
930.581	3547.1
930.89	3509.36
931.199	3498.06
931.508	3494.67
931.817	3501.45
932.125	3469.58
932.434	3482.01
932.743	3405.63
933.051	3384.61
933.36	3382.81
933.669	3378.96
933.977	3331.28
934.286	3414.44
934.594	3366.08
934.902	3327.67
935.21	3321.79
935.519	3315.69
935.827	3267.56
936.135	3254
936.443	3255.58
936.751	3244.28
937.059	3227.56
937.367	3263.49
937.674	3220.32
937.982	3229.59
938.29	3182.81
938.597	3178.97
938.905	3147.11
939.213	3149.82
939.52	3124.06
939.827	3136.26
940.135	3108.92
940.442	3078.86
940.749	3032.76
941.056	3081.57
941.363	3064.17
941.67	3036.37
941.977	2981.69
942.284	3018.07
942.591	3019.2
942.898	2967.68
943.205	2955.02
943.511	2972.87
943.818	2962.93
944.125	2921.35
944.431	2936.04
944.738	2932.65
945.044	2926.32
945.35	2875.7
945.657	2856.27
945.963	2876.38
946.269	2809.71
946.575	2847.45
946.881	2841.35
947.187	2823.5
947.493	2808.13
947.799	2775.82
948.105	2768.13
948.41	2790.51
948.716	2778.75
949.022	2746.67
949.327	2718.64
949.633	2731.75
949.938	2699.43
950.244	2741.02
950.549	2685.42
950.854	2681.36
951.16	2655.14
951.465	2666.22
951.77	2682.03
952.075	2639.32
952.38	2591.19
952.685	2614.47
952.99	2560.91
953.294	2596.84
953.599	2589.61
953.904	2563.85
954.209	2559.55
954.513	2559.55
954.818	2547.12
955.122	2581.25
955.426	2499.21
955.731	2542.15
956.035	2519.78
956.339	2508.48
956.643	2536.28
956.948	2499.21
957.252	2482.49
957.556	2447.92
957.86	2444.75
958.163	2430.97
958.467	2468.03
958.771	2411.31
959.075	2434.81
959.378	2397.07
959.682	2429.16
959.985	2399.33
960.289	2366.56
960.592	2361.36
960.896	2374.92
961.199	2367.69
961.502	2340.35
961.805	2362.04
962.108	2343.29
962.411	2288.37
962.714	2301.93
963.017	2299.9
963.32	2293.8
963.623	2256.96
963.926	2251.99
964.228	2244.76
964.531	2252.89
964.833	2220.13
965.136	2209.96
965.438	2194.36
965.741	2222.61
966.043	2204.31
966.345	2201.37
966.648	2188.26
966.95	2182.39
967.252	2163.63
967.554	2181.71
967.856	2145.32
968.158	2129.05
968.46	2134.48
968.761	2088.15
969.063	2125.21
969.365	2092.67
969.666	2099.9
969.968	2068.72
970.269	2095.16
970.571	2084.54
970.872	2070.75
971.174	2028.94
971.475	2054.48
971.776	2034.82
972.077	2021.49
972.378	2017.42
972.679	2019.23
972.98	2028.27
973.281	1981.94
973.582	1992.11
973.883	1988.04
974.183	1995.27
974.484	1961.6
974.785	1923.41
975.085	1940.13
975.386	1922.05
975.686	1945.1
975.986	1963.18
976.287	1930.87
976.587	1929.06
976.887	1905.78
977.187	1897.42
977.487	1907.59
977.787	1871.89
978.087	1853.36
978.387	1861.94
978.687	1843.41
978.987	1835.05
979.286	1829.4
979.586	1822.4
979.885	1820.81
980.185	1816.97
980.484	1792.11
980.784	1793.24
981.083	1806.35
981.382	1797.09
981.682	1773.13
981.981	1756.63
982.28	1748.27
982.579	1736.07
982.878	1747.14
983.177	1765.22
983.475	1730.19
983.774	1745.56
984.073	1679.8
984.372	1701.27
984.67	1727.26
984.969	1725.22
985.267	1689.97
985.566	1677.54
985.864	1654.26
986.162	1666.69
986.461	1656.75
986.759	1645.45
987.057	1678.22
987.355	1645.68
987.653	1634.6
987.951	1648.39
988.249	1641.38
988.547	1616.75
988.844	1607.71
989.142	1589.18
989.44	1595.51
989.737	1597.09
990.035	1579.69
990.332	1565
990.63	1568.84
990.927	1558
991.224	1557.32
991.521	1577.2
991.819	1551.67
992.116	1547.6
992.413	1501.95
992.71	1515.29
993.006	1499.69
993.303	1491.78
993.6	1486.81
993.897	1508.51
994.193	1478.9
994.49	1499.24
994.787	1460.6
995.083	1479.58
995.379	1473.03
995.676	1475.51
995.972	1442.29
996.268	1445.68
996.565	1426.93
996.861	1459.69
997.157	1455.63
997.453	1420.6
997.749	1403.42
998.044	1442.07
998.34	1414.72
998.636	1400.03
998.932	1380.6
999.227	1381.96
999.523	1402.07
999.818	1373.37
1000.114	1346.48
1000.409	1345.35
1000.704	1348.96
1001	1372.46
1001.295	1353.26
1001.59	1312.35
1001.885	1310.32
1002.18	1299.47
1002.475	1316.87
1002.77	1315.06
1003.065	1319.58
1003.359	1291.56
1003.654	1318.45
1003.949	1301.73
1004.243	1282.52
1004.538	1275.97
1004.832	1266.03
1005.127	1252.69
1005.421	1241.62
1005.715	1247.72
1006.009	1246.37
1006.304	1223.99
1006.598	1219.7
1006.892	1236.42
1007.186	1227.16
1007.48	1196.65
1007.773	1187.61
1008.067	1191.45
1008.361	1188.51
1008.655	1192.81
1008.948	1177.44
1009.242	1207.04
1009.535	1168.63
1009.829	1173.83
1010.122	1174.5
1010.415	1121.17
1010.708	1179.7
1011.001	1129.53
1011.295	1138.12
1011.588	1130.44
1011.881	1139.02
1012.173	1121.17
1012.466	1132.7
1012.759	1090.66
1013.052	1085.24
1013.344	1101.96
1013.637	1114.17
1013.93	1096.54
1014.222	1078.91
1014.514	1061.29
1014.807	1046.37
1015.099	1034.39
1015.391	1053.6
1015.683	1052.7
1015.976	1044.34
1016.268	1026.94
1016.56	1016.54
1016.851	1006.15
1017.143	1009.31
1017.435	989.2
1017.727	1003.21
1018.018	1024.68
1018.31	1007.5
1018.602	995.52
1018.893	994.85
1019.185	990.33
1019.476	978.35
1019.767	973.6
1020.058	995.75
1020.35	937.45
1020.641	966.82
1020.932	979.48
1021.223	964.57
1021.514	941.74
1021.804	935.19
1022.095	921.63
1022.386	931.57
1022.677	922.98
1022.967	900.39
1023.258	900.16
1023.548	898.58
1023.839	941.29
1024.129	911.91
1024.419	888.18
1024.709	862.65
1025	918.92
1025.29	878.24
1025.58	857.9
1025.87	885.02
1026.16	851.12
1026.449	873.27
1026.739	846.83
1027.029	852.48
1027.319	845.7
1027.608	845.25
1027.898	837.34
1028.187	822.2
1028.477	816.77
1028.766	826.04
1029.055	836.21
1029.344	795.08
1029.634	811.12
1029.923	824
1030.212	812.03
1030.501	791.46
1030.79	780.16
1031.078	772.48
1031.367	761.41
1031.656	782.87
1031.945	769.99
1032.233	779.26
1032.522	748.07
1032.81	781.52
1033.099	755.98
1033.387	751.24
1033.675	748.98
1033.963	740.16
1034.251	768.64
1034.54	718.7
1034.828	730.9
1035.116	722.76
1035.403	742.2
1035.691	723.22
1035.979	716.89
1036.267	700.62
1036.554	699.94
1036.842	698.58
1037.129	728.19
1037.417	697.68
1037.704	722.54
1037.992	669.88
1038.279	687.74
1038.566	675.53
1038.853	675.53
1039.14	675.53
