Data from foam_black_FLMS001491_00074.txt Node
Date: Wed Feb 08 10:44:37 GMT 2017
User: dcchb
Spectrometer: FLMS00149
Trigger mode: 0
Integration Time (sec): 2.000000E-2
Scans to average: 10
Electric dark correction enabled: true
Nonlinearity correction enabled: false
Boxcar width: 0
XAxis mode: Wavelengths
Number of Pixels in Spectrum: 2048
>>>>>Begin Spectral Data<<<<<
341.393	-24.05
341.776	-24.05
342.16	-24.05
342.543	-35.35
342.927	-72.19
343.31	-74.22
343.693	-74
344.077	-57.5
344.46	-51.85
344.843	-43.26
345.226	-38.29
345.61	-33.09
345.993	-21.12
346.376	-12.75
346.759	14.59
347.142	20.92
347.525	48.04
347.908	63.4
348.291	76.28
348.674	71.31
349.057	111.54
349.44	126.9
349.823	166.9
350.206	151.76
350.588	191.99
350.971	203.96
351.354	200.12
351.737	213.91
352.119	248.93
352.502	261.14
352.884	263.4
353.267	270.85
353.65	270.63
354.032	290.06
354.414	305.2
354.797	304.98
355.179	285.54
355.562	317.41
355.944	314.92
356.326	324.64
356.709	305.88
357.091	312.66
357.473	330.29
357.855	313.34
358.238	339.33
358.62	323.28
359.002	325.99
359.384	327.35
359.766	311.08
360.148	317.63
360.53	315.37
360.912	330.51
361.294	316.73
361.676	312.66
362.057	312.44
362.439	306.11
362.821	294.36
363.203	303.4
363.584	324.64
363.966	312.89
364.348	295.71
364.729	288.26
365.111	303.17
365.493	310.18
365.874	300.91
366.256	310.85
366.637	308.82
367.019	307.69
367.4	308.82
367.781	306.33
368.163	306.56
368.544	287.8
368.925	284.19
369.306	297.97
369.688	311.53
370.069	307.92
370.45	315.15
370.831	297.29
371.212	304.07
371.593	313.34
371.974	299.33
372.355	303.85
372.736	303.4
373.117	308.59
373.498	297.29
373.879	301.59
374.26	296.62
374.641	294.36
375.021	330.97
375.402	316.95
375.783	303.17
376.163	330.74
376.544	326.67
376.925	330.74
377.305	327.35
377.686	333.23
378.066	312.66
378.447	307.69
378.827	302.94
379.208	308.14
379.588	323.96
379.968	312.44
380.349	312.21
380.729	326.67
381.109	286.22
381.489	323.06
381.87	341.59
382.25	325.09
382.63	337.07
383.01	332.55
383.39	327.35
383.77	321.02
384.15	312.21
384.53	335.71
384.91	337.07
385.29	321.93
385.67	336.16
386.049	346.56
386.429	320.12
386.809	334.36
387.189	351.76
387.568	347.24
387.948	341.36
388.328	345.43
388.707	331.87
389.087	331.87
389.466	353.11
389.846	336.84
390.225	349.95
390.605	358.08
390.984	359.89
391.363	344.07
391.743	354.47
392.122	350.17
392.501	362.15
392.881	360.12
393.26	374.58
393.639	365.54
394.018	367.58
394.397	358.08
394.776	361.25
395.155	363.96
395.534	349.72
395.913	363.96
396.292	384.07
396.671	369.83
397.05	359.44
397.429	368.93
397.808	394.69
398.186	392.89
398.565	379.33
398.944	377.52
399.323	351.76
399.701	372.09
400.08	380.23
400.458	388.14
400.837	387.91
401.215	381.36
401.594	403.28
401.972	391.3
402.351	380
402.729	390.85
403.107	416.61
403.486	393.34
403.864	387.69
404.242	393.79
404.62	422.04
404.999	403.05
405.377	398.76
405.755	420.68
406.133	414.58
406.511	410.51
406.889	432.66
407.267	433.56
407.645	416.39
408.023	443.51
408.401	426.33
408.779	427.01
409.156	420
409.534	420.68
409.912	433.34
410.29	435.6
410.667	433.56
411.045	449.15
411.422	438.99
411.8	448.7
412.178	449.83
412.555	462.26
412.933	464.07
413.31	468.82
413.687	461.13
414.065	485.54
414.442	471.3
414.819	492.32
415.197	472.21
415.574	468.82
415.951	479.21
416.328	495.03
416.705	479.66
417.082	477.18
417.46	483.73
417.837	495.71
418.214	501.36
418.591	487.12
418.967	507.91
419.344	507.23
419.721	511.07
420.098	501.58
420.475	529.15
420.852	503.84
421.228	512.66
421.605	538.87
421.982	551.75
422.358	527.8
422.735	540.45
423.111	526.21
423.488	519.21
423.864	524.63
424.241	535.25
424.617	544.52
424.994	525.31
425.37	537.74
425.746	546.1
426.123	564.86
426.499	536.84
426.875	552.2
427.251	552.43
427.627	572.32
428.003	593.56
428.379	573.22
428.756	582.03
429.132	563.73
429.507	592.88
429.883	588.36
430.259	608.47
430.635	599.21
431.011	604.63
431.387	598.3
431.763	613.9
432.138	619.32
432.514	627.46
432.89	635.14
433.265	639.43
433.641	650.28
434.016	635.82
434.392	644.86
434.767	660
435.143	674.23
435.518	668.81
435.894	696.38
436.269	695.02
436.644	700.22
437.02	685.98
437.395	670.39
437.77	691.41
438.145	721.01
438.52	692.99
438.895	720.56
439.271	709.26
439.646	708.58
440.021	731.18
440.395	730.73
440.77	709.49
441.145	710.62
441.52	723.95
441.895	732.09
442.27	754.68
442.645	751.75
443.019	744.74
443.394	743.16
443.769	759.88
444.143	743.38
444.518	747.23
444.892	754.23
445.267	754.91
445.641	770.95
446.016	770.5
446.39	785.42
446.764	812.76
447.139	795.36
447.513	786.55
447.887	780.9
448.262	789.94
448.636	804.4
449.01	803.27
449.384	794
449.758	818.18
450.132	807.34
450.506	833.33
450.88	837.85
451.254	829.48
451.628	842.82
452.002	847.11
452.376	871.97
452.75	842.14
453.123	882.59
453.497	874.45
453.871	865.42
454.244	882.82
454.618	898.86
454.992	897.96
455.365	901.35
455.739	920.55
456.112	949.03
456.486	939.76
456.859	954
457.232	966.2
457.606	956.03
457.979	972.98
458.352	975.47
458.725	1006.2
459.099	973.43
459.472	994.45
459.845	984.51
460.218	1014.56
460.591	1035.13
460.964	1033.09
461.337	1047.11
461.71	1075.13
462.083	1063.83
462.456	1072.87
462.829	1092.98
463.201	1099.76
463.574	1072.19
463.947	1138.18
464.32	1130.49
464.692	1118.29
465.065	1145.41
465.438	1158.06
465.81	1163.49
466.183	1179.31
466.555	1171.85
466.928	1200.55
467.3	1208.68
467.672	1210.04
468.045	1233.09
468.417	1259.3
468.789	1273.77
469.161	1256.37
469.534	1276.93
469.906	1278.51
470.278	1308.12
470.65	1319.87
471.022	1371.16
471.394	1384.72
471.766	1379.3
472.138	1401.67
472.51	1418.85
472.882	1441.9
473.253	1451.84
473.625	1477.6
473.997	1493.42
474.369	1511.05
474.74	1520.77
475.112	1543.14
475.484	1585.62
475.855	1580.88
476.227	1618.16
476.598	1638.05
476.97	1638.5
477.341	1654.55
477.713	1680.08
478.084	1677.15
478.455	1749.46
478.827	1760.98
479.198	1793.53
479.569	1798.27
479.94	1834.43
480.311	1872.85
480.682	1885.05
481.053	1930.25
481.424	1956.23
481.795	1971.15
482.166	1975.22
482.537	2036.68
482.908	2022.45
483.279	2025.84
483.65	2102.22
484.021	2125.27
484.391	2148.32
484.762	2165.04
485.133	2185.15
485.503	2197.81
485.874	2239.16
486.244	2242.55
486.615	2277.58
486.985	2345.38
487.356	2374.53
487.726	2383.34
488.097	2393.06
488.467	2424.7
488.837	2520.29
489.207	2512.15
489.578	2532.26
489.948	2554.86
490.318	2563.9
490.688	2567.74
491.058	2626.27
491.428	2668.53
491.798	2692.03
492.168	2713.95
492.538	2753.05
492.908	2751.24
493.278	2777.23
493.648	2791.24
494.017	2836.66
494.387	2833.5
494.757	2849.54
495.126	2889.99
495.496	2889.09
495.866	2908.07
496.235	2943.1
496.605	2988.52
496.974	3001.63
497.344	3021.74
497.713	3033.27
498.082	3033.95
498.452	3064.68
498.821	3097.22
499.19	3140.84
499.559	3172.7
499.928	3160.27
500.298	3183.77
500.667	3183.32
501.036	3231.23
501.405	3265.13
501.774	3265.35
502.143	3302.64
502.512	3309.64
502.88	3361.85
503.249	3366.37
503.618	3367.72
503.987	3406.82
504.356	3404.11
504.724	3441.84
505.093	3454.5
505.462	3515.97
505.83	3545.8
506.199	3523.42
506.567	3567.94
506.936	3553.25
507.304	3621.05
507.672	3601.84
508.041	3609.75
508.409	3670.99
508.777	3737.2
509.145	3718
509.514	3740.59
509.882	3769.29
510.25	3756.41
510.618	3793.7
510.986	3808.61
511.354	3867.6
511.722	3840.25
512.09	3878.67
512.458	3919.35
512.826	3920.02
513.193	3957.31
513.561	3965.9
513.929	3981.49
514.297	4029.63
514.664	4051.55
515.032	4021.04
515.4	4065.56
515.767	4111.21
516.135	4142.39
516.502	4132.67
516.869	4211.77
517.237	4252.9
517.604	4181.71
517.972	4295.61
518.339	4281.6
518.706	4290.41
519.073	4310.07
519.44	4343.06
519.808	4386.9
520.175	4404.08
520.542	4505.55
520.909	4450.86
521.276	4486.79
521.643	4551.42
522.009	4595.26
522.376	4636.84
522.743	4605.43
523.11	4699.44
523.477	4774.92
523.843	4804.97
524.21	4790.74
524.577	4857.63
524.943	4872.99
525.31	4871.64
525.676	4942.14
526.043	4995.93
526.409	4971.97
526.776	5080.45
527.142	5048.58
527.508	5105.08
527.874	5087.68
528.241	5199.09
528.607	5238.18
528.973	5207
529.339	5245.64
529.705	5301
530.071	5351.17
530.437	5334.68
530.803	5350.27
531.169	5440.21
531.535	5461.45
531.901	5470.04
532.267	5501.9
532.632	5523.15
532.998	5528.34
533.364	5601.79
533.73	5576.93
534.095	5618.51
534.461	5665.06
534.826	5651.96
535.192	5696.02
535.557	5728.56
535.923	5721.11
536.288	5770.37
536.653	5821.67
537.019	5761.78
537.384	5871.16
537.749	5866.64
538.114	5910.93
538.479	5861.67
538.845	5905.96
539.21	5893.76
539.575	5954.09
539.94	6033.41
540.305	6026.41
540.67	6015.11
541.034	6031.15
541.399	6037.03
541.764	6099.85
542.129	6082.91
542.494	6105.28
542.858	6141.89
543.223	6131.72
543.587	6178.27
543.952	6145.5
544.316	6187.76
544.681	6197.03
545.045	6256.23
545.41	6226.86
545.774	6218.04
546.138	6218.72
546.503	6304.14
546.867	6276.57
547.231	6341.2
547.595	6326.06
547.959	6314.99
548.324	6364.48
548.688	6393.63
549.052	6428.43
549.416	6417.81
549.779	6473.86
550.143	6509.11
550.507	6507.98
550.871	6624.13
551.235	6550.46
551.599	6596.79
551.962	6618.26
552.326	6614.19
552.689	6621.2
553.053	6675.21
553.417	6644.7
553.78	6753.62
554.143	6774.19
554.507	6869.55
554.87	6783.9
555.234	6926.95
555.597	6899.15
555.96	6935.09
556.323	6974.63
556.686	6986.84
557.05	7037.23
557.413	7030
557.776	7126.04
558.139	7126.95
558.502	7125.14
558.865	7163.1
559.228	7234.06
559.59	7234.97
559.953	7219.82
560.316	7346.83
560.679	7359.03
561.041	7413.27
561.404	7436.09
561.767	7459.37
562.129	7446.71
562.492	7594.73
562.854	7529.87
563.217	7600.83
563.579	7616.42
563.941	7686.48
564.304	7720.38
564.666	7781.62
565.028	7717.44
565.39	7750.21
565.753	7816.87
566.115	7856.87
566.477	7906.59
566.839	7858.9
567.201	7933.03
567.563	7986.36
567.925	8042.63
568.287	8022.74
568.648	8086.92
569.01	8095.28
569.372	8099.12
569.734	8043.31
570.095	8182.51
570.457	8173.92
570.819	8229.06
571.18	8272.9
571.542	8253.02
571.903	8278.1
572.265	8340.92
572.626	8382.05
572.987	8330.08
573.349	8422.96
573.71	8443.75
574.071	8443.97
574.432	8482.16
574.794	8587.92
575.155	8615.27
575.516	8561.03
575.877	8599.9
576.238	8659.11
576.599	8621.6
576.96	8682.61
577.32	8632.22
577.681	8702.5
578.042	8697.75
578.403	8732.78
578.763	8682.84
579.124	8809.84
579.485	8793.12
579.845	8829.5
580.206	8850.74
580.566	8780.24
580.927	8829.73
581.287	8841.7
581.648	8878.76
582.008	8910.18
582.368	8891.64
582.728	8921.02
583.089	8939.1
583.449	8885.54
583.809	8886
584.169	8966.22
584.529	8914.69
584.889	9004.18
585.249	8972.32
585.609	8911.08
585.969	9034.24
586.329	8932.55
586.688	8938.88
587.048	8995.6
587.408	8931.19
587.768	8941.13
588.127	8934.36
588.487	8910.85
588.846	8977.74
589.206	8861.36
589.565	8902.49
589.925	8962.15
590.284	8895.49
590.643	8947.01
591.003	8958.54
591.362	8995.37
591.721	9015.26
592.08	8991.08
592.44	8994.01
592.799	8994.92
593.158	8943.39
593.517	8961.25
593.876	8933.45
594.235	8967.12
594.593	8991.3
594.952	8960.12
595.311	8904.3
595.67	8916.05
596.029	9002.6
596.387	9043.51
596.746	9014.13
597.104	8987.24
597.463	9033.34
597.822	9029.27
598.18	8985.43
598.538	9017.52
598.897	9045.76
599.255	8961.25
599.613	9121.24
599.972	9060.23
600.33	9029.49
600.688	9055.71
601.046	9069.04
601.404	9129.6
601.762	9112.2
602.12	9094.35
602.478	9111.07
602.836	9053.45
603.194	9104.07
603.552	9095.26
603.91	9102.71
604.268	9152.88
604.625	9192.65
604.983	9163.28
605.341	9121.47
605.698	9190.17
606.056	9160.56
606.413	9237.4
606.771	9215.93
607.128	9321.24
607.485	9140.9
607.843	9187.23
608.2	9264.52
608.557	9203.05
608.914	9239.88
609.272	9306.78
609.629	9321.01
609.986	9324.18
610.343	9277.17
610.7	9377.96
611.057	9306.32
611.414	9253.22
611.771	9287.57
612.127	9364.4
612.484	9313.55
612.841	9378.41
613.198	9365.53
613.554	9363.27
613.911	9447.56
614.267	9408.47
614.624	9441.23
614.98	9417.05
615.337	9440.56
615.693	9391.74
616.05	9374.57
616.406	9418.41
616.762	9471.29
617.118	9390.39
617.475	9414.12
617.831	9430.16
618.187	9400.78
618.543	9417.28
618.899	9482.59
619.255	9466.54
619.611	9465.19
619.967	9469.93
620.323	9484.4
620.678	9443.49
621.034	9423.38
621.39	9457.96
621.746	9395.13
622.101	9547.45
622.457	9429.71
622.812	9492.08
623.168	9494.57
623.523	9492.98
623.879	9498.18
624.234	9481.46
624.589	9497.28
624.945	9549.25
625.3	9573.43
625.655	9514.91
626.01	9566.88
626.365	9540.67
626.72	9503.61
627.075	9584.28
627.43	9532.53
627.785	9539.31
628.14	9639.87
628.495	9576.82
628.85	9544.73
629.205	9577.05
629.559	9639.65
629.914	9598.74
630.269	9557.62
630.623	9618.18
630.978	9579.54
631.332	9622.47
631.687	9648.91
632.041	9610.27
632.396	9618.63
632.75	9655.47
633.104	9635.35
633.459	9593.55
633.813	9494.11
634.167	9556.71
634.521	9574.56
634.875	9604.62
635.229	9537.05
635.583	9553.32
635.937	9528.46
636.291	9543.38
636.645	9521.23
636.999	9512.65
637.352	9509.48
637.706	9422.03
638.06	9466.09
638.413	9536.83
638.767	9405.76
639.121	9468.58
639.474	9387.45
639.828	9452.99
640.181	9417.05
640.534	9432.42
640.888	9370.05
641.241	9359.2
641.594	9395.13
641.947	9356.72
642.301	9346.77
642.654	9361.91
643.007	9372.76
643.36	9329.6
643.713	9325.31
644.066	9352.2
644.419	9243.27
644.771	9195.82
645.124	9041.7
645.477	9127.8
645.83	8914.69
646.182	8958.31
646.535	8962.6
646.888	8981.36
647.24	8908.14
647.593	9003.05
647.945	8961.7
648.298	8850.29
648.65	8854.36
649.002	8793.57
649.355	8898.2
649.707	8900.46
650.059	8834.02
650.411	8897.29
650.763	8927.12
651.115	9043.51
651.467	9048.93
651.819	8959.21
652.171	9012.77
652.523	8936.62
652.875	8926.45
653.227	8904.07
653.578	9004.18
653.93	8931.19
654.282	8929.38
654.633	8894.13
654.985	8915.15
655.337	8918.54
655.688	8970.96
656.039	8957.18
656.391	8986.56
656.742	8927.35
657.094	8906.56
657.445	8973.9
657.796	8884.64
658.147	8915.15
658.498	8896.16
658.849	8895.94
659.2	8881.48
659.551	8927.35
659.902	8909.27
660.253	8910.4
660.604	8932.1
660.955	8884.64
661.306	8888.25
661.656	8949.72
662.007	8911.08
662.358	8892.77
662.708	8907.24
663.059	8872.21
663.409	8799.9
663.76	8893.9
664.11	8873.34
664.461	8911.31
664.811	8898.88
665.161	8815.71
665.511	8926.22
665.862	8861.36
666.212	8817.07
666.562	8822.04
666.912	8796.51
667.262	8786.79
667.612	8826.34
667.962	8787.69
668.312	8817.3
668.662	8830.4
669.011	8864.07
669.361	8813.45
669.711	8803.74
670.06	8769.16
670.41	8779.11
670.76	8721.25
671.109	8754.02
671.459	8756.73
671.808	8773.46
672.157	8794.7
672.507	8687.81
672.856	8721.93
673.205	8672.89
673.554	8649.39
673.904	8650.3
674.253	8683.51
674.602	8701.59
674.951	8555.38
675.3	8452.11
675.649	8642.39
675.998	8547.92
676.346	8620.01
676.695	8583.86
677.044	8551.99
677.393	8524.2
677.741	8565.33
678.09	8519.68
678.438	8521.26
678.787	8496.4
679.135	8526.68
679.484	8449.4
679.832	8437.87
680.181	8424.54
680.529	8410.3
680.877	8453.46
681.225	8384.99
681.573	8450.3
681.922	8375.73
682.27	8331.89
682.618	8340.25
682.966	8309.06
683.314	8375.95
683.661	8347.25
684.009	8321.49
684.357	8292.56
684.705	8264.77
685.053	8350.64
685.4	8360.59
685.748	8247.37
686.095	8231.1
686.443	8204.88
686.79	8226.58
687.138	8244.88
687.485	8211.66
687.832	8178.9
688.18	8236.52
688.527	8223.41
688.874	8181.83
689.221	8133.92
689.568	8105.68
689.915	8114.49
690.262	8063.42
690.609	8029.07
690.956	8099.12
691.303	8088.73
691.65	8032.23
691.997	8030.88
692.344	7980.71
692.69	8039.92
693.037	8071.1
693.383	8001.95
693.73	7957.21
694.077	8004.21
694.423	7961.95
694.769	7926.47
695.116	7955.62
695.462	7856.42
695.808	7877.66
696.155	7868.39
696.501	7867.72
696.847	7837.21
697.193	7742.52
697.539	7754.5
697.885	7735.97
698.231	7659.36
698.577	7664.11
698.923	7634.73
699.269	7642.86
699.614	7632.02
699.96	7608.06
700.306	7624.79
700.651	7556.09
700.997	7520.38
701.342	7560.15
701.688	7555.18
702.033	7494.39
702.379	7478.8
702.724	7490.33
703.069	7472.25
703.415	7425.02
703.76	7334.17
704.105	7415.98
704.45	7331.69
704.795	7339.82
705.14	7323.55
705.485	7353.15
705.83	7312.03
706.175	7291.23
706.52	7288.07
706.865	7190.22
707.209	7197.68
707.554	7169.2
707.899	7174.63
708.243	7058.47
708.588	7175.98
708.932	7064.35
709.277	7064.35
709.621	7033.84
709.966	6996.1
710.31	7015.31
710.654	6946.39
710.998	7015.54
711.342	7065.48
711.687	6976.44
712.031	6912.26
712.375	6887.86
712.719	6866.16
713.063	6910
713.407	6901.87
713.75	6800.63
714.094	6815.77
714.438	6811.02
714.782	6812.15
715.125	6766.95
715.469	6812.38
715.812	6735.32
716.156	6747.52
716.499	6690.12
716.843	6730.8
717.186	6693.06
717.53	6697.35
717.873	6724.7
718.216	6638.37
718.559	6702.32
718.902	6631.82
719.246	6634.3
719.589	6617.58
719.932	6605.15
720.275	6590.69
720.617	6537.36
720.96	6577.58
721.303	6630.01
721.646	6547.98
721.989	6534.64
722.331	6604.02
722.674	6479.96
723.016	6532.38
723.359	6537.81
723.701	6473.63
724.044	6496.91
724.386	6503.46
724.729	6495.1
725.071	6498.49
725.413	6492.39
725.755	6497.58
726.097	6494.87
726.439	6416
726.782	6464.59
727.124	6524.93
727.465	6419.85
727.807	6408.32
728.149	6438.6
728.491	6404.93
728.833	6431.14
729.175	6432.27
729.516	6414.87
729.858	6421.88
730.199	6462.1
730.541	6413.07
730.882	6410.58
731.224	6436.57
731.565	6321.09
731.906	6328.55
732.248	6389.79
732.589	6370.36
732.93	6350.92
733.271	6419.17
733.612	6389.11
733.953	6386.85
734.294	6348.89
734.635	6353.18
734.976	6372.61
735.317	6298.94
735.658	6304.14
735.999	6355.21
736.339	6274.99
736.68	6304.14
737.021	6260.3
737.361	6287.65
737.702	6310.92
738.042	6308.21
738.383	6324.03
738.723	6282.67
739.063	6241.09
739.404	6303.46
739.744	6307.08
740.084	6229.57
740.424	6260.08
740.764	6204.71
741.104	6198.16
741.444	6219.85
741.784	6155.22
742.124	6214.43
742.464	6195.9
742.804	6148.89
743.143	6135.33
743.483	6151.6
743.823	6117.03
744.162	6100.31
744.502	6183.92
744.841	6089.91
745.181	6067.76
745.52	6098.95
745.86	6104.15
746.199	6088.33
746.538	6038.16
746.877	6083.36
747.216	6097.14
747.556	6016.47
747.895	6046.52
748.234	5940.08
748.573	5969.46
748.911	5992.29
749.25	5971.72
749.589	5974.66
749.928	5959.29
750.267	5966.52
750.605	5943.47
750.944	5905.51
751.283	5865.96
751.621	5889.46
751.96	5855.11
752.298	5821.89
752.636	5837.71
752.975	5832.29
753.313	5786.42
753.651	5818.05
753.989	5785.51
754.327	5769.47
754.666	5727.66
755.004	5709.81
755.342	5751.16
755.679	5754.78
756.017	5684.95
756.355	5689.02
756.693	5657.83
757.031	5658.96
757.368	5603.14
757.706	5522.92
758.044	5577.38
758.381	5591.84
758.719	5569.47
759.056	5530.6
759.394	5553.65
759.731	5562.69
760.068	5525.18
760.405	5474.56
760.743	5470.04
761.08	5475.92
761.417	5493.09
761.754	5442.47
762.091	5438.63
762.428	5453.32
762.765	5369.25
763.102	5344.17
763.438	5354.11
763.775	5336.26
764.112	5384.62
764.449	5307.33
764.785	5311.63
765.122	5289.25
765.458	5299.65
765.795	5255.13
766.131	5270.95
766.467	5288.8
766.804	5255.81
767.14	5205.87
767.476	5228.46
767.812	5193.66
768.148	5196.83
768.485	5177.84
768.821	5163.83
769.157	5118.18
769.492	5124.74
769.828	5128.13
770.164	5064.85
770.5	5083.38
770.836	5046.1
771.171	5058.07
771.507	4989.6
771.842	4999.54
772.178	5028.92
772.513	4972.2
772.849	4934.69
773.184	4944.18
773.519	4936.27
773.855	4895.37
774.19	4848.59
774.525	4857.4
774.86	4844.97
775.195	4860.79
775.53	4843.39
775.865	4797.74
776.2	4762.94
776.535	4712.32
776.87	4750.06
777.205	4733.56
777.539	4705.54
777.874	4736.05
778.209	4650.17
778.543	4710.51
778.878	4632.55
779.212	4674.81
779.547	4626.22
779.881	4639.78
780.215	4645.65
780.55	4682.26
780.884	4577.86
781.218	4588.03
781.552	4601.81
781.886	4559.33
782.22	4507.35
782.554	4514.81
782.888	4469.16
783.222	4467.58
783.556	4462.61
783.889	4406.34
784.223	4430.07
784.557	4334.93
784.89	4355.72
785.224	4310.97
785.557	4352.33
785.891	4310.07
786.224	4320.92
786.558	4328.83
786.891	4286.79
787.224	4312.33
787.557	4270.52
787.891	4201.6
788.224	4222.39
788.557	4210.86
788.89	4243.18
789.223	4213.35
789.556	4138.55
789.888	4122.73
790.221	4141.71
790.554	4108.95
790.887	4075.73
791.219	4074.14
791.552	4078.66
791.884	4054.03
792.217	4008.61
792.549	4017.87
792.882	3979.01
793.214	3933.13
793.546	3995.05
793.879	3978.33
794.211	3893.13
794.543	3890.65
794.875	3924.54
795.207	3899.01
795.539	3868.05
795.871	3880.25
796.203	3842.29
796.535	3828.73
796.867	3827.82
797.198	3793.25
797.53	3777.88
797.862	3795.96
798.193	3766.81
798.525	3749.41
798.856	3752.8
799.188	3732.01
799.519	3712.57
799.85	3679.8
800.182	3697.21
800.513	3686.81
800.844	3663.08
801.175	3661.73
801.506	3676.19
801.837	3621.27
802.168	3609.98
802.499	3654.72
802.83	3610.88
803.161	3573.82
803.491	3570.43
803.822	3543.54
804.153	3561.16
804.483	3536.53
804.814	3560.03
805.145	3515.29
805.475	3583.99
805.805	3528.17
806.136	3526.14
806.466	3501.96
806.796	3540.15
807.126	3508.06
807.457	3474.39
807.787	3488.85
808.117	3499.24
808.447	3491.33
808.777	3434.39
809.107	3435.74
809.436	3501.73
809.766	3439.36
810.096	3485.23
810.426	3438.68
810.755	3444.33
811.085	3451.34
811.414	3442.75
811.744	3389.87
812.073	3396.87
812.403	3390.55
812.732	3399.36
813.061	3423.09
813.39	3388.96
813.719	3376.54
814.049	3377.44
814.378	3348.29
814.707	3373.15
815.036	3362.07
815.365	3370.21
815.693	3323.66
816.022	3339.02
816.351	3329.08
816.68	3333.82
817.008	3341.51
817.337	3310.55
817.665	3303.77
817.994	3311.68
818.322	3264.22
818.651	3306.25
818.979	3261.74
819.307	3323.66
819.636	3305.12
819.964	3280.94
820.292	3285.01
820.62	3301.51
820.948	3241.4
821.276	3268.74
821.604	3243.43
821.932	3294.73
822.259	3261.51
822.587	3268.06
822.915	3276.2
823.243	3235.75
823.57	3245.69
823.898	3231
824.225	3254.05
824.553	3248.86
824.88	3262.64
825.207	3250.66
825.535	3227.84
825.862	3249.08
826.189	3188.07
826.516	3251.34
826.843	3297.44
827.17	3264
827.497	3303.32
827.824	3279.59
828.151	3274.84
828.478	3220.38
828.805	3262.19
829.131	3294.96
829.458	3242.98
829.785	3235.97
830.111	3244.34
830.438	3243.88
830.764	3235.07
831.09	3273.71
831.417	3216.54
831.743	3252.47
832.069	3237.56
832.395	3225.13
832.722	3235.07
833.048	3226.71
833.374	3225.58
833.7	3196.88
834.026	3224
834.351	3266.93
834.677	3140.84
835.003	3182.64
835.329	3207.73
835.654	3188.52
835.98	3151.46
836.306	3234.62
836.631	3200.49
836.956	3225.35
837.282	3210.44
837.607	3146.71
837.932	3176.09
838.258	3127.28
838.583	3185.81
838.908	3165.47
839.233	3108.29
839.558	3140.38
839.883	3139.71
840.208	3143.55
840.533	3127.73
840.858	3149.2
841.182	3141.74
841.507	3135.19
841.832	3109.2
842.156	3092.25
842.481	3111.01
842.805	3089.99
843.13	3080.27
843.454	3068.75
843.778	3102.64
844.103	3080.5
844.427	3054.28
844.751	3066.71
845.075	3046.37
845.399	3054.51
845.723	3016.77
846.047	3050.67
846.371	3025.13
846.695	3009.09
847.019	2978.58
847.343	2985.81
847.666	2952.82
847.99	2950.11
848.313	2927.51
848.637	2945.36
848.96	2953.95
849.284	2960.28
849.607	2905.59
849.931	2892.93
850.254	2929.54
850.577	2912.82
850.9	2843.89
851.223	2864.91
851.546	2860.16
851.869	2823.78
852.192	2893.38
852.515	2784.91
852.838	2802.99
853.161	2847.74
853.483	2832.14
853.806	2810.9
854.129	2813.39
854.451	2808.19
854.774	2829.21
855.096	2774.74
855.419	2808.64
855.741	2784.01
856.063	2787.62
856.385	2752.37
856.708	2748.98
857.03	2752.6
857.352	2698.36
857.674	2738.59
857.996	2763.22
858.318	2718.25
858.64	2728.42
858.961	2747.85
859.283	2730
859.605	2691.36
859.926	2699.72
860.248	2665.82
860.57	2663.33
860.891	2672.37
861.212	2656.33
861.534	2660.4
861.855	2665.14
862.176	2680.96
862.498	2683.9
862.819	2660.85
863.14	2661.98
863.461	2626.27
863.782	2609.55
864.103	2618.59
864.424	2633.05
864.745	2609.32
865.065	2628.08
865.386	2603.9
865.707	2606.84
866.027	2638.7
866.348	2624.24
866.668	2625.14
866.989	2626.27
867.309	2604.35
867.63	2579.49
867.95	2604.58
868.27	2573.62
868.59	2577.46
868.91	2570.46
869.23	2553.51
869.55	2571.81
869.87	2541.3
870.19	2569.55
870.51	2533.62
870.83	2544.47
871.15	2523.45
871.469	2564.13
871.789	2540.85
872.109	2565.94
872.428	2535.43
872.748	2538.14
873.067	2535.43
873.386	2539.72
873.706	2489.33
874.025	2493.85
874.344	2479.16
874.663	2490.46
874.982	2506.28
875.301	2493.17
875.62	2498.37
875.939	2469.89
876.258	2462.66
876.577	2486.62
876.896	2477.58
877.214	2483.9
877.533	2495.65
877.852	2451.14
878.17	2485.49
878.489	2465.37
878.807	2416.33
879.125	2426.28
879.444	2444.58
879.762	2418.59
880.08	2424.7
880.398	2416.56
880.716	2438.48
881.034	2396.45
881.352	2394.19
881.67	2373.17
881.988	2429.67
882.306	2387.86
882.624	2378.6
882.941	2342.89
883.259	2353.29
883.577	2385.6
883.894	2346.28
884.212	2344.92
884.529	2326.39
884.846	2343.34
885.164	2336.11
885.481	2343.12
885.798	2332.72
886.115	2325.94
886.432	2309.67
886.75	2315.09
887.067	2330.24
887.383	2272.16
887.7	2312.83
888.017	2296.34
888.334	2301.76
888.651	2266.51
888.967	2252.5
889.284	2217.47
889.6	2212.05
889.917	2217.02
890.233	2225.38
890.55	2220.41
890.866	2222.67
891.182	2195.1
891.498	2207.98
891.815	2197.36
892.131	2221.76
892.447	2190.35
892.763	2169.79
893.079	2154.42
893.395	2152.39
893.71	2167.75
894.026	2164.36
894.342	2146.51
894.657	2158.71
894.973	2155.55
895.289	2151.26
895.604	2182.44
895.92	2116.68
896.235	2128.66
896.55	2136.34
896.865	2120.07
897.181	2093.41
897.496	2089.79
897.811	2057.7
898.126	2077.36
898.441	2055.89
898.756	2102.67
899.071	2033.07
899.386	2067.42
899.7	2044.37
900.015	2029
900.33	2021.77
900.644	2024.71
900.959	2031.26
901.273	2044.37
901.588	2009.57
901.902	1998.94
902.216	1994.42
902.531	2009.34
902.845	1995.1
903.159	1979.28
903.473	1958.49
903.787	1949.68
904.101	1962.56
904.415	1940.42
904.729	1947.19
905.042	1946.06
905.356	1938.61
905.67	1919.4
905.984	1920.53
906.297	1929.79
906.611	1929.57
906.924	1901.55
907.237	1916.91
907.551	1926.18
907.864	1906.07
908.177	1886.18
908.491	1882.34
908.804	1854.77
909.117	1863.35
909.43	1833.07
909.743	1847.99
910.056	1854.77
910.368	1829.01
910.681	1827.2
910.994	1809.35
911.307	1788.1
911.619	1785.62
911.932	1810.93
912.244	1800.76
912.557	1806.41
912.869	1812.73
913.181	1819.06
913.494	1791.94
913.806	1775.45
914.118	1764.83
914.43	1755.34
914.742	1773.64
915.054	1756.47
915.366	1743.36
915.678	1749.01
915.99	1772.96
916.302	1740.19
916.613	1739.29
916.925	1714.43
917.236	1713.53
917.548	1723.92
917.859	1730.48
918.171	1716.47
918.482	1707.2
918.794	1687.09
919.105	1708.56
919.416	1661.1
919.727	1689.57
920.038	1679.4
920.349	1657.48
920.66	1625.62
920.971	1656.58
921.282	1644.83
921.593	1649.35
921.903	1641.89
922.214	1642.8
922.525	1611.61
922.835	1606.64
923.146	1631.72
923.456	1620.2
923.767	1592.18
924.077	1588.33
924.387	1588.33
924.697	1566.41
925.008	1597.15
925.318	1567.54
925.628	1586.07
925.938	1556.92
926.248	1554.89
926.558	1562.35
926.867	1570.48
927.177	1559.41
927.487	1541.1
927.796	1528.9
928.106	1538.17
928.416	1527.54
928.725	1531.16
929.034	1523.48
929.344	1506.75
929.653	1522.8
929.962	1499.97
930.271	1486.64
930.581	1471.27
930.89	1474.44
931.199	1482.35
931.508	1476.7
931.817	1476.92
932.125	1464.95
932.434	1453.42
932.743	1488.45
933.051	1456.81
933.36	1461.11
933.669	1461.33
933.977	1477.6
934.286	1415.23
934.594	1416.59
934.902	1387.66
935.21	1409.36
935.519	1438.28
935.827	1421.78
936.135	1405.74
936.443	1416.81
936.751	1394.89
937.059	1403.71
937.367	1372.75
937.674	1357.61
937.982	1358.96
938.29	1356.93
938.597	1364.39
938.905	1363.48
939.213	1337.27
939.52	1333.2
939.827	1332.97
940.135	1331.17
940.442	1326.65
940.749	1327.1
941.056	1344.95
941.363	1302.24
941.67	1338.85
941.977	1322.13
942.284	1303.6
942.591	1279.87
942.898	1290.04
943.205	1254.11
943.511	1276.25
943.818	1286.65
944.125	1265.86
944.431	1286.19
944.738	1276.48
945.044	1271.51
945.35	1274.22
945.657	1275.57
945.963	1261.79
946.269	1262.01
946.575	1235.12
946.881	1267.66
947.187	1252.75
947.493	1218.17
947.799	1215.24
948.105	1217.27
948.41	1252.07
948.716	1229.7
949.022	1248.91
949.327	1222.02
949.633	1211.85
949.938	1211.17
950.244	1195.12
950.549	1202.13
950.854	1175.69
951.16	1166.65
951.465	1180.89
951.77	1162.81
952.075	1191.73
952.38	1158.97
952.685	1184.5
952.99	1190.6
953.294	1165.97
953.599	1159.42
953.904	1138.85
954.209	1135.24
954.513	1120.1
954.818	1138.4
955.122	1141.79
955.426	1135.92
955.731	1111.06
956.035	1119.87
956.339	1130.72
956.643	1108.57
956.948	1107.22
957.252	1090.49
957.556	1130.72
957.86	1117.84
958.163	1107.44
958.467	1096.37
958.771	1129.36
959.075	1079.65
959.378	1108.8
959.682	1085.97
959.985	1085.07
960.289	1120.78
960.592	1067.44
960.896	1066.31
961.199	1074.9
961.502	1071.29
961.805	1055.69
962.108	1019.76
962.411	1049.82
962.714	1054.34
963.017	1045.75
963.32	1060.66
963.623	1068.57
963.926	1055.92
964.228	1037.39
964.531	1034
964.833	1039.87
965.136	1019.76
965.438	1012.3
965.741	1002.81
966.043	1036.71
966.345	1001.23
966.648	987.22
966.95	996.03
967.252	995.81
967.554	1006.43
967.856	1014.11
968.158	992.87
968.46	976.6
968.761	1008.01
969.063	983.38
969.365	972.3
969.666	986.09
969.968	971.85
970.269	941.8
970.571	959.88
970.872	955.81
971.174	972.98
971.475	957.62
971.776	956.49
972.077	930.27
972.378	945.64
972.679	948.58
972.98	928.69
973.281	929.14
973.582	956.03
973.883	934.79
974.183	935.92
974.484	922.59
974.785	917.39
975.085	923.49
975.386	934.57
975.686	916.26
975.986	920.1
976.287	910.16
976.587	902.02
976.887	900.67
977.187	912.19
977.487	913.32
977.787	914.91
978.087	892.31
978.387	910.16
978.687	904.74
978.987	879.88
979.286	897.05
979.586	878.07
979.885	897.5
980.185	874.91
980.484	889.82
980.784	870.61
981.083	866.55
981.382	871.29
981.682	840.56
981.981	856.83
982.28	879.88
982.579	868.58
982.878	861.12
983.177	860.9
983.475	891.4
983.774	846.43
984.073	850.27
984.372	868.13
984.67	835.81
984.969	843.49
985.267	836.49
985.566	841.91
985.864	822.7
986.162	812.76
986.461	842.14
986.759	825.42
987.057	805.98
987.355	807.11
987.653	834.23
987.951	810.05
988.249	822.93
988.547	813.44
988.844	806.89
989.142	817.28
989.44	814.79
989.737	790.16
990.035	784.51
990.332	808.02
990.63	790.84
990.927	784.51
991.224	773.21
991.521	796.04
991.819	778.86
992.116	769.6
992.413	782.03
992.71	781.8
993.006	776.38
993.303	759.88
993.6	766.66
993.897	751.07
994.193	757.4
994.49	761.69
994.787	782.93
995.083	727.34
995.379	733.22
995.676	738.86
995.972	758.07
996.268	741.35
996.565	742.93
996.861	755.36
997.157	743.38
997.453	739.54
997.749	749.03
998.044	696.83
998.34	722.59
998.636	752.65
998.932	719.2
999.227	732.54
999.523	692.99
999.818	733.22
1000.114	701.8
1000.409	704.74
1000.704	707.23
1001	732.31
1001.295	709.04
1001.59	699.54
1001.885	690.73
1002.18	671.07
1002.475	680.79
1002.77	701.58
1003.065	674.91
1003.359	724.63
1003.654	692.76
1003.949	667.91
1004.243	673.56
1004.538	664.97
1004.832	658.87
1005.127	668.13
1005.421	654.8
1005.715	654.57
1006.009	661.8
1006.304	660.45
1006.598	671.75
1006.892	658.19
1007.186	656.61
1007.48	634.46
1007.773	646.21
1008.067	643.73
1008.361	646.44
1008.655	630.17
1008.948	634.91
1009.242	646.44
1009.535	623.16
1009.829	628.81
1010.122	620.9
1010.415	620.45
1010.708	628.36
1011.001	596.95
1011.295	622.48
1011.588	617.51
1011.881	608.7
1012.173	610.51
1012.466	612.99
1012.759	618.64
1013.052	580
1013.344	590.85
1013.637	606.89
1013.93	617.74
1014.222	616.38
1014.514	615.03
1014.807	599.66
1015.099	603.28
1015.391	607.79
1015.683	581.35
1015.976	576.61
1016.268	576.61
1016.56	576.16
1016.851	568.7
1017.143	562.82
1017.435	595.37
1017.727	547.23
1018.018	563.73
1018.31	579.55
1018.602	567.12
1018.893	566.89
1019.185	555.59
1019.476	574.8
1019.767	556.04
1020.058	546.1
1020.35	541.81
1020.641	548.14
1020.932	532.99
1021.223	544.29
1021.514	523.96
1021.804	542.49
1022.095	556.27
1022.386	544.29
1022.677	542.94
1022.967	530.96
1023.258	540.45
1023.548	535.48
1023.839	544.07
1024.129	519.66
1024.419	538.87
1024.709	545.65
1025	528.02
1025.29	528.93
1025.58	531.19
1025.87	520.34
1026.16	520.79
1026.449	490.96
1026.739	509.04
1027.029	516.5
1027.319	483.28
1027.608	500.68
1027.898	497.06
1028.187	494.58
1028.477	504.75
1028.766	494.58
1029.055	481.02
1029.344	504.07
1029.634	506.1
1029.923	500.68
1030.212	488.7
1030.501	489.15
1030.79	488.93
1031.078	480.79
1031.367	468.59
1031.656	473.34
1031.945	467.91
1032.233	447.57
1032.522	474.69
1032.81	466.1
1033.099	465.65
1033.387	486.22
1033.675	472.43
1033.963	488.93
1034.251	459.78
1034.54	445.77
1034.828	480.11
1035.116	462.71
1035.403	459.78
1035.691	443.28
1035.979	445.54
1036.267	473.11
1036.554	462.94
1036.842	458.65
1037.129	462.49
1037.417	464.97
1037.704	478.08
1037.992	452.32
1038.279	429.27
1038.566	446.44
1038.853	446.44
1039.14	446.44
