Data from foam_black_FLMS001491_00015.txt Node
Date: Wed Feb 08 10:43:35 GMT 2017
User: dcchb
Spectrometer: FLMS00149
Trigger mode: 0
Integration Time (sec): 2.000000E-2
Scans to average: 10
Electric dark correction enabled: true
Nonlinearity correction enabled: false
Boxcar width: 0
XAxis mode: Wavelengths
Number of Pixels in Spectrum: 2048
>>>>>Begin Spectral Data<<<<<
341.393	-12.01
341.776	-12.01
342.16	-12.01
342.543	-52.68
342.927	-56.3
343.31	-61.5
343.693	-46.58
344.077	-58.33
344.46	-63.98
344.843	-63.98
345.226	-31.44
345.61	-23.53
345.993	-30.08
346.376	9.24
346.759	-4.77
347.142	32.29
347.525	55.79
347.908	65.73
348.291	63.7
348.674	68.22
349.057	89.23
349.44	119.52
349.823	147.09
350.206	148.22
350.588	183.47
350.971	207.88
351.354	229.34
351.737	240.64
352.119	231.15
352.502	257.37
352.884	253.3
353.267	274.99
353.65	283.58
354.032	275.44
354.414	303.24
354.797	292.39
355.179	307.53
355.562	294.2
355.944	294.65
356.326	313.64
356.709	331.49
357.091	331.04
357.473	349.34
357.855	353.18
358.238	326.52
358.62	330.13
359.002	332.84
359.384	337.82
359.766	331.49
360.148	316.57
360.53	326.97
360.912	334.43
361.294	342.56
361.676	326.29
362.057	335.78
362.439	338.04
362.821	305.73
363.203	326.52
363.584	332.17
363.966	314.09
364.348	337.59
364.729	312.51
365.111	306.63
365.493	302.56
365.874	327.19
366.256	319.96
366.637	303.69
367.019	302.11
367.4	310.92
367.781	321.32
368.163	316.8
368.544	293.75
368.925	309.57
369.306	310.25
369.688	300.3
370.069	310.7
370.45	319.96
370.831	333.07
371.212	316.57
371.593	317.93
371.974	286.07
372.355	308.44
372.736	326.06
373.117	312.51
373.498	318.83
373.879	313.41
374.26	320.64
374.641	307.53
375.021	326.06
375.402	323.35
375.783	316.8
376.163	333.07
376.544	322.9
376.925	351.6
377.305	328.1
377.686	336.91
378.066	330.58
378.447	336.01
378.827	353.18
379.208	361.32
379.588	318.61
379.968	338.72
380.349	352.96
380.729	360.19
381.109	338.04
381.489	364.93
381.87	365.61
382.25	354.31
382.63	343.01
383.01	350.25
383.39	333.97
383.77	363.35
384.15	351.37
384.53	353.18
384.91	342.11
385.29	353.41
385.67	368.78
386.049	379.17
386.429	374.43
386.809	365.39
387.189	378.27
387.568	365.61
387.948	392.05
388.328	376.91
388.707	368.55
389.087	384.59
389.466	388.89
389.846	378.94
390.225	386.4
390.605	387.31
390.984	411.94
391.363	394.99
391.743	404.93
392.122	409.45
392.501	388.44
392.881	399.28
393.26	390.02
393.639	421.43
394.018	406.51
394.397	416.68
394.776	424.14
395.155	417.36
395.534	415.33
395.913	409.68
396.292	416.23
396.671	409.9
397.05	425.5
397.429	414.65
397.808	447.19
398.186	462.78
398.565	431.6
398.944	429.11
399.323	426.18
399.701	418.49
400.08	439.28
400.458	447.19
400.837	442.67
401.215	445.38
401.594	460.07
401.972	460.98
402.351	476.8
402.729	467.3
403.107	459.17
403.486	451.03
403.864	444.71
404.242	486.29
404.62	469.79
404.999	476.34
405.377	497.13
405.755	488.32
406.133	487.87
406.511	474.76
406.889	496.46
407.267	487.19
407.645	507.98
408.023	533.74
408.401	513.63
408.779	512.27
409.156	506.85
409.534	529
409.912	521.31
410.29	536.23
410.667	544.36
411.045	529.68
411.422	523.35
411.8	532.84
412.178	525.16
412.555	551.82
412.933	555.66
413.31	550.47
413.687	536.91
414.065	560.41
414.442	573.29
414.819	588.66
415.197	603.35
415.574	590.01
415.951	599.5
416.328	590.92
416.705	584.14
417.082	591.82
417.46	583.23
417.837	641.76
418.214	611.93
418.591	617.36
418.967	620.07
419.344	624.36
419.721	647.41
420.098	643.34
420.475	606.06
420.852	645.83
421.228	646.51
421.605	667.52
421.982	671.14
422.358	665.49
422.735	644.25
423.111	664.14
423.488	700.97
423.864	666.62
424.241	685.6
424.617	705.72
424.994	709.11
425.37	677.47
425.746	693.74
426.123	701.65
426.499	703.91
426.875	723.79
427.251	722.21
427.627	734.64
428.003	746.39
428.379	754.98
428.756	748.65
429.132	730.12
429.507	758.82
429.883	771.48
430.259	748.88
430.635	794.98
431.011	794.75
431.387	815.09
431.763	815.54
432.138	848.99
432.514	815.09
432.89	833.17
433.265	822.55
433.641	835.2
434.016	851.7
434.392	861.64
434.767	860.29
435.143	881.08
435.518	861.64
435.894	855.99
436.269	922.89
436.644	900.51
437.02	917.01
437.395	894.86
437.77	920.4
438.145	952.04
438.52	936.22
438.895	931.02
439.271	964.24
439.646	975.09
440.021	971.92
440.395	986.61
440.77	968.53
441.145	992.49
441.52	999.04
441.895	995.88
442.27	1003.79
442.645	1044.69
443.019	1048.76
443.394	1006.95
443.769	1003.79
444.143	1031.58
444.518	1050.57
444.892	1070.68
445.267	1056.67
445.641	1017.8
446.016	1039.04
446.39	1063.67
446.764	1081.3
447.139	1063.67
447.513	1069.32
447.887	1097.34
448.262	1098.02
448.636	1075.42
449.01	1093.5
449.384	1090.34
449.758	1093.05
450.132	1143.22
450.506	1143.44
450.88	1160.17
451.254	1133.5
451.628	1136.21
452.002	1182.54
452.376	1190.45
452.75	1167.62
453.123	1194.52
453.497	1190.67
453.871	1206.04
454.244	1234.29
454.618	1247.17
454.992	1295.08
455.365	1234.97
455.739	1319.03
456.112	1309.99
456.486	1306.6
456.859	1320.84
457.232	1330.78
457.606	1331.01
457.979	1365.81
458.352	1369.88
458.725	1365.59
459.099	1359.26
459.472	1410.78
459.845	1452.59
460.218	1460.5
460.591	1421.4
460.964	1456.43
461.337	1512.47
461.71	1482.64
462.083	1509.54
462.456	1522.19
462.829	1519.48
463.201	1551.12
463.574	1543.66
463.947	1557.44
464.32	1580.5
464.692	1584.79
465.065	1636.54
465.438	1628.4
465.81	1656.88
466.183	1676.09
466.555	1684.67
466.928	1736.2
467.3	1732.58
467.672	1762.41
468.045	1794.5
468.417	1816.42
468.789	1804.44
469.161	1813.48
469.534	1891
469.906	1913.37
470.278	1926.02
470.65	1928.73
471.022	1962.18
471.394	1957.43
471.766	1990.65
472.138	1984.55
472.51	2056.87
472.882	2078.56
473.253	2067.26
473.625	2107.03
473.997	2131.22
474.369	2175.06
474.74	2198.56
475.112	2221.61
475.484	2276.52
475.855	2290.08
476.227	2312.23
476.598	2374.82
476.97	2408.04
477.341	2446.01
477.713	2461.83
478.084	2455.5
478.455	2559.9
478.827	2558.77
479.198	2622.28
479.569	2624.31
479.94	2718.54
480.311	2698.88
480.682	2777.75
481.053	2804.19
481.424	2831.54
481.795	2870.86
482.166	2910.4
482.537	2955.6
482.908	2982.72
483.279	3067.46
483.65	3059.1
484.021	3116.95
484.391	3179.78
484.762	3207.35
485.133	3243.73
485.503	3302.94
485.874	3378.64
486.244	3364.4
486.615	3449.37
486.985	3460.45
487.356	3523.49
487.726	3548.13
488.097	3604.62
488.467	3665.19
488.837	3737.95
489.207	3758.74
489.578	3789.48
489.948	3783.38
490.318	3822.24
490.688	3885.29
491.058	3924.61
491.428	3966.2
491.798	4037.38
492.168	4085.74
492.538	4109.92
492.908	4123.71
493.278	4174.55
493.648	4208
494.017	4313.98
494.387	4304.49
494.757	4338.39
495.126	4375.9
495.496	4424.26
495.866	4422.68
496.235	4448.22
496.605	4517.14
496.974	4518.27
497.344	4630.81
497.713	4614.09
498.082	4620.19
498.452	4651.83
498.821	4699.06
499.19	4707.42
499.559	4771.15
499.928	4800.52
500.298	4838.94
500.667	4815.21
501.036	4850.92
501.405	4885.94
501.774	4882.56
502.143	4963.91
502.512	5031.93
502.88	5071.25
503.249	5030.8
503.618	5067.86
503.987	5063.12
504.356	5150.57
504.724	5161.64
505.093	5227.18
505.462	5211.59
505.83	5299.95
506.199	5328.42
506.567	5366.84
506.936	5398.25
507.304	5409.1
507.672	5472.37
508.041	5453.16
508.409	5580.84
508.777	5561.18
509.145	5605.47
509.514	5692.03
509.882	5666.72
510.25	5709.2
510.618	5732.7
510.986	5779.48
511.354	5853.83
511.722	5893.38
512.09	5911.68
512.458	5919.36
512.826	5977.44
513.193	5960.49
513.561	5938.8
513.929	6060.83
514.297	6124.1
514.664	6164.56
515.032	6201.62
515.4	6257.66
515.767	6244.1
516.135	6334.49
516.502	6298.56
516.869	6347.15
517.237	6489.29
517.604	6443.64
517.972	6519.35
518.339	6607.93
518.706	6663.75
519.073	6715.5
519.44	6718.89
519.808	6786.01
520.175	6811.32
520.542	6953.91
520.909	6988.71
521.276	6894.71
521.643	6991.43
522.009	7049.05
522.376	7063.29
522.743	7125.89
523.11	7176.51
523.477	7248.37
523.843	7262.15
524.21	7351.64
524.577	7337.41
524.943	7418.99
525.31	7499.21
525.676	7537.85
526.043	7582.6
526.409	7590.51
526.776	7700.56
527.142	7719.54
527.508	7806.09
527.874	7923.15
528.241	7955.47
528.607	7986.2
528.973	8108.01
529.339	8062.36
529.705	8179.64
530.071	8265.74
530.437	8282.24
530.803	8352.52
531.169	8455.34
531.535	8407.21
531.901	8527.43
532.267	8572.63
532.632	8530.82
532.998	8620.31
533.364	8600.65
533.73	8699.18
534.095	8738.73
534.461	8709.8
534.826	8689.91
535.192	8691.72
535.557	8812.85
535.923	8765.62
536.288	8863.02
536.653	8863.69
537.019	8899.17
537.384	8929.68
537.749	9034.76
538.114	9046.06
538.479	9092.39
538.845	9112.73
539.21	9121.77
539.575	9241.54
539.94	9317.69
540.305	9339.16
540.67	9323.79
541.034	9420.52
541.399	9478.14
541.764	9539.38
542.129	9563.56
542.494	9608.53
542.858	9621.19
543.223	9526.95
543.587	9646.72
543.952	9670.45
544.316	9705.48
544.681	9704.35
545.045	9795.65
545.41	9748.64
545.774	9809.66
546.138	9816.21
546.503	9796.78
546.867	9860.28
547.231	9916.77
547.595	9954.06
547.959	10003.1
548.324	10064.34
548.688	10022.31
549.052	10059.59
549.416	10124.23
549.779	10110.44
550.143	10259.36
550.507	10278.35
550.871	10448.06
551.235	10416.42
551.599	10421.17
551.962	10496.87
552.326	10626.58
552.689	10609.64
553.053	10634.27
553.417	10688.73
553.78	10835.39
554.143	10785
554.507	10769.18
554.87	10860.25
555.234	11001.94
555.597	10874.26
555.96	10923.07
556.323	10975.73
556.686	11056.4
557.05	11111.09
557.413	11125.33
557.776	11138.66
558.139	11185.67
558.502	11228.6
558.865	11257.98
559.228	11257.75
559.59	11346.11
559.953	11290.97
560.316	11554.47
560.679	11540.91
561.041	11650.29
561.404	11674.02
561.767	11767.12
562.129	11798.76
562.492	11926.44
562.854	11962.14
563.217	11992.42
563.579	11936.16
563.941	12107.22
564.304	12080.56
564.666	12313.77
565.028	12308.35
565.39	12347.22
565.753	12409.59
566.115	12386.09
566.477	12557.61
566.839	12486.42
567.201	12681.9
567.563	12694.78
567.925	12824.95
568.287	12763.25
568.648	12745.4
569.01	12912.17
569.372	12949.46
569.734	12888.9
570.095	13005.05
570.457	13086.41
570.819	13110.81
571.18	13082.34
571.542	13220.64
571.903	13194.2
572.265	13256.12
572.626	13287.53
572.987	13347.42
573.349	13440.07
573.71	13466.74
574.071	13484.36
574.432	13516.68
574.794	13656.11
575.155	13653.17
575.516	13565.04
575.877	13712.61
576.238	13700.85
576.599	13684.58
576.96	13745.6
577.32	13774.98
577.681	13852.94
578.042	13905.82
578.403	13926.84
578.763	13900.62
579.124	13897.01
579.485	13971.58
579.845	14034.63
580.206	14055.42
580.566	14003.22
580.927	14102.2
581.287	14118.92
581.648	14154.85
582.008	14225.59
582.368	14212.71
582.728	14287.51
583.089	14187.85
583.449	14167.28
583.809	14234.63
584.169	14261.97
584.529	14133.61
584.889	14240.95
585.249	14271.23
585.609	14115.53
585.969	14233.5
586.329	14135.19
586.688	14199.6
587.048	14166.15
587.408	14186.72
587.768	14203.21
588.127	14175.19
588.487	14175.42
588.846	14214.97
589.206	14076.21
589.565	14115.98
589.925	14246.83
590.284	14168.86
590.643	14167.06
591.003	14275.08
591.362	14182.88
591.721	14267.62
592.08	14290.67
592.44	14425.58
592.799	14309.2
593.158	14428.74
593.517	14416.32
593.876	14487.5
594.235	14400.05
594.593	14488.63
594.952	14529.76
595.311	14437.56
595.67	14501.74
596.029	14612.02
596.387	14614.28
596.746	14588.97
597.104	14591.68
597.463	14613.15
597.822	14753.26
598.18	14603.88
598.538	14552.81
598.897	14711.22
599.255	14628.29
599.613	14819.7
599.972	14668.29
600.33	14616.99
600.688	14551.91
601.046	14634.39
601.404	14694.95
601.762	14622.19
602.12	14609.53
602.478	14638.23
602.836	14609.53
603.194	14471
603.552	14542.87
603.91	14607.05
604.268	14685.24
604.625	14569.98
604.983	14706.48
605.341	14558.91
605.698	14751.9
606.056	14735.4
606.413	14763.65
606.771	14838.9
607.128	14837.55
607.485	14850.43
607.843	14778.34
608.2	14883.65
608.557	15052.01
608.914	14912.12
609.272	15093.13
609.629	15118.44
609.986	15146.24
610.343	15035.73
610.7	15195.05
611.057	15204.32
611.414	15160.7
611.771	15165.9
612.127	15291.77
612.484	15283.64
612.841	15275.95
613.198	15224.66
613.554	15165.45
613.911	15247.48
614.267	15202.28
614.624	15177.2
614.98	15223.98
615.337	15305.33
615.693	15269.17
616.05	15229.4
616.406	15297.2
616.762	15278.21
617.118	15234.6
617.475	15335.61
617.831	15271.43
618.187	15200.02
618.543	15258.1
618.899	15346.69
619.255	15271.66
619.611	15373.8
619.967	15421.71
620.323	15479.79
620.678	15502.61
621.034	15378.32
621.39	15445.67
621.746	15410.19
622.101	15592.56
622.457	15517.76
622.812	15554.37
623.168	15627.58
623.523	15740.8
623.879	15732.44
624.234	15609.96
624.589	15720.24
624.945	15696.51
625.3	15780.8
625.655	15696.28
626.01	15695.15
626.365	15653.12
626.72	15710.07
627.075	15777.86
627.43	15647.02
627.785	15651.54
628.14	15721.82
628.495	15746.45
628.85	15716.17
629.205	15596.17
629.559	15706.9
629.914	15592.78
630.269	15571.31
630.623	15436.4
630.978	15512.11
631.332	15492.22
631.687	15472.56
632.041	15393.92
632.396	15389.17
632.75	15334.03
633.104	15346.46
633.459	15197.76
633.813	15303.98
634.167	15214.26
634.521	15218.78
634.875	15209.06
635.229	15164.09
635.583	15149.63
635.937	15105.11
636.291	15139.01
636.645	15102.4
636.999	15130.87
637.352	15195.28
637.706	15124.09
638.06	15177.43
638.413	15117.99
638.767	15114.38
639.121	15073.93
639.474	14978.56
639.828	15037.99
640.181	15103.76
640.534	15108.05
640.888	15055.4
641.241	14979.69
641.594	14987.83
641.947	15094.49
642.301	14991.89
642.654	15015.17
643.007	14956.41
643.36	15074.38
643.713	15001.16
644.066	15028.05
644.419	14930.43
644.771	14900.82
645.124	14571.11
645.477	14636.88
645.83	14543.77
646.182	14520.27
646.535	14464.9
646.888	14571.79
647.24	14579.25
647.593	14669.87
647.945	14522.08
648.298	14500.61
648.65	14469.42
649.002	14406.6
649.355	14396.88
649.707	14306.26
650.059	14329.54
650.411	14545.35
650.763	14473.94
651.115	14623.09
651.467	14683.88
651.819	14646.14
652.171	14605.01
652.523	14503.55
652.875	14537.44
653.227	14431.91
653.578	14613.82
653.93	14457.67
654.282	14364.57
654.633	14370.67
654.985	14460.38
655.337	14412.47
655.688	14372.93
656.039	14357.11
656.391	14401.18
656.742	14286.83
657.094	14367.28
657.445	14466.94
657.796	14385.36
658.147	14333.83
658.498	14354.85
658.849	14426.94
659.2	14430.1
659.551	14392.81
659.902	14364.79
660.253	14351.23
660.604	14490.66
660.955	14281.63
661.306	14459.7
661.656	14384.9
662.007	14466.94
662.358	14469.65
662.708	14572.24
663.059	14451.57
663.409	14407.73
663.76	14473.49
664.11	14446.6
664.461	14519.14
664.811	14393.04
665.161	14498.8
665.511	14344.91
665.862	14413.15
666.212	14398.69
666.562	14423.1
666.912	14456.09
667.262	14397.79
667.612	14324.34
667.962	14252.03
668.312	14284.12
668.662	14328.18
669.011	14303.78
669.361	14227.85
669.711	14172.71
670.06	14208.41
670.41	14178.81
670.76	14114.85
671.109	14136.55
671.459	14115.53
671.808	14094.97
672.157	14165.25
672.507	13996.44
672.856	14054.97
673.205	13982.65
673.554	14092.93
673.904	14042.31
674.253	14020.39
674.602	13953.96
674.951	13782.21
675.3	13724.13
675.649	13861.98
675.998	13900.4
676.346	13983.56
676.695	13974.52
677.044	13920.28
677.393	13893.84
677.741	13998.7
678.09	13941.07
678.438	13903.79
678.787	13951.24
679.135	13986.95
679.484	13996.89
679.832	14005.25
680.181	13832.6
680.529	14021.98
680.877	13966.61
681.225	13898.59
681.573	14043.9
681.922	13936.55
682.27	13828.99
682.618	13892.71
682.966	13881.87
683.314	13843
683.661	13777.91
684.009	13805.26
684.357	13708.99
684.705	13675.09
685.053	13757.12
685.4	13683.45
685.748	13642.55
686.095	13628.09
686.443	13554.42
686.79	13429
687.138	13532.27
687.485	13554.64
687.832	13401.88
688.18	13452.95
688.527	13346.74
688.874	13248.89
689.221	13235.56
689.568	13231.94
689.915	13163.92
690.262	13109.91
690.609	13059.97
690.956	13003.92
691.303	13040.08
691.65	12889.8
691.997	12952.63
692.344	12821.56
692.69	12944.04
693.037	12953.98
693.383	12863.36
693.73	12872.63
694.077	12856.36
694.423	12775.91
694.769	12781.1
695.116	12808
695.462	12848.45
695.808	12722.12
696.155	12717.83
696.501	12601.9
696.847	12726.42
697.193	12626.08
697.539	12678.51
697.885	12537.95
698.231	12519.19
698.577	12569.13
698.923	12478.97
699.269	12602.8
699.614	12441.45
699.96	12471.28
700.306	12433.54
700.651	12321
700.997	12304.96
701.342	12321
701.688	12302.02
702.033	12259.31
702.379	12247.11
702.724	12211.18
703.069	12178.41
703.415	12066.77
703.76	12056.38
704.105	12004.85
704.45	11990.84
704.795	11871.3
705.14	11767.57
705.485	11850.51
705.83	11708.36
706.175	11716.73
706.52	11839.89
706.865	11653.45
707.209	11701.13
707.554	11643.51
707.899	11665.88
708.243	11527.58
708.588	11538.2
708.932	11501.59
709.277	11488.48
709.621	11488.48
709.966	11474.7
710.31	11470.4
710.654	11347.92
710.998	11385.89
711.342	11351.31
711.687	11334.36
712.031	11327.58
712.375	11226.12
712.719	11267.92
713.063	11260.47
713.407	11379.79
713.75	11254.14
714.094	11270.41
714.438	11197.64
714.782	11261.37
715.125	11167.36
715.469	11166.46
715.812	11209.62
716.156	11088.49
716.499	11145.22
716.843	11178.66
717.186	11049.62
717.53	11241.94
717.873	11144.09
718.216	11158.1
718.559	10965.33
718.902	10994.26
719.246	11041.49
719.589	10999.91
719.932	10888.27
720.275	10986.8
720.617	10943.19
720.96	10993.58
721.303	10965.33
721.646	10863.87
721.989	10812.34
722.331	10873.81
722.674	10825.9
723.016	10761.27
723.359	10767.82
723.701	10752.46
724.044	10620.26
724.386	10666.58
724.729	10647.38
725.071	10581.84
725.413	10622.29
725.755	10499.13
726.097	10551.56
726.439	10441.51
726.782	10470.2
727.124	10441.05
727.465	10445.57
727.807	10407.83
728.149	10337.55
728.491	10350.43
728.833	10394.5
729.175	10305.01
729.516	10440.38
729.858	10279.7
730.199	10258.23
730.541	10277.67
730.882	10307.27
731.224	10298.23
731.565	10185.92
731.906	10244.22
732.248	10259.81
732.589	10231.57
732.93	10232.02
733.271	10250.55
733.612	10197.22
733.953	10176.88
734.294	10175.07
734.635	10120.61
734.976	10163.77
735.317	10146.6
735.658	10166.03
735.999	10183.88
736.339	10148.18
736.68	10222.98
737.021	10103.66
737.361	10143.43
737.702	10163.09
738.042	10108.63
738.383	10141.17
738.723	10099.37
739.063	10141.17
739.404	10140.95
739.744	10101.85
740.084	10055.75
740.424	10069.31
740.764	9991.35
741.104	10054.85
741.444	9975.75
741.784	9909.77
742.124	9973.27
742.464	9926.49
742.804	9829.32
743.143	9892.82
743.483	9860.28
743.823	9803.33
744.162	9792.26
744.502	9853.5
744.841	9724.69
745.181	9809.66
745.52	9741.18
745.86	9743.44
746.199	9716.33
746.538	9614.63
746.877	9699.83
747.216	9663.22
747.556	9622.32
747.895	9630.23
748.234	9600.85
748.573	9584.8
748.911	9569.44
749.25	9548.87
749.589	9559.27
749.928	9541.42
750.267	9527.86
750.605	9519.27
750.944	9468.88
751.283	9444.92
751.621	9474.75
751.96	9414.87
752.298	9397.69
752.636	9446.73
752.975	9371.7
753.313	9358.6
753.651	9392.49
753.989	9305.94
754.327	9282.67
754.666	9197.7
755.004	9260.75
755.342	9289.67
755.679	9297.35
756.017	9171.26
756.355	9234.76
756.693	9161.76
757.031	9163.35
757.368	9068.21
757.706	9111.37
758.044	9057.13
758.381	9055.33
758.719	9020.98
759.056	9068.43
759.394	9008.32
759.731	8914.31
760.068	8945.73
760.405	8931.04
760.743	8918.38
761.08	8908.66
761.417	8791.38
761.754	8760.42
762.091	8815.11
762.428	8817.37
762.765	8703.25
763.102	8748.44
763.438	8718.39
763.775	8653.53
764.112	8688.56
764.449	8662.12
764.785	8643.59
765.122	8524.27
765.458	8494.21
765.795	8452.4
766.131	8613.08
766.467	8512.74
766.804	8480.65
767.14	8441.33
767.476	8444.27
767.812	8367.66
768.148	8449.92
768.485	8371.28
768.821	8305.29
769.157	8258.51
769.492	8259.64
769.828	8245.86
770.164	8206.54
770.5	8157.72
770.836	8189.59
771.171	8148.91
771.507	8089.02
771.842	7976.03
772.178	8060.32
772.513	8122.02
772.849	8023.49
773.184	7920.22
773.519	8005.41
773.855	7922.02
774.19	7901.46
774.525	7916.6
774.86	7837.73
775.195	7779.2
775.53	7791.86
775.865	7789.37
776.2	7719.54
776.535	7665.53
776.87	7698.75
777.205	7622.14
777.539	7596.16
777.874	7661.47
778.209	7473.45
778.543	7513.22
778.878	7444.75
779.212	7418.76
779.547	7369.27
779.881	7431.64
780.215	7360.23
780.55	7341.7
780.884	7364.75
781.218	7321.59
781.552	7300.8
781.886	7235.71
782.22	7263.74
782.554	7182.38
782.888	7124.3
783.222	7095.38
783.556	7085.44
783.889	7042.72
784.223	6983.06
784.557	6989.84
784.89	7056.28
785.224	6989.39
785.557	6918.21
785.891	6968.15
786.224	6913.46
786.558	6949.85
786.891	6920.24
787.224	6818.78
787.557	6855.16
787.891	6801.15
788.224	6848.15
788.557	6838.89
788.89	6787.82
789.223	6800.47
789.556	6744.65
789.888	6727.93
790.221	6643.64
790.554	6675.73
790.887	6667.14
791.219	6646.8
791.552	6595.28
791.884	6603.87
792.217	6625.79
792.549	6592.79
792.882	6563.19
793.214	6522.74
793.546	6527.71
793.879	6488.84
794.211	6470.31
794.543	6475.96
794.875	6437.54
795.207	6410.88
795.539	6423.76
795.871	6389.41
796.203	6373.82
796.535	6302.86
796.867	6303.31
797.198	6301.05
797.53	6278.68
797.862	6249.52
798.193	6234.16
798.525	6236.19
798.856	6230.32
799.188	6196.42
799.519	6118.45
799.85	6065.12
800.182	6134.05
800.513	6119.58
800.844	6040.94
801.175	6052.02
801.506	6010.66
801.837	6013.15
802.168	5968.85
802.499	5976.09
802.83	5954.84
803.161	5887.05
803.491	5930.21
803.822	5921.85
804.153	5903.32
804.483	5841.17
804.814	5830.55
805.145	5801.85
805.475	5793.72
805.805	5774.28
806.136	5767.28
806.466	5790.78
806.796	5733.38
807.126	5704.45
807.457	5706.94
807.787	5685.02
808.117	5685.92
808.447	5640.28
808.777	5663.55
809.107	5619.03
809.436	5638.69
809.766	5635.3
810.096	5597.56
810.426	5569.54
810.755	5595.08
811.085	5573.61
811.414	5532.93
811.744	5533.84
812.073	5510.34
812.403	5471.69
812.732	5447.51
813.061	5485.7
813.39	5487.06
813.719	5406.61
814.049	5456.33
814.378	5440.73
814.707	5477.57
815.036	5432.6
815.365	5421.75
815.693	5365.48
816.022	5418.36
816.351	5357.12
816.68	5352.37
817.008	5387.17
817.337	5334.75
817.665	5320.96
817.994	5320.51
818.322	5324.13
818.651	5324.13
818.979	5282.32
819.307	5332.26
819.636	5341.07
819.964	5251.36
820.292	5278.25
820.62	5259.49
820.948	5298.14
821.276	5281.19
821.604	5315.31
821.932	5235.99
822.259	5229.44
822.587	5291.13
822.915	5297.91
823.243	5218.59
823.57	5252.26
823.898	5266.73
824.225	5203
824.553	5200.96
824.88	5213.62
825.207	5225.37
825.535	5247.07
825.862	5211.13
826.189	5239.38
826.516	5175.43
826.843	5236.22
827.17	5227.63
827.497	5186.5
827.824	5149.44
828.151	5196.9
828.478	5217.69
828.805	5225.82
829.131	5163.45
829.458	5161.64
829.785	5133.17
830.111	5155.54
830.438	5196.22
830.764	5172.27
831.09	5189.44
831.417	5163.9
831.743	5179.27
832.069	5162.55
832.395	5172.94
832.722	5108.99
833.048	5148.99
833.374	5142.89
833.7	5130.46
834.026	5155.32
834.351	5188.99
834.677	5118.26
835.003	5123
835.329	5117.13
835.654	5104.92
835.98	5128.88
836.306	5077.8
836.631	5026.28
836.956	5090.91
837.282	5093.85
837.607	5073.96
837.932	5021.08
838.258	5072.38
838.583	5067.18
838.908	5025.15
839.233	5031.48
839.558	5042.55
839.883	5026.05
840.208	4987.41
840.533	4982.67
840.858	4965.04
841.182	4989.67
841.507	4987.41
841.832	4936.34
842.156	5003.91
842.481	4973.85
842.805	4910.35
843.13	4949.9
843.454	4913.29
843.778	4890.24
844.103	4859.5
844.427	4898.15
844.751	4856.57
845.075	4857.92
845.399	4829
845.723	4795.78
846.047	4809.34
846.371	4755.78
846.695	4809.11
847.019	4743.8
847.343	4769.79
847.666	4698.83
847.99	4706.74
848.313	4678.72
848.637	4664.03
848.96	4637.36
849.284	4627.42
849.607	4657.93
849.931	4657.7
850.254	4605.27
850.577	4605.05
850.9	4523.47
851.223	4531.38
851.546	4525.28
851.869	4478.27
852.192	4492.73
852.515	4481.21
852.838	4469.23
853.161	4442.57
853.483	4451.83
853.806	4429.91
854.129	4426.52
854.451	4409.8
854.774	4386.75
855.096	4384.04
855.419	4390.59
855.741	4402.57
856.063	4344.94
856.385	4340.87
856.708	4300.2
857.03	4325.28
857.352	4298.16
857.674	4299.97
857.996	4242.57
858.318	4201.22
858.64	4245.06
858.961	4281.89
859.283	4244.15
859.605	4189.01
859.926	4256.58
860.248	4209.13
860.57	4208.22
860.891	4192.86
861.212	4201.67
861.534	4202.8
861.855	4188.56
862.176	4149.02
862.498	4179.97
862.819	4168
863.14	4138.39
863.461	4149.92
863.782	4106.76
864.103	4106.76
864.424	4136.59
864.745	4169.58
865.065	4088.9
865.386	4080.54
865.707	4103.59
866.027	4078.51
866.348	4090.26
866.668	4057.27
866.989	4043.71
867.309	4041.67
867.63	4032.63
867.95	4014.33
868.27	4016.82
868.59	3968.23
868.91	4000.54
869.23	4025.85
869.55	3980.21
869.87	3981.11
870.19	3958.96
870.51	3968.91
870.83	3974.78
871.15	3966.42
871.469	3943.6
871.789	3956.48
872.109	3930.94
872.428	3894.11
872.748	3918.06
873.067	3918.06
873.386	3912.86
873.706	3889.81
874.025	3865.18
874.344	3863.15
874.663	3878.06
874.982	3848.91
875.301	3890.94
875.62	3836.93
875.939	3827.89
876.258	3852.53
876.577	3865.41
876.896	3809.14
877.214	3831.28
877.533	3866.99
877.852	3831.74
878.17	3817.05
878.489	3828.12
878.807	3838.74
879.125	3798.97
879.444	3856.82
879.762	3784.28
880.08	3798.97
880.398	3779.53
880.716	3764.17
881.034	3721
881.352	3772.08
881.67	3749.03
881.988	3745.86
882.306	3800.32
882.624	3732.3
882.941	3743.38
883.259	3745.41
883.577	3718.29
883.894	3723.04
884.212	3713.32
884.529	3733.88
884.846	3751.29
885.164	3720.33
885.481	3713.32
885.798	3709.48
886.115	3687.11
886.432	3714.45
886.75	3719.42
887.067	3689.37
887.383	3711.51
887.7	3679.2
888.017	3664.73
888.334	3675.58
888.651	3644.85
888.967	3644.17
889.284	3624.06
889.6	3614.79
889.917	3620.89
890.233	3596.04
890.55	3619.31
890.866	3624.74
891.182	3576.37
891.498	3577.96
891.815	3554
892.131	3561.69
892.447	3551.74
892.763	3524.62
893.079	3490.73
893.395	3514.68
893.71	3492.31
894.026	3476.94
894.342	3439.2
894.657	3425.42
894.973	3413.44
895.289	3400.33
895.604	3415.93
895.92	3400.79
896.235	3379.77
896.55	3407.11
896.865	3373.22
897.181	3333.67
897.496	3354.46
897.811	3327.57
898.126	3311.75
898.441	3303.16
898.756	3274.69
899.071	3263.39
899.386	3295.7
899.7	3237.4
900.015	3232.88
900.33	3206.67
900.644	3196.05
900.959	3180.23
901.273	3173.22
901.588	3184.07
901.902	3128.25
902.216	3071.53
902.531	3140.23
902.845	3076.95
903.159	3106.56
903.473	3104.3
903.787	3053
904.101	3040.8
904.415	3021.59
904.729	3017.75
905.042	3003.51
905.356	3007.58
905.67	2977.07
905.984	2977.97
906.297	2985.43
906.611	2968.26
906.924	2968.71
907.237	2943.17
907.551	2950.18
907.864	2976.84
908.177	2930.06
908.491	2906.79
908.804	2919.22
909.117	2925.54
909.43	2907.92
909.743	2880.57
910.056	2848.03
910.368	2869.73
910.681	2888.94
910.994	2805.55
911.307	2864.53
911.619	2840.58
911.932	2826.34
912.244	2805.77
912.557	2837.86
912.869	2832.21
913.181	2786.79
913.494	2784.76
913.806	2780.24
914.118	2805.1
914.43	2761.93
914.742	2768.26
915.054	2760.13
915.366	2745.66
915.678	2734.59
915.99	2723.52
916.302	2707.02
916.613	2716.96
916.925	2691.2
917.236	2733.23
917.548	2683.52
917.859	2699.56
918.171	2648.26
918.482	2685.1
918.794	2678.77
919.105	2667.02
919.416	2657.08
919.727	2662.5
920.038	2666.12
920.349	2603.07
920.66	2580.24
920.971	2644.65
921.282	2625.67
921.593	2592.67
921.903	2558.32
922.214	2591.09
922.525	2545.22
922.835	2519.68
923.146	2519.91
923.456	2531.43
923.767	2548.83
924.077	2540.92
924.387	2530.07
924.697	2540.24
925.008	2481.26
925.318	2472
925.628	2473.58
925.938	2474.26
926.248	2464.09
926.558	2458.66
926.867	2437.42
927.177	2451.21
927.487	2393.58
927.796	2378.44
928.106	2389.51
928.416	2370.3
928.725	2353.36
929.034	2313.36
929.344	2343.86
929.653	2326.46
929.962	2326.46
930.271	2307.03
930.581	2254.15
930.89	2285.34
931.199	2271.1
931.508	2239.01
931.817	2249.86
932.125	2217.54
932.434	2228.39
932.743	2213.47
933.051	2221.16
933.36	2191.1
933.669	2178.67
933.977	2151.1
934.286	2176.19
934.594	2143.42
934.902	2152.46
935.21	2125.34
935.519	2119.92
935.827	2093.25
936.135	2120.82
936.443	2094.61
936.751	2062.29
937.059	2053.93
937.367	2065.45
937.674	2054.61
937.982	2033.14
938.29	2016.87
938.597	2020.03
938.905	2025
939.213	2046.25
939.52	1990.65
939.827	1993.59
940.135	1995.17
940.442	1981.84
940.749	2008.96
941.056	1945.23
941.363	1965.12
941.67	1961.05
941.977	1966.25
942.284	1909.53
942.591	1913.14
942.898	1956.08
943.205	1939.36
943.511	1915.63
943.818	1920.83
944.125	1902.52
944.431	1896.87
944.738	1896.87
945.044	1893.48
945.35	1854.61
945.657	1870.66
945.963	1859.36
946.269	1848.96
946.575	1841.05
946.881	1841.28
947.187	1839.25
947.493	1865.23
947.799	1846.93
948.105	1850.32
948.41	1818.23
948.716	1866.82
949.022	1833.6
949.327	1843.99
949.633	1813.48
949.938	1786.59
950.244	1823.88
950.549	1778.46
950.854	1797.66
951.16	1812.58
951.465	1766.7
951.77	1773.94
952.075	1739.81
952.38	1768.51
952.685	1762.86
952.99	1792.24
953.294	1766.48
953.599	1740.94
953.904	1723.54
954.209	1737.1
954.513	1747.5
954.818	1748.85
955.122	1716.99
955.426	1694.39
955.731	1694.84
956.035	1684
956.339	1704.79
956.643	1686.26
956.948	1645.8
957.252	1673.83
957.556	1668.4
957.86	1628.86
958.163	1652.36
958.467	1621.4
958.771	1641.06
959.075	1619.82
959.378	1626.82
959.682	1635.63
959.985	1620.04
960.289	1600.16
960.592	1604.45
960.896	1603.09
961.199	1578.91
961.502	1566.03
961.805	1576.65
962.108	1547.28
962.411	1546.82
962.714	1515.41
963.017	1528.07
963.32	1541.17
963.623	1516.09
963.926	1502.98
964.228	1523.32
964.531	1485.81
964.833	1484
965.136	1468.86
965.438	1476.54
965.741	1453.04
966.043	1437.67
966.345	1448.07
966.648	1431.57
966.95	1434.51
967.252	1440.84
967.554	1431.12
967.856	1409.65
968.158	1426.83
968.46	1411.69
968.761	1367.62
969.063	1420.73
969.365	1374.62
969.666	1388.64
969.968	1404
970.269	1365.13
970.571	1350.67
970.872	1376.43
971.174	1334.17
971.475	1346.38
971.776	1344.34
972.077	1315.42
972.378	1303.21
972.679	1335.98
972.98	1327.39
973.281	1343.89
973.582	1307.96
973.883	1320.16
974.183	1284.46
974.484	1307.96
974.785	1286.72
975.085	1305.7
975.386	1299.82
975.686	1278.36
975.986	1282.65
976.287	1263.89
976.587	1305.25
976.887	1301.63
977.187	1265.48
977.487	1246.94
977.787	1258.92
978.087	1243.1
978.387	1238.36
978.687	1235.87
978.987	1258.02
979.286	1248.53
979.586	1247.62
979.885	1261.41
980.185	1208.98
980.484	1243.33
980.784	1223.67
981.083	1214.86
981.382	1225.7
981.682	1196.32
981.981	1197.68
982.28	1185.25
982.579	1218.47
982.878	1221.41
983.177	1215.98
983.475	1196.78
983.774	1182.99
984.073	1189.09
984.372	1160.85
984.67	1176.21
984.969	1190
985.267	1169.66
985.566	1162.88
985.864	1167.17
986.162	1153.39
986.461	1140.05
986.759	1131.47
987.057	1171.24
987.355	1133.73
987.653	1169.66
987.951	1127.17
988.249	1121.52
988.547	1130.79
988.844	1096.21
989.142	1122.2
989.44	1111.13
989.737	1101.86
990.035	1081.07
990.332	1126.27
990.63	1091.69
990.927	1115.2
991.224	1053.96
991.521	1099.15
991.819	1105.71
992.116	1094.86
992.413	1092.15
992.71	1066.61
993.006	1045.59
993.303	1062.54
993.6	1031.58
993.897	1050.79
994.193	1044.24
994.49	1062.32
994.787	1059.38
995.083	1021.41
995.379	1033.39
995.676	1029.78
995.972	1030.68
996.268	1012.6
996.565	1015.99
996.861	1004.92
997.157	985.93
997.453	1015.76
997.749	988.87
998.044	983.67
998.34	980.74
998.636	972.83
998.932	980.51
999.227	968.31
999.523	986.61
999.818	985.03
1000.114	942.55
1000.409	951.59
1000.704	933.96
1001	957.69
1001.295	970.34
1001.59	938.93
1001.885	948.2
1002.18	942.09
1002.475	928.99
1002.77	911.59
1003.065	907.74
1003.359	886.28
1003.654	919.72
1003.949	891.47
1004.243	916.33
1004.538	902.55
1004.832	881.08
1005.127	871.59
1005.421	898.93
1005.715	876.56
1006.009	863.9
1006.304	895.77
1006.598	867.75
1006.892	866.62
1007.186	854.64
1007.48	868.42
1007.773	863.45
1008.067	873.62
1008.361	830.68
1008.655	862.1
1008.948	854.19
1009.242	840.18
1009.535	797.69
1009.829	813.28
1010.122	832.94
1010.415	805.37
1010.708	807.86
1011.001	805.83
1011.295	809.89
1011.588	795.43
1011.881	819.84
1012.173	794.53
1012.466	798.14
1012.759	811.7
1013.052	788.43
1013.344	785.94
1013.637	768.77
1013.93	782.1
1014.222	773.28
1014.514	762.89
1014.807	766.73
1015.099	759.27
1015.391	786.39
1015.683	767.86
1015.976	753.62
1016.268	737.81
1016.56	741.65
1016.851	732.16
1017.143	716.79
1017.435	758.37
1017.727	743.46
1018.018	732.83
1018.31	748.88
1018.602	742.55
1018.893	707.3
1019.185	734.87
1019.476	711.14
1019.767	719.05
1020.058	704.13
1020.35	707.3
1020.641	699.16
1020.932	672.5
1021.223	711.37
1021.514	691.48
1021.804	691.93
1022.095	695.77
1022.386	686.28
1022.677	689.9
1022.967	671.14
1023.258	681.76
1023.548	677.24
1023.839	672.5
1024.129	679.73
1024.419	666.39
1024.709	684.7
1025	660.75
1025.29	690.35
1025.58	653.51
1025.87	656
1026.16	628.66
1026.449	653.51
1026.739	644.7
1027.029	632.72
1027.319	637.24
1027.608	648.09
1027.898	648.09
1028.187	634.98
1028.477	614.42
1028.766	611.71
1029.055	619.39
1029.344	618.94
1029.634	596.11
1029.923	628.66
1030.212	617.36
1030.501	620.75
1030.79	597.92
1031.078	572.16
1031.367	606.06
1031.656	604.7
1031.945	598.37
1032.233	625.72
1032.522	591.37
1032.81	587.07
1033.099	572.16
1033.387	570.8
1033.675	586.17
1033.963	572.39
1034.251	584.82
1034.54	581.2
1034.828	572.84
1035.116	544.82
1035.403	566.06
1035.691	548.21
1035.979	546.17
1036.267	553.4
1036.554	536.68
1036.842	546.17
1037.129	549.11
1037.417	548.21
1037.704	532.61
1037.992	540.97
1038.279	548.66
1038.566	519.51
1038.853	519.51
1039.14	519.51
