Data from foam1_polythene_foam_FLMS001491_00033.txt Node
Date: Wed Feb 08 10:54:44 GMT 2017
User: dcchb
Spectrometer: FLMS00149
Trigger mode: 0
Integration Time (sec): 2.000000E-2
Scans to average: 10
Electric dark correction enabled: true
Nonlinearity correction enabled: false
Boxcar width: 0
XAxis mode: Wavelengths
Number of Pixels in Spectrum: 2048
>>>>>Begin Spectral Data<<<<<
341.393	-1.53
341.776	-1.53
342.16	-1.53
342.543	-57.57
342.927	-82.88
343.31	-77.91
343.693	-60.05
344.077	-69.77
344.46	-69.09
344.843	-47.4
345.226	-31.13
345.61	-32.71
345.993	-19.15
346.376	7.97
346.759	23.78
347.142	19.49
347.525	48.64
347.908	51.35
348.291	79.83
348.674	68.3
349.057	107.85
349.44	106.72
349.823	151.01
350.206	159.6
350.588	178.81
350.971	192.37
351.354	206.6
351.737	224.23
352.119	238.69
352.502	233.95
352.884	250.45
353.267	264.68
353.65	270.33
354.032	282.08
354.414	275.3
354.797	311.01
355.179	294.51
355.562	278.02
355.944	313.95
356.326	300.39
356.709	319.14
357.091	325.47
357.473	332.03
357.855	316.43
358.238	315.3
358.62	325.02
359.002	312.36
359.384	302.87
359.766	323.89
360.148	319.6
360.53	328.64
360.912	323.66
361.294	321.18
361.676	303.78
362.057	314.62
362.439	298.58
362.821	306.49
363.203	324.79
363.584	318.24
363.966	305.81
364.348	327.73
364.729	296.77
365.111	309.43
365.493	294.29
365.874	290.9
366.256	305.81
366.637	275.3
367.019	283.44
367.4	288.18
367.781	295.64
368.163	302.87
368.544	280.5
368.925	307.62
369.306	315.53
369.688	293.83
370.069	308.97
370.45	304
370.831	298.13
371.212	304
371.593	295.64
371.974	306.04
372.355	311.01
372.736	314.17
373.117	291.12
373.498	279.15
373.879	290.44
374.26	306.26
374.641	280.95
375.021	312.14
375.402	310.56
375.783	302.65
376.163	293.61
376.544	291.35
376.925	307.17
377.305	302.42
377.686	318.47
378.066	296.09
378.447	313.95
378.827	315.98
379.208	316.43
379.588	332.03
379.968	332.25
380.349	320.95
380.729	302.87
381.109	313.04
381.489	317.56
381.87	315.08
382.25	306.04
382.63	309.2
383.01	306.72
383.39	336.54
383.77	327.28
384.15	325.7
384.53	313.95
384.91	313.72
385.29	334.28
385.67	328.64
386.049	329.77
386.429	323.66
386.809	323.21
387.189	328.64
387.568	332.03
387.948	327.96
388.328	323.44
388.707	346.04
389.087	336.32
389.466	331.8
389.846	317.34
390.225	333.83
390.605	330.44
390.984	342.65
391.363	341.74
391.743	354.85
392.122	355.98
392.501	346.04
392.881	357.34
393.26	358.69
393.639	329.77
394.018	346.26
394.397	337.67
394.776	355.3
395.155	356.88
395.534	348.97
395.913	351.69
396.292	348.52
396.671	343.55
397.05	354.62
397.429	352.59
397.808	356.21
398.186	359.82
398.565	361.18
398.944	342.87
399.323	350.1
399.701	373.38
400.08	372.25
400.458	367.5
400.837	377.9
401.215	367.05
401.594	355.98
401.972	375.41
402.351	376.09
402.729	356.21
403.107	373.83
403.486	381.52
403.864	393.04
404.242	387.16
404.62	376.09
404.999	384.91
405.377	369.31
405.755	385.36
406.133	398.92
406.511	374.28
406.889	389.88
407.267	392.36
407.645	377.9
408.023	403.89
408.401	400.27
408.779	400.5
409.156	396.2
409.534	408.63
409.912	397.79
410.29	414.51
410.667	405.7
411.045	395.53
411.422	424.45
411.8	410.22
412.178	402.31
412.555	396.43
412.933	429.2
413.31	424.68
413.687	418.58
414.065	428.97
414.442	413.38
414.819	424.23
415.197	436.43
415.574	438.92
415.951	448.18
416.328	435.07
416.705	440.27
417.082	416.54
417.46	446.82
417.837	450.21
418.214	460.38
418.591	452.02
418.967	409.09
419.344	465.35
419.721	456.77
420.098	452.7
420.475	447.73
420.852	457.22
421.228	439.59
421.605	471.46
421.982	460.84
422.358	477.78
422.735	485.69
423.111	487.28
423.488	484.11
423.864	485.02
424.241	486.6
424.617	477.56
424.994	484.34
425.37	475.3
425.746	483.89
426.123	495.64
426.499	488.86
426.875	515.75
427.251	506.03
427.627	506.48
428.003	504.45
428.379	518.46
428.756	495.64
429.132	501.06
429.507	533.15
429.883	525.24
430.259	526.82
430.635	557.78
431.011	545.13
431.387	534.73
431.763	534.96
432.138	553.26
432.514	558.69
432.89	565.01
433.265	555.97
433.641	562.53
434.016	575.63
434.392	580.15
434.767	579.25
435.143	592.13
435.518	587.84
435.894	594.62
436.269	590.55
436.644	600.27
437.02	589.65
437.395	589.87
437.77	615.63
438.145	643.66
438.52	627.16
438.895	649.98
439.271	633.49
439.646	653.15
440.021	626.48
440.395	639.81
440.77	624.45
441.145	616.54
441.52	644.33
441.895	638.23
442.27	680.72
442.645	662.64
443.019	649.3
443.394	661.73
443.769	679.59
444.143	685.91
444.518	701.06
444.892	654.5
445.267	705.8
445.641	694.73
446.016	712.13
446.39	725.01
446.764	702.41
447.139	714.39
447.513	711.9
447.887	716.87
448.262	738.34
448.636	718
449.01	731.79
449.384	749.19
449.758	750.55
450.132	752.58
450.506	752.81
450.88	772.01
451.254	762.97
451.628	749.64
452.002	792.8
452.376	805.23
452.75	788.06
453.123	809.53
453.497	821.05
453.871	807.49
454.244	793.26
454.618	797.32
454.992	826.48
455.365	805.23
455.739	830.54
456.112	838.23
456.486	836.87
456.859	830.77
457.232	844.1
457.606	837.32
457.979	860.82
458.352	837.32
458.725	840.49
459.099	849.3
459.472	847.27
459.845	889.75
460.218	877.55
460.591	880.03
460.964	866.7
461.337	915.51
461.71	897.43
462.083	915.51
462.456	905.57
462.829	891.78
463.201	919.13
463.574	900.37
463.947	923.87
464.32	951.22
464.692	952.12
465.065	961.84
465.438	921.84
465.81	948.51
466.183	963.2
466.555	1002.29
466.928	973.82
467.3	1007.94
467.672	998.22
468.045	996.41
468.417	1014.27
468.789	1011.1
469.161	998.22
469.534	1035.74
469.906	1045.9
470.278	1030.76
470.65	1060.59
471.022	1063.08
471.394	1089.97
471.766	1083.42
472.138	1076.86
472.51	1103.53
472.882	1139.46
473.253	1107.15
473.625	1136.52
473.997	1150.53
474.369	1138.78
474.74	1169.07
475.112	1180.82
475.484	1199.8
475.855	1193.02
476.227	1186.69
476.598	1237.31
476.97	1220.82
477.341	1256.75
477.713	1232.57
478.084	1253.58
478.455	1303.75
478.827	1296.52
479.198	1326.35
479.569	1350.76
479.94	1379.46
480.311	1374.03
480.682	1413.13
481.053	1463.75
481.424	1443.41
481.795	1461.49
482.166	1502.39
482.537	1460.13
482.908	1504.42
483.279	1516.63
483.65	1535.61
484.021	1558.66
484.391	1560.47
484.762	1554.59
485.133	1602.27
485.503	1617.42
485.874	1652.89
486.244	1668.71
486.615	1657.19
486.985	1696.28
487.356	1726.79
487.726	1736.73
488.097	1755.49
488.467	1746.45
488.837	1771.99
489.207	1820.12
489.578	1811.53
489.948	1857.41
490.318	1830.97
490.688	1861.48
491.058	1877.3
491.428	1900.12
491.798	1913.9
492.168	1969.5
492.538	1948.25
492.908	1978.08
493.278	1993.22
493.648	2010.63
494.017	2037.97
494.387	2034.58
494.757	2076.61
495.126	2067.12
495.496	2074.13
495.866	2131.3
496.235	2132.2
496.605	2118.87
496.974	2195.48
497.344	2179.21
497.713	2183.28
498.082	2195.93
498.452	2214.91
498.821	2202.48
499.19	2267.79
499.559	2287.23
499.928	2263.73
500.298	2303.95
500.667	2294.69
501.036	2284.52
501.405	2299.21
501.774	2341.46
502.143	2338.98
502.512	2345.31
502.88	2357.28
503.249	2371.97
503.618	2381.01
503.987	2414.68
504.356	2415.59
504.724	2455.81
505.093	2455.81
505.462	2460.78
505.83	2476.38
506.199	2501.01
506.567	2503.72
506.936	2511.63
507.304	2551.63
507.672	2557.5
508.041	2579.42
508.409	2583.72
508.777	2575.36
509.145	2640.67
509.514	2601.57
509.882	2631.85
510.25	2660.33
510.618	2700.32
510.986	2671.4
511.354	2713.43
511.722	2769.48
512.09	2716.14
512.458	2748.01
512.826	2779.19
513.193	2801.11
513.561	2813.32
513.929	2831.62
514.297	2843.6
514.664	2847.67
515.032	2854.9
515.4	2879.75
515.767	2917.27
516.135	2939.87
516.502	2931.73
516.869	2954.1
517.237	2993.42
517.604	2989.36
517.972	2999.53
518.339	3033.2
518.706	3006.53
519.073	3054.89
519.44	3065.29
519.808	3096.7
520.175	3094.89
520.542	3130.82
520.909	3138.51
521.276	3224.15
521.643	3222.57
522.009	3250.82
522.376	3242.23
522.743	3262.12
523.11	3268.67
523.477	3313.19
523.843	3323.58
524.21	3323.58
524.577	3364.71
524.943	3411.49
525.31	3419.18
525.676	3458.04
526.043	3455.78
526.409	3462.34
526.776	3499.85
527.142	3488.33
527.508	3540.53
527.874	3586.85
528.241	3564.26
528.607	3605.61
528.973	3635.67
529.339	3610.58
529.705	3653.07
530.071	3709.34
530.437	3701.88
530.803	3719.73
531.169	3741.43
531.535	3733.52
531.901	3757.02
532.267	3777.58
532.632	3787.3
532.998	3839.05
533.364	3834.98
533.73	3844.02
534.095	3883.57
534.461	3905.94
534.826	3880.18
535.192	3908.88
535.557	3946.85
535.923	3936.68
536.288	3955.43
536.653	3976.22
537.019	4000.63
537.384	4016.67
537.749	4033.62
538.114	3974.42
538.479	4016.45
538.845	4058.71
539.21	4070.68
539.575	4055.77
539.94	4059.61
540.305	4132.15
540.67	4112.26
541.034	4118.37
541.399	4121.76
541.764	4113.39
542.129	4165.82
542.494	4103.23
542.858	4197.23
543.223	4204.01
543.587	4229.1
543.952	4223.9
544.316	4197.23
544.681	4254.18
545.045	4277.91
545.41	4263.9
545.774	4269.55
546.138	4319.72
546.503	4299.6
546.867	4302.32
547.231	4339.15
547.595	4363.11
547.959	4340.96
548.324	4362.65
548.688	4353.16
549.052	4425.02
549.416	4401.07
549.779	4430.67
550.143	4440.84
550.507	4437.68
550.871	4471.35
551.235	4445.14
551.599	4511.12
551.962	4515.42
552.326	4525.36
552.689	4585.7
553.053	4596.09
553.417	4542.76
553.78	4590.9
554.143	4610.1
554.507	4634.74
554.87	4632.25
555.234	4678.13
555.597	4667.5
555.96	4695.53
556.323	4700.27
556.686	4751.34
557.05	4753.6
557.413	4805.58
557.776	4790.89
558.139	4787.5
558.502	4794.28
558.865	4839.48
559.228	4828.4
559.59	4908.4
559.953	4894.39
560.316	4934.62
560.679	4950.66
561.041	4975.29
561.404	5031.34
561.767	5062.97
562.129	4977.33
562.492	5036.31
562.854	5105.91
563.217	5062.52
563.579	5108.17
563.941	5151.33
564.304	5193.37
564.666	5189.07
565.028	5217.09
565.39	5205.12
565.753	5237.88
566.115	5267.94
566.477	5274.72
566.839	5273.14
567.201	5308.84
567.563	5337.32
567.925	5339.13
568.287	5342.06
568.648	5401.04
569.01	5359.69
569.372	5424.77
569.734	5440.37
570.095	5403.76
570.457	5478.1
570.819	5506.58
571.18	5482.85
571.542	5525.11
571.903	5535.73
572.265	5563.3
572.626	5583.41
572.987	5604.43
573.349	5654.37
573.71	5673.35
574.071	5665.44
574.432	5662.96
574.794	5693.24
575.155	5699.34
575.516	5701.15
575.877	5738.89
576.238	5721.94
576.599	5729.85
576.96	5706.12
577.32	5707.25
577.681	5709.06
578.042	5808.72
578.403	5789.06
578.763	5773.92
579.124	5788.6
579.485	5804.42
579.845	5805.55
580.206	5815.27
580.566	5818.89
580.927	5829.28
581.287	5867.02
581.648	5813.01
582.008	5890.75
582.368	5845.55
582.728	5858.66
583.089	5871.31
583.449	5854.37
583.809	5861.82
584.169	5846.46
584.529	5875.16
584.889	5877.42
585.249	5848.49
585.609	5855.04
585.969	5921.48
586.329	5815.72
586.688	5887.81
587.048	5857.98
587.408	5901.6
587.768	5895.72
588.127	5870.86
588.487	5860.02
588.846	5890.98
589.206	5838.55
589.565	5845.55
589.925	5859.11
590.284	5888.72
590.643	5895.27
591.003	5848.26
591.362	5914.48
591.721	5845.55
592.08	5912.9
592.44	5902.95
592.799	5913.57
593.158	5903.63
593.517	5911.31
593.876	5923.52
594.235	5897.3
594.593	5862.05
594.952	5879.22
595.311	5874.93
595.67	5844.87
596.029	5869.73
596.387	5885.33
596.746	5940.69
597.104	5884.2
597.463	5867.25
597.822	5917.19
598.18	5934.14
598.538	5863.63
598.897	5918.32
599.255	5940.92
599.613	5988.83
599.972	5910.64
600.33	5923.06
600.688	5940.24
601.046	5915.38
601.404	5991.76
601.762	5901.6
602.12	6021.82
602.478	5973.91
602.836	5922.39
603.194	5949.28
603.552	5932.33
603.91	5959
604.268	5957.19
604.625	5958.09
604.983	5993.8
605.341	5941.82
605.698	6003.29
606.056	5951.09
606.413	5955.38
606.771	5974.14
607.128	5985.21
607.485	5932.78
607.843	5956.74
608.2	5997.19
608.557	6027.02
608.914	5996.28
609.272	5963.52
609.629	6032.89
609.986	6026.11
610.343	6013.46
610.7	6013.68
611.057	6041.93
611.414	6022.27
611.771	6031.76
612.127	6053.68
612.484	6041.71
612.841	6057.52
613.198	6055.72
613.554	5999.67
613.911	6041.03
614.267	6061.14
614.624	6025.66
614.98	6048.71
615.337	6117.64
615.693	6060.46
616.05	6090.29
616.406	6079.44
616.762	6035.15
617.118	6059.56
617.475	6086.9
617.831	6081.03
618.187	6032.89
618.543	6066.34
618.899	6118.99
619.255	6109.27
619.611	6087.35
619.967	6095.04
620.323	6137.97
620.678	6122.16
621.034	6080.35
621.39	6080.12
621.746	6072.67
622.101	6137.07
622.457	6033.8
622.812	6098.2
623.168	6078.31
623.523	6059.33
623.879	6035.83
624.234	6025.21
624.589	6090.97
624.945	6104.08
625.3	6108.37
625.655	6098.88
626.01	6090.52
626.365	6054.59
626.72	6129.84
627.075	6064.76
627.43	6030.18
627.785	6009.62
628.14	6016.62
628.495	6079.67
628.85	5986.79
629.205	5999.22
629.559	6073.12
629.914	6020.24
630.269	6001.25
630.623	6016.17
630.978	5987.92
631.332	6031.08
631.687	6035.38
632.041	5975.94
632.396	6019.11
632.75	5945.89
633.104	5953.57
633.459	5931.2
633.813	5929.62
634.167	5970.29
634.521	5914.93
634.875	5927.81
635.229	5952.67
635.583	5868.6
635.937	5868.83
636.291	5868.83
636.645	5886.91
636.999	5887.36
637.352	5896.85
637.706	5854.14
638.06	5880.13
638.413	5818.89
638.767	5838.55
639.121	5798.55
639.474	5821.82
639.828	5817.3
640.181	5783.86
640.534	5790.41
640.888	5784.31
641.241	5767.14
641.594	5759.68
641.947	5783.63
642.301	5772.79
642.654	5754.26
643.007	5775.95
643.36	5692.11
643.713	5680.36
644.066	5712
644.419	5655.95
644.771	5591.55
645.124	5549.06
645.477	5513.58
645.83	5455.96
646.182	5476.07
646.535	5509.52
646.888	5514.94
647.24	5526.24
647.593	5524.21
647.945	5504.54
648.298	5481.95
648.65	5473.13
649.002	5459.12
649.355	5468.16
649.707	5434.04
650.059	5425.45
650.411	5462.29
650.763	5515.62
651.115	5543.41
651.467	5517.65
651.819	5560.59
652.171	5517.43
652.523	5509.52
652.875	5485.11
653.227	5494.83
653.578	5533.24
653.93	5526.24
654.282	5461.38
654.633	5409.63
654.985	5459.12
655.337	5464.32
655.688	5483.98
656.039	5452.34
656.391	5437.43
656.742	5497.31
657.094	5428.16
657.445	5438.56
657.796	5416.41
658.147	5455.51
658.498	5430.87
658.849	5372.8
659.2	5345
659.551	5379.8
659.902	5421.83
660.253	5360.14
660.604	5367.82
660.955	5333.02
661.306	5365.79
661.656	5375.96
662.007	5339.8
662.358	5330.54
662.708	5365.79
663.059	5403.3
663.409	5289.86
663.76	5341.16
664.11	5370.31
664.461	5380.25
664.811	5363.08
665.161	5346.36
665.511	5299.58
665.862	5356.75
666.212	5269.75
666.562	5322.4
666.912	5320.59
667.262	5305.45
667.612	5301.16
667.962	5285.79
668.312	5249.64
668.662	5325.11
669.011	5321.95
669.361	5307.26
669.711	5282.86
670.06	5266.58
670.41	5238.79
670.76	5254.61
671.109	5282.86
671.459	5267.26
671.808	5252.12
672.157	5224.55
672.507	5194.04
672.856	5221.39
673.205	5240.14
673.554	5212.8
673.904	5203.08
674.253	5222.07
674.602	5203.76
674.951	5132.35
675.3	5123.31
675.649	5136.42
675.998	5192.24
676.346	5130.09
676.695	5195.63
677.044	5138
677.393	5154.27
677.741	5181.39
678.09	5111.79
678.438	5131.67
678.787	5173.03
679.135	5097.1
679.484	5125.35
679.832	5116.53
680.181	5102.07
680.529	5121.96
680.877	5090.09
681.225	5107.72
681.573	5094.16
681.922	5068.62
682.27	5061.84
682.618	5081.5
682.966	5058
683.314	5079.02
683.661	5059.36
684.009	4978.68
684.357	5004.44
684.705	4994.5
685.053	5009.64
685.4	4962.19
685.748	4964.22
686.095	4948.4
686.443	4946.37
686.79	4933.26
687.138	4955.18
687.485	4899.14
687.832	4923.54
688.18	4924.67
688.527	4927.84
688.874	4886.26
689.221	4891.68
689.568	4886.26
689.915	4869.53
690.262	4863.43
690.609	4835.18
690.956	4810.1
691.303	4848.97
691.65	4797.22
691.997	4809.2
692.344	4772.36
692.69	4774.17
693.037	4748.86
693.383	4729.65
693.73	4709.54
694.077	4730.1
694.423	4686.49
694.769	4701.63
695.116	4684.23
695.462	4652.14
695.808	4644.45
696.155	4677.9
696.501	4653.49
696.847	4638.8
697.193	4612.14
697.539	4612.14
697.885	4563.55
698.231	4544.8
698.577	4539.6
698.923	4549.77
699.269	4521.75
699.614	4532.59
699.96	4529.2
700.306	4558.35
700.651	4474.52
700.997	4524.68
701.342	4508.64
701.688	4494.4
702.033	4455.08
702.379	4441.07
702.724	4433.84
703.069	4464.35
703.415	4389.55
703.76	4378.02
704.105	4382.54
704.45	4365.14
704.795	4280.17
705.14	4309.1
705.485	4338.93
705.83	4301.64
706.175	4365.14
706.52	4324.91
706.865	4292.6
707.209	4306.84
707.554	4272.49
707.899	4282.66
708.243	4257.12
708.588	4262.32
708.932	4170.12
709.277	4219.83
709.621	4247.85
709.966	4172.6
710.31	4203.56
710.654	4134.19
710.998	4171.02
711.342	4173.05
711.687	4120.4
712.031	4115.88
712.375	4117.01
712.719	4088.08
713.063	4150.23
713.407	4120.63
713.75	4118.14
714.094	4087.41
714.438	4100.97
714.782	4097.35
715.125	4051.7
715.469	4082.44
715.812	4062.1
716.156	4038.37
716.499	4023.23
716.843	4056.9
717.186	4030.46
717.53	4047.41
717.873	4024.58
718.216	3987.3
718.559	3952.95
718.902	3973.74
719.246	4012.15
719.589	3984.36
719.932	3966.73
720.275	3953.4
720.617	3925.15
720.96	3922.44
721.303	3966.96
721.646	3930.12
721.989	3901.42
722.331	3918.82
722.674	3885.83
723.016	3898.94
723.359	3923.34
723.701	3890.58
724.044	3844.25
724.386	3827.3
724.729	3880.18
725.071	3863.91
725.413	3861.65
725.755	3830.92
726.097	3823.91
726.439	3811.93
726.782	3827.98
727.124	3862.55
727.465	3783.01
727.807	3839.73
728.149	3842.44
728.491	3816.68
728.833	3809.9
729.175	3742.56
729.516	3765.38
729.858	3743.23
730.199	3787.3
730.541	3783.01
730.882	3741.65
731.224	3794.76
731.565	3778.26
731.906	3735.55
732.248	3751.14
732.589	3721.99
732.93	3737.59
733.271	3707.3
733.612	3714.31
733.953	3667.53
734.294	3728.32
734.635	3710.69
734.976	3708.21
735.317	3677.93
735.658	3707.98
735.999	3654.65
736.339	3644.03
736.68	3673.86
737.021	3662.79
737.361	3642.9
737.702	3678.83
738.042	3654.88
738.383	3666.85
738.723	3628.89
739.063	3571.94
739.404	3636.12
739.744	3625.72
740.084	3595.89
740.424	3637.93
740.764	3598.38
741.104	3587.53
741.444	3582.56
741.784	3546.63
742.124	3528.78
742.464	3573.07
742.804	3571.04
743.143	3539.62
743.483	3536.69
743.823	3541.88
744.162	3543.01
744.502	3562.67
744.841	3499.17
745.181	3526.97
745.52	3487.87
745.86	3518.38
746.199	3515.9
746.538	3476.12
746.877	3492.17
747.216	3533.75
747.556	3471.83
747.895	3480.87
748.234	3519.51
748.573	3501.43
748.911	3464.82
749.25	3454.43
749.589	3412.62
749.928	3443.36
750.267	3445.62
750.605	3460.98
750.944	3425.5
751.283	3429.57
751.621	3407.88
751.96	3391.61
752.298	3397.48
752.636	3429.12
752.975	3393.87
753.313	3379.85
753.651	3397.03
753.989	3387.76
754.327	3365.17
754.666	3383.92
755.004	3355
755.342	3324.49
755.679	3317.03
756.017	3308.9
756.355	3340.08
756.693	3296.02
757.031	3301.66
757.368	3273.64
757.706	3321.1
758.044	3257.15
758.381	3275
758.719	3252.85
759.056	3246.52
759.394	3277.48
759.731	3247.2
760.068	3248.56
760.405	3201.55
760.743	3238.62
761.08	3245.39
761.417	3187.77
761.754	3191.39
762.091	3152.74
762.428	3185.51
762.765	3196.58
763.102	3184.38
763.438	3152.74
763.775	3124.04
764.112	3155.23
764.449	3113.42
764.785	3121.56
765.122	3100.54
765.458	3142.12
765.795	3099.41
766.131	3081.78
766.467	3075.23
766.804	3071.61
767.14	3068
767.476	3063.48
767.812	3037.04
768.148	2981.9
768.485	3005.4
768.821	3028.68
769.157	3010.15
769.492	3031.16
769.828	2995.46
770.164	2972.63
770.5	2959.3
770.836	2981.67
771.171	2935.12
771.507	2958.17
771.842	2903.71
772.178	2921.11
772.513	2910.94
772.849	2916.14
773.184	2897.83
773.519	2853.31
773.855	2863.94
774.19	2852.41
774.525	2826.2
774.86	2842.69
775.195	2845.63
775.53	2800.43
775.865	2849.25
776.2	2817.61
776.535	2810.83
776.87	2773.09
777.205	2804.05
777.539	2769.02
777.874	2767.67
778.209	2738.52
778.543	2745.07
778.878	2716.37
779.212	2734.9
779.547	2736.48
779.881	2717.27
780.215	2707.33
780.55	2716.37
780.884	2705.07
781.218	2693.32
781.552	2691.06
781.886	2660.55
782.22	2697.16
782.554	2609.48
782.888	2643.83
783.222	2634.56
783.556	2595.92
783.889	2641.12
784.223	2593.89
784.557	2597.73
784.89	2598.86
785.224	2561.57
785.557	2549.37
785.891	2554.34
786.224	2526.54
786.558	2589.59
786.891	2523.61
787.224	2517.28
787.557	2561.57
787.891	2524.74
788.224	2524.06
788.557	2476.15
788.89	2473.89
789.223	2499.88
789.556	2494
789.888	2455.13
790.221	2468.47
790.554	2453.33
790.887	2438.64
791.219	2468.47
791.552	2428.24
791.884	2443.16
792.217	2424.4
792.549	2428.02
792.882	2390.73
793.214	2393.21
793.546	2368.81
793.879	2377.17
794.211	2369.03
794.543	2383.27
794.875	2355.93
795.207	2391.41
795.539	2381.69
795.871	2325.65
796.203	2338.98
796.535	2339.88
796.867	2341.69
797.198	2317.74
797.53	2320.9
797.862	2310.28
798.193	2311.86
798.525	2320.67
798.856	2280.22
799.188	2263.27
799.519	2254.91
799.85	2269.38
800.182	2251.52
800.513	2240.22
800.844	2236.61
801.175	2235.25
801.506	2220.56
801.837	2236.61
802.168	2212.65
802.499	2212.88
802.83	2208.36
803.161	2223.05
803.491	2240.22
803.822	2204.74
804.153	2204.74
804.483	2210.85
804.814	2196.38
805.145	2186.67
805.475	2186.44
805.805	2154.58
806.136	2176.27
806.466	2185.76
806.796	2160
807.126	2123.16
807.457	2149.83
807.787	2143.28
808.117	2105.31
808.447	2126.78
808.777	2121.13
809.107	2106.89
809.436	2108.25
809.766	2110.06
810.096	2084.52
810.426	2050.85
810.755	2120.68
811.085	2073
811.414	2101.7
811.744	2083.39
812.073	2071.87
812.403	2068.93
812.732	2032.32
813.061	2062.38
813.39	2035.94
813.719	2033.9
814.049	2040.45
814.378	2044.3
814.707	2006.33
815.036	2012.88
815.365	1976.05
815.693	1978.99
816.022	1999.33
816.351	2003.62
816.68	1975.82
817.008	2035.26
817.337	1983.73
817.665	1961.81
817.994	1977.41
818.322	1962.49
818.651	1970.63
818.979	1951.64
819.307	1934.47
819.636	1948.03
819.964	1969.5
820.292	1960.91
820.62	1950.51
820.948	1970.17
821.276	1947.58
821.604	1958.42
821.932	1966.78
822.259	1945.54
822.587	1955.49
822.915	1935.82
823.243	1954.13
823.57	1945.54
823.898	1947.35
824.225	1921.36
824.553	1955.49
824.88	1927.01
825.207	1984.86
825.535	1950.06
825.862	1969.27
826.189	1942.83
826.516	1963.17
826.843	1954.13
827.17	1936.73
827.497	1929.5
827.824	1928.59
828.151	1925.43
828.478	1938.54
828.805	1939.44
829.131	1931.31
829.458	1910.97
829.785	1905.54
830.111	1944.41
830.438	1932.44
830.764	1916.16
831.09	1926.79
831.417	1945.32
831.743	1950.06
832.069	1928.37
832.395	1938.54
832.722	1927.46
833.048	1966.11
833.374	1918.42
833.7	1908.48
834.026	1912.32
834.351	1930.4
834.677	1925.88
835.003	1930.85
835.329	1919.78
835.654	1917.07
835.98	1925.66
836.306	1917.52
836.631	1884.53
836.956	1911.64
837.282	1917.97
837.607	1900.12
837.932	1889.72
838.258	1878.2
838.583	1891.53
838.908	1875.49
839.233	1882.49
839.558	1891.76
839.883	1895.37
840.208	1860.35
840.533	1879.78
840.858	1863.74
841.182	1848.82
841.507	1874.36
841.832	1877.52
842.156	1846.56
842.481	1876.17
842.805	1874.81
843.13	1849.95
843.454	1836.17
843.778	1812.66
844.103	1833
844.427	1822.16
844.751	1838.2
845.075	1820.12
845.399	1814.02
845.723	1841.59
846.047	1796.17
846.371	1798.88
846.695	1777.64
847.019	1826.68
847.343	1757.52
847.666	1775.83
847.99	1752.1
848.313	1759.11
848.637	1756.17
848.96	1755.04
849.284	1720.46
849.607	1749.39
849.931	1745.77
850.254	1736.96
850.577	1746.45
850.9	1708.94
851.223	1737.86
851.546	1732.67
851.869	1750.07
852.192	1693.57
852.515	1716.85
852.838	1714.81
853.161	1698.32
853.483	1698.09
853.806	1696.74
854.129	1685.89
854.451	1638.43
854.774	1658.54
855.096	1655.38
855.419	1663.29
855.741	1671.42
856.063	1651.99
856.385	1640.69
856.708	1637.3
857.03	1644.31
857.352	1637.08
857.674	1647.02
857.996	1639.79
858.318	1620.13
858.64	1623.97
858.961	1632.78
859.283	1616.51
859.605	1619.22
859.926	1618.77
860.248	1610.41
860.57	1576.96
860.891	1602.95
861.212	1592.33
861.534	1586.23
861.855	1565.21
862.176	1620.8
862.498	1584.42
862.819	1613.12
863.14	1602.27
863.461	1582.16
863.782	1579.22
864.103	1539.68
864.424	1555.95
864.745	1570.18
865.065	1535.61
865.386	1551.65
865.707	1560.92
866.027	1553.91
866.348	1561.37
866.668	1557.08
866.989	1549.17
867.309	1548.04
867.63	1531.77
867.95	1531.99
868.27	1553.24
868.59	1570.18
868.91	1510.07
869.23	1517.08
869.55	1511.66
869.87	1520.24
870.19	1499.45
870.51	1531.99
870.83	1524.76
871.15	1490.64
871.469	1520.69
871.789	1516.63
872.109	1497.64
872.428	1485.67
872.748	1507.36
873.067	1519.56
873.386	1511.43
873.706	1458.55
874.025	1479.79
874.344	1495.16
874.663	1486.8
874.982	1514.37
875.301	1494.71
875.62	1497.64
875.939	1481.6
876.258	1494.03
876.577	1511.88
876.896	1491.99
877.214	1494.93
877.533	1481.83
877.852	1488.6
878.17	1475.72
878.489	1475.95
878.807	1447.93
879.125	1452.22
879.444	1438.21
879.762	1458.55
880.08	1467.14
880.398	1457.87
880.716	1475.5
881.034	1447.02
881.352	1447.02
881.67	1456.74
881.988	1443.18
882.306	1462.84
882.624	1439.79
882.941	1426.01
883.259	1422.39
883.577	1463.97
883.894	1442.05
884.212	1436.63
884.529	1409.28
884.846	1424.65
885.164	1394.37
885.481	1414.93
885.798	1387.82
886.115	1382.84
886.432	1418.32
886.75	1391.66
887.067	1404.09
887.383	1413.35
887.7	1393.01
888.017	1390.75
888.334	1384.65
888.651	1380.81
888.967	1372.68
889.284	1390.53
889.6	1388.49
889.917	1380.59
890.233	1373.13
890.55	1376.74
890.866	1374.03
891.182	1357.76
891.498	1360.25
891.815	1363.18
892.131	1350.08
892.447	1364.09
892.763	1351.89
893.079	1325.67
893.395	1331.55
893.71	1352.34
894.026	1347.59
894.342	1352.56
894.657	1349.4
894.973	1314.82
895.289	1307.59
895.604	1327.71
895.92	1314.6
896.235	1324.54
896.55	1343.52
896.865	1294.03
897.181	1278.21
897.496	1311.89
897.811	1289.97
898.126	1319.12
898.441	1311.66
898.756	1281.15
899.071	1268.5
899.386	1293.13
899.7	1268.05
900.015	1274.83
900.33	1260.81
900.644	1263.98
900.959	1274.6
901.273	1266.01
901.588	1271.44
901.902	1245.22
902.216	1278.67
902.531	1215.17
902.845	1231.21
903.159	1244.32
903.473	1245.9
903.787	1228.05
904.101	1247.48
904.415	1243.19
904.729	1186.69
905.042	1191.44
905.356	1202.74
905.67	1208.16
905.984	1211.55
906.297	1199.35
906.611	1204.32
906.924	1183.98
907.237	1174.71
907.551	1194.38
907.864	1181.49
908.177	1164.32
908.491	1190.08
908.804	1179.46
909.117	1171.33
909.43	1147.6
909.743	1159.12
910.056	1184.43
910.368	1138.33
910.681	1160.48
910.994	1130.65
911.307	1152.34
911.619	1117.32
911.932	1120.7
912.244	1131.78
912.557	1137.2
912.869	1136.3
913.181	1126.81
913.494	1141.27
913.806	1113.02
914.118	1126.81
914.43	1104.89
914.742	1101.5
915.054	1082.29
915.366	1088.39
915.678	1099.24
915.99	1096.98
916.302	1107.15
916.613	1084.1
916.925	1095.85
917.236	1071.67
917.548	1072.34
917.859	1080.48
918.171	1050.65
918.482	1083.87
918.794	1053.36
919.105	1064.44
919.416	1036.19
919.727	1037.32
920.038	1057.43
920.349	1054.72
920.66	1029.63
920.971	1024.89
921.282	1055.85
921.593	1015.62
921.903	1035.51
922.214	1014.27
922.525	992.35
922.835	1008.84
923.146	1032.8
923.456	1022.4
923.767	993.93
924.077	1002.97
924.387	983.76
924.697	989.18
925.008	983.99
925.318	978.56
925.628	964.78
925.938	985.79
926.248	992.12
926.558	989.41
926.867	936.98
927.177	962.52
927.487	972.01
927.796	974.72
928.106	965
928.416	978.79
928.725	968.17
929.034	965.68
929.344	947.83
929.653	946.7
929.962	938.56
930.271	943.31
930.581	946.25
930.89	930.43
931.199	947.38
931.508	920.71
931.817	930.43
932.125	902.63
932.434	929.52
932.743	943.53
933.051	920.03
933.36	928.39
933.669	929.52
933.977	917.09
934.286	920.26
934.594	900.82
934.902	892.24
935.21	912.8
935.519	883.65
935.827	884.55
936.135	905.34
936.443	893.14
936.751	900.6
937.059	891.11
937.367	896.08
937.674	869.41
937.982	894.72
938.29	862.41
938.597	858.11
938.905	853.14
939.213	870.54
939.52	839.13
939.827	866.93
940.135	881.84
940.442	853.59
940.749	833.93
941.056	869.41
941.363	838
941.67	844.55
941.977	845.68
942.284	826.93
942.591	848.62
942.898	832.58
943.205	863.54
943.511	851.56
943.818	807.27
944.125	824.44
944.431	838.68
944.738	830.09
945.044	850.66
945.35	812.01
945.657	795.74
945.963	816.08
946.269	803.88
946.575	812.69
946.881	800.71
947.187	799.81
947.493	794.39
947.799	796.42
948.105	814.5
948.41	796.87
948.716	786.48
949.022	792.8
949.327	797.1
949.633	819.7
949.938	778.57
950.244	814.05
950.549	780.37
950.854	776.53
951.16	772.92
951.465	785.12
951.77	776.31
952.075	747.38
952.38	766.36
952.685	756.65
952.99	760.94
953.294	773.37
953.599	741.05
953.904	753.71
954.209	742.18
954.513	748.96
954.818	759.36
955.122	749.87
955.426	774.5
955.731	717.55
956.035	725.01
956.339	764.33
956.643	742.18
956.948	761.17
957.252	732.92
957.556	734.05
957.86	729.3
958.163	699.7
958.467	711
958.771	732.24
959.075	710.55
959.378	706.93
959.682	746.03
959.985	708.29
960.289	726.37
960.592	699.93
960.896	718.46
961.199	697.44
961.502	701.96
961.805	733.82
962.108	712.81
962.411	704.22
962.714	666.48
963.017	687.04
963.32	682.52
963.623	675.52
963.926	688.4
964.228	678.23
964.531	693.82
964.833	678.91
965.136	672.36
965.438	683.88
965.741	681.39
966.043	687.27
966.345	701.51
966.648	678.68
966.95	677.33
967.252	666.93
967.554	682.52
967.856	688.63
968.158	651.79
968.46	668.29
968.761	655.18
969.063	680.49
969.365	666.93
969.666	656.99
969.968	662.41
970.269	647.5
970.571	666.93
970.872	672.13
971.174	650.89
971.475	633.49
971.776	646.14
972.077	679.13
972.378	651.79
972.679	645.69
972.98	646.14
973.281	644.33
973.582	631.23
973.883	646.37
974.183	635.97
974.484	614.05
974.785	606.59
975.085	608.85
975.386	619.93
975.686	601.17
975.986	614.05
976.287	636.2
976.587	612.24
976.887	614.96
977.187	615.86
977.487	637.78
977.787	624.22
978.087	619.48
978.387	606.14
978.687	628.74
978.987	593.49
979.286	614.05
979.586	617.22
979.885	621.96
980.185	608.18
980.484	619.7
980.784	605.24
981.083	596.42
981.382	583.32
981.682	589.65
981.981	578.8
982.28	598.23
982.579	571.34
982.878	580.61
983.177	593.49
983.475	573.83
983.774	569.76
984.073	573.6
984.372	599.36
984.67	583.32
984.969	575.63
985.267	551.23
985.566	579.48
985.864	567.73
986.162	572.24
986.461	572.92
986.759	577.89
987.057	562.75
987.355	549.42
987.653	565.24
987.951	571.34
988.249	563.66
988.547	565.69
988.844	546.71
989.142	539.25
989.44	552.13
989.737	554.17
990.035	541.06
990.332	575.63
990.63	518.23
990.927	554.17
991.224	548.06
991.521	541.51
991.819	539.25
992.116	547.39
992.413	554.17
992.71	566.37
993.006	558.23
993.303	532.47
993.6	535.86
993.897	552.13
994.193	549.87
994.49	553.94
994.787	522.08
995.083	536.77
995.379	532.02
995.676	515.98
995.972	530.89
996.268	535.18
996.565	530.44
996.861	511.91
997.157	531.57
997.453	529.99
997.749	546.26
998.044	530.66
998.34	513.26
998.636	490.44
998.932	506.48
999.227	522.3
999.523	513.72
999.818	515.07
1000.114	506.26
1000.409	518.91
1000.704	513.49
1001	509.2
1001.295	487.73
1001.59	510.1
1001.885	538.35
1002.18	509.42
1002.475	506.48
1002.77	506.94
1003.065	503.32
1003.359	516.88
1003.654	522.3
1003.949	515.52
1004.243	495.18
1004.538	496.54
1004.832	492.92
1005.127	502.64
1005.421	488.63
1005.715	488.86
1006.009	498.12
1006.304	497.9
1006.598	486.37
1006.892	511.23
1007.186	493.15
1007.48	491.79
1007.773	459.03
1008.067	469.65
1008.361	472.36
1008.655	482.08
1008.948	478.01
1009.242	483.21
1009.535	457.45
1009.829	478.46
1010.122	451.34
1010.415	478.91
1010.708	463.1
1011.001	467.16
1011.295	463.55
1011.588	482.76
1011.881	475.07
1012.173	487.5
1012.466	468.97
1012.759	471
1013.052	439.82
1013.344	453.6
1013.637	450.21
1013.93	465.35
1014.222	459.25
1014.514	466.26
1014.807	447.73
1015.099	457.67
1015.391	450.67
1015.683	454.51
1015.976	450.67
1016.268	451.8
1016.56	456.99
1016.851	441.63
1017.143	447.73
1017.435	451.8
1017.727	441.85
1018.018	439.82
1018.31	428.52
1018.602	435.53
1018.893	465.13
1019.185	450.89
1019.476	445.24
1019.767	435.07
1020.058	435.07
1020.35	426.71
1020.641	439.82
1020.932	432.14
1021.223	432.36
1021.514	421.29
1021.804	419.48
1022.095	433.27
1022.386	414.06
1022.677	418.58
1022.967	415.41
1023.258	401.18
1023.548	431.01
1023.839	422.64
1024.129	418.12
1024.419	435.3
1024.709	417.22
1025	412.48
1025.29	414.28
1025.58	433.49
1025.87	412.7
1026.16	403.66
1026.449	422.87
1026.739	407.5
1027.029	410.44
1027.319	414.06
1027.608	429.42
1027.898	402.98
1028.187	424.23
1028.477	414.28
1028.766	405.7
1029.055	419.71
1029.344	401.4
1029.634	387.84
1029.923	418.58
1030.212	423.32
1030.501	405.02
1030.79	400.05
1031.078	405.7
1031.367	398.69
1031.656	419.03
1031.945	397.11
1032.233	383.32
1032.522	411.35
1032.81	386.49
1033.099	403.66
1033.387	395.75
1033.675	395.07
1033.963	381.06
1034.251	388.75
1034.54	395.98
1034.828	383.78
1035.116	373.61
1035.403	386.71
1035.691	388.75
1035.979	367.5
1036.267	386.49
1036.554	397.33
1036.842	366.37
1037.129	360.95
1037.417	398.01
1037.704	365.47
1037.992	375.87
1038.279	386.26
1038.566	380.84
1038.853	380.84
1039.14	380.84
