Data from foam2_polystyrene_foam_FLMS001491_00081.txt Node
Date: Wed Feb 08 10:58:36 GMT 2017
User: dcchb
Spectrometer: FLMS00149
Trigger mode: 0
Integration Time (sec): 2.000000E-2
Scans to average: 10
Electric dark correction enabled: true
Nonlinearity correction enabled: false
Boxcar width: 0
XAxis mode: Wavelengths
Number of Pixels in Spectrum: 2048
>>>>>Begin Spectral Data<<<<<
341.393	-9.29
341.776	-9.29
342.16	-9.29
342.543	-41.84
342.927	-83.42
343.31	-70.76
343.693	-60.82
344.077	-51.55
344.46	-52.23
344.843	-49.97
345.226	-30.31
345.61	-21.95
345.993	-30.99
346.376	-15.85
346.759	6.98
347.142	30.48
347.525	39.07
347.908	54.89
348.291	69.12
348.674	84.04
349.057	99.86
349.44	143.24
349.823	126.07
350.206	176.01
350.588	210.36
350.971	219.85
351.354	232.51
351.737	256.69
352.119	262.79
352.502	261.21
352.884	289.46
353.267	300.3
353.65	288.55
354.032	294.43
354.414	322.9
354.797	332.84
355.179	333.3
355.562	327.87
355.944	347.53
356.326	360.87
356.709	362.9
357.091	338.95
357.473	347.53
357.855	357.7
358.238	371.26
358.62	334.88
359.002	344.37
359.384	363.35
359.766	361.32
360.148	345.27
360.53	353.63
360.912	357.48
361.294	365.16
361.676	362.67
362.057	347.53
362.439	347.76
362.821	337.36
363.203	345.95
363.584	355.89
363.966	349.57
364.348	345.73
364.729	365.39
365.111	337.14
365.493	350.92
365.874	353.41
366.256	362
366.637	351.6
367.019	346.4
367.4	350.25
367.781	368.78
368.163	332.62
368.544	337.36
368.925	352.5
369.306	346.18
369.688	354.99
370.069	345.5
370.45	328.32
370.831	355.67
371.212	372.62
371.593	347.08
371.974	353.18
372.355	372.62
372.736	357.02
373.117	359.96
373.498	385.95
373.879	359.28
374.26	346.18
374.641	361.32
375.021	361.54
375.402	379.62
375.783	367.65
376.163	376.23
376.544	404.93
376.925	407.64
377.305	392.96
377.686	402.9
378.066	397.48
378.447	387.31
378.827	401.77
379.208	414.42
379.588	410.13
379.968	400.41
380.349	389.57
380.729	397.93
381.109	409.68
381.489	424.14
381.87	413.97
382.25	416.91
382.63	450.58
383.01	403.12
383.39	450.81
383.77	429.56
384.15	435.89
384.53	432.05
384.91	449.45
385.29	452.84
385.67	454.42
386.049	476.34
386.429	455.1
386.809	470.02
387.189	462.78
387.568	475.44
387.948	494.42
388.328	468.89
388.707	471.6
389.087	493.29
389.466	503.01
389.846	479.06
390.225	503.46
390.605	503.69
390.984	520.18
391.363	521.31
391.743	515.89
392.122	493.07
392.501	539.62
392.881	540.07
393.26	521.31
393.639	541.43
394.018	549.11
394.397	563.12
394.776	542.1
395.155	546.4
395.534	573.29
395.913	550.24
396.292	567.87
396.671	572.61
397.05	569.9
397.429	579.84
397.808	597.02
398.186	589.79
398.565	619.62
398.944	604.25
399.323	613.06
399.701	597.47
400.08	616.23
400.458	601.31
400.837	632.72
401.215	631.37
401.594	631.37
401.972	636.57
402.351	642.89
402.729	632.72
403.107	671.14
403.486	668.2
403.864	674.76
404.242	684.93
404.62	686.51
404.999	713.17
405.377	692.38
405.755	707.3
406.133	720.18
406.511	728.31
406.889	744.58
407.267	716.11
407.645	744.36
408.023	762.66
408.401	729.44
408.779	745.04
409.156	769.9
409.534	773.74
409.912	780.97
410.29	786.84
410.667	786.39
411.045	815.09
411.422	815.32
411.8	831.81
412.178	843.11
412.555	868.65
412.933	856.45
413.31	853.51
413.687	871.36
414.065	903.22
414.442	918.37
414.819	928.76
415.197	935.09
415.574	953.84
415.951	948.2
416.328	947.07
416.705	934.64
417.082	959.95
417.46	964.24
417.837	971.47
418.214	987.06
418.591	1003.79
418.967	1026.16
419.344	1018.7
419.721	1023.45
420.098	1076.55
420.475	1056.44
420.852	1045.14
421.228	1089.21
421.605	1078.59
421.982	1088.08
422.358	1109.1
422.735	1109.1
423.111	1124.69
423.488	1107.74
423.864	1148.87
424.241	1152.71
424.617	1159.72
424.994	1180.05
425.37	1184.35
425.746	1188.87
426.123	1205.82
426.499	1211.92
426.875	1227.51
427.251	1265.25
427.627	1304.12
428.003	1298.92
428.379	1312.03
428.756	1329.65
429.132	1346.15
429.507	1331.24
429.883	1347.96
430.259	1401.29
430.635	1452.81
431.011	1402.42
431.387	1440.61
431.763	1456.88
432.138	1452.81
432.514	1497.11
432.89	1494.85
433.265	1537.78
433.641	1551.8
434.016	1550.67
434.392	1576.2
434.767	1624.11
435.143	1620.27
435.518	1602.19
435.894	1652.58
436.269	1673.83
436.644	1713.37
437.02	1706.14
437.395	1721.51
437.77	1744.56
438.145	1759.02
438.52	1778.23
438.895	1821.62
439.271	1814.16
439.646	1855.52
440.021	1859.58
440.395	1870.21
440.77	1885.8
441.145	1886.25
441.52	1907.49
441.895	1944.1
442.27	1966.02
442.645	1947.27
443.019	1972.58
443.394	1977.09
443.769	2009.86
444.143	2000.6
444.518	2031.56
444.892	2069.75
445.267	2101.61
445.641	2128.73
446.016	2111.78
446.39	2117.66
446.764	2149.52
447.139	2147.71
447.513	2139.8
447.887	2186.35
448.262	2205.79
448.636	2186.81
449.01	2254.15
449.384	2258.22
449.758	2278.78
450.132	2315.62
450.506	2309.52
450.88	2356.75
451.254	2366.69
451.628	2357.42
452.002	2399.46
452.376	2409.17
452.75	2462.28
453.123	2428.83
453.497	2478.55
453.871	2482.39
454.244	2570.98
454.618	2561.26
454.992	2632.44
455.365	2615.95
455.739	2667.7
456.112	2665.21
456.486	2726.23
456.859	2749.5
457.232	2788.37
457.606	2751.76
457.979	2818.43
458.352	2883.29
458.725	2894.81
459.099	2916.96
459.472	2980.91
459.845	2990.85
460.218	3082.83
460.591	3081.7
460.964	3078.99
461.337	3144.97
461.71	3175.93
462.083	3199.44
462.456	3224.75
462.829	3190.62
463.201	3292.77
463.574	3284.41
463.947	3311.52
464.32	3445.76
464.692	3447.79
465.065	3456.38
465.438	3564.62
465.81	3608.01
466.183	3630.16
466.555	3689.14
466.928	3718.74
467.3	3723.49
467.672	3776.37
468.045	3869.7
468.417	3843.71
468.789	3902.47
469.161	3931.85
469.534	4015.69
469.906	4118.73
470.278	4134.55
470.65	4190.14
471.022	4252.52
471.394	4311.27
471.766	4367.09
472.138	4427.88
472.51	4513.3
472.882	4542.68
473.253	4666.06
473.625	4689.79
473.997	4783.12
474.369	4819.73
474.74	4912.84
475.112	4953.74
475.484	5071.48
475.855	5128.65
476.227	5181.98
476.598	5299.95
476.97	5387.63
477.341	5511.69
477.713	5579.94
478.084	5567.73
478.455	5743.55
478.827	5787.16
479.198	5946.26
479.569	5955.3
479.94	6185.12
480.311	6178.11
480.682	6370.2
481.053	6448.16
481.424	6555.96
481.795	6558.9
482.166	6737.65
482.537	6819.45
482.908	6961.14
483.279	7019
483.65	7144.87
484.021	7268.03
484.391	7276.39
484.762	7458.76
485.133	7502.83
485.503	7641.8
485.874	7806.77
486.244	7846.55
486.615	8010.38
486.985	8135.35
487.356	8256.48
487.726	8311.62
488.097	8488.79
488.467	8541.44
488.837	8727.65
489.207	8821.21
489.578	8928.78
489.948	9018.04
490.318	9171.71
490.688	9216.23
491.058	9303.46
491.428	9492.15
491.798	9540.74
492.168	9796.1
492.538	9772.37
492.908	9899.82
493.278	9978.01
493.648	9981.18
494.017	10209.65
494.387	10209.87
494.757	10326.03
495.126	10470.43
495.496	10471.33
495.866	10556.53
496.235	10693.7
496.605	10786.58
496.974	10790.2
497.344	11027.48
497.713	11023.64
498.082	11120.58
498.452	11290.07
498.821	11344.98
499.19	11383.18
499.559	11465.66
499.928	11575.49
500.298	11643.28
500.667	11787.01
501.036	11781.81
501.405	11817.51
501.774	11897.74
502.143	12048.02
502.512	12078.52
502.88	12232.19
503.249	12261.12
503.618	12384.28
503.987	12405.3
504.356	12544.5
504.724	12537.95
505.093	12699.52
505.462	12730.94
505.83	12809.58
506.199	12969.8
506.567	13130.25
506.936	13043.92
507.304	13341.77
507.672	13397.59
508.041	13309.23
508.409	13471.26
508.777	13605.72
509.145	13818.82
509.514	13697.69
509.882	13903.11
510.25	13880.51
510.618	14007.74
510.986	14047.74
511.354	14245.02
511.722	14362.98
512.09	14499.7
512.458	14453.6
512.826	14679.59
513.193	14786.7
513.561	14728.62
513.929	14846.36
514.297	15091.33
514.664	15143.08
515.032	15231.21
515.4	15312.79
515.767	15424.65
516.135	15597.98
516.502	15481.6
516.869	15800.69
517.237	15840.01
517.604	15837.07
517.972	16013.34
518.339	16122.94
518.706	16233.9
519.073	16386.66
519.44	16459.2
519.808	16682.24
520.175	16563.38
520.542	16869.13
520.909	16996.14
521.276	16988.23
521.643	17331.49
522.009	17301.89
522.376	17465.95
522.743	17541.88
523.11	17822.33
523.477	17847.41
523.843	18129.89
524.21	18282.88
524.577	18493.95
524.943	18584.57
525.31	18648.52
525.676	18758.35
526.043	18879.02
526.409	18972.35
526.776	19272.91
527.142	19319.01
527.508	19455.96
527.874	19639
528.241	19740.7
528.607	19833.8
528.973	20032.44
529.339	20014.59
529.705	20230.17
530.071	20435.14
530.437	20484.18
530.803	20550.84
531.169	20760.1
531.535	20607.57
531.901	20850.27
532.267	20936.6
532.632	21052.53
532.998	21172.52
533.364	21270.15
533.73	21409.8
534.095	21598.95
534.461	21509.91
534.826	21788.78
535.192	21827.65
535.557	22032.16
535.923	22033.97
536.288	22131.14
536.653	22173.17
537.019	22214.53
537.384	22284.81
537.749	22430.34
538.114	22540.62
538.479	22543.33
538.845	22730.67
539.21	22696.1
539.575	22797.79
539.94	22873.95
540.305	23076.43
540.67	23066.03
541.034	23200.04
541.399	23153.94
541.764	23400.94
542.129	23358.91
542.494	23512.12
542.858	23565.45
543.223	23583.31
543.587	23801.83
543.952	23796.86
544.316	23922.05
544.681	23953.01
545.045	24145.78
545.41	24167.7
545.774	24268.94
546.138	24348.26
546.503	24372.44
546.867	24399.78
547.231	24698.31
547.595	24707.8
547.959	24663.05
548.324	24838.19
548.688	24844.06
549.052	24871.18
549.416	25079.54
549.779	25122.25
550.143	25152.76
550.507	25333.99
550.871	25353.66
551.235	25473.65
551.599	25681.78
551.962	25631.61
552.326	25827.54
552.689	25997.03
553.053	25840.42
553.417	25949.57
553.78	26337.58
554.143	26306.85
554.507	26370.13
554.87	26471.59
555.234	26736.44
555.597	26684.69
555.96	26785.26
556.323	26932.6
556.686	26959.71
557.05	27142.31
557.413	27213.95
557.776	27377.33
558.139	27481.96
558.502	27564.22
558.865	27721.95
559.228	27862.06
559.59	27888.96
559.953	27896.41
560.316	28265.67
560.679	28305.22
561.041	28474.48
561.404	28676.05
561.767	28724.64
562.129	28790.85
562.492	29196.04
562.854	29109.26
563.217	29238.07
563.579	29240.11
563.941	29370.27
564.304	29521.68
564.666	29816.14
565.028	29883.71
565.39	29947.66
565.753	30033.76
566.115	30176.35
566.477	30360.08
566.839	30454.76
567.201	30504.25
567.563	30566.4
567.925	30840.52
568.287	30838.26
568.648	30869.89
569.01	30947.18
569.372	31230.56
569.734	31063.79
570.095	31369.32
570.457	31548.97
570.819	31563.21
571.18	31517.79
571.542	31796.2
571.903	31768.18
572.265	31854.5
572.626	31956.65
572.987	32120.48
573.349	32145.12
573.71	32266.24
574.071	32403.64
574.432	32490.87
574.794	32670.3
575.155	32626.46
575.516	32540.59
575.877	32579.45
576.238	32788.04
576.599	32934.7
576.96	32951.2
577.32	32924.53
577.681	33034.36
578.042	33176.73
578.403	33243.84
578.763	33134.69
579.124	33272.77
579.485	33461.92
579.845	33597.28
580.206	33556.83
580.566	33447.91
580.927	33478.41
581.287	33569.94
581.648	33479.09
582.008	33643.83
582.368	33652.19
582.728	33709.14
583.089	33620.56
583.449	33575.81
583.809	33711.85
584.169	33595.92
584.529	33616.94
584.889	33876.6
585.249	33636.38
585.609	33589.6
585.969	33780.55
586.329	33833.66
586.688	33743.49
587.048	33825.07
587.408	33592.76
587.768	33703.04
588.127	33683.61
588.487	33658.52
588.846	33746.2
589.206	33559.54
589.565	33592.08
589.925	33851.51
590.284	33762.47
590.643	33721.8
591.003	33750.5
591.362	33864.62
591.721	33843.38
592.08	33835.47
592.44	33847.44
592.799	34015.8
593.158	33893.77
593.517	33860.78
593.876	33990.94
594.235	33944.39
594.593	34031.17
594.952	34078.62
595.311	33759.31
595.67	33881.11
596.029	34205.4
596.387	33976.93
596.746	34215.12
597.104	34014.44
597.463	34019.19
597.822	34187.77
598.18	33904.39
598.538	33956.82
598.897	34233.65
599.255	33922.47
599.613	34345.51
599.972	34185.06
600.33	34316.13
600.688	34287.88
601.046	34406.98
601.404	34706.86
601.762	34412.4
602.12	34579.18
602.478	34564.26
602.836	34679.51
603.194	34455.56
603.552	34547.54
603.91	34417.6
604.268	34643.58
604.625	34590.02
604.983	34652.17
605.341	34626.41
605.698	34732.62
606.056	34785.5
606.413	34816.46
606.771	34770.13
607.128	34823.69
607.485	34767.19
607.843	34752.96
608.2	34936.68
608.557	34977.13
608.914	34829.56
609.272	35063.46
609.629	35168.76
609.986	35132.83
610.343	35065.26
610.7	35328.53
611.057	35340.06
611.414	35252.6
611.771	35275.88
612.127	35446.05
612.484	35346.16
612.841	35468.19
613.198	35349.32
613.554	35462.09
613.911	35612.37
614.267	35503.22
614.624	35568.98
614.98	35524.01
615.337	35829.31
615.693	35645.81
616.05	35752.93
616.406	35869.76
616.762	35732.82
617.118	35794.28
617.475	35866.83
617.831	35939.14
618.187	35983.88
618.543	35988.18
618.899	36116.99
619.255	36169.87
619.611	36095.29
619.967	36156.31
620.323	36337.32
620.678	36061.85
621.034	36098.68
621.39	36017.1
621.746	36075.63
622.101	36521.05
622.457	36096.65
622.812	36281.5
623.168	36348.39
623.523	36320.6
623.879	36496.64
624.234	36142.3
624.589	36281.96
624.945	36389.52
625.3	36326.7
625.655	36293.71
626.01	36278.79
626.365	36424.78
626.72	36338
627.075	36344.33
627.43	36328.73
627.785	36220.71
628.14	36387.26
628.495	36329.19
628.85	36180.26
629.205	36145.01
629.559	36272.46
629.914	36131
630.269	36081.96
630.623	36048.74
630.978	35971.68
631.332	36189.75
631.687	36109.53
632.041	36043.54
632.396	36067.72
632.75	35876.77
633.104	36024.56
633.459	35966.71
633.813	35706.83
634.167	35733.04
634.521	35778.24
634.875	35756.55
635.229	35628.41
635.583	35538.02
635.937	35585.25
636.291	35475.42
636.645	35519.94
636.999	35422.09
637.352	35538.02
637.706	35242.21
638.06	35510.9
638.413	35209.22
638.767	35231.14
639.121	35218.03
639.474	35085.6
639.828	35020.75
640.181	35100.74
640.534	35085.38
640.888	35051.03
641.241	34757.02
641.594	34801.54
641.947	34931.26
642.301	34734.65
642.654	34761.77
643.007	34774.2
643.36	34668.44
643.713	34501.89
644.066	34853.74
644.419	34383.93
644.771	34246.98
645.124	34044.27
645.477	33925.86
645.83	33585.98
646.182	33512.76
646.535	33402.48
646.888	33493.55
647.24	33414.23
647.593	33497.85
647.945	33382.6
648.298	33265.54
648.65	33056.05
649.002	33048.59
649.355	33244.52
649.707	33204.75
650.059	33270.51
650.411	33560.9
650.763	33571.97
651.115	33967.44
651.467	33844.73
651.819	33804.05
652.171	33694.9
652.523	33659.88
652.875	33732.19
653.227	33450.84
653.578	33830.95
653.93	33682.02
654.282	33353.45
654.633	33306.21
654.985	33508.47
655.337	33489.49
655.688	33501.46
656.039	33513.44
656.391	33220.79
656.742	33451.07
657.094	33331.52
657.445	33345.76
657.796	33291.98
658.147	33225.54
658.498	33159.33
658.849	33341.24
659.2	33118.42
659.551	33141.7
659.902	33334.01
660.253	33055.6
660.604	33084.53
660.955	32946.22
661.306	33126.78
661.656	33079.1
662.007	33025.54
662.358	32892.44
662.708	33057.41
663.059	32840.92
663.409	32696.74
663.76	32930.86
664.11	32926.56
664.461	32985.32
664.811	32785.55
665.161	32775.16
665.511	32752.78
665.862	32772.9
666.212	32719.56
666.562	32824.19
666.912	32772.67
667.262	32656.97
667.612	32611.32
667.962	32781.26
668.312	32685.21
668.662	32776.29
669.011	32612
669.361	32619
669.711	32644.99
670.06	32539.68
670.41	32540.36
670.76	32489.51
671.109	32529.06
671.459	32466.69
671.808	32447.93
672.157	32536.52
672.507	32268.95
672.856	32239.8
673.205	32292
673.554	32374.49
673.904	32309.4
674.253	32417.88
674.602	32165.91
674.951	31739.7
675.3	31612.02
675.649	32016.98
675.998	32035.74
676.346	32012.92
676.695	32087.26
677.044	31763.66
677.393	31999.58
677.741	31908.96
678.09	31893.6
678.438	31715.07
678.787	31767.27
679.135	31803.66
679.484	31548.29
679.832	31768.18
680.181	31551.68
680.529	31589.65
680.877	31442.53
681.225	31534.51
681.573	31570.44
681.922	31463.1
682.27	31248.42
682.618	31271.92
682.966	31262.65
683.314	31330.22
683.661	31186.27
684.009	31005.48
684.357	31072.6
684.705	30946.73
685.053	31013.39
685.4	30814.98
685.748	30809.11
686.095	30716.9
686.443	30653.18
686.79	30639.84
687.138	30623.12
687.485	30657.92
687.832	30463.8
688.18	30410.02
688.527	30260.87
688.874	30153.08
689.221	30159.63
689.568	29989.69
689.915	29941.11
690.262	29984.27
690.609	29888.45
690.956	29813.65
691.303	29882.12
691.65	29570.49
691.997	29732.3
692.344	29427.67
692.69	29369.59
693.037	29301.12
693.383	29272.42
693.73	29370.27
694.077	29000.11
694.423	29107
694.769	28912.21
695.116	28852.09
695.462	28872.88
695.808	28747.69
696.155	28775.71
696.501	28500.47
696.847	28597.86
697.193	28396.29
697.539	28507.02
697.885	28289.17
698.231	28069.97
698.577	28194.71
698.923	28117.42
699.269	27996.98
699.614	27814.16
699.96	27854.61
700.306	27863.65
700.651	27602.64
700.997	27640.37
701.342	27548.17
701.688	27602.64
702.033	27561.51
702.379	27462.75
702.724	27370.55
703.069	27377.56
703.415	26995.19
703.76	27066.6
704.105	27191.8
704.45	27144.57
704.795	26934.86
705.14	26886.95
705.485	26773.73
705.83	26757.46
706.175	26765.14
706.52	26669.33
706.865	26506.39
707.209	26523.34
707.554	26393.85
707.899	26510.24
708.243	26256.68
708.588	26307.75
708.932	25980.53
709.277	26108.89
709.621	26110.47
709.966	25867.99
710.31	25963.58
710.654	25682.23
710.998	25813.53
711.342	25882.68
711.687	25762.23
712.031	25690.14
712.375	25519.75
712.719	25617.38
713.063	25409.93
713.407	25625.51
713.75	25526.53
714.094	25477.95
714.438	25332.64
714.782	25308.91
715.125	25156.82
715.469	25225.98
715.812	24950.95
716.156	24816.95
716.499	24898.53
716.843	24941.01
717.186	24758.64
717.53	24905.76
717.873	24896.94
718.216	24825.53
718.559	24595.48
718.902	24508.48
719.246	24636.39
719.589	24588.03
719.932	24447.92
720.275	24368.6
720.617	24313.23
720.96	24291.99
721.303	24336.73
721.646	24224.42
721.989	24131.99
722.331	24161.14
722.674	24200.01
723.016	24136.96
723.359	24107.59
723.701	24136.96
724.044	24000.24
724.386	23876.18
724.729	23916.86
725.071	23864.43
725.413	23874.6
725.755	23898.33
726.097	23726.35
726.439	23585.79
726.782	23592.57
727.124	23763.87
727.465	23537.66
727.807	23617.88
728.149	23449.52
728.491	23476.19
728.833	23494.5
729.175	23318.23
729.516	23335.63
729.858	23412.24
730.199	23369.07
730.541	23214.05
730.882	23356.19
731.224	23260.38
731.565	23129.31
731.906	23138.12
732.248	23113.26
732.589	23039.37
732.93	22966.15
733.271	23030.55
733.612	23046.6
733.953	23048.63
734.294	22975.19
734.635	22842.08
734.976	22850.44
735.317	22794.63
735.658	22672.37
735.999	22694.74
736.339	22825.36
736.68	22790.33
737.021	22703.33
737.361	22580.39
737.702	22889.31
738.042	22474.64
738.383	22516.67
738.723	22460.4
739.063	22476.67
739.404	22381.3
739.744	22445.94
740.084	22129.79
740.424	22273.28
740.764	22307.86
741.104	22314.19
741.444	22126.85
741.784	22144.47
742.124	22130.92
742.464	22088.43
742.804	22046.4
743.143	22014.31
743.483	21970.47
743.823	21869.91
744.162	21867.19
744.502	21932.28
744.841	21787.65
745.181	21975.67
745.52	21676.92
745.86	21779.51
746.199	21767.31
746.538	21716.46
746.877	21751.26
747.216	21728.44
747.556	21582.68
747.895	21608.67
748.234	21433.98
748.573	21511.95
748.911	21517.82
749.25	21493.19
749.589	21351.27
749.928	21369.13
750.267	21321.67
750.605	21308.56
750.944	21407.09
751.283	21249.13
751.621	21222.01
751.96	21165.52
752.298	21092.52
752.636	21140.43
752.975	20975.92
753.313	20935.24
753.651	21033.32
753.989	20859.54
754.327	20874
754.666	20782.48
755.004	20836.71
755.342	20776.37
755.679	20799.42
756.017	20600.56
756.355	20606.66
756.693	20485.53
757.031	20522.37
757.368	20434.01
757.706	20412.09
758.044	20367.35
758.381	20304.75
758.719	20259.78
759.056	20232.66
759.394	20243.06
759.731	19995.83
760.068	20158.54
760.405	19980.01
760.743	19811.65
761.08	19872.22
761.417	19786.12
761.754	19713.35
762.091	19717.65
762.428	19706.57
762.765	19576.63
763.102	19610.76
763.438	19373.47
763.775	19316.07
764.112	19375.73
764.449	19318.11
764.785	19179.35
765.122	19118.57
765.458	19084.89
765.795	19009.42
766.131	19062.75
766.467	18989.08
766.804	18874.5
767.14	18810.55
767.476	18818.69
767.812	18812.81
768.148	18858.68
768.485	18641.29
768.821	18450.79
769.157	18430.67
769.492	18315.2
769.828	18457.57
770.164	18270.68
770.5	18187.06
770.836	18181.41
771.171	18174.86
771.507	18023.23
771.842	17931.25
772.178	17937.58
772.513	17889.9
772.849	17789.56
773.184	17759.73
773.519	17674.08
773.855	17639.96
774.19	17621.66
774.525	17506.18
774.86	17422.56
775.195	17373.07
775.53	17208.11
775.865	17105.96
776.2	17111.61
776.535	16975.12
776.87	17053.99
777.205	16921.79
777.539	16952.52
777.874	16861.9
778.209	16671.85
778.543	16664.62
778.878	16626.88
779.212	16585.75
779.547	16491.52
779.881	16513.66
780.215	16447.45
780.55	16422.59
780.884	16347.56
781.218	16150.28
781.552	16216.04
781.886	16073.22
782.22	16157.96
782.554	15984.86
782.888	15797.97
783.222	15781.25
783.556	15735.15
783.889	15695.38
784.223	15687.47
784.557	15624.65
784.89	15678.88
785.224	15548.72
785.557	15480.02
785.891	15374.71
786.224	15387.82
786.558	15355.5
786.891	15215.16
787.224	15186.01
787.557	15056.98
787.891	15012.91
788.224	15150.31
788.557	15014.72
788.89	15011.78
789.223	14962.97
789.556	14764.1
789.888	14746.25
790.221	14639.81
790.554	14566.37
790.887	14604.33
791.219	14522.75
791.552	14502.19
791.884	14394.17
792.217	14431.23
792.549	14398.46
792.882	14198.69
793.214	14164.8
793.546	14180.16
793.879	14108.98
794.211	14076.66
794.543	14194.85
794.875	14021.3
795.207	14034.86
795.539	13917.57
795.871	13923.22
796.203	13776.33
796.535	13751.47
796.867	13713.96
797.198	13604.59
797.53	13655.88
797.862	13570.24
798.193	13482.78
798.525	13446.17
798.856	13470.13
799.188	13461.99
799.519	13295.44
799.85	13200.08
800.182	13238.95
800.513	13262.9
800.844	13112.17
801.175	13185.16
801.506	13080.98
801.837	12974.09
802.168	13098.61
802.499	12950.14
802.83	12945.17
803.161	12927.77
803.491	12867.2
803.822	12790.6
804.153	12856.36
804.483	12639.87
804.814	12644.61
805.145	12622.24
805.475	12595.35
805.805	12531.39
806.136	12569.13
806.466	12454.11
806.796	12526.65
807.126	12339.99
807.457	12340.44
807.787	12369.59
808.117	12351.74
808.447	12258.86
808.777	12325.07
809.107	12197.62
809.436	12215.24
809.766	12130.27
810.096	12107
810.426	12103.38
810.755	12090.95
811.085	12031.97
811.414	12002.14
811.744	11953.78
812.073	11913.1
812.403	11940.67
812.732	11874.46
813.061	11826.55
813.39	11766.44
813.719	11774.58
814.049	11767.8
814.378	11739.1
814.707	11701.36
815.036	11615.94
815.365	11587.69
815.693	11506.56
816.022	11453.23
816.351	11489.61
816.68	11386.34
817.008	11440.35
817.337	11344.76
817.665	11349.73
817.994	11366.23
818.322	11351.76
818.651	11258.21
818.979	11226.8
819.307	11234.25
819.636	11154.71
819.964	11136.4
820.292	11145.44
820.62	11098.44
820.948	11155.16
821.276	11097.76
821.604	11085.78
821.932	11107.7
822.259	11034.94
822.587	11127.59
822.915	11044.88
823.243	11147.48
823.57	11146.57
823.898	11150.64
824.225	10987.25
824.553	11110.19
824.88	11083.3
825.207	11150.64
825.535	11177.53
825.862	11148.15
826.189	11035.16
826.516	11118.1
826.843	11155.16
827.17	11132.11
827.497	11139.57
827.824	11029.74
828.151	11148.15
828.478	11054.6
828.805	11104.99
829.131	11173.24
829.458	11081.49
829.785	10983.64
830.111	11072
830.438	11149.74
830.764	11086.01
831.09	11001.94
831.417	10911.32
831.743	11045.56
832.069	11054.82
832.395	10977.31
832.722	11016.41
833.048	10972.79
833.374	11026.12
833.7	10927.59
834.026	10976.41
834.351	10983.64
834.677	10961.49
835.003	11016.18
835.329	10981.83
835.654	10942.73
835.98	10896.86
836.306	10877.43
836.631	10889.18
836.956	10862.96
837.282	10883.53
837.607	10822.06
837.932	10794.72
838.258	10765.56
838.583	10741.84
838.908	10726.92
839.233	10754.72
839.558	10685.11
839.883	10636.98
840.208	10584.55
840.533	10661.16
840.858	10589.98
841.182	10634.95
841.507	10600.15
841.832	10525.12
842.156	10515.18
842.481	10539.58
842.805	10548.39
843.13	10449.19
843.454	10441.96
843.778	10387.04
844.103	10321.73
844.427	10300.27
844.751	10312.02
845.075	10329.42
845.399	10220.49
845.723	10237.44
846.047	10215.52
846.371	10118.35
846.695	10074.28
847.019	10041.06
847.343	9953.61
847.666	9930.33
847.99	9871.58
848.313	9871.35
848.637	9775.31
848.96	9822.54
849.284	9799.26
849.607	9717.46
849.931	9765.14
850.254	9604.01
850.577	9644.24
850.9	9485.6
851.223	9557.91
851.546	9441.98
851.869	9432.72
852.192	9463.45
852.515	9356.56
852.838	9348.2
853.161	9298.94
853.483	9315.66
853.806	9249.67
854.129	9266.85
854.451	9258.03
854.774	9253.06
855.096	9164.7
855.419	9112.27
855.741	9119.51
856.063	9079.96
856.385	9075.89
856.708	9023.24
857.03	8970.81
857.352	8937.36
857.674	8967.19
857.996	8948.44
858.318	8915.22
858.64	8907.31
858.961	8922
859.283	8819.4
859.605	8787.31
859.926	8824.82
860.248	8763.81
860.57	8732.85
860.891	8692.85
861.212	8683.36
861.534	8660.08
861.855	8625.28
862.176	8645.39
862.498	8651.5
862.819	8689.91
863.14	8575.11
863.461	8597.26
863.782	8545.51
864.103	8515
864.424	8542.57
864.745	8576.24
865.065	8543.93
865.386	8448.34
865.707	8453.99
866.027	8463.93
866.348	8389.58
866.668	8442.24
866.989	8370.6
867.309	8348.45
867.63	8349.13
867.95	8317.27
868.27	8288.79
868.59	8276.14
868.91	8286.31
869.23	8323.59
869.55	8245.86
869.87	8262.13
870.19	8249.7
870.51	8180.32
870.83	8229.81
871.15	8228.23
871.469	8220.55
871.789	8264.84
872.109	8194.78
872.428	8119.53
872.748	8139.42
873.067	8168.12
873.386	8148.68
873.706	8155.46
874.025	8097.39
874.344	8081.34
874.663	8147.33
874.982	7998.63
875.301	8080.44
875.62	8014.68
875.939	8001.57
876.258	8027.56
876.577	7976.49
876.896	7989.82
877.214	7970.84
877.533	7964.73
877.852	7942.81
878.17	7902.14
878.489	7965.64
878.807	7922.48
879.125	7943.94
879.444	7865.53
879.762	7845.64
880.08	7854.45
880.398	7828.92
880.716	7886.32
881.034	7804.06
881.352	7865.75
881.67	7763.16
881.988	7787.34
882.306	7750.5
882.624	7817.17
882.941	7766.55
883.259	7720.22
883.577	7738.07
883.894	7629.38
884.212	7615.14
884.529	7690.84
884.846	7677.74
885.164	7605.87
885.481	7642.48
885.798	7662.37
886.115	7536.5
886.432	7553.67
886.75	7498.76
887.067	7532.2
887.383	7439.55
887.7	7477.52
888.017	7438.42
888.334	7428.03
888.651	7401.81
888.967	7376.73
889.284	7351.42
889.6	7320.46
889.917	7301.7
890.233	7292.66
890.55	7270.52
890.866	7280.68
891.182	7272.1
891.498	7262.61
891.815	7235.26
892.131	7166.79
892.447	7151.65
892.763	7128.6
893.079	7143.29
893.395	7099.45
893.71	7119.11
894.026	7118.88
894.342	7080.01
894.657	7077.07
894.973	7020.8
895.289	6964.76
895.604	6997.75
895.92	7011.31
896.235	6974.25
896.55	6901.71
896.865	6881.82
897.181	6880.02
897.496	6847.25
897.811	6798.44
898.126	6789.4
898.441	6747.82
898.756	6727.48
899.071	6743.98
899.386	6756.4
899.7	6655.84
900.015	6660.36
900.33	6642.96
900.644	6563.19
900.959	6595.28
901.273	6587.6
901.588	6523.87
901.902	6500.82
902.216	6483.19
902.531	6458.11
902.845	6433.02
903.159	6397.32
903.473	6358.67
903.787	6379.01
904.101	6316.19
904.415	6360.03
904.729	6295.4
905.042	6350.09
905.356	6227.83
905.67	6289.75
905.984	6212.24
906.297	6165.91
906.611	6149.41
906.924	6169.08
907.237	6194.84
907.551	6112.13
907.864	6064.22
908.177	6098.34
908.491	6008.18
908.804	5974.28
909.117	5943.09
909.43	5950.55
909.743	5913.26
910.056	5992.81
910.368	5889.76
910.681	5853.38
910.994	5815.41
911.307	5803.43
911.619	5804.34
911.932	5838.24
912.244	5797.33
912.557	5738.13
912.869	5714.4
913.181	5708.52
913.494	5643.67
913.806	5639.15
914.118	5640.73
914.43	5607.96
914.742	5607.73
915.054	5574.97
915.366	5565.7
915.678	5495.19
915.99	5438.92
916.302	5405.93
916.613	5432.37
916.925	5424.69
917.236	5418.59
917.548	5395.08
917.859	5367.06
918.171	5366.38
918.482	5353.05
918.794	5304.24
919.105	5292.49
919.416	5203.9
919.727	5210.46
920.038	5139.27
920.349	5154.41
920.66	5165.03
920.971	5174.75
921.282	5103.34
921.593	5139.72
921.903	5082.78
922.214	5108.09
922.525	5064.02
922.835	4972.72
923.146	4992.83
923.456	4981.76
923.767	4941.76
924.077	4956.9
924.387	4917.81
924.697	4904.25
925.008	4905.15
925.318	4871.48
925.628	4856.12
925.938	4807.53
926.248	4812.27
926.558	4760.07
926.867	4752.62
927.177	4761.43
927.487	4708.1
927.796	4716.68
928.106	4662.67
928.416	4646.86
928.725	4663.8
929.034	4618.61
929.344	4630.81
929.653	4583.35
929.962	4554.65
930.271	4583.58
930.581	4517.82
930.89	4486.18
931.199	4496.58
931.508	4495.9
931.817	4474.43
932.125	4388.1
932.434	4428.33
932.743	4380.65
933.051	4369.8
933.36	4362.79
933.669	4332.97
933.977	4316.24
934.286	4327.77
934.594	4300.42
934.902	4292.29
935.21	4223.59
935.519	4254.55
935.827	4175.23
936.135	4189.24
936.443	4099.98
936.751	4181.56
937.059	4160.31
937.367	4137.04
937.674	4139.98
937.982	4094.33
938.29	4101.11
938.597	4086.87
938.905	4046.19
939.213	4005.29
939.52	4026.08
939.827	4040.09
940.135	3985.63
940.442	3961.45
940.749	4001.22
941.056	3941.56
941.363	3951.28
941.67	3953.09
941.977	3881
942.284	3847.1
942.591	3845.97
942.898	3843.71
943.205	3815.24
943.511	3817.95
943.818	3809.36
944.125	3747.9
944.431	3740.66
944.738	3773.66
945.044	3725.98
945.35	3760.32
945.657	3688.91
945.963	3693.66
946.269	3686.65
946.575	3714.22
946.881	3643.72
947.187	3617.73
947.493	3612.31
947.799	3598.97
948.105	3544.29
948.41	3557.84
948.716	3576.6
949.022	3525.75
949.327	3534.57
949.633	3470.16
949.938	3475.13
950.244	3449.6
950.549	3429.71
950.854	3431.97
951.16	3416.61
951.465	3436.04
951.77	3416.83
952.075	3389.71
952.38	3362.6
952.685	3384.29
952.99	3331.64
953.294	3320.34
953.599	3242.82
953.904	3286.21
954.209	3266.33
954.513	3298.19
954.818	3224.29
955.122	3267.23
955.426	3223.39
955.731	3228.59
956.035	3156.5
956.339	3175.48
956.643	3197.4
956.948	3152.21
957.252	3138.42
957.556	3171.87
957.86	3115.6
958.163	3100.23
958.467	3087.8
958.771	3089.61
959.075	3065.2
959.378	3052.32
959.682	3054.81
959.985	3040.8
960.289	3054.13
960.592	3004.64
960.896	3009.16
961.199	2997.86
961.502	2992.21
961.805	2973.68
962.108	2936.39
962.411	2954.92
962.714	2931.19
963.017	2929.84
963.32	2909.95
963.623	2878.99
963.926	2872.89
964.228	2869.5
964.531	2812.33
964.833	2830.18
965.136	2808.71
965.438	2808.49
965.741	2798.99
966.043	2775.04
966.345	2789.28
966.648	2781.14
966.95	2726.91
967.252	2723.29
967.554	2717.87
967.856	2715.83
968.158	2692.78
968.46	2705.89
968.761	2668.6
969.063	2685.1
969.365	2671.77
969.666	2638.09
969.968	2630.86
970.269	2615.5
970.571	2593.12
970.872	2609.62
971.174	2594.71
971.475	2588.83
971.776	2570.75
972.077	2569.85
972.378	2541.15
972.679	2576.63
972.98	2514.26
973.281	2537.76
973.582	2519.23
973.883	2510.87
974.183	2488.27
974.484	2467.7
974.785	2460.02
975.085	2442.39
975.386	2480.36
975.686	2450.3
975.986	2428.83
976.287	2413.02
976.587	2409.17
976.887	2385.45
977.187	2417.54
977.487	2368.95
977.787	2379.8
978.087	2408.5
978.387	2351.77
978.687	2355.39
978.987	2334.37
979.286	2314.26
979.586	2298.44
979.885	2288.73
980.185	2291.21
980.484	2271.55
980.784	2264.32
981.083	2268.61
981.382	2266.13
981.682	2260.25
981.981	2222.96
982.28	2257.54
982.579	2222.96
982.878	2227.48
983.177	2208.5
983.475	2215.28
983.774	2171.44
984.073	2177.32
984.372	2138.22
984.67	2149.29
984.969	2132.57
985.267	2152.91
985.566	2098.22
985.864	2113.59
986.162	2081.95
986.461	2082.4
986.759	2077.88
987.057	2018.45
987.355	2048.05
987.653	2046.25
987.951	2037.66
988.249	2025
988.547	2005.57
988.844	2011.9
989.142	2011.22
989.44	1969.41
989.737	1999.47
990.035	1984.33
990.332	1959.92
990.63	1967.6
990.927	1941.16
991.224	1957.21
991.521	1930.09
991.819	1937.55
992.116	1898.45
992.413	1901.16
992.71	1881.73
993.006	1891.22
993.303	1886.7
993.6	1872.92
993.897	1840.15
994.193	1854.16
994.49	1853.48
994.787	1850.09
995.083	1815.74
995.379	1817.55
995.676	1821.39
995.972	1825.69
996.268	1794.73
996.565	1817.78
996.861	1782.75
997.157	1781.17
997.453	1763.54
997.749	1774.16
998.044	1725.35
998.34	1754.73
998.636	1756.08
998.932	1705.46
999.227	1721.96
999.523	1718.57
999.818	1676.09
1000.114	1670.89
1000.409	1662.98
1000.704	1678.35
1001	1688.29
1001.295	1663.88
1001.59	1653.94
1001.885	1623.43
1002.18	1639.25
1002.475	1631.34
1002.77	1603.55
1003.065	1593.83
1003.359	1615.52
1003.654	1612.36
1003.949	1596.99
1004.243	1585.24
1004.538	1571
1004.832	1553.83
1005.127	1536.43
1005.421	1539.14
1005.715	1550.67
1006.009	1511.57
1006.304	1535.98
1006.598	1493.49
1006.892	1511.12
1007.186	1489.42
1007.48	1511.34
1007.773	1485.81
1008.067	1482.19
1008.361	1448.07
1008.655	1418.24
1008.948	1464.11
1009.242	1444.23
1009.535	1437.67
1009.829	1433.83
1010.122	1404.68
1010.415	1429.31
1010.708	1422.08
1011.001	1416.43
1011.295	1397.9
1011.588	1363.78
1011.881	1377.56
1012.173	1381.4
1012.466	1353.38
1012.759	1329.43
1013.052	1330.11
1013.344	1325.81
1013.637	1343.89
1013.93	1322.87
1014.222	1328.98
1014.514	1311.8
1014.807	1290.56
1015.099	1303.89
1015.391	1281.07
1015.683	1286.27
1015.976	1248.07
1016.268	1284.23
1016.56	1257.79
1016.851	1264.12
1017.143	1224.57
1017.435	1232.71
1017.727	1246.49
1018.018	1240.39
1018.31	1204.23
1018.602	1197.23
1018.893	1192.93
1019.185	1190.45
1019.476	1215.31
1019.767	1171.24
1020.058	1188.42
1020.35	1159.04
1020.641	1154.52
1020.932	1143.67
1021.223	1137.12
1021.514	1147.51
1021.804	1107.06
1022.095	1109.1
1022.386	1126.27
1022.677	1102.54
1022.967	1112.03
1023.258	1072.03
1023.548	1098.93
1023.839	1078.36
1024.129	1085.37
1024.419	1087.17
1024.709	1041.98
1025	1063.22
1025.29	1060.06
1025.58	1037.68
1025.87	1050.11
1026.16	1056.44
1026.449	1035.42
1026.739	1014.18
1027.029	1015.31
1027.319	989.55
1027.608	1018.7
1027.898	1027.29
1028.187	993.62
1028.477	978.7
1028.766	969.21
1029.055	965.6
1029.344	977.57
1029.634	974.64
1029.923	968.76
1030.212	949.55
1030.501	926.5
1030.79	942.09
1031.078	940.06
1031.367	913.17
1031.656	911.36
1031.945	931.47
1032.233	906.39
1032.522	909.1
1032.81	919.95
1033.099	919.72
1033.387	894.19
1033.675	895.77
1033.963	882.43
1034.251	843.79
1034.54	846.73
1034.828	855.09
1035.116	855.09
1035.403	820.97
1035.691	847.86
1035.979	833.62
1036.267	845.37
1036.554	831.36
1036.842	818.48
1037.129	801.98
1037.417	837.69
1037.704	803.11
1037.992	811.02
1038.279	797.92
1038.566	827.75
1038.853	827.75
1039.14	827.75
