Data from foam1_polythene_foam_FLMS001491_00001.txt Node
Date: Wed Feb 08 10:54:17 GMT 2017
User: dcchb
Spectrometer: FLMS00149
Trigger mode: 0
Integration Time (sec): 2.000000E-2
Scans to average: 10
Electric dark correction enabled: true
Nonlinearity correction enabled: false
Boxcar width: 0
XAxis mode: Wavelengths
Number of Pixels in Spectrum: 2048
>>>>>Begin Spectral Data<<<<<
341.393	-18.19
341.776	-18.19
342.16	-18.19
342.543	-76.27
342.927	-63.39
343.31	-53.44
343.693	-66.55
344.077	-60.9
344.46	-79.66
344.843	-45.54
345.226	-30.85
345.61	-23.84
345.993	-14.12
346.376	-11.19
346.759	22.26
347.142	29.04
347.525	34.69
347.908	37.4
348.291	60.9
348.674	80.79
349.057	121.01
349.44	118.53
349.823	149.26
350.206	162.82
350.588	190.16
350.971	182.71
351.354	196.27
351.737	222.48
352.119	253.21
352.502	254.12
352.884	257.06
353.267	250.5
353.65	264.96
354.032	280.33
354.414	282.14
354.797	296.15
355.179	332.53
355.562	304.29
355.944	298.41
356.326	330.5
356.709	300.67
357.091	339.77
357.473	328.01
357.855	302.03
358.238	314.23
358.62	331.86
359.002	315.13
359.384	337.51
359.766	318.07
360.148	320.56
360.53	283.27
360.912	329.37
361.294	310.16
361.676	322.59
362.057	305.87
362.439	306.55
362.821	325.3
363.203	308.58
363.584	292.99
363.966	312.65
364.348	301.8
364.729	306.55
365.111	306.32
365.493	294.34
365.874	303.83
366.256	292.31
366.637	297.96
367.019	286.21
367.4	300.44
367.781	292.99
368.163	285.76
368.544	281.01
368.925	289.14
369.306	285.98
369.688	292.31
370.069	269.71
370.45	309.48
370.831	291.86
371.212	290.5
371.593	277.39
371.974	295.92
372.355	300.44
372.736	298.64
373.117	297.28
373.498	312.65
373.879	270.39
374.26	289.6
374.641	292.31
375.021	285.53
375.402	288.69
375.783	276.94
376.163	298.64
376.544	299.99
376.925	294.12
377.305	294.34
377.686	302.48
378.066	281.91
378.447	296.83
378.827	314
379.208	319.88
379.588	304.06
379.968	302.7
380.349	299.99
380.729	311.74
381.109	298.18
381.489	330.73
381.87	328.47
382.25	307.9
382.63	324.85
383.01	334.79
383.39	309.71
383.77	332.53
384.15	316.71
384.53	319.88
384.91	330.27
385.29	311.74
385.67	301.12
386.049	328.69
386.429	320.33
386.809	323.72
387.189	334.12
387.568	330.27
387.948	307.22
388.328	307.68
388.707	304.51
389.087	320.78
389.466	331.63
389.846	323.04
390.225	318.97
390.605	313.33
390.984	354.23
391.363	342.02
391.743	342.48
392.122	337.05
392.501	335.7
392.881	350.39
393.26	352.87
393.639	348.35
394.018	350.84
394.397	347.67
394.776	338.41
395.155	358.3
395.534	341.57
395.913	330.73
396.292	344.96
396.671	337.73
397.05	360.56
397.429	347.9
397.808	332.99
398.186	363.27
398.565	332.99
398.944	369.82
399.323	369.14
399.701	351.97
400.08	360.33
400.458	359.2
400.837	337.05
401.215	351.74
401.594	355.13
401.972	368.69
402.351	349.71
402.729	381.57
403.107	349.71
403.486	382.02
403.864	364.4
404.242	364.62
404.62	386.09
404.999	369.82
405.377	380.44
405.755	376.6
406.133	390.61
406.511	381.35
406.889	400.33
407.267	373.89
407.645	390.39
408.023	402.59
408.401	380.89
408.779	375.47
409.156	409.82
409.534	405.3
409.912	406.2
410.29	409.82
410.667	403.72
411.045	407.33
411.422	435.58
411.8	408.69
412.178	394
412.555	403.94
412.933	405.75
413.31	422.47
413.687	397.16
414.065	395.36
414.442	424.73
414.819	419.76
415.197	435.81
415.574	420.21
415.951	441.01
416.328	440.1
416.705	446.65
417.082	446.43
417.46	441.46
417.837	436.49
418.214	412.08
418.591	431.51
418.967	460.67
419.344	432.19
419.721	448.69
420.098	428.35
420.475	443.04
420.852	452.3
421.228	443.04
421.605	451.85
421.982	459.54
422.358	454.11
422.735	447.78
423.111	459.08
423.488	484.17
423.864	480.33
424.241	466.77
424.617	483.26
424.994	450.72
425.37	471.74
425.746	499.31
426.123	472.87
426.499	509.7
426.875	500.21
427.251	499.08
427.627	518.07
428.003	514.68
428.379	512.19
428.756	491.17
429.132	515.58
429.507	523.49
429.883	512.19
430.259	538.18
430.635	568.69
431.011	540.89
431.387	551.28
431.763	553.77
432.138	549.03
432.514	538.63
432.89	564.84
433.265	557.39
433.641	559.42
434.016	565.52
434.392	566.2
434.767	586.09
435.143	581.57
435.518	579.31
435.894	575.47
436.269	561.23
436.644	617.27
437.02	598.06
437.395	614.56
437.77	605.07
438.145	609.81
438.52	630.83
438.895	659.76
439.271	636.48
439.646	645.75
440.021	657.04
440.395	650.72
440.77	666.54
441.145	634.22
441.52	675.35
441.895	678.74
442.27	700.66
442.645	661.79
443.019	664.28
443.394	687.1
443.769	716.7
444.143	675.35
444.518	683.26
444.892	723.94
445.267	722.13
445.641	685.07
446.016	710.83
446.39	713.99
446.764	721.68
447.139	726.65
447.513	732.07
447.887	775.01
448.262	749.25
448.636	748.57
449.01	761.9
449.384	752.18
449.758	770.71
450.132	782.69
450.506	789.92
450.88	780.43
451.254	793.99
451.628	808.45
452.002	799.19
452.376	819.53
452.75	805.97
453.123	818.4
453.497	806.87
453.871	831.5
454.244	871.73
454.618	827.89
454.992	837.83
455.365	832.86
455.739	818.85
456.112	881.67
456.486	886.19
456.859	878.28
457.232	871.73
457.606	884.61
457.979	879.41
458.352	895.23
458.725	909.02
459.099	865.63
459.472	910.15
459.845	904.27
460.218	912.63
460.591	911.28
460.964	945.17
461.337	906.76
461.71	947.21
462.083	945.17
462.456	952.63
462.829	946.98
463.201	952.18
463.574	945.4
463.947	949.01
464.32	994.21
464.692	985.17
465.065	974.1
465.438	976.13
465.81	994.89
466.183	1008.45
466.555	1034.89
466.928	1014.1
467.3	1017.94
467.672	1059.29
468.045	1036.47
468.417	1054.32
468.789	1032.4
469.161	1055.45
469.534	1093.19
469.906	1106.07
470.278	1080.54
470.65	1098.84
471.022	1106.07
471.394	1151.27
471.766	1127.54
472.138	1160.76
472.51	1189.91
472.882	1175
473.253	1200.08
473.625	1225.17
473.997	1210.48
474.369	1231.49
474.74	1237.82
475.112	1256.58
475.484	1253.64
475.855	1294.77
476.227	1297.25
476.598	1298.16
476.97	1330.7
477.341	1324.6
477.713	1328.67
478.084	1333.64
478.455	1407.08
478.827	1404.82
479.198	1439.85
479.569	1444.14
479.94	1453.63
480.311	1467.42
480.682	1497.93
481.053	1529.79
481.424	1546.06
481.795	1535.21
482.166	1558.94
482.537	1581.09
482.908	1608.88
483.279	1621.99
483.65	1671.71
484.021	1680.29
484.391	1681.65
484.762	1706.73
485.133	1726.62
485.503	1741.99
485.874	1741.54
486.244	1757.81
486.615	1799.39
486.985	1833.74
487.356	1857.01
487.726	1878.26
488.097	1914.41
488.467	1889.55
488.837	1951.47
489.207	1940.85
489.578	1994.41
489.948	1994.64
490.318	1996.9
490.688	2032.6
491.058	2092.04
491.428	2088.65
491.798	2106.27
492.168	2137.68
492.538	2148.98
492.908	2168.19
493.278	2181.75
493.648	2184.91
494.017	2200.96
494.387	2231.24
494.757	2249.32
495.126	2274.18
495.496	2287.96
495.866	2282.54
496.235	2307.4
496.605	2314.85
496.974	2362.31
497.344	2391.91
497.713	2373.61
498.082	2446.6
498.452	2429.65
498.821	2431.24
499.19	2439.82
499.559	2505.58
499.928	2461.74
500.298	2492.48
500.667	2551.91
501.036	2519.59
501.405	2605.69
501.774	2556.43
502.143	2556.88
502.512	2584.45
502.88	2632.36
503.249	2633.04
503.618	2660.38
503.987	2647.73
504.356	2719.59
504.724	2674.84
505.093	2721.85
505.462	2725.69
505.83	2750.55
506.199	2776.09
506.567	2816.76
506.936	2770.21
507.304	2810.21
507.672	2876.2
508.041	2891.79
508.409	2904.9
508.777	2897.66
509.145	2932.69
509.514	2931.11
509.882	2947.61
510.25	2967.27
510.618	3018.11
510.986	2976.98
511.354	3038.68
511.722	3082.29
512.09	3061.95
512.458	3078.45
512.826	3109.86
513.193	3107.15
513.561	3088.85
513.929	3127.26
514.297	3200.71
514.664	3200.48
515.032	3244.77
515.4	3278.67
515.767	3254.72
516.135	3315.51
516.502	3301.72
516.869	3350.53
517.237	3330.65
517.604	3331.32
517.972	3402.96
518.339	3400.7
518.706	3415.16
519.073	3443.86
519.44	3520.7
519.808	3506.24
520.175	3503.52
520.542	3589.4
520.909	3540.58
521.276	3561.83
521.643	3616.97
522.009	3620.81
522.376	3659
522.743	3727.25
523.11	3743.07
523.477	3757.3
523.843	3779.22
524.21	3807.92
524.577	3804.08
524.943	3843.4
525.31	3915.94
525.676	3909.61
526.043	3936.05
526.409	3954.13
526.776	4011.76
527.142	4012.66
527.508	4011.31
527.874	4067.8
528.241	4072.1
528.607	4053.11
528.973	4080.68
529.339	4117.29
529.705	4187.8
530.071	4212.88
530.437	4214.92
530.803	4236.16
531.169	4302.37
531.535	4271.19
531.901	4267.35
532.267	4303.73
532.632	4295.59
532.998	4380.79
533.364	4398.87
533.73	4392.31
534.095	4481.13
534.461	4472.31
534.826	4515.47
535.192	4484.51
535.557	4486.77
535.923	4487.45
536.288	4555.02
536.653	4574
537.019	4544.17
537.384	4580.11
537.749	4639.31
538.114	4618.3
538.479	4587.34
538.845	4662.82
539.21	4674.11
539.575	4690.61
539.94	4736.03
540.305	4744.62
540.67	4802.92
541.034	4775.35
541.399	4811.29
541.764	4802.47
542.129	4841.79
542.494	4871.85
542.858	4845.18
543.223	4904.39
543.587	4906.88
543.952	4907.33
544.316	4920.89
544.681	4905.52
545.045	4925.63
545.41	4977.16
545.774	4972.19
546.138	4981.9
546.503	4992.3
546.867	5033.88
547.231	5068.45
547.595	5077.95
547.959	5065.52
548.324	5074.56
548.688	5126.31
549.052	5145.97
549.416	5112.29
549.779	5169.92
550.143	5169.92
550.507	5245.85
550.871	5229.35
551.235	5198.17
551.599	5287.21
551.962	5260.09
552.326	5286.75
552.689	5354.32
553.053	5313.87
553.417	5326.98
553.78	5395.23
554.143	5438.61
554.507	5483.36
554.87	5454.43
555.234	5482.45
555.597	5503.25
555.96	5487.65
556.323	5503.25
556.686	5567.65
557.05	5540.08
557.413	5552.96
557.776	5609.46
558.139	5668.89
558.502	5673.64
558.865	5699.85
559.228	5757.7
559.59	5745.95
559.953	5727.19
560.316	5785.5
560.679	5827.76
561.041	5830.24
561.404	5857.36
561.767	5891.03
562.129	5893.52
562.492	5959.96
562.854	5930.13
563.217	5982.55
563.579	6030.01
563.941	6036.11
564.304	6058.48
564.666	6121.08
565.028	6125.83
565.39	6157.47
565.753	6163.11
566.115	6153.4
566.477	6192.72
566.839	6256.9
567.201	6252.15
567.563	6359.04
567.925	6328.99
568.287	6375.54
568.648	6338.25
569.01	6356.33
569.372	6388.87
569.734	6422.32
570.095	6430.45
570.457	6495.99
570.819	6476.78
571.18	6538.02
571.542	6481.52
571.903	6572.14
572.265	6573.27
572.626	6559.94
572.987	6600.17
573.349	6595.87
573.71	6643.78
574.071	6645.14
574.432	6693.5
574.794	6779.14
575.155	6759.26
575.516	6721.07
575.877	6791.35
576.238	6746.38
576.599	6737.34
576.96	6799.03
577.32	6817.56
577.681	6757.68
578.042	6878.8
578.403	6864.79
578.763	6832.93
579.124	6879.71
579.485	6868.41
579.845	6925.35
580.206	6896.88
580.566	6907.95
580.927	6900.5
581.287	6947.95
581.648	6944.11
582.008	6921.96
582.368	6918.58
582.728	6945.92
583.089	6956.31
583.449	6890.55
583.809	6931.23
584.169	6977.1
584.529	6993.6
584.889	7003.54
585.249	6982.08
585.609	6933.04
585.969	6977.1
586.329	7013.26
586.688	6995.64
587.048	6986.82
587.408	6968.74
587.768	6987.95
588.127	6963.32
588.487	6951.79
588.846	7028.85
589.206	6979.59
589.565	6987.27
589.925	7039.48
590.284	6967.39
590.643	7008.52
591.003	7023.43
591.362	7035.63
591.721	7084.22
592.08	7012.13
592.44	7032.47
592.799	6999.03
593.158	7001.74
593.517	7002.19
593.876	6977.1
594.235	6978.23
594.593	6952.25
594.952	7010.55
595.311	7044
595.67	7023.43
596.029	7083.54
596.387	7086.48
596.746	7037.67
597.104	7089.42
597.463	7035.41
597.822	7062.53
598.18	7010.32
598.538	7052.81
598.897	7054.39
599.255	7042.87
599.613	7076.09
599.972	7046.03
600.33	7090.77
600.688	7066.14
601.046	7146.37
601.404	7145.01
601.762	7106.82
602.12	7169.87
602.478	7070.21
602.836	7111.56
603.194	7061.62
603.552	7062.53
603.91	7019.14
604.268	7096.65
604.625	7086.03
604.983	7116.99
605.341	7080.38
605.698	7129.19
606.056	7148.63
606.413	7132.13
606.771	7125.58
607.128	7154.95
607.485	7171
607.843	7166.48
608.2	7163.99
608.557	7209.19
608.914	7193.82
609.272	7180.72
609.629	7220.49
609.986	7221.39
610.343	7199.47
610.7	7264.55
611.057	7223.88
611.414	7192.47
611.771	7239.7
612.127	7306.14
612.484	7260.26
612.841	7294.84
613.198	7254.39
613.554	7261.39
613.911	7299.13
614.267	7286.25
614.624	7263.88
614.98	7248.96
615.337	7347.49
615.693	7330.54
616.05	7318.11
616.406	7361.73
616.762	7304.78
617.118	7291.45
617.475	7320.37
617.831	7290.54
618.187	7342.74
618.543	7323.76
618.899	7361.28
619.255	7321.05
619.611	7306.81
619.967	7355.63
620.323	7359.69
620.678	7368.73
621.034	7352.69
621.39	7258.68
621.746	7303.42
622.101	7384.78
622.457	7353.59
622.812	7358.34
623.168	7350.88
623.523	7396.98
623.879	7407.15
624.234	7298.45
624.589	7324.89
624.945	7309.98
625.3	7416.87
625.655	7368.05
626.01	7306.59
626.365	7348.17
626.72	7326.02
627.075	7356.08
627.43	7298.9
627.785	7328.28
628.14	7304.33
628.495	7379.58
628.85	7333.71
629.205	7254.61
629.559	7341.84
629.914	7284.22
630.269	7332.58
630.623	7311.56
630.978	7269.3
631.332	7268.85
631.687	7262.97
632.041	7169.42
632.396	7274.5
632.75	7194.27
633.104	7199.25
633.459	7241.05
633.813	7267.27
634.167	7229.98
634.521	7281.5
634.875	7222.97
635.229	7198.34
635.583	7216.87
635.937	7174.61
636.291	7122.19
636.645	7156.31
636.999	7138.23
637.352	7154.73
637.706	7071.57
638.06	7123.54
638.413	7103.43
638.767	7076.31
639.121	7051.9
639.474	7105.46
639.828	7049.19
640.181	7034.5
640.534	7043.32
640.888	7027.05
641.241	7003.54
641.594	7029.98
641.947	7032.02
642.301	7022.3
642.654	7019.82
643.007	6912.25
643.36	6906.82
643.713	6899.59
644.066	6950.44
644.419	6884.68
644.771	6859.14
645.124	6830.44
645.477	6785.92
645.83	6754.74
646.182	6702.76
646.535	6768.3
646.888	6706.83
647.24	6662.08
647.593	6764.91
647.945	6724.91
648.298	6717.68
648.65	6693.04
649.002	6637.68
649.355	6621.41
649.707	6596.32
650.059	6629.09
650.411	6731.24
650.763	6750.44
651.115	6830.22
651.467	6851.68
651.819	6770.1
652.171	6773.04
652.523	6707.28
652.875	6735.76
653.227	6727.62
653.578	6756.32
653.93	6739.37
654.282	6689.88
654.633	6684.91
654.985	6613.95
655.337	6600.17
655.688	6636.1
656.039	6690.78
656.391	6571.01
656.742	6622.54
657.094	6613.05
657.445	6693.04
657.796	6694.4
658.147	6682.2
658.498	6641.97
658.849	6573.27
659.2	6630.45
659.551	6654.85
659.902	6655.76
660.253	6632.71
660.604	6618.92
660.955	6620.5
661.306	6576.21
661.656	6564.69
662.007	6540.51
662.358	6542.54
662.708	6541.41
663.059	6483.11
663.409	6516.78
663.76	6555.65
664.11	6517.46
664.461	6579.6
664.811	6519.49
665.161	6562.43
665.511	6489.21
665.862	6483.33
666.212	6561.97
666.562	6532.6
666.912	6499.38
667.262	6563.56
667.612	6521.98
667.962	6509.55
668.312	6494.41
668.662	6560.17
669.011	6472.94
669.361	6470.23
669.711	6482.88
670.06	6449.21
670.41	6418.48
670.76	6496.89
671.109	6505.93
671.459	6498.02
671.808	6442.2
672.157	6489.21
672.507	6447.18
672.856	6436.1
673.205	6417.8
673.554	6392.49
673.904	6448.98
674.253	6463.9
674.602	6413.05
674.951	6301.42
675.3	6281.98
675.649	6377.35
675.998	6380.28
676.346	6335.77
676.695	6359.95
677.044	6277.91
677.393	6410.57
677.741	6357.91
678.09	6328.53
678.438	6374.86
678.787	6388.19
679.135	6366.27
679.484	6335.99
679.832	6372.15
680.181	6333.96
680.529	6372.83
680.877	6293.96
681.225	6269.55
681.573	6268.87
681.922	6262.32
682.27	6260.29
682.618	6198.37
682.966	6252.6
683.314	6209.89
683.661	6152.27
684.009	6150.23
684.357	6125.6
684.705	6132.83
685.053	6195.66
685.4	6191.59
685.748	6166.05
686.095	6132.16
686.443	6106.85
686.79	6148.2
687.138	6122.21
687.485	6127.41
687.832	6098.48
688.18	6083.57
688.527	6043.12
688.874	6042.44
689.221	5959.5
689.568	6016.45
689.915	5991.37
690.262	5954.08
690.609	5950.69
690.956	5973.74
691.303	5989.33
691.65	5927.19
691.997	5945.27
692.344	5967.19
692.69	5925.38
693.037	5935.1
693.383	5892.39
693.73	5904.14
694.077	5913.63
694.423	5843.12
694.769	5798.6
695.116	5806.97
695.462	5716.8
695.808	5695.78
696.155	5736.91
696.501	5681.55
696.847	5653.75
697.193	5645.39
697.539	5657.59
697.885	5673.86
698.231	5684.48
698.577	5587.08
698.923	5648.55
699.269	5620.98
699.614	5615.56
699.96	5639.96
700.306	5601.1
700.651	5586.41
700.997	5606.75
701.342	5530.14
701.688	5516.8
702.033	5537.82
702.379	5465.73
702.724	5446.98
703.069	5429.12
703.415	5361.33
703.76	5405.85
704.105	5392.29
704.45	5393.64
704.795	5343.7
705.14	5361.55
705.485	5394.77
705.83	5376.69
706.175	5392.74
706.52	5332.18
706.865	5343.25
707.209	5394.1
707.554	5347.09
707.899	5376.02
708.243	5294.89
708.588	5271.84
708.932	5208.34
709.277	5251.27
709.621	5186.87
709.966	5219.86
710.31	5194.1
710.654	5129.92
710.998	5150.94
711.342	5155.91
711.687	5166.53
712.031	5178.28
712.375	5120.88
712.719	5151.39
713.063	5188.23
713.407	5149.13
713.75	5133.76
714.094	5138.06
714.438	5150.49
714.782	5068.68
715.125	5058.29
715.469	5046.76
715.812	4994.33
716.156	5023.26
716.499	5038.4
716.843	4993.43
717.186	4927.22
717.53	5002.02
717.873	4963.15
718.216	4943.49
718.559	4926.09
718.902	4896.26
719.246	4928.12
719.589	4945.07
719.932	4959.53
720.275	4960.89
720.617	4964.73
720.96	5011.96
721.303	4926.31
721.646	4938.97
721.989	4905.07
722.331	4939.87
722.674	4843.38
723.016	4848.35
723.359	4861.45
723.701	4839.76
724.044	4785.07
724.386	4751.4
724.729	4765.19
725.071	4743.04
725.413	4785.3
725.755	4778.52
726.097	4763.6
726.439	4756.82
726.782	4755.47
727.124	4835.47
727.465	4763.6
727.807	4789.14
728.149	4713.21
728.491	4778.97
728.833	4761.57
729.175	4765.86
729.516	4781
729.858	4724.73
730.199	4741.23
730.541	4690.61
730.882	4636.38
731.224	4671.4
731.565	4605.42
731.906	4602.03
732.248	4614.45
732.589	4614.45
732.93	4598.64
733.271	4627.79
733.612	4619.65
733.953	4628.92
734.294	4562.03
734.635	4609.94
734.976	4609.48
735.317	4625.08
735.658	4654
735.999	4628.47
736.339	4619.43
736.68	4621.91
737.021	4589.82
737.361	4568.13
737.702	4602.03
738.042	4532.2
738.383	4505.31
738.723	4532.42
739.063	4484.06
739.404	4494.68
739.744	4463.95
740.084	4447.23
740.424	4498.53
740.764	4460.56
741.104	4469.6
741.444	4446.32
741.784	4433.89
742.124	4499.43
742.464	4429.6
742.804	4447.91
743.143	4471.86
743.483	4484.29
743.823	4526.1
744.162	4416.95
744.502	4493.1
744.841	4468.24
745.181	4423.73
745.52	4408.13
745.86	4380.79
746.199	4339.66
746.538	4335.82
746.877	4338.53
747.216	4338.98
747.556	4318.64
747.895	4375.14
748.234	4282.49
748.573	4299.66
748.911	4283.84
749.25	4275.03
749.589	4275.03
749.928	4313.9
750.267	4292.2
750.605	4317.97
750.944	4271.87
751.283	4333.78
751.621	4306.44
751.96	4280.68
752.298	4284.52
752.636	4276.38
752.975	4273.67
753.313	4207.01
753.651	4251.07
753.989	4207.69
754.327	4171.3
754.666	4150.96
755.004	4168.82
755.342	4138.08
755.679	4125.88
756.017	4120.46
756.355	4106.45
756.693	4112.1
757.031	4059.67
757.368	4102.15
757.706	4103.73
758.044	4072.1
758.381	4116.84
758.719	4123.62
759.056	4129.27
759.394	4109.38
759.731	4086.11
760.068	4065.99
760.405	4068.71
760.743	4107.12
761.08	4040.01
761.417	4005.66
761.754	4036.39
762.091	4004.98
762.428	3973.12
762.765	3954.81
763.102	3929.95
763.438	3880.91
763.775	3865.1
764.112	3911.42
764.449	3916.85
764.785	3878.43
765.122	3899.67
765.458	3882.04
765.795	3852.22
766.131	3856.96
766.467	3840.46
766.804	3832.78
767.14	3870.97
767.476	3853.35
767.812	3796.4
768.148	3820.58
768.485	3807.47
768.821	3818.77
769.157	3796.17
769.492	3733.35
769.828	3772.44
770.164	3743.29
770.5	3700.58
770.836	3719.56
771.171	3669.62
771.507	3650.86
771.842	3650.64
772.178	3606.8
772.513	3595.27
772.849	3636.85
773.184	3593.01
773.519	3587.36
773.855	3577.19
774.19	3551.43
774.525	3557.31
774.86	3581.94
775.195	3623.52
775.53	3581.04
775.865	3599.57
776.2	3574.26
776.535	3563.64
776.87	3505.33
777.205	3509.17
777.539	3517.08
777.874	3496.07
778.209	3422.17
778.543	3448.38
778.878	3398.22
779.212	3397.99
779.547	3403.64
779.881	3406.8
780.215	3388.95
780.55	3374.94
780.884	3313.47
781.218	3285.68
781.552	3327.26
781.886	3267.82
782.22	3322.96
782.554	3279.57
782.888	3319.8
783.222	3297.88
783.556	3270.76
783.889	3276.41
784.223	3286.35
784.557	3263.08
784.89	3247.26
785.224	3234.83
785.557	3244.32
785.891	3258.11
786.224	3225.79
786.558	3195.96
786.891	3188.96
787.224	3196.64
787.557	3160.93
787.891	3157.09
788.224	3132.69
788.557	3113.25
788.89	3129.52
789.223	3099.92
789.556	3064.44
789.888	3055.4
790.221	3031.67
790.554	3033.71
790.887	3004.78
791.219	3020.82
791.552	3027.83
791.884	2977.89
792.217	3006.14
792.549	3032.58
792.882	2985.8
793.214	2998.68
793.546	2976.98
793.879	2966.59
794.211	2963.42
794.543	3028.73
794.875	2966.81
795.207	2978.11
795.539	2950.09
795.871	2991.67
796.203	2943.54
796.535	2899.02
796.867	2902.86
797.198	2901.05
797.53	2911.9
797.862	2845.01
798.193	2858.12
798.525	2863.54
798.856	2846.37
799.188	2814.05
799.519	2814.95
799.85	2780.15
800.182	2809.53
800.513	2785.12
800.844	2750.1
801.175	2796.88
801.506	2826.93
801.837	2813.15
802.168	2787.38
802.499	2763.88
802.83	2793.94
803.161	2794.39
803.491	2763.43
803.822	2779.47
804.153	2765.24
804.483	2755.07
804.814	2735.86
805.145	2702.64
805.475	2719.82
805.805	2724.34
806.136	2713.49
806.466	2669.42
806.796	2634.62
807.126	2654.96
807.457	2630.33
807.787	2616.32
808.117	2604.34
808.447	2613.15
808.777	2625.58
809.107	2598.46
809.436	2606.37
809.766	2579.48
810.096	2599.82
810.426	2590.33
810.755	2581.97
811.085	2586.03
811.414	2587.16
811.744	2581.74
812.073	2598.01
812.403	2601.17
812.732	2566.6
813.061	2558.24
813.39	2562.08
813.719	2624.22
814.049	2598.46
814.378	2587.62
814.707	2537
815.036	2563.66
815.365	2521.4
815.693	2506.04
816.022	2517.56
816.351	2485.7
816.68	2460.39
817.008	2483.44
817.337	2420.61
817.665	2454.74
817.994	2437.11
818.322	2405.93
818.651	2425.13
818.979	2409.99
819.307	2420.39
819.636	2433.72
819.964	2376.1
820.292	2432.37
820.62	2461.97
820.948	2425.81
821.276	2417.45
821.604	2467.39
821.932	2456.77
822.259	2429.2
822.587	2434.4
822.915	2439.82
823.243	2463.1
823.57	2426.94
823.898	2437.79
824.225	2446.6
824.553	2421.97
824.88	2444.34
825.207	2467.84
825.535	2408.19
825.862	2446.6
826.189	2439.6
826.516	2419.71
826.843	2407.51
827.17	2430.11
827.497	2417.68
827.824	2414.96
828.151	2382.2
828.478	2405.25
828.805	2399.37
829.131	2414.06
829.458	2390.33
829.785	2396.66
830.111	2429.43
830.438	2407.51
830.764	2420.39
831.09	2434.85
831.417	2413.16
831.743	2447.28
832.069	2441.18
832.395	2461.74
832.722	2410.45
833.048	2438.69
833.374	2461.07
833.7	2438.01
834.026	2421.74
834.351	2407.96
834.677	2415.87
835.003	2400.05
835.329	2409.32
835.654	2390.56
835.98	2369.32
836.306	2362.54
836.631	2379.94
836.956	2364.57
837.282	2368.19
837.607	2337.45
837.932	2311.46
838.258	2342.88
838.583	2329.09
838.908	2303.33
839.233	2309.88
839.558	2344.01
839.883	2317.79
840.208	2305.59
840.533	2304.23
840.858	2368.19
841.182	2342.65
841.507	2354.85
841.832	2360.95
842.156	2352.37
842.481	2340.16
842.805	2325.25
843.13	2278.25
843.454	2320.96
843.778	2305.59
844.103	2320.5
844.427	2315.08
844.751	2259.71
845.075	2275.76
845.399	2270.56
845.723	2255.42
846.047	2264.23
846.371	2266.04
846.695	2233.95
847.019	2208.64
847.343	2204.8
847.666	2204.12
847.99	2184.91
848.313	2207.29
848.637	2148.98
848.96	2145.37
849.284	2174.97
849.607	2166.38
849.931	2176.55
850.254	2134.07
850.577	2141.07
850.9	2151.47
851.223	2153.28
851.546	2141.75
851.869	2132.94
852.192	2156.21
852.515	2128.87
852.838	2147.4
853.161	2094.97
853.483	2117.35
853.806	2115.31
854.129	2093.39
854.451	2082.77
854.774	2093.84
855.096	2092.26
855.419	2050.23
855.741	2060.4
856.063	2013.62
856.385	2028.08
856.708	2028.08
857.03	2006.61
857.352	2005.94
857.674	1994.86
857.996	2005.03
858.318	1977.46
858.64	2005.03
858.961	1974.07
859.283	1966.61
859.605	1981.08
859.926	1958.71
860.248	1957.58
860.57	1937.24
860.891	1961.87
861.212	1979.27
861.534	1964.81
861.855	1983.79
862.176	1993.28
862.498	1965.49
862.819	1949.21
863.14	1979.04
863.461	1977.69
863.782	1958.03
864.103	1991.02
864.424	1956.45
864.745	1988.76
865.065	1943.11
865.386	1954.64
865.707	1943.11
866.027	1930.46
866.348	1933.85
866.668	1921.19
866.989	1915.32
867.309	1910.35
867.63	1924.81
867.95	1885.94
868.27	1891.36
868.59	1866.96
868.91	1887.52
869.23	1842.55
869.55	1854.53
869.87	1861.76
870.19	1905.15
870.51	1885.49
870.83	1853.17
871.15	1876.22
871.469	1878.26
871.789	1876.45
872.109	1836.22
872.428	1860.63
872.748	1856.11
873.067	1878.71
873.386	1871.48
873.706	1881.65
874.025	1874.41
874.344	1853.85
874.663	1856.56
874.982	1866.05
875.301	1881.42
875.62	1885.49
875.939	1860.4
876.258	1861.98
876.577	1858.14
876.896	1856.11
877.214	1817.92
877.533	1839.61
877.852	1821.31
878.17	1841.65
878.489	1808.65
878.807	1802.1
879.125	1821.99
879.444	1814.98
879.762	1804.59
880.08	1805.49
880.398	1800.07
880.716	1784.02
881.034	1775.43
881.352	1790.57
881.67	1749.22
881.988	1809.33
882.306	1816.79
882.624	1795.55
882.941	1760.97
883.259	1818.14
883.577	1785.83
883.894	1795.32
884.212	1780.86
884.529	1773.4
884.846	1783.34
885.164	1761.87
885.481	1803.46
885.798	1795.32
886.115	1743.8
886.432	1770.69
886.75	1755.1
887.067	1756
887.383	1775.66
887.7	1737.02
888.017	1755.1
888.334	1722.33
888.651	1734.98
888.967	1721.42
889.284	1708.32
889.6	1706.28
889.917	1692.05
890.233	1714.64
890.55	1698.6
890.866	1702.89
891.182	1681.42
891.498	1661.54
891.815	1689.56
892.131	1677.58
892.447	1677.81
892.763	1671.03
893.079	1665.83
893.395	1655.66
893.71	1635.1
894.026	1659.05
894.342	1664.02
894.657	1664.02
894.973	1627.87
895.289	1646.85
895.604	1672.39
895.92	1639.84
896.235	1648.21
896.55	1627.19
896.865	1632.84
897.181	1625.16
897.496	1617.02
897.811	1632.39
898.126	1597.36
898.441	1603.01
898.756	1630.8
899.071	1604.14
899.386	1611.14
899.7	1579.96
900.015	1603.46
900.33	1579.96
900.644	1584.25
900.959	1588.09
901.273	1571.6
901.588	1538.83
901.902	1530.24
902.216	1533.86
902.531	1515.1
902.845	1538.6
903.159	1532.05
903.473	1503.58
903.787	1517.81
904.101	1531.15
904.415	1497.93
904.729	1529.79
905.042	1488.89
905.356	1506.74
905.67	1511.49
905.984	1508.55
906.297	1507.64
906.611	1511.49
906.924	1478.04
907.237	1500.86
907.551	1491.15
907.864	1462.9
908.177	1456.8
908.491	1477.59
908.804	1475.1
909.117	1471.71
909.43	1435.56
909.743	1432.84
910.056	1441.21
910.368	1449.57
910.681	1436.23
910.994	1414.99
911.307	1460.41
911.619	1419.74
911.932	1422.45
912.244	1390.36
912.557	1377.7
912.869	1423.35
913.181	1414.09
913.494	1354.43
913.806	1370.02
914.118	1390.13
914.43	1382.45
914.742	1384.48
915.054	1352.39
915.366	1348.55
915.678	1337.25
915.99	1350.36
916.302	1338.61
916.613	1356.01
916.925	1314.43
917.236	1364.37
917.548	1328.44
917.859	1321.43
918.171	1333.19
918.482	1305.39
918.794	1278.72
919.105	1313.75
919.416	1287.08
919.727	1312.85
920.038	1303.58
920.349	1327.99
920.66	1307.88
920.971	1291.15
921.282	1300.64
921.593	1284.82
921.903	1304.94
922.214	1285.28
922.525	1294.99
922.835	1250.25
923.146	1243.24
923.456	1249.35
923.767	1242.11
924.077	1264.49
924.387	1213.41
924.697	1238.5
925.008	1235.11
925.318	1230.14
925.628	1238.95
925.938	1229.23
926.248	1178.84
926.558	1199.63
926.867	1202.79
927.177	1165.73
927.487	1201.66
927.796	1200.53
928.106	1189.69
928.416	1183.58
928.725	1210.93
929.034	1173.64
929.344	1189.23
929.653	1166.86
929.962	1194.43
930.271	1169.12
930.581	1167.31
930.89	1149.24
931.199	1150.37
931.508	1153.75
931.817	1170.93
932.125	1142.46
932.434	1178.16
932.743	1164.15
933.051	1148.56
933.36	1114.43
933.669	1159.4
933.977	1116.24
934.286	1128.67
934.594	1135.22
934.902	1123.93
935.21	1111.72
935.519	1098.16
935.827	1127.31
936.135	1092.51
936.443	1086.19
936.751	1085.96
937.059	1113.76
937.367	1079.18
937.674	1085.96
937.982	1082.57
938.29	1083.25
938.597	1093.19
938.905	1048.22
939.213	1066.07
939.52	1057.94
939.827	1049.12
940.135	1062.01
940.442	1063.14
940.749	1070.37
941.056	1028.33
941.363	1052.29
941.67	1043.02
941.977	1018.84
942.284	1037.15
942.591	1010.26
942.898	1031.5
943.205	1028.33
943.511	993.53
943.818	1009.13
944.125	1013.42
944.431	1023.14
944.738	989.69
945.044	1009.58
945.35	1019.97
945.657	1003.25
945.963	1008.22
946.269	991.95
946.575	1005.06
946.881	996.92
947.187	1018.39
947.493	991.5
947.799	979.97
948.105	982.91
948.41	971.84
948.716	992.4
949.022	966.87
949.327	954.66
949.633	977.04
949.938	960.54
950.244	968
950.549	965.06
950.854	945.4
951.16	962.35
951.465	934.55
951.77	930.26
952.075	944.04
952.38	953.53
952.685	932.74
952.99	912.41
953.294	942.24
953.599	920.09
953.904	901.33
954.209	900.65
954.513	903.59
954.818	932.97
955.122	912.18
955.426	904.04
955.731	909.02
956.035	895.68
956.339	893.87
956.643	885.29
956.948	899.98
957.252	884.61
957.556	879.19
957.86	918.05
958.163	872.41
958.467	857.49
958.771	883.25
959.075	902.91
959.378	871.5
959.682	882.12
959.985	874.44
960.289	878.51
960.592	875.12
960.896	892.07
961.199	858.85
961.502	862.24
961.805	865.17
962.108	857.72
962.411	861.33
962.714	850.71
963.017	859.75
963.32	853.88
963.623	857.04
963.926	843.48
964.228	830.83
964.531	847.77
964.833	836.02
965.136	836.93
965.438	831.05
965.741	785.63
966.043	805.29
966.345	809.13
966.648	826.53
966.95	808.23
967.252	813.2
967.554	817.94
967.856	801.45
968.158	808.68
968.46	801.9
968.761	817.72
969.063	798.96
969.365	803.93
969.666	788.34
969.968	780.66
970.269	781.34
970.571	785.86
970.872	768.23
971.174	772.52
971.475	803.71
971.776	776.14
972.077	772.3
972.378	769.81
972.679	761
972.98	769.81
973.281	770.71
973.582	785.18
973.883	751.51
974.183	749.25
974.484	758.29
974.785	769.13
975.085	761.67
975.386	739.3
975.686	756.7
975.986	761.67
976.287	759.64
976.587	735.01
976.887	748.34
977.187	723.71
977.487	727.33
977.787	762.58
978.087	746.31
978.387	728.23
978.687	727.33
978.987	722.58
979.286	725.97
979.586	735.01
979.885	703.15
980.185	725.97
980.484	718.29
980.784	741.34
981.083	717.38
981.382	718.51
981.682	715.57
981.981	719.87
982.28	705.63
982.579	714.44
982.878	692.3
983.177	713.99
983.475	707.44
983.774	668.12
984.073	687.33
984.372	682.13
984.67	695.01
984.969	696.82
985.267	691.85
985.566	693.88
985.864	685.52
986.162	687.33
986.461	685.97
986.759	671.06
987.057	690.49
987.355	687.1
987.653	694.11
987.951	683.48
988.249	661.56
988.547	697.5
988.844	669.02
989.142	665.86
989.44	657.95
989.737	650.49
990.035	667.21
990.332	666.76
990.63	648.01
990.927	658.4
991.224	670.38
991.521	645.29
991.819	647.33
992.116	640.55
992.413	658.4
992.71	638.51
993.006	628.35
993.303	639.42
993.6	641.68
993.897	632.41
994.193	628.12
994.49	621.57
994.787	617.05
995.083	625.18
995.379	615.92
995.676	625.63
995.972	623.83
996.268	610.04
996.565	624.05
996.861	615.24
997.157	608.01
997.453	607.1
997.749	601.91
998.044	610.49
998.34	609.81
998.636	602.36
998.932	597.84
999.227	617.05
999.523	582.47
999.818	607.78
1000.114	580.66
1000.409	620.89
1000.704	585.18
1001	589.93
1001.295	601
1001.59	616.14
1001.885	597.16
1002.18	603.26
1002.475	577.5
1002.77	584.73
1003.065	567.78
1003.359	574.34
1003.654	560.55
1003.949	560.55
1004.243	585.41
1004.538	558.29
1004.832	583.83
1005.127	587.89
1005.421	582.47
1005.715	575.24
1006.009	572.53
1006.304	564.39
1006.598	565.07
1006.892	560.32
1007.186	544.51
1007.48	567.33
1007.773	551.28
1008.067	565.97
1008.361	557.61
1008.655	548.12
1008.948	516.71
1009.242	545.18
1009.535	553.77
1009.829	553.09
1010.122	528.91
1010.415	541.34
1010.708	533.88
1011.001	526.43
1011.295	550.16
1011.588	531.17
1011.881	531.17
1012.173	508.35
1012.466	533.66
1012.759	552.64
1013.052	533.88
1013.344	524.17
1013.637	522.81
1013.93	521
1014.222	525.07
1014.514	517.61
1014.807	521.23
1015.099	552.19
1015.391	542.7
1015.683	512.19
1015.976	508.12
1016.268	509.03
1016.56	518.74
1016.851	525.75
1017.143	514.9
1017.435	493.66
1017.727	497.28
1018.018	514.22
1018.31	524.39
1018.602	503.15
1018.893	489.59
1019.185	508.12
1019.476	500.44
1019.767	506.99
1020.058	497.95
1020.35	495.92
1020.641	476.71
1020.932	494.11
1021.223	492.76
1021.514	510.16
1021.804	484.17
1022.095	465.86
1022.386	486.88
1022.677	485.07
1022.967	461.12
1023.258	481.23
1023.548	459.54
1023.839	497.28
1024.129	476.26
1024.419	472.87
1024.709	455.47
1025	469.48
1025.29	445.3
1025.58	462.7
1025.87	474.45
1026.16	466.54
1026.449	451.17
1026.739	467.22
1027.029	439.65
1027.319	460.21
1027.608	468.12
1027.898	450.95
1028.187	450.5
1028.477	455.24
1028.766	474.68
1029.055	443.27
1029.344	446.2
1029.634	455.24
1029.923	445.75
1030.212	459.54
1030.501	445.07
1030.79	449.37
1031.078	471.96
1031.367	444.62
1031.656	450.5
1031.945	436.94
1032.233	430.16
1032.522	451.85
1032.81	449.37
1033.099	431.97
1033.387	456.6
1033.675	417.5
1033.963	428.35
1034.251	441.46
1034.54	437.62
1034.828	421.8
1035.116	405.98
1035.403	431.97
1035.691	412.53
1035.979	402.59
1036.267	414.57
1036.554	430.84
1036.842	414.57
1037.129	427.45
1037.417	439.42
1037.704	432.87
1037.992	413.21
1038.279	413.66
1038.566	430.16
1038.853	430.16
1039.14	430.16
