Data from foam1_polythene_foam_FLMS001491_00022.txt Node
Date: Wed Feb 08 10:54:35 GMT 2017
User: dcchb
Spectrometer: FLMS00149
Trigger mode: 0
Integration Time (sec): 2.000000E-2
Scans to average: 10
Electric dark correction enabled: true
Nonlinearity correction enabled: false
Boxcar width: 0
XAxis mode: Wavelengths
Number of Pixels in Spectrum: 2048
>>>>>Begin Spectral Data<<<<<
341.393	-7.37
341.776	-7.37
342.16	-7.37
342.543	-69.52
342.927	-64.77
343.31	-66.13
343.693	-64.77
344.077	-63.19
344.46	-55.73
344.843	-46.47
345.226	-55.96
345.61	-25
345.993	-13.02
346.376	2.34
346.759	3.7
347.142	6.41
347.525	38.28
347.908	47.32
348.291	84.38
348.674	104.94
349.057	102.91
349.44	138.84
349.823	155.11
350.206	148.78
350.588	166.63
350.971	198.5
351.354	191.04
351.737	206.41
352.119	240.98
352.502	239.17
352.884	255.22
353.267	281.66
353.65	263.81
354.032	306.74
354.414	271.94
354.797	276.01
355.179	291.15
355.562	309.91
355.944	325.5
356.326	316.46
356.709	314.2
357.091	311.04
357.473	337.48
357.855	328.66
358.238	329.79
358.62	317.36
359.002	315.56
359.384	334.77
359.766	315.1
360.148	330.7
360.53	332.51
360.912	317.36
361.294	317.14
361.676	294.99
362.057	320.08
362.439	301.77
362.821	300.64
363.203	309
363.584	319.17
363.966	337.03
364.348	306.97
364.729	327.53
365.111	320.08
365.493	309.46
365.874	312.84
366.256	309.46
366.637	314.2
367.019	294.77
367.4	294.09
367.781	293.64
368.163	261.09
368.544	288.44
368.925	278.72
369.306	296.8
369.688	291.38
370.069	305.39
370.45	298.16
370.831	309.91
371.212	297.93
371.593	295.22
371.974	289.34
372.355	295.67
372.736	309.68
373.117	296.12
373.498	292.51
373.879	307.42
374.26	302
374.641	306.52
375.021	301.55
375.402	309
375.783	314.43
376.163	349.91
376.544	292.05
376.925	335.9
377.305	304.94
377.686	320.3
378.066	304.71
378.447	312.17
378.827	317.59
379.208	316.23
379.588	295.22
379.968	304.71
380.349	301.09
380.729	326.18
381.109	329.34
381.489	326.18
381.87	318.04
382.25	344.71
382.63	306.74
383.01	312.62
383.39	319.4
383.77	317.36
384.15	336.35
384.53	343.8
384.91	318.27
385.29	344.93
385.67	329.57
386.049	314.65
386.429	333.41
386.809	335.67
387.189	323.01
387.568	334.54
387.948	337.25
388.328	340.87
388.707	351.71
389.087	338.15
389.466	341.32
389.846	348.1
390.225	351.94
390.605	356.46
390.984	339.74
391.363	351.94
391.743	362.79
392.122	367.98
392.501	368.89
392.881	348.78
393.26	358.27
393.639	370.47
394.018	395.1
394.397	370.02
394.776	380.19
395.155	386.06
395.534	380.19
395.913	377.48
396.292	362.56
396.671	358.49
397.05	369.57
397.429	339.74
397.808	354.2
398.186	377.25
398.565	376.57
398.944	361.66
399.323	374.76
399.701	395.78
400.08	366.85
400.458	394.65
400.837	393.29
401.215	401.66
401.594	406.85
401.972	391.94
402.351	396.91
402.729	388.55
403.107	404.59
403.486	407.53
403.864	399.17
404.242	393.07
404.62	399.85
404.999	386.74
405.377	399.62
405.755	440.75
406.133	419.96
406.511	402.11
406.889	422.22
407.267	415.44
407.645	416.8
408.023	416.8
408.401	410.47
408.779	420.19
409.156	428.55
409.534	438.72
409.912	459.06
410.29	455.44
410.667	455.67
411.045	438.94
411.422	447.3
411.8	471.94
412.178	433.07
412.555	460.19
412.933	443.24
413.31	461.09
413.687	461.99
414.065	460.64
414.442	457.02
414.819	476.91
415.197	457.25
415.574	489.79
415.951	470.58
416.328	497.02
416.705	457.7
417.082	494.54
417.46	484.37
417.837	474.65
418.214	499.73
418.591	489.11
418.967	509.45
419.344	494.08
419.721	509.68
420.098	516.91
420.475	520.52
420.852	532.05
421.228	514.42
421.605	526.85
421.982	510.58
422.358	525.27
422.735	544.93
423.111	536.34
423.488	541.54
423.864	560.97
424.241	547.19
424.617	543.12
424.994	535.44
425.37	569.34
425.746	566.62
426.123	563.69
426.499	569.11
426.875	590.8
427.251	584.25
427.627	591.26
428.003	597.13
428.379	603.01
428.756	558.71
429.132	597.58
429.507	593.97
429.883	600.07
430.259	629.22
430.635	594.65
431.011	602.33
431.387	641.65
431.763	634.42
432.138	650.01
432.514	653.85
432.89	657.24
433.265	673.51
433.641	682.78
434.016	646.17
434.392	672.61
434.767	691.14
435.143	698.82
435.518	672.61
435.894	680.07
436.269	729.33
436.644	729.56
437.02	696.34
437.395	737.01
437.77	738.37
438.145	740.4
438.52	725.26
438.895	762.1
439.271	768.2
439.646	756.22
440.021	767.3
440.395	763.91
440.77	771.36
441.145	793.28
441.52	815.2
441.895	820.63
442.27	811.81
442.645	791.7
443.019	815.43
443.394	800.52
443.769	820.18
444.143	812.72
444.518	853.4
444.892	836.45
445.267	863.11
445.641	855.43
446.016	867.41
446.39	858.82
446.764	885.26
447.139	880.06
447.513	885.94
447.887	894.98
448.262	901.3
448.636	907.63
449.01	940.17
449.384	906.73
449.758	911.25
450.132	920.51
450.506	948.08
450.88	950.79
451.254	949.21
451.628	954.86
452.002	967.52
452.376	942.66
452.75	989.66
453.123	1002.32
453.497	1007.97
453.871	987.63
454.244	1017.01
454.618	1020.62
454.992	998.7
455.365	1050.68
455.739	1028.53
456.112	1074.86
456.486	1053.39
456.859	1057.46
457.232	1074.63
457.606	1072.82
457.979	1068.76
458.352	1110.11
458.725	1113.28
459.099	1120.06
459.472	1107.85
459.845	1146.04
460.218	1117.12
460.591	1157.12
460.964	1148.3
461.337	1162.77
461.71	1191.92
462.083	1195.08
462.456	1198.25
462.829	1195.31
463.201	1202.31
463.574	1217.68
463.947	1207.28
464.32	1227.62
464.692	1241.41
465.065	1267.17
465.438	1244.8
465.81	1301.07
466.183	1307.4
466.555	1304.46
466.928	1300.39
467.3	1326.15
467.672	1337.22
468.045	1348.3
468.417	1365.02
468.789	1382.42
469.161	1393.27
469.534	1399.14
469.906	1426.71
470.278	1453.15
470.65	1454.51
471.022	1450.89
471.394	1481.4
471.766	1506.71
472.138	1536.77
472.51	1537.45
472.882	1557.11
473.253	1562.08
473.625	1565.92
473.997	1625.58
474.369	1631.91
474.74	1633.71
475.112	1692.7
475.484	1715.75
475.855	1703.99
476.227	1734.5
476.598	1779.7
476.97	1778.8
477.341	1829.19
477.713	1825.12
478.084	1852.47
478.455	1892.92
478.827	1903.76
479.198	1932.24
479.569	1954.84
479.94	1981.05
480.311	2007.94
480.682	2077.54
481.053	2060.6
481.424	2102.4
481.795	2112.35
482.166	2147.37
482.537	2163.19
482.908	2232.12
483.279	2244.09
483.65	2291.1
484.021	2331.77
484.391	2372.9
484.762	2355.28
485.133	2384.2
485.503	2423.07
485.874	2461.49
486.244	2514.14
486.615	2529.06
486.985	2525.44
487.356	2582.62
487.726	2648.38
488.097	2650.18
488.467	2696.06
488.837	2704.19
489.207	2755.94
489.578	2759.56
489.948	2800.69
490.318	2850.41
490.688	2850.63
491.058	2895.6
491.428	2950.74
491.798	2960.23
492.168	2991.19
492.538	3042.94
492.908	3065.99
493.278	3085.43
493.648	3099.89
494.017	3148.7
494.387	3163.84
494.757	3214.92
495.126	3226.67
495.496	3251.07
495.866	3249.94
496.235	3314.57
496.605	3324.52
496.974	3352.76
497.344	3409.03
497.713	3368.13
498.082	3420.56
498.452	3457.85
498.821	3510.95
499.19	3528.35
499.559	3545.98
499.928	3497.85
500.298	3575.13
500.667	3629.14
501.036	3666.2
501.405	3627.56
501.774	3654.45
502.143	3681.12
502.512	3694
502.88	3743.72
503.249	3750.04
503.618	3806.31
503.987	3783.04
504.356	3829.14
504.724	3829.14
505.093	3861.68
505.462	3867.78
505.83	3919.53
506.199	3894.45
506.567	4002.92
506.936	4023.71
507.304	4041.11
507.672	4084.72
508.041	4137.15
508.409	4113.87
508.777	4150.71
509.145	4220.09
509.514	4225.74
509.882	4230.71
510.25	4226.19
510.618	4262.8
510.986	4259.41
511.354	4341.67
511.722	4344.83
512.09	4421.89
512.458	4400.2
512.826	4443.81
513.193	4479.74
513.561	4498.95
513.929	4547.08
514.297	4564.03
514.664	4614.43
515.032	4604.71
515.4	4677.48
515.767	4698.04
516.135	4703.01
516.502	4665.05
516.869	4791.15
517.237	4791.82
517.604	4798.6
517.972	4849.45
518.339	4924.25
518.706	4919.5
519.073	4940.52
519.44	5020.97
519.808	5011.48
520.175	5051.7
520.542	5080.18
520.909	5085.83
521.276	5084.92
521.643	5220.74
522.009	5264.58
522.376	5302.09
522.743	5320.62
523.11	5358.14
523.477	5415.31
523.843	5451.92
524.21	5528.53
524.577	5544.8
524.943	5573.05
525.31	5624.34
525.676	5643.33
526.043	5635.87
526.409	5727.62
526.776	5740.95
527.142	5743.21
527.508	5852.36
527.874	5865.69
528.241	5917.9
528.607	5893.04
528.973	5933.04
529.339	5973.71
529.705	5982.07
530.071	6081.28
530.437	6088.06
530.803	6104.56
531.169	6194.05
531.535	6141.39
531.901	6232.69
532.267	6228.4
532.632	6300.94
532.998	6323.76
533.364	6334.61
533.73	6345
534.095	6453.93
534.461	6418
534.826	6459.8
535.192	6516.98
535.557	6532.57
535.923	6575.51
536.288	6549.07
536.653	6581.83
537.019	6611.21
537.384	6583.41
537.749	6636.07
538.114	6681.27
538.479	6683.07
538.845	6705.22
539.21	6723.07
539.575	6803.3
539.94	6780.02
540.305	6883.29
540.67	6848.49
541.034	6882.16
541.399	6908.6
541.764	6930.98
542.129	6916.74
542.494	6964.42
542.858	7003.06
543.223	6946.34
543.587	7070.18
543.952	7038.32
544.316	7043.74
544.681	7120.12
545.045	7148.6
545.41	7141.82
545.774	7153.57
546.138	7175.26
546.503	7205.32
546.867	7225.88
547.231	7243.28
547.595	7288.25
547.959	7355.37
548.324	7315.15
548.688	7354.24
549.052	7403.51
549.416	7350.63
549.779	7416.84
550.143	7404.18
550.507	7451.19
550.871	7521.69
551.235	7514.01
551.599	7576.16
551.962	7576.61
552.326	7610.28
552.689	7701.58
553.053	7575.25
553.417	7645.76
553.78	7791.29
554.143	7768.24
554.507	7777.96
554.87	7798.98
555.234	7846.66
555.597	7838.97
555.96	7909.93
556.323	7965.75
556.686	7911.52
557.05	8018.4
557.413	8021.57
557.776	7971.85
558.139	8067.67
558.502	8116.48
558.865	8149.7
559.228	8205.74
559.59	8190.15
559.953	8205.52
560.316	8319.64
560.679	8251.62
561.041	8367.1
561.404	8362.35
561.767	8429.24
562.129	8440.31
562.492	8506.08
562.854	8494.1
563.217	8502.01
563.579	8575.45
563.941	8604.15
564.304	8572.97
564.666	8705.39
565.028	8647.32
565.39	8737.03
565.753	8809.34
566.115	8870.59
566.477	8899.06
566.839	8929.12
567.201	8967.08
567.563	9016.57
567.925	9047.53
568.287	9036.46
568.648	9040.07
569.01	9128.43
569.372	9182.67
569.734	9158.94
570.095	9228.99
570.457	9237.13
570.819	9261.31
571.18	9290.24
571.542	9325.04
571.903	9343.57
572.265	9388.99
572.626	9412.72
572.987	9400.06
573.349	9501.53
573.71	9493.39
574.071	9565.71
574.432	9529.33
574.794	9541.75
575.155	9585.37
575.516	9635.76
575.877	9628.08
576.238	9588.53
576.599	9664.24
576.96	9656.55
577.32	9661.75
577.681	9726.61
578.042	9790.11
578.403	9726.38
578.763	9688.87
579.124	9753.5
579.485	9728.64
579.845	9770.45
580.206	9787.85
580.566	9843.67
580.927	9763.67
581.287	9767.74
581.648	9858.36
582.008	9942.42
582.368	9837.57
582.728	9798.47
583.089	9849.77
583.449	9815.42
583.809	9915.98
584.169	9758.25
584.529	9864.46
584.889	9903.78
585.249	9834.63
585.609	9811.58
585.969	9844.35
586.329	9829.66
586.688	9881.41
587.048	9932.25
587.408	9875.31
587.768	9835.31
588.127	9828.3
588.487	9909.43
588.846	9969.31
589.206	9859.71
589.565	9902.2
589.925	9917.56
590.284	9975.42
590.643	9919.37
591.003	9884.8
591.362	9951.69
591.721	9968.86
592.08	9889.99
592.44	9886.83
592.799	10029.88
593.158	9921.41
593.517	9925.02
593.876	9934.74
594.235	9939.94
594.593	9975.87
594.952	9974.51
595.311	9927.28
595.67	9968.41
596.029	10021.29
596.387	10025.58
596.746	10054.51
597.104	10011.57
597.463	10015.41
597.822	9960.5
598.18	9922.76
598.538	9949.88
598.897	10033.27
599.255	9935.64
599.613	10050.89
599.972	10006.6
600.33	10052.7
600.688	9956.21
601.046	10040.5
601.404	10034.17
601.762	10060.39
602.12	10055.19
602.478	10076.66
602.836	10138.35
603.194	10067.39
603.552	10013.38
603.91	10082.53
604.268	10092.47
604.625	10033.72
604.983	10128.63
605.341	10072.59
605.698	10149.65
606.056	10195.07
606.413	10141.06
606.771	10208.4
607.128	10148.97
607.485	10148.07
607.843	10220.16
608.2	10238.69
608.557	10140.84
608.914	10197.1
609.272	10285.69
609.629	10275.97
609.986	10324.79
610.343	10245.92
610.7	10280.94
611.057	10233.71
611.414	10297.44
611.771	10317.1
612.127	10332.02
612.484	10373.82
612.841	10392.81
613.198	10284.79
613.554	10294.96
613.911	10409.98
614.267	10419.25
614.624	10399.13
614.98	10324.56
615.337	10342.86
615.693	10338.57
616.05	10330.21
616.406	10390.09
616.762	10374.28
617.118	10334.95
617.475	10402.75
617.831	10381.28
618.187	10490.88
618.543	10462.41
618.899	10534.95
619.255	10498.11
619.611	10511.22
619.967	10431.9
620.323	10452.47
620.678	10487.04
621.034	10356.87
621.39	10453.14
621.746	10457.44
622.101	10471.67
622.457	10449.53
622.812	10475.06
623.168	10471.9
623.523	10483.2
623.879	10512.35
624.234	10449.53
624.589	10484.55
624.945	10473.93
625.3	10463.76
625.655	10474.84
626.01	10487.72
626.365	10474.61
626.72	10464.67
627.075	10446.14
627.43	10415.86
627.785	10414.5
628.14	10479.58
628.495	10433.26
628.85	10478.68
629.205	10398.91
629.559	10475.74
629.914	10400.04
630.269	10409.08
630.623	10361.62
630.978	10418.34
631.332	10448.62
631.687	10398.46
632.041	10308.51
632.396	10329.98
632.75	10350.77
633.104	10327.5
633.459	10296.31
633.813	10299.02
634.167	10296.09
634.521	10244.79
634.875	10202.98
635.229	10278.91
635.583	10156.43
635.937	10125.69
636.291	10159.82
636.645	10150.55
636.999	10085.7
637.352	10249.08
637.706	10118.01
638.06	10134.96
638.413	10153.49
638.767	10082.98
639.121	10141.74
639.474	9993.49
639.828	10065.58
640.181	10028.75
640.534	10019.26
640.888	9953.95
641.241	9908.07
641.594	9946.49
641.947	10000.27
642.301	10004.57
642.654	10001.18
643.007	10016.77
643.36	9925.25
643.713	9938.13
644.066	9995.75
644.419	9901.07
644.771	9864.23
645.124	9780.62
645.477	9750.56
645.83	9663.33
646.182	9641.87
646.535	9502.66
646.888	9535.88
647.24	9528.65
647.593	9531.59
647.945	9518.25
648.298	9491.13
648.65	9462.21
649.002	9431.93
649.355	9525.48
649.707	9526.16
650.059	9507.18
650.411	9555.31
650.763	9629.21
651.115	9748.98
651.467	9688.87
651.819	9674.41
652.171	9674.41
652.523	9633.28
652.875	9643
653.227	9517.8
653.578	9565.03
653.93	9630.34
654.282	9608.87
654.633	9558.93
654.985	9556.44
655.337	9585.14
655.688	9565.71
656.039	9583.79
656.391	9534.3
656.742	9611.36
657.094	9544.47
657.445	9614.75
657.796	9510.34
658.147	9499.72
658.498	9507.86
658.849	9457.69
659.2	9505.82
659.551	9467.18
659.902	9505.6
660.253	9472.6
660.604	9472.38
660.955	9366.62
661.306	9489.78
661.656	9404.81
662.007	9419.95
662.358	9448.88
662.708	9450.23
663.059	9381.08
663.409	9302.21
663.76	9441.64
664.11	9391.93
664.461	9369.56
664.811	9301.31
665.161	9354.64
665.511	9279.39
665.862	9354.64
666.212	9429.44
666.562	9349.9
666.912	9301.99
667.262	9279.16
667.612	9284.13
667.962	9241.42
668.312	9292.5
668.662	9306.05
669.011	9308.99
669.361	9199.39
669.711	9246.17
670.06	9221.99
670.41	9217.47
670.76	9228.54
671.109	9221.54
671.459	9189.67
671.808	9197.81
672.157	9183.8
672.507	9114.42
672.856	9127.08
673.205	9109
673.554	9213.63
673.904	9137.47
674.253	9149.45
674.602	9170.01
674.951	8983.8
675.3	8938.15
675.649	9097.47
675.998	9146.51
676.346	9087.3
676.695	9119.84
677.044	9129.11
677.393	9085.95
677.741	9099.96
678.09	9043.69
678.438	9005.72
678.787	9092.05
679.135	9043.91
679.484	9026.06
679.832	9069.22
680.181	8974.76
680.529	9019.96
680.877	8995.1
681.225	9038.49
681.573	9028.32
681.922	8939.96
682.27	8890.25
682.618	8931.15
682.966	8927.76
683.314	8892.51
683.661	8900.87
684.009	8843.47
684.357	8852.28
684.705	8845.5
685.053	8853.41
685.4	8851.15
685.748	8741.78
686.095	8755.56
686.443	8739.74
686.79	8722.57
687.138	8737.26
687.485	8730.7
687.832	8717.82
688.18	8770.48
688.527	8634.21
688.874	8679.4
689.221	8648.9
689.568	8627.88
689.915	8590.82
690.262	8531.61
690.609	8532.06
690.956	8498.17
691.303	8479.64
691.65	8458.62
691.997	8459.3
692.344	8409.81
692.69	8441.22
693.037	8365.97
693.383	8318.51
693.73	8362.8
694.077	8315.8
694.423	8242.13
694.769	8255.69
695.116	8215.69
695.462	8202.81
695.808	8252.52
696.155	8228.12
696.501	8151.96
696.847	8076.48
697.193	8067.9
697.539	8103.15
697.885	8016.15
698.231	7985.64
698.577	8054.79
698.923	7939.99
699.269	7942.02
699.614	7909.26
699.96	7904.06
700.306	7841.69
700.651	7838.52
700.997	7848.24
701.342	7833.55
701.688	7832.87
702.033	7799.88
702.379	7719.43
702.724	7761.69
703.069	7799.88
703.415	7679.66
703.76	7670.39
704.105	7699.77
704.45	7728.24
704.795	7637.85
705.14	7585.65
705.485	7614.8
705.83	7533.22
706.175	7641.24
706.52	7559.21
706.865	7547.46
707.209	7526.44
707.554	7497.74
707.899	7480.34
708.243	7470.62
708.588	7410.06
708.932	7421.58
709.277	7423.62
709.621	7395.37
709.966	7341.36
710.31	7377.52
710.654	7330.29
710.998	7395.37
711.342	7310.85
711.687	7336.39
712.031	7310.18
712.375	7205.09
712.719	7221.14
713.063	7205.09
713.407	7231.98
713.75	7213.68
714.094	7238.99
714.438	7221.59
714.782	7244.87
715.125	7152.67
715.469	7179.56
715.812	7157.41
716.156	7160.8
716.499	7115.6
716.843	7137.3
717.186	7032.22
717.53	7065.66
717.873	7090.29
718.216	7011.65
718.559	7042.61
718.902	7009.17
719.246	7021.37
719.589	6967.59
719.932	6971.43
720.275	6965.1
720.617	6987.02
720.96	6932.78
721.303	6916.06
721.646	6996.74
721.989	6897.76
722.331	6886.01
722.674	6915.84
723.016	6868.38
723.359	6855.95
723.701	6835.84
724.044	6853.69
724.386	6770.98
724.729	6794.03
725.071	6766.46
725.413	6755.39
725.755	6799.45
726.097	6684.43
726.439	6698.21
726.782	6732.56
727.124	6784.77
727.465	6704.09
727.807	6667.48
728.149	6700.25
728.491	6660.25
728.833	6625.45
729.175	6713.58
729.516	6562.62
729.858	6604.2
730.199	6563.3
730.541	6610.31
730.882	6566.24
731.224	6603.07
731.565	6547.71
731.906	6516.75
732.248	6552.68
732.589	6535.28
732.93	6465.45
733.271	6518.56
733.612	6546.81
733.953	6495.73
734.294	6458.9
734.635	6415.96
734.976	6458.9
735.317	6496.86
735.658	6466.58
735.999	6415.06
736.339	6421.38
736.68	6381.39
737.021	6423.19
737.361	6377.54
737.702	6454.15
738.042	6415.28
738.383	6386.13
738.723	6405.57
739.063	6362.4
739.404	6422.06
739.744	6362.86
740.084	6363.31
740.424	6345.23
740.764	6279.69
741.104	6276.98
741.444	6274.95
741.784	6286.7
742.124	6290.99
742.464	6257.55
742.804	6259.58
743.143	6204.89
743.483	6293.48
743.823	6184.1
744.162	6202.86
744.502	6195.4
744.841	6234.27
745.181	6190.43
745.52	6149.53
745.86	6161.5
746.199	6205.57
746.538	6171.45
746.877	6203.76
747.216	6135.97
747.556	6170.54
747.895	6171
748.234	6112.24
748.573	6112.69
748.911	6075.41
749.25	6116.08
749.589	6072.47
749.928	6069.53
750.267	6094.61
750.605	6030.21
750.944	5969.65
751.283	5993.37
751.621	6043.32
751.96	5993.83
752.298	5960.38
752.636	5956.54
752.975	5934.39
753.313	5935.07
753.651	5949.76
753.989	5969.65
754.327	5888.29
754.666	5903.88
755.004	5877.22
755.342	5894.62
755.679	5854.85
756.017	5778.24
756.355	5856.2
756.693	5825.92
757.031	5827.05
757.368	5804
757.706	5783.44
758.044	5770.78
758.381	5793.15
758.719	5718.58
759.056	5760.16
759.394	5702.53
759.731	5694.62
760.068	5657.56
760.405	5604.01
760.743	5648.52
761.08	5668.41
761.417	5607.85
761.754	5638.81
762.091	5614.4
762.428	5584.12
762.765	5552.26
763.102	5543.44
763.438	5502.09
763.775	5455.08
764.112	5527.85
764.449	5517.91
764.785	5465.25
765.122	5438.81
765.458	5415.54
765.795	5380.51
766.131	5385.25
766.467	5388.87
766.804	5303
767.14	5371.47
767.476	5299.61
767.812	5290.12
768.148	5356.1
768.485	5269.78
768.821	5204.02
769.157	5230.23
769.492	5248.31
769.828	5265.48
770.164	5180.06
770.5	5239.95
770.836	5135.32
771.171	5097.58
771.507	5115.88
771.842	5093.06
772.178	5061.19
772.513	5066.84
772.849	5060.29
773.184	5030.46
773.519	5042.21
773.855	5004.47
774.19	5010.57
774.525	4975.77
774.86	5019.61
775.195	4990.69
775.53	4928.54
775.865	4896
776.2	4913.85
776.535	4898.49
776.87	4854.65
777.205	4851.71
777.539	4819.62
777.874	4855.1
778.209	4835.44
778.543	4813.52
778.878	4796.34
779.212	4761.99
779.547	4740.75
779.881	4762.9
780.215	4748.43
780.55	4696.68
780.884	4733.52
781.218	4666.63
781.552	4643.8
781.886	4655.56
782.22	4597.48
782.554	4578.72
782.888	4578.5
783.222	4557.25
783.556	4546.18
783.889	4512.96
784.223	4495.33
784.557	4513.41
784.89	4474.09
785.224	4487.42
785.557	4490.59
785.891	4456.92
786.224	4462.57
786.558	4415.79
786.891	4392.51
787.224	4369.46
787.557	4364.94
787.891	4363.36
788.224	4365.39
788.557	4371.27
788.89	4335.56
789.223	4348.9
789.556	4315.23
789.888	4272.29
790.221	4268.9
790.554	4295.34
790.887	4225.28
791.219	4225.74
791.552	4247.43
791.884	4225.51
792.217	4164.27
792.549	4171.27
792.882	4153.65
793.214	4151.16
793.546	4136.7
793.879	4121.56
794.211	4102.12
794.543	4138.51
794.875	4094.89
795.207	4098.06
795.539	4056.25
795.871	4084.27
796.203	3996.82
796.535	4016.7
796.867	3985.29
797.198	3975.35
797.53	3964.05
797.862	3960.88
798.193	3946.42
798.525	3923.6
798.856	3949.59
799.188	3925.86
799.519	3852.86
799.85	3891.06
800.182	3823.49
800.513	3856.48
800.844	3849.93
801.175	3851.96
801.506	3840.89
801.837	3829.36
802.168	3816.71
802.499	3809.48
802.83	3822.58
803.161	3755.92
803.491	3729.48
803.822	3717.05
804.153	3765.18
804.483	3745.97
804.814	3716.15
805.145	3691.51
805.475	3680.21
805.805	3694.45
806.136	3681.12
806.466	3662.81
806.796	3693.09
807.126	3680.44
807.457	3659.2
807.787	3625.98
808.117	3605.19
808.447	3580.33
808.777	3611.74
809.107	3620.78
809.436	3599.76
809.766	3577.39
810.096	3527.9
810.426	3589.59
810.755	3573.1
811.085	3565.64
811.414	3539.88
811.744	3525.42
812.073	3539.2
812.403	3484.06
812.732	3529.48
813.061	3488.58
813.39	3519.77
813.719	3456.72
814.049	3459.65
814.378	3484.74
814.707	3456.94
815.036	3453.55
815.365	3462.59
815.693	3424.63
816.022	3401.13
816.351	3407
816.68	3369.26
817.008	3384.63
817.337	3342.82
817.665	3338.3
817.994	3376.72
818.322	3361.8
818.651	3378.3
818.979	3322.94
819.307	3342.37
819.636	3385.76
819.964	3326.78
820.292	3346.66
820.62	3324.52
820.948	3316.38
821.276	3317.29
821.604	3297.17
821.932	3345.99
822.259	3353.22
822.587	3312.31
822.915	3339.66
823.243	3353.44
823.57	3321.35
823.898	3322.94
824.225	3299.88
824.553	3314.57
824.88	3326.1
825.207	3325.2
825.535	3326.32
825.862	3330.17
826.189	3272.54
826.516	3310.51
826.843	3326.1
827.17	3296.27
827.497	3309.83
827.824	3307.57
828.151	3321.81
828.478	3305.99
828.805	3310.28
829.131	3328.81
829.458	3297.63
829.785	3285.87
830.111	3271.64
830.438	3333.78
830.764	3318.19
831.09	3332.65
831.417	3355.93
831.743	3277.96
832.069	3302.37
832.395	3311.41
832.722	3290.17
833.048	3296.5
833.374	3327.45
833.7	3296.04
834.026	3347.12
834.351	3281.35
834.677	3256.95
835.003	3312.31
835.329	3268.25
835.654	3272.77
835.98	3241.81
836.306	3270.06
836.631	3229.83
836.956	3242.71
837.282	3260.56
837.607	3243.62
837.932	3214.92
838.258	3247.23
838.583	3269.38
838.908	3172.2
839.233	3215.14
839.558	3240.68
839.883	3194.35
840.208	3220.57
840.533	3179.21
840.858	3177.18
841.182	3172.66
841.507	3151.87
841.832	3165.2
842.156	3148.7
842.481	3137.4
842.805	3147.8
843.13	3129.27
843.454	3117.97
843.778	3119.32
844.103	3132.88
844.427	3114.35
844.751	3102.83
845.075	3090.17
845.399	3071.19
845.723	3057.86
846.047	3047.24
846.371	3019.44
846.695	3004.3
847.019	2997.75
847.343	3013.11
847.666	3022.15
847.99	3001.81
848.313	2965.66
848.637	2958.2
848.96	2958.2
849.284	2938.54
849.607	2933.11
849.931	2916.17
850.254	2895.15
850.577	2899.67
850.9	2859.44
851.223	2827.81
851.546	2866.22
851.869	2831.2
852.192	2835.26
852.515	2845.66
852.838	2828.48
853.161	2788.49
853.483	2790.97
853.806	2816.73
854.129	2784.64
854.451	2743.74
854.774	2748.04
855.096	2733.35
855.419	2750.07
855.741	2771.99
856.063	2720.01
856.385	2705.78
856.708	2707.36
857.03	2702.16
857.352	2724.76
857.674	2717.53
857.996	2655.83
858.318	2660.13
858.64	2676.85
858.961	2682.5
859.283	2633.24
859.605	2647.7
859.926	2632.11
860.248	2630.07
860.57	2635.27
860.891	2615.38
861.212	2650.41
861.534	2626.91
861.855	2609.96
862.176	2610.19
862.498	2609.51
862.819	2627.59
863.14	2626
863.461	2572.9
863.782	2606.8
864.103	2590.75
864.424	2578.77
864.745	2607.93
865.065	2573.58
865.386	2571.09
865.707	2565.67
866.027	2592.33
866.348	2571.77
866.668	2541.49
866.989	2544.65
867.309	2528.15
867.63	2553.69
867.95	2558.44
868.27	2543.07
868.59	2562.28
868.91	2564.76
869.23	2561.15
869.55	2514.37
869.87	2558.89
870.19	2529.96
870.51	2528.61
870.83	2510.53
871.15	2507.36
871.469	2501.94
871.789	2505.78
872.109	2521.37
872.428	2481.15
872.748	2477.76
873.067	2501.71
873.386	2507.14
873.706	2511.66
874.025	2480.47
874.344	2480.02
874.663	2500.13
874.982	2489.06
875.301	2519.11
875.62	2492.9
875.939	2492.45
876.258	2470.3
876.577	2459
876.896	2439.57
877.214	2441.83
877.533	2450.19
877.852	2433.69
878.17	2487.93
878.489	2437.31
878.807	2415.84
879.125	2470.75
879.444	2440.92
879.762	2416.97
880.08	2432.11
880.398	2428.04
880.716	2417.42
881.034	2438.21
881.352	2398.44
881.67	2397.76
881.988	2435.5
882.306	2369.29
882.624	2400.25
882.941	2381.94
883.259	2364.54
883.577	2370.87
883.894	2374.03
884.212	2333.81
884.529	2339.46
884.846	2360.02
885.164	2344.66
885.481	2380.59
885.798	2362.06
886.115	2336.07
886.432	2309.85
886.75	2325.45
887.067	2332.68
887.383	2351.66
887.7	2272.79
888.017	2308.72
888.334	2337.65
888.651	2312.79
888.967	2286.35
889.284	2291.55
889.6	2279.8
889.917	2290.65
890.233	2267.14
890.55	2241.61
890.866	2261.72
891.182	2260.14
891.498	2257.2
891.815	2264.21
892.131	2253.81
892.447	2245.22
892.763	2200.25
893.079	2202.29
893.395	2189.41
893.71	2183.3
894.026	2204.77
894.342	2202.06
894.657	2202.51
894.973	2179.69
895.289	2182.85
895.604	2177.2
895.92	2170.42
896.235	2158.9
896.55	2157.54
896.865	2141.5
897.181	2150.76
897.496	2150.99
897.811	2132.68
898.126	2148.73
898.441	2095.85
898.756	2093.14
899.071	2087.94
899.386	2077.32
899.7	2040.71
900.015	2066.25
900.33	2059.24
900.644	2063.31
900.959	2050.2
901.273	2063.99
901.588	2054.27
901.902	2074.61
902.216	2028.51
902.531	2012.46
902.845	2028.51
903.159	2015.17
903.473	1981.05
903.787	1998.45
904.101	1952.35
904.415	1994.61
904.729	1959.36
905.042	1986.93
905.356	1933.37
905.67	1968.85
905.984	1935.85
906.297	1958.23
906.611	1955.51
906.924	1929.3
907.237	1936.08
907.551	1947.83
907.864	1923.2
908.177	1882.07
908.491	1922.07
908.804	1910.77
909.117	1885.68
909.43	1872.58
909.743	1891.79
910.056	1872.58
910.368	1854.95
910.681	1836.42
910.994	1856.99
911.307	1840.71
911.619	1813.37
911.932	1839.13
912.244	1826.93
912.557	1812.24
912.869	1824.9
913.181	1804.11
913.494	1797.1
913.806	1816.53
914.118	1814.95
914.43	1793.26
914.742	1797.1
915.054	1775.41
915.366	1743.09
915.678	1782.64
915.99	1760.26
916.302	1765.01
916.613	1743.99
916.925	1751.68
917.236	1756.65
917.548	1726.59
917.859	1706.71
918.171	1677.78
918.482	1714.16
918.794	1717.55
919.105	1692.7
919.416	1679.59
919.727	1699.93
920.038	1680.49
920.349	1660.15
920.66	1689.98
920.971	1653.15
921.282	1658.8
921.593	1657.22
921.903	1651.57
922.214	1608.4
922.525	1619.7
922.835	1618.57
923.146	1574.28
923.456	1630.78
923.767	1584.9
924.077	1599.59
924.387	1608.18
924.697	1592.36
925.008	1591.46
925.318	1590.55
925.628	1587.61
925.938	1578.12
926.248	1552.59
926.558	1554.17
926.867	1564.56
927.177	1551.46
927.487	1539.25
927.796	1526.37
928.106	1548.29
928.416	1528.18
928.725	1521.85
929.034	1523.66
929.344	1516.2
929.653	1513.94
929.962	1476.66
930.271	1465.81
930.581	1473.94
930.89	1482.31
931.199	1480.05
931.508	1493.38
931.817	1487.73
932.125	1473.27
932.434	1488.41
932.743	1441.4
933.051	1439.37
933.36	1453.83
933.669	1400.5
933.977	1427.84
934.286	1436.66
934.594	1404.34
934.902	1422.19
935.21	1426.04
935.519	1422.65
935.827	1406.15
936.135	1417
936.443	1388.97
936.751	1391.91
937.059	1376.32
937.367	1390.33
937.674	1363.66
937.982	1366.38
938.29	1372.03
938.597	1365.7
938.905	1355.76
939.213	1344
939.52	1322.54
939.827	1347.17
940.135	1349.65
940.442	1339.26
940.749	1325.7
941.056	1309.65
941.363	1337
941.67	1318.02
941.977	1341.97
942.284	1337.9
942.591	1300.39
942.898	1307.4
943.205	1292.25
943.511	1297.23
943.818	1297.9
944.125	1249.09
944.431	1265.59
944.738	1297
945.044	1305.36
945.35	1278.7
945.657	1276.89
945.963	1267.17
946.269	1265.59
946.575	1252.71
946.881	1269.66
947.187	1258.58
947.493	1237.57
947.799	1249.32
948.105	1246.83
948.41	1232.82
948.716	1232.59
949.022	1212.48
949.327	1210.67
949.633	1216.78
949.938	1189.43
950.244	1218.81
950.549	1196.66
950.854	1178.36
951.16	1175.87
951.465	1217
951.77	1163.44
952.075	1196.21
952.38	1165.7
952.685	1179.26
952.99	1132.48
953.294	1150.79
953.599	1134.97
953.904	1138.59
954.209	1158.92
954.513	1160.05
954.818	1143.78
955.122	1146.72
955.426	1114.41
955.731	1130.68
956.035	1111.24
956.339	1132.48
956.643	1132.03
956.948	1109.43
957.252	1105.14
957.556	1094.75
957.86	1104.01
958.163	1097.23
958.467	1103.56
958.771	1085.48
959.075	1104.69
959.378	1108.98
959.682	1105.82
959.985	1088.19
960.289	1078.25
960.592	1084.35
960.896	1113.5
961.199	1090.68
961.502	1073.95
961.805	1058.36
962.108	1062.43
962.411	1041.64
962.714	1046.84
963.017	1025.82
963.32	1037.12
963.623	1023.11
963.926	1040.51
964.228	1020.17
964.531	1035.31
964.833	1026.05
965.136	1049.1
965.438	1023.11
965.741	1009.32
966.043	1020.4
966.345	1019.94
966.648	998.93
966.95	1012.71
967.252	1002.09
967.554	991.92
967.856	1009.78
968.158	995.99
968.46	981.98
968.761	973.17
969.063	1007.52
969.365	995.76
969.666	997.8
969.968	954.86
970.269	989.44
970.571	983.11
970.872	956.9
971.174	970.68
971.475	977.46
971.776	963.9
972.077	963.45
972.378	926.84
972.679	961.87
972.98	958.03
973.281	937.24
973.582	950.79
973.883	946.05
974.183	887.75
974.484	925.26
974.785	918.93
975.085	921.87
975.386	913.28
975.686	914.41
975.986	914.86
976.287	901.3
976.587	902.66
976.887	891.13
977.187	908.08
977.487	940.62
977.787	905.37
978.087	877.8
978.387	860.63
978.687	920.51
978.987	887.07
979.286	902.66
979.586	894.75
979.885	897.01
980.185	880.97
980.484	877.8
980.784	890
981.083	882.32
981.382	871.25
981.682	839.84
981.981	857.01
982.28	883.9
982.579	852.04
982.878	843
983.177	841.87
983.475	832.15
983.774	832.83
984.073	854.98
984.372	831.25
984.67	842.32
984.969	829.22
985.267	838.93
985.566	843.45
985.864	829.22
986.162	827.86
986.461	812.49
986.759	834.19
987.057	800.52
987.355	819.05
987.653	804.81
987.951	790.57
988.249	791.7
988.547	797.58
988.844	806.17
989.142	789.44
989.44	801.65
989.737	761.42
990.035	779.05
990.332	790.57
990.63	798.48
990.927	765.04
991.224	801.19
991.521	777.24
991.819	772.72
992.116	777.01
992.413	777.69
992.71	767.52
993.006	750.8
993.303	751.48
993.6	736.79
993.897	772.04
994.193	784.47
994.49	772.27
994.787	757.58
995.083	753.29
995.379	736.34
995.676	752.83
995.972	730.69
996.268	730.69
996.565	741.08
996.861	721.87
997.157	732.95
997.453	723.46
997.749	729.11
998.044	718.03
998.34	722.55
998.636	698.82
998.932	709.9
999.227	699.73
999.523	699.95
999.818	704.92
1000.114	723
1000.409	712.16
1000.704	701.76
1001	694.3
1001.295	691.82
1001.59	683.68
1001.885	684.36
1002.18	679.39
1002.475	673.29
1002.77	677.13
1003.065	692.27
1003.359	692.5
1003.654	667.41
1003.949	651.59
1004.243	652.95
1004.538	657.47
1004.832	680.07
1005.127	652.5
1005.421	642.1
1005.715	658.6
1006.009	660.86
1006.304	644.36
1006.598	640.97
1006.892	658.82
1007.186	635.77
1007.48	636.45
1007.773	666.96
1008.067	627.64
1008.361	628.99
1008.655	625.61
1008.948	635.32
1009.242	625.38
1009.535	650.46
1009.829	631.93
1010.122	619.73
1010.415	614.08
1010.708	623.35
1011.001	606.85
1011.295	620.41
1011.588	635.32
1011.881	601.88
1012.173	597.13
1012.466	596.68
1012.759	605.04
1013.052	606.4
1013.344	623.35
1013.637	609.11
1013.93	606.85
1014.222	594.65
1014.514	606.85
1014.807	606.17
1015.099	600.75
1015.391	591.93
1015.683	594.19
1015.976	589.67
1016.268	564.59
1016.56	592.61
1016.851	588.54
1017.143	582.89
1017.435	601.65
1017.727	596.45
1018.018	561.88
1018.31	576.57
1018.602	575.44
1018.893	572.27
1019.185	567.08
1019.476	574.08
1019.767	571.6
1020.058	549.45
1020.35	552.16
1020.641	541.09
1020.932	559.39
1021.223	567.75
1021.514	564.59
1021.804	534.99
1022.095	551.93
1022.386	513.52
1022.677	547.41
1022.967	542.9
1023.258	525.72
1023.548	531.6
1023.839	555.78
1024.129	532.05
1024.419	541.99
1024.709	519.39
1025	527.53
1025.29	535.44
1025.58	544.93
1025.87	516
1026.16	505.38
1026.449	505.16
1026.739	521.2
1027.029	507.64
1027.319	536.79
1027.608	532.95
1027.898	507.87
1028.187	504.7
1028.477	529.56
1028.766	512.39
1029.055	512.61
1029.344	514.2
1029.634	509.68
1029.923	497.02
1030.212	496.34
1030.501	498.83
1030.79	511.48
1031.078	519.85
1031.367	487.53
1031.656	485.5
1031.945	490.92
1032.233	497.7
1032.522	461.09
1032.81	495.66
1033.099	497.7
1033.387	491.6
1033.675	496.57
1033.963	488.43
1034.251	494.99
1034.54	478.49
1034.828	455.21
1035.116	484.82
1035.403	473.74
1035.691	466.74
1035.979	490.69
1036.267	469.22
1036.554	485.95
1036.842	480.75
1037.129	462.67
1037.417	451.37
1037.704	451.37
1037.992	461.99
1038.279	485.72
1038.566	468.32
1038.853	468.32
1039.14	468.32
