Data from foam1_polythene_foam_FLMS001491_00082.txt Node
Date: Wed Feb 08 10:55:30 GMT 2017
User: dcchb
Spectrometer: FLMS00149
Trigger mode: 0
Integration Time (sec): 2.000000E-2
Scans to average: 10
Electric dark correction enabled: true
Nonlinearity correction enabled: false
Boxcar width: 0
XAxis mode: Wavelengths
Number of Pixels in Spectrum: 2048
>>>>>Begin Spectral Data<<<<<
341.393	-9.48
341.776	-9.48
342.16	-9.48
342.543	-35.01
342.927	-49.25
343.31	-65.07
343.693	-59.19
344.077	-79.08
344.46	-58.74
344.843	-58.52
345.226	-47.44
345.61	-25.97
345.993	-17.39
346.376	-2.7
346.759	9.96
347.142	33.46
347.525	24.65
347.908	56.51
348.291	73.68
348.674	97.41
349.057	118.43
349.44	124.76
349.823	146.22
350.206	170.18
350.588	193.23
350.971	194.13
351.354	225.32
351.737	239.1
352.119	247.01
352.502	257.18
352.884	252.66
353.267	280.46
353.65	294.24
354.032	316.16
354.414	300.12
354.797	308.25
355.179	300.35
355.562	318.88
355.944	319.78
356.326	334.47
356.709	315.94
357.091	339.44
357.473	342.6
357.855	329.95
358.238	342.15
358.62	327.46
359.002	339.21
359.384	342.15
359.766	322.27
360.148	316.62
360.53	332.21
360.912	318.88
361.294	300.12
361.676	329.5
362.057	310.06
362.439	322.49
362.821	314.81
363.203	313.23
363.584	319.1
363.966	308.93
364.348	322.04
364.729	301.7
365.111	313.9
365.493	303.51
365.874	297.86
366.256	310.51
366.637	317.29
367.019	289.5
367.4	299.89
367.781	317.75
368.163	301.7
368.544	289.27
368.925	310.97
369.306	315.26
369.688	303.96
370.069	306.9
370.45	315.71
370.831	304.41
371.212	317.07
371.593	311.42
371.974	318.88
372.355	305.99
372.736	307.12
373.117	303.06
373.498	311.87
373.879	320.01
374.26	310.74
374.641	316.16
375.021	297.63
375.402	308.48
375.783	329.72
376.163	310.97
376.544	315.94
376.925	310.74
377.305	317.29
377.686	325.43
378.066	321.59
378.447	330.4
378.827	333.56
379.208	323.17
379.588	318.88
379.968	325.2
380.349	335.37
380.729	318.42
381.109	304.86
381.489	339.44
381.87	330.4
382.25	341.47
382.63	333.11
383.01	333.34
383.39	369.04
383.77	343.96
384.15	336.28
384.53	349.16
384.91	343.73
385.29	324.53
385.67	345.32
386.049	346.22
386.429	338.54
386.809	333.56
387.189	340.8
387.568	349.61
387.948	366.78
388.328	350.06
388.707	333.11
389.087	362.49
389.466	343.51
389.846	342.6
390.225	346.9
390.605	353.9
390.984	385.09
391.363	351.42
391.743	355.26
392.122	356.61
392.501	355.49
392.881	381.92
393.26	384.86
393.639	370.17
394.018	388.93
394.397	362.72
394.776	360.68
395.155	362.49
395.534	373.79
395.913	366.78
396.292	394.81
396.671	386.22
397.05	381.25
397.429	399.78
397.808	402.49
398.186	395.03
398.565	402.04
398.944	388.25
399.323	409.04
399.701	411.3
400.08	390.51
400.458	402.72
400.837	409.95
401.215	414.47
401.594	399.78
401.972	389.83
402.351	412.88
402.729	414.47
403.107	418.08
403.486	414.69
403.864	393.45
404.242	413.34
404.62	414.24
404.999	444.52
405.377	428.93
405.755	422.15
406.133	433.45
406.511	435.93
406.889	417.18
407.267	425.99
407.645	445.65
408.023	456.27
408.401	447.91
408.779	438.87
409.156	459.21
409.534	486.78
409.912	448.59
410.29	466.22
410.667	468.93
411.045	473.9
411.422	478.42
411.8	475.48
412.178	489.72
412.555	480.68
412.933	476.39
413.31	492.66
413.687	491.53
414.065	494.24
414.442	477.52
414.819	497.4
415.197	531.07
415.574	509.15
415.951	492.88
416.328	506.89
416.705	486.56
417.082	493.56
417.46	515.48
417.837	521.13
418.214	510.06
418.591	537.63
418.967	537.63
419.344	510.74
419.721	545.99
420.098	549.38
420.475	558.19
420.852	528.36
421.228	540.11
421.605	554.8
421.982	573.56
422.358	555.71
422.735	561.13
423.111	570.85
423.488	583.73
423.864	573.56
424.241	591.64
424.617	576.5
424.994	599.32
425.37	577.4
425.746	588.47
426.123	608.59
426.499	604.52
426.875	594.8
427.251	608.59
427.627	600
428.003	625.76
428.379	640
428.756	622.82
429.132	631.41
429.507	651.97
429.883	656.04
430.259	666.21
430.635	642.94
431.011	656.27
431.387	682.93
431.763	684.74
432.138	682.71
432.514	712.76
432.89	685.19
433.265	707.79
433.641	712.54
434.016	709.37
434.392	716.15
434.767	726.77
435.143	711.41
435.518	748.47
435.894	767
436.269	757.28
436.644	756.83
437.02	755.47
437.395	765.42
437.77	777.17
438.145	778.07
438.52	799.99
438.895	771.97
439.271	778.52
439.646	825.3
440.021	828.69
440.395	835.92
440.77	839.77
441.145	830.27
441.52	846.32
441.895	825.53
442.27	870.73
442.645	865.3
443.019	879.31
443.394	859.88
443.769	857.62
444.143	841.12
444.518	897.84
444.892	886.09
445.267	896.49
445.641	894.45
446.016	903.95
446.39	934.23
446.764	912.31
447.139	904.62
447.513	940.55
447.887	948.24
448.262	940.33
448.636	957.73
449.01	985.75
449.384	1000.89
449.758	973.55
450.132	982.36
450.506	969.71
450.88	1002.47
451.254	1006.54
451.628	1011.96
452.002	1058.07
452.376	1011.74
452.75	1011.06
453.123	1065.75
453.497	1055.58
453.871	1058.29
454.244	1065.97
454.618	1089.03
454.992	1055.13
455.365	1065.97
455.739	1094.67
456.112	1103.04
456.486	1128.57
456.859	1095.13
457.232	1132.19
457.606	1115.47
457.979	1175.12
458.352	1167.22
458.725	1177.84
459.099	1187.78
459.472	1191.17
459.845	1188.01
460.218	1190.94
460.591	1184.39
460.964	1225.74
461.337	1222.58
461.71	1236.59
462.083	1265.29
462.456	1269.81
462.829	1242.47
463.201	1265.07
463.574	1269.59
463.947	1270.26
464.32	1308.45
464.692	1298.74
465.065	1328.79
465.438	1351.62
465.81	1343.26
466.183	1378.51
466.555	1408.11
466.928	1413.76
467.3	1409.24
467.672	1432.74
468.045	1452.86
468.417	1446.3
468.789	1462.57
469.161	1475
469.534	1462.57
469.906	1494.44
470.278	1524.27
470.65	1515.23
471.022	1540.31
471.394	1577.15
471.766	1585.74
472.138	1610.59
472.51	1665.96
472.882	1636.81
473.253	1657.6
473.625	1694.21
473.997	1697.82
474.369	1725.62
474.74	1728.33
475.112	1759.06
475.484	1745.96
475.855	1801.32
476.227	1854.2
476.598	1879.29
476.97	1889.68
477.341	1928.1
477.713	1952.05
478.084	1967.65
478.455	1990.47
478.827	1981.66
479.198	2039.51
479.569	2013.97
479.94	2113.4
480.311	2128.09
480.682	2142.1
481.053	2206.51
481.424	2226.85
481.795	2246.96
482.166	2288.77
482.537	2290.8
482.908	2354.08
483.279	2382.55
483.65	2416.67
484.021	2423.68
484.391	2485.15
484.762	2497.58
485.133	2548.42
485.503	2530.34
485.874	2586.61
486.244	2618.02
486.615	2693.28
486.985	2653.28
487.356	2742.99
487.726	2742.54
488.097	2796.55
488.467	2823.44
488.837	2870.22
489.207	2897.57
489.578	2946.15
489.948	2965.36
490.318	3017.34
490.688	3001.29
491.058	3040.39
491.428	3118.8
491.798	3114.73
492.168	3163.32
492.538	3159.25
492.908	3191.79
493.278	3227.5
493.648	3285.8
494.017	3361.73
494.387	3362.64
494.757	3374.16
495.126	3389.08
495.496	3445.12
495.866	3480.6
496.235	3486.93
496.605	3479.7
496.974	3501.62
497.344	3539.13
497.713	3569.86
498.082	3589.3
498.452	3616.19
498.821	3683.99
499.19	3661.39
499.559	3756.98
499.928	3739.12
500.298	3759.01
500.667	3820.7
501.036	3827.03
501.405	3840.82
501.774	3787.03
502.143	3878.33
502.512	3884.21
502.88	3938.67
503.249	3983.41
503.618	3992.45
503.987	4044.43
504.356	4034.03
504.724	4065.22
505.093	4109.06
505.462	4076.97
505.83	4086.91
506.199	4083.52
506.567	4163.29
506.936	4152
507.304	4218.89
507.672	4295.27
508.041	4295.04
508.409	4360.58
508.777	4440.58
509.145	4417.75
509.514	4425.66
509.882	4465.66
510.25	4508.14
510.618	4449.61
510.986	4514.02
511.354	4484.19
511.722	4533
512.09	4624.98
512.458	4622.72
512.826	4667.46
513.193	4711.3
513.561	4798.53
513.929	4839.66
514.297	4857.51
514.664	4836.05
515.032	4856.38
515.4	4895.48
515.767	4907.46
516.135	4933.9
516.502	4947
516.869	5009.37
517.237	5024.29
517.604	5053.89
517.972	5112.87
518.339	5187.67
518.706	5198.97
519.073	5282.14
519.44	5242.36
519.808	5380.44
520.175	5301.8
520.542	5309.93
520.909	5405.3
521.276	5386.99
521.643	5463.37
522.009	5439.42
522.376	5535.01
522.743	5583.14
523.11	5615.23
523.477	5721.45
523.843	5781.56
524.21	5801.22
524.577	5876.92
524.943	5890.71
525.31	5858.39
525.676	5887.09
526.043	5930.25
526.409	6024.04
526.776	6015.22
527.142	6053.87
527.508	6117.37
527.874	6199.4
528.241	6244.14
528.607	6258.15
528.973	6342.45
529.339	6385.16
529.705	6394.65
530.071	6462.9
530.437	6438.94
530.803	6494.31
531.169	6509.22
531.535	6515.78
531.901	6508.77
532.267	6566.85
532.632	6607.3
532.998	6710.12
533.364	6709.67
533.73	6745.37
534.095	6849.33
534.461	6860.17
534.826	6898.14
535.192	6918.02
535.557	6938.81
535.923	6912.6
536.288	6943.56
536.653	6972.71
537.019	6973.16
537.384	6973.39
537.749	7065.14
538.114	7044.57
538.479	7101.75
538.845	7142.65
539.21	7142.65
539.575	7234.17
539.94	7274.85
540.305	7327.05
540.67	7281.4
541.034	7351.01
541.399	7357.11
541.764	7380.84
542.129	7367.05
542.494	7384.23
542.858	7411.34
543.223	7394.62
543.587	7454.73
543.952	7547.39
544.316	7558.46
544.681	7560.49
545.045	7604.79
545.41	7680.72
545.774	7667.84
546.138	7699.25
546.503	7742.64
546.867	7690.43
547.231	7744.9
547.595	7730.43
547.959	7718.91
548.324	7835.74
548.688	7759.58
549.052	7802.97
549.416	7949.41
549.779	7878.23
550.143	7935.85
550.507	8073.47
550.871	8084.1
551.235	8078.45
551.599	8119.12
551.962	8215.84
552.326	8132.91
552.689	8213.58
553.053	8115.96
553.417	8232.79
553.78	8297.88
554.143	8232.11
554.507	8258.33
554.87	8413.35
555.234	8417.87
555.597	8385.78
555.96	8460.81
556.323	8526.8
556.686	8559.11
557.05	8655.15
557.413	8644.53
557.776	8704.19
558.139	8656.51
558.502	8682.05
558.865	8745.32
559.228	8827.13
559.59	8760.46
559.953	8847.92
560.316	8891.76
560.679	8875.71
561.041	8981.02
561.404	8977.86
561.767	9096.95
562.129	9116.61
562.492	9203.61
562.854	9293.56
563.217	9278.41
563.579	9224.63
563.941	9277.06
564.304	9348.02
564.666	9354.12
565.028	9407.68
565.39	9374.91
565.753	9497.17
566.115	9455.58
566.477	9571.29
566.839	9624.17
567.201	9698.97
567.563	9703.04
567.925	9745.75
568.287	9768.8
568.648	9832.52
569.01	9847.21
569.372	9955.23
569.734	9848.12
570.095	9889.02
570.457	9977.83
570.819	10005.17
571.18	9955.46
571.542	9995.91
571.903	10038.85
572.265	10030.94
572.626	10051.5
572.987	10168.79
573.349	10184.83
573.71	10321.78
574.071	10362.23
574.432	10352.06
574.794	10425.95
575.155	10441.1
575.516	10351.61
575.877	10403.81
576.238	10507.99
576.599	10413.07
576.96	10399.97
577.32	10454.65
577.681	10472.73
578.042	10477.25
578.403	10477.93
578.763	10553.63
579.124	10555.22
579.485	10557.48
579.845	10674.31
580.206	10625.72
580.566	10628.44
580.927	10663.46
581.287	10761.09
581.648	10745.95
582.008	10780.75
582.368	10711.6
582.728	10748.43
583.089	10624.14
583.449	10592.73
583.809	10669.56
584.169	10683.12
584.529	10720.18
584.889	10810.35
585.249	10711.14
585.609	10743.69
585.969	10749.11
586.329	10780.97
586.688	10772.16
587.048	10766.96
587.408	10763.12
587.768	10768.09
588.127	10771.26
588.487	10712.05
588.846	10832.27
589.206	10677.93
589.565	10662.33
589.925	10683.35
590.284	10637.7
590.643	10746.17
591.003	10827.53
591.362	10724.25
591.721	10765.61
592.08	10823.01
592.44	10814.19
592.799	10880.41
593.158	10892.84
593.517	10848.54
593.876	10916.56
594.235	10787.75
594.593	10810.58
594.952	10895.77
595.311	10835.21
595.67	10778.49
596.029	10832.05
596.387	10826.85
596.746	10893.29
597.104	10813.52
597.463	10808.77
597.822	10846.96
598.18	10772.16
598.538	10851.48
598.897	10914.08
599.255	10886.73
599.613	11074.07
599.972	10956.11
600.33	11064.58
600.688	10992.27
601.046	10928.31
601.404	10944.36
601.762	10960.63
602.12	11013.28
602.478	10988.65
602.836	10988.2
603.194	10896.9
603.552	10941.65
603.91	10937.58
604.268	10935.55
604.625	11008.99
604.983	11050.12
605.341	10985.94
605.698	11068.88
606.056	11093.73
606.413	11069.78
606.771	11094.64
607.128	11152.49
607.485	11097.8
607.843	11071.36
608.2	11103.23
608.557	11198.36
608.914	11101.87
609.272	11160.4
609.629	11055.54
609.986	11177.57
610.343	11131.47
610.7	11199.27
611.057	11143.45
611.414	11133.73
611.771	11181.64
612.127	11271.36
612.484	11230.45
612.841	11330.79
613.198	11284.46
613.554	11333.28
613.911	11285.82
614.267	11350.45
614.624	11330.79
614.98	11324.01
615.337	11370.56
615.693	11375.31
616.05	11330.34
616.406	11377.57
616.762	11219.83
617.118	11255.99
617.475	11315.42
617.831	11314.29
618.187	11385.03
618.543	11405.82
618.899	11430
619.255	11400.84
619.611	11387.74
619.967	11483.55
620.323	11506.15
620.678	11413.95
621.034	11438.36
621.39	11451.24
621.746	11473.38
622.101	11510.67
622.457	11456.21
622.812	11438.13
623.168	11486.49
623.523	11472.03
623.879	11461.86
624.234	11409.21
624.589	11439.71
624.945	11456.66
625.3	11397.91
625.655	11361.98
626.01	11478.81
626.365	11483.1
626.72	11494.4
627.075	11523.33
627.43	11428.41
627.785	11462.54
628.14	11457.34
628.495	11473.16
628.85	11374.18
629.205	11382.54
629.559	11423.67
629.914	11454.63
630.269	11409.43
630.623	11264.8
630.978	11338.25
631.332	11327.63
631.687	11273.62
632.041	11258.02
632.396	11298.02
632.75	11220.28
633.104	11291.92
633.459	11175.77
633.813	11262.99
634.167	11269.55
634.521	11265.71
634.875	11303.9
635.229	11270.23
635.583	11258.7
635.937	11218.7
636.291	11178.93
636.645	11255.99
636.999	11175.54
637.352	11185.03
637.706	11061.42
638.06	11068.88
638.413	11102.32
638.767	10993.85
639.121	11032.04
639.474	10984.81
639.828	10958.14
640.181	10918.82
640.534	10931.25
640.888	10878.37
641.241	10832.5
641.594	10948.65
641.947	11030.01
642.301	10881.54
642.654	10960.86
643.007	10919.73
643.36	10946.84
643.713	10867.75
644.066	10983.23
644.419	10891.03
644.771	10809
645.124	10723.57
645.477	10592.05
645.83	10493.3
646.182	10425.95
646.535	10451.49
646.888	10353.87
647.24	10405.62
647.593	10358.61
647.945	10402.68
648.298	10405.84
648.65	10318.16
649.002	10322.91
649.355	10383.24
649.707	10352.96
650.059	10413.98
650.411	10413.75
650.763	10579.17
651.115	10712.73
651.467	10707.98
651.819	10660.75
652.171	10605.16
652.523	10590.02
652.875	10564.03
653.227	10546.86
653.578	10599.28
653.93	10522
654.282	10412.4
654.633	10404.94
654.985	10385.73
655.337	10464.15
655.688	10353.19
656.039	10404.94
656.391	10385.05
656.742	10341.21
657.094	10423.24
657.445	10423.69
657.796	10425.28
658.147	10394.09
658.498	10372.4
658.849	10458.5
659.2	10415.11
659.551	10454.65
659.902	10492.39
660.253	10510.47
660.604	10463.92
660.955	10354.54
661.306	10428.89
661.656	10313.87
662.007	10284.72
662.358	10297.14
662.708	10281.1
663.059	10315.45
663.409	10146.41
663.76	10216.47
664.11	10121.33
664.461	10183.93
664.811	10237.26
665.161	10127.88
665.511	10123.59
665.862	10128.34
666.212	10257.15
666.562	10249.91
666.912	10318.61
667.262	10240.2
667.612	10277.71
667.962	10209.92
668.312	10279.74
668.662	10282.68
669.011	10286.07
669.361	10299.86
669.711	10273.42
670.06	10235
670.41	10219.63
670.76	10135.34
671.109	10180.76
671.459	10131.27
671.808	10096.7
672.157	10109.13
672.507	10035
672.856	10005.4
673.205	10072.74
673.554	9998.85
673.904	10002.91
674.253	10075.46
674.602	10101.44
674.951	9851.28
675.3	9849.02
675.649	10043.37
675.998	10082.69
676.346	10061.22
676.695	10232.74
677.044	10072.29
677.393	10146.41
677.741	10071.61
678.09	10084.95
678.438	10014.44
678.787	10037.72
679.135	10038.85
679.484	9966.08
679.832	9967.89
680.181	9874.1
680.529	9889.92
680.877	9862.13
681.225	9793.2
681.573	9845.4
681.922	9842.47
682.27	9776.93
682.618	9713.43
682.966	9751.17
683.314	9741.9
683.661	9778.74
684.009	9734.22
684.357	9776.48
684.705	9703.71
685.053	9744.16
685.4	9720.21
685.748	9719.08
686.095	9699.19
686.443	9716.82
686.79	9663.94
687.138	9650.38
687.485	9635.24
687.832	9638.4
688.18	9614
688.527	9545.98
688.874	9530.16
689.221	9449.03
689.568	9415.59
689.915	9392.76
690.262	9366.55
690.609	9305.53
690.956	9302.14
691.303	9292.2
691.65	9276.83
691.997	9223.5
692.344	9199.77
692.69	9276.15
693.037	9243.39
693.383	9156.38
693.73	9251.97
694.077	9171.07
694.423	9169.49
694.769	9183.95
695.116	9234.35
695.462	9210.85
695.808	9113.22
696.155	9152.54
696.501	9077.52
696.847	9027.57
697.193	8975.37
697.539	8941.25
697.885	8931.53
698.231	8888.14
698.577	8803.62
698.923	8814.02
699.269	8791.87
699.614	8722.95
699.96	8721.37
700.306	8709.16
700.651	8638.88
700.997	8604.53
701.342	8627.36
701.688	8552.11
702.033	8591.43
702.379	8613.35
702.724	8578.77
703.069	8545.55
703.415	8464.2
703.76	8534.93
704.105	8586.91
704.45	8608.38
704.795	8562.5
705.14	8552.33
705.485	8504.42
705.83	8449.96
706.175	8430.75
706.52	8416.52
706.865	8383.97
707.209	8376.07
707.554	8333.81
707.899	8333.81
708.243	8243.87
708.588	8234.6
708.932	8136.3
709.277	8199.57
709.621	8174.71
709.966	8114.15
710.31	8165.22
710.654	8030.76
710.998	8045.45
711.342	8080.25
711.687	8016.75
712.031	7990.31
712.375	7998
712.719	8064.21
713.063	8054.04
713.407	8060.37
713.75	8042.74
714.094	7976.98
714.438	7960.93
714.782	8028.28
715.125	7993.48
715.469	7999.35
715.812	7984.21
716.156	7931.33
716.499	7909.41
716.843	7944.21
717.186	7784.44
717.53	7848.85
717.873	7811.33
718.216	7825.12
718.559	7750.32
718.902	7640.94
719.246	7643.2
719.589	7609.31
719.932	7555.07
720.275	7581.74
720.617	7637.78
720.96	7577.22
721.303	7587.84
721.646	7594.16
721.989	7572.7
722.331	7646.37
722.674	7546.26
723.016	7562.75
723.359	7629.87
723.701	7642.98
724.044	7601.17
724.386	7549.42
724.729	7545.58
725.071	7604.79
725.413	7559.14
725.755	7540.61
726.097	7584
726.439	7482.3
726.782	7525.92
727.124	7496.31
727.465	7480.04
727.807	7414.06
728.149	7374.28
728.491	7337.67
728.833	7381.29
729.175	7349.2
729.516	7271.24
729.858	7240.73
730.199	7275.3
730.541	7224.68
730.882	7221.29
731.224	7290.67
731.565	7190.79
731.906	7221.52
732.248	7258.35
732.589	7255.87
732.93	7206.38
733.271	7217
733.612	7264.91
733.953	7220.16
734.294	7233.95
734.635	7241.86
734.976	7202.54
735.317	7216.32
735.658	7224.23
735.999	7237.79
736.339	7209.54
736.68	7177.45
737.021	7127.06
737.361	7090.45
737.702	7124.57
738.042	7109.88
738.383	7075.99
738.723	7078.7
739.063	7039.38
739.404	6991.69
739.744	6955.54
740.084	6945.37
740.424	6986.27
740.764	6950.11
741.104	6917.35
741.444	6884.13
741.784	6839.83
742.124	6924.58
742.464	6899.72
742.804	6900.62
743.143	6854.98
743.483	6883
743.823	6847.74
744.162	6872.38
744.502	6910.11
744.841	6906.27
745.181	6934.52
745.52	6922.77
745.86	6920.96
746.199	6910.34
746.538	6912.83
746.877	6859.72
747.216	6875.99
747.556	6795.32
747.895	6826.05
748.234	6839.16
748.573	6790.34
748.911	6752.38
749.25	6735.66
749.589	6710.8
749.928	6669.44
750.267	6691.14
750.605	6642.1
750.944	6607.3
751.283	6538.6
751.621	6592.16
751.96	6543.12
752.298	6601.2
752.636	6514.87
752.975	6575.66
753.313	6510.8
753.651	6493.63
753.989	6492.5
754.327	6511.71
754.666	6483.91
755.004	6512.84
755.342	6543.34
755.679	6563.68
756.017	6499.73
756.355	6497.92
756.693	6546.73
757.031	6511.03
757.368	6447.53
757.706	6461.54
758.044	6455.89
758.381	6475.1
758.719	6425.38
759.056	6413.18
759.394	6360.52
759.731	6315.55
760.068	6304.48
760.405	6261.54
760.743	6253.41
761.08	6188.33
761.417	6140.42
761.754	6115.56
762.091	6146.07
762.428	6110.14
762.765	6040.53
763.102	6105.39
763.438	6025.17
763.775	6097.71
764.112	6107.65
764.449	6066.75
764.785	6034.88
765.122	5996.92
765.458	5985.85
765.795	5926.19
766.131	5987.2
766.467	6030.36
766.804	6001.89
767.14	5923.93
767.476	5946.3
767.812	5944.72
768.148	5970.25
768.485	5902.23
768.821	5907.2
769.157	5862.46
769.492	5840.99
769.828	5801.44
770.164	5753.99
770.5	5830.37
770.836	5744.04
771.171	5699.07
771.507	5671.28
771.842	5661.33
772.178	5641.9
772.513	5592.64
772.849	5574.1
773.184	5522.81
773.519	5559.87
773.855	5454.11
774.19	5474.9
774.525	5438.06
774.86	5410.95
775.195	5421.57
775.53	5460.89
775.865	5423.83
776.2	5405.07
776.535	5363.71
776.87	5363.71
777.205	5349.03
777.539	5429.02
777.874	5393.09
778.209	5311.96
778.543	5335.69
778.878	5320.1
779.212	5314.68
779.547	5266.99
779.881	5292.53
780.215	5216.15
780.55	5214.57
780.884	5270.61
781.218	5190.16
781.552	5215.7
781.886	5222.25
782.22	5124.17
782.554	5080.11
782.888	5052.31
783.222	5051.41
783.556	5042.82
783.889	5029.03
784.223	4973.89
784.557	4990.17
784.89	4937.51
785.224	4884.41
785.557	4899.32
785.891	4912.2
786.224	4896.38
786.558	4875.82
786.891	4812.09
787.224	4780
787.557	4787.23
787.891	4780.45
788.224	4791.07
788.557	4809.61
788.89	4794.69
789.223	4785.88
789.556	4785.43
789.888	4777.74
790.221	4714.47
790.554	4729.83
790.887	4699.33
791.219	4688.48
791.552	4734.13
791.884	4640.12
792.217	4646.9
792.549	4625.43
792.882	4596.5
793.214	4603.73
793.546	4625.2
793.879	4533.68
794.211	4516.73
794.543	4537.07
794.875	4483.96
795.207	4487.58
795.539	4507.24
795.871	4482.83
796.203	4447.58
796.535	4394.7
796.867	4388.37
797.198	4367.13
797.53	4392.22
797.862	4375.94
798.193	4350.86
798.525	4344.98
798.856	4298.88
799.188	4302.27
799.519	4280.13
799.85	4297.98
800.182	4272.22
800.513	4287.13
800.844	4230.19
801.175	4281.94
801.506	4271.77
801.837	4244.42
802.168	4271.54
802.499	4229.73
802.83	4180.24
803.161	4218.89
803.491	4222.95
803.822	4191.99
804.153	4206.91
804.483	4151.32
804.814	4167.36
805.145	4165.1
805.475	4131.88
805.805	4130.3
806.136	4104.54
806.466	4105.89
806.796	4062.05
807.126	4046.01
807.457	4046.24
807.787	4019.57
808.117	4014.82
808.447	4035.84
808.777	4005.78
809.107	4032.22
809.436	3947.48
809.766	3928.5
810.096	3958.78
810.426	3919.69
810.755	3956.07
811.085	3916.75
811.414	3886.69
811.744	3886.69
812.073	3938.22
812.403	3860.93
812.732	3887.82
813.061	3889.18
813.39	3837.2
813.719	3895.28
814.049	3802.4
814.378	3855.51
814.707	3877.88
815.036	3876.52
815.365	3825.9
815.693	3829.07
816.022	3830.65
816.351	3830.65
816.68	3789.97
817.008	3793.36
817.337	3813.93
817.665	3780.03
817.994	3774.38
818.322	3796.98
818.651	3731.89
818.979	3700.03
819.307	3798.11
819.636	3712.91
819.964	3699.13
820.292	3711.33
820.62	3714.04
820.948	3697.32
821.276	3675.4
821.604	3693.25
821.932	3668.84
822.259	3665.45
822.587	3657.55
822.915	3682.18
823.243	3639.01
823.57	3627.72
823.898	3683.31
824.225	3628.62
824.553	3654.61
824.88	3690.76
825.207	3596.76
825.535	3632.69
825.862	3648.05
826.189	3643.99
826.516	3659.8
826.843	3691.22
827.17	3637.43
827.497	3703.87
827.824	3707.26
828.151	3682.18
828.478	3715.4
828.805	3704.32
829.131	3724.21
829.458	3722.4
829.785	3686.24
830.111	3671.1
830.438	3708.62
830.764	3698
831.09	3687.83
831.417	3677.21
831.743	3699.58
832.069	3667.04
832.395	3654.83
832.722	3684.66
833.048	3636.3
833.374	3700.48
833.7	3659.13
834.026	3616.42
834.351	3632.24
834.677	3622.74
835.003	3565.8
835.329	3619.35
835.654	3612.35
835.98	3568.06
836.306	3595.85
836.631	3568.06
836.956	3547.04
837.282	3599.24
837.607	3558.56
837.932	3544.33
838.258	3541.62
838.583	3548.17
838.908	3507.94
839.233	3507.72
839.558	3540.49
839.883	3541.16
840.208	3522.18
840.533	3527.6
840.858	3526.48
841.182	3538
841.507	3506.36
841.832	3518.79
842.156	3530.77
842.481	3520.15
842.805	3500.94
843.13	3495.52
843.454	3500.04
843.778	3462.07
844.103	3480.37
844.427	3473.14
844.751	3466.14
845.075	3473.37
845.399	3431.11
845.723	3442.18
846.047	3414.84
846.371	3401.51
846.695	3411.45
847.019	3410.77
847.343	3347.27
847.666	3318.57
847.99	3335.29
848.313	3288.06
848.637	3251.91
848.96	3262.75
849.284	3252.36
849.607	3251.68
849.931	3246.71
850.254	3206.71
850.577	3179.82
850.9	3200.38
851.223	3174.39
851.546	3158.58
851.869	3161.96
852.192	3179.82
852.515	3116.32
852.838	3139.37
853.161	3132.81
853.483	3139.14
853.806	3131.23
854.129	3098.24
854.451	3104.57
854.774	3101.18
855.096	3130.33
855.419	3095.07
855.741	3093.49
856.063	3133.72
856.385	3058.46
856.708	3071.8
857.03	3082.19
857.352	3095.53
857.674	3087.39
857.996	3050.1
858.318	3041.97
858.64	3007.84
858.961	3022.76
859.283	3023.21
859.605	2981.4
859.926	2961.74
860.248	2946.83
860.57	2981.86
860.891	2978.47
861.212	2959.26
861.534	2920.84
861.855	2912.25
862.176	2915.19
862.498	2863.22
862.819	2893.95
863.14	2925.36
863.461	2907.96
863.782	2879.94
864.103	2878.58
864.424	2898.47
864.745	2867.51
865.065	2872.71
865.386	2833.16
865.707	2843.33
866.027	2867.06
866.348	2802.43
866.668	2851.69
866.989	2825.25
867.309	2829.32
867.63	2804.91
867.95	2843.33
868.27	2814.18
868.59	2814.86
868.91	2835.42
869.23	2827.28
869.55	2806.04
869.87	2828.64
870.19	2837.23
870.51	2849.2
870.83	2808.53
871.15	2826.38
871.469	2812.14
871.789	2838.13
872.109	2837.91
872.428	2789.77
872.748	2806.95
873.067	2787.06
873.386	2827.51
873.706	2771.69
874.025	2807.85
874.344	2746.83
874.663	2746.38
874.982	2739.83
875.301	2786.61
875.62	2733.5
875.939	2705.25
876.258	2748.42
876.577	2701.19
876.896	2672.03
877.214	2705.48
877.533	2697.57
877.852	2703.9
878.17	2672.94
878.489	2676.1
878.807	2645.14
879.125	2691.69
879.444	2689.89
879.762	2661.64
880.08	2672.71
880.398	2676.33
880.716	2672.94
881.034	2668.87
881.352	2641.53
881.67	2639.04
881.988	2646.05
882.306	2657.12
882.624	2654.63
882.941	2636.55
883.259	2670.45
883.577	2624.8
883.894	2633.39
884.212	2641.75
884.529	2644.01
884.846	2644.69
885.164	2601.53
885.481	2630.23
885.798	2616.89
886.115	2594.97
886.432	2606.73
886.75	2610.79
887.067	2597.91
887.383	2580.74
887.7	2611.02
888.017	2578.25
888.334	2600.17
888.651	2554.52
888.967	2569.21
889.284	2549.33
889.6	2583.22
889.917	2520.63
890.233	2546.16
890.55	2491.7
890.866	2535.54
891.182	2498.71
891.498	2483.34
891.815	2465.03
892.131	2469.1
892.447	2440.85
892.763	2446.73
893.079	2458.48
893.395	2465.49
893.71	2438.59
894.026	2388.88
894.342	2410.57
894.657	2409.67
894.973	2372.16
895.289	2390.91
895.604	2401.31
895.92	2380.97
896.235	2389.78
896.55	2387.97
896.865	2353.17
897.181	2364.7
897.496	2378.93
897.811	2342.1
898.126	2381.87
898.441	2344.59
898.756	2362.89
899.071	2306.62
899.386	2282.44
899.7	2309.33
900.015	2342.33
900.33	2326.05
900.644	2304.13
900.959	2322.66
901.273	2318.82
901.588	2306.39
901.902	2345.26
902.216	2300.29
902.531	2299.84
902.845	2266.4
903.159	2291.25
903.473	2256
903.787	2291.25
904.101	2245.15
904.415	2250.35
904.729	2223.91
905.042	2196.11
905.356	2192.5
905.67	2231.82
905.984	2183.69
906.297	2185.95
906.611	2206.28
906.924	2166.28
907.237	2180.52
907.551	2165.15
907.864	2157.92
908.177	2156.79
908.491	2124.7
908.804	2123.35
909.117	2094.42
909.43	2088.77
909.743	2084.71
910.056	2050.13
910.368	2065.5
910.681	2101.65
910.994	2065.95
911.307	2057.59
911.619	2038.83
911.932	2044.48
912.244	2005.84
912.557	2014.65
912.869	2035.89
913.181	2038.15
913.494	1990.7
913.806	1999.28
914.118	1994.54
914.43	1987.31
914.742	1995.22
915.054	2002.9
915.366	1998.38
915.678	1978.95
915.99	1969.23
916.302	1958.15
916.613	1956.8
916.925	1942.56
917.236	1953.64
917.548	1915.67
917.859	1919.06
918.171	1968.55
918.482	1919.96
918.794	1884.94
919.105	1886.29
919.416	1897.14
919.727	1891.04
920.038	1889
920.349	1871.6
920.66	1886.07
920.971	1877.25
921.282	1874.99
921.593	1870.25
921.903	1842.9
922.214	1814.88
922.525	1841.77
922.835	1828.44
923.146	1797.03
923.456	1791.61
923.767	1797.93
924.077	1802.45
924.387	1780.76
924.697	1748.22
925.008	1782.57
925.318	1748.89
925.628	1739.4
925.938	1750.48
926.248	1730.82
926.558	1747.54
926.867	1724.71
927.177	1698.73
927.487	1690.82
927.796	1698.95
928.106	1724.49
928.416	1701.21
928.725	1684.94
929.034	1671.83
929.344	1690.37
929.653	1686.75
929.962	1648.56
930.271	1653.3
930.581	1680.2
930.89	1678.16
931.199	1637.94
931.508	1645.17
931.817	1637.03
932.125	1664.83
932.434	1638.62
932.743	1645.17
933.051	1622.12
933.36	1611.72
933.669	1578.73
933.977	1611.27
934.286	1599.75
934.594	1625.28
934.902	1581.44
935.21	1557.94
935.519	1578.73
935.827	1587.54
936.135	1575.11
936.443	1560.2
936.751	1560.88
937.059	1541.67
937.367	1539.63
937.674	1551.84
937.982	1505.96
938.29	1537.37
938.597	1543.02
938.905	1526.08
939.213	1500.31
939.52	1518.62
939.827	1494.89
940.135	1494.89
940.442	1504.61
940.749	1498.28
941.056	1476.81
941.363	1449.02
941.67	1504.16
941.977	1477.26
942.284	1433.65
942.591	1438.39
942.898	1439.98
943.205	1423.71
943.511	1425.06
943.818	1411.05
944.125	1432.07
944.431	1418.28
944.738	1402.01
945.044	1412.86
945.35	1422.12
945.657	1397.27
945.963	1370.83
946.269	1391.62
946.575	1391.16
946.881	1393.88
947.187	1389.81
947.493	1375.57
947.799	1350.04
948.105	1367.66
948.41	1346.42
948.716	1357.27
949.022	1368.11
949.327	1361.56
949.633	1366.98
949.938	1331.05
950.244	1337.61
950.549	1331.05
950.854	1334.44
951.16	1339.19
951.465	1327.44
951.77	1304.16
952.075	1323.14
952.38	1309.13
952.685	1323.37
952.99	1284.73
953.294	1286.99
953.599	1268.68
953.904	1253.31
954.209	1283.37
954.513	1275.46
954.818	1289.47
955.122	1263.48
955.426	1245.18
955.731	1237.5
956.035	1264.84
956.339	1254.44
956.643	1232.07
956.948	1227.55
957.252	1229.59
957.556	1244.05
957.86	1244.5
958.163	1194.56
958.467	1204.95
958.771	1211.51
959.075	1218.29
959.378	1184.84
959.682	1194.11
959.985	1199.53
960.289	1187.78
960.592	1178.51
960.896	1162.47
961.199	1183.26
961.502	1170.6
961.805	1161.57
962.108	1170.6
962.411	1177.38
962.714	1171.51
963.017	1157.72
963.32	1125.41
963.623	1148.68
963.926	1155.69
964.228	1155.01
964.531	1137.39
964.833	1137.39
965.136	1125.18
965.438	1126.31
965.741	1111.17
966.043	1137.84
966.345	1136.48
966.648	1117.5
966.95	1113.43
967.252	1101.23
967.554	1120.89
967.856	1094.22
968.158	1131.06
968.46	1098.74
968.761	1098.29
969.063	1086.09
969.365	1064.84
969.666	1093.09
969.968	1070.72
970.269	1067.33
970.571	1078.63
970.872	1051.96
971.174	1054.9
971.475	1077.27
971.776	1072.08
972.077	1039.31
972.378	1056.26
972.679	1032.76
972.98	1036.15
973.281	1049.93
973.582	1029.14
973.883	1034.56
974.183	990.04
974.484	1025.75
974.785	1009.25
975.085	1036.37
975.386	982.59
975.686	985.98
975.986	1009.71
976.287	1006.77
976.587	987.11
976.887	975.13
977.187	993.43
977.487	1001.8
977.787	978.75
978.087	985.3
978.387	964.28
978.687	995.92
978.987	965.19
979.286	958.18
979.586	960.89
979.885	981.68
980.185	941.91
980.484	964.28
980.784	948.92
981.083	952.53
981.382	964.06
981.682	921.8
981.981	938.97
982.28	930.39
982.579	927.9
982.878	959.31
983.177	915.02
983.475	954.34
983.774	927.22
984.073	934.9
984.372	901.69
984.67	941.46
984.969	947.33
985.267	927.9
985.566	911.85
985.864	922.25
986.162	896.04
986.461	910.95
986.759	904.4
987.057	911.85
987.355	881.57
987.653	882.93
987.951	887.45
988.249	880.44
988.547	879.54
988.844	875.25
989.142	863.95
989.44	882.7
989.737	887.22
990.035	876.6
990.332	863.72
990.63	861.46
990.927	871.63
991.224	840.44
991.521	845.42
991.819	843.83
992.116	822.82
992.413	848.58
992.71	825.53
993.006	842.48
993.303	810.61
993.6	832.53
993.897	839.31
994.193	806.55
994.49	849.26
994.787	817.39
995.083	829.14
995.379	822.14
995.676	826.43
995.972	791.86
996.268	796.6
996.565	818.52
996.861	784.63
997.157	793.67
997.453	814
997.749	783.95
998.044	780.78
998.34	764.06
998.636	778.3
998.932	798.19
999.227	780.78
999.523	786.66
999.818	801.35
1000.114	769.49
1000.409	785.53
1000.704	758.41
1001	761.58
1001.295	752.76
1001.59	763.84
1001.885	753.89
1002.18	762.03
1002.475	747.34
1002.77	738.75
1003.065	768.13
1003.359	762.48
1003.654	753.21
1003.949	739.88
1004.243	713.44
1004.538	727.9
1004.832	717.51
1005.127	722.93
1005.421	739.66
1005.715	724.06
1006.009	740.56
1006.304	748.92
1006.598	713.22
1006.892	695.82
1007.186	693.33
1007.48	697.62
1007.773	691.75
1008.067	681.13
1008.361	702.82
1008.655	706.66
1008.948	704.4
1009.242	688.58
1009.535	680
1009.829	679.09
1010.122	690.62
1010.415	685.87
1010.708	675.02
1011.001	647.68
1011.295	654.69
1011.588	657.62
1011.881	632.31
1012.173	665.99
1012.466	651.3
1012.759	651.07
1013.052	649.94
1013.344	671.18
1013.637	654.01
1013.93	678.19
1014.222	632.77
1014.514	653.1
1014.807	642.48
1015.099	631.41
1015.391	651.97
1015.683	637.96
1015.976	620.56
1016.268	629.15
1016.56	636.61
1016.851	619.21
1017.143	659.88
1017.435	619.66
1017.727	625.08
1018.018	599.09
1018.31	612.88
1018.602	607.46
1018.893	607
1019.185	610.39
1019.476	593.67
1019.767	600.68
1020.058	610.85
1020.35	610.85
1020.641	621.47
1020.932	615.14
1021.223	604.29
1021.514	608.81
1021.804	597.74
1022.095	590.73
1022.386	600.22
1022.677	602.26
1022.967	577.63
1023.258	569.94
1023.548	588.02
1023.839	584.18
1024.129	558.19
1024.419	576.95
1024.709	574.91
1025	561.36
1025.29	564.75
1025.58	577.4
1025.87	553.45
1026.16	559.55
1026.449	542.82
1026.739	559.55
1027.029	554.12
1027.319	555.71
1027.608	565.65
1027.898	546.89
1028.187	550.73
1028.477	545.08
1028.766	542.37
1029.055	539.66
1029.344	541.02
1029.634	543.28
1029.923	534.01
1030.212	523.62
1030.501	518.42
1030.79	517.74
1031.078	521.36
1031.367	541.92
1031.656	500.79
1031.945	507.8
1032.233	515.93
1032.522	530.85
1032.81	506.89
1033.099	503.73
1033.387	533.79
1033.675	503.28
1033.963	491.53
1034.251	501.24
1034.54	498.53
1034.828	495.59
1035.116	506.67
1035.403	487.46
1035.691	498.53
1035.979	510.74
1036.267	496.05
1036.554	472.54
1036.842	480.91
1037.129	471.41
1037.417	490.85
1037.704	505.76
1037.992	479.78
1038.279	477.29
1038.566	489.27
1038.853	489.27
1039.14	489.27
