Data from foam1_polythene_foam_FLMS001491_00007.txt Node
Date: Wed Feb 08 10:54:18 GMT 2017
User: dcchb
Spectrometer: FLMS00149
Trigger mode: 0
Integration Time (sec): 2.000000E-2
Scans to average: 10
Electric dark correction enabled: true
Nonlinearity correction enabled: false
Boxcar width: 0
XAxis mode: Wavelengths
Number of Pixels in Spectrum: 2048
>>>>>Begin Spectral Data<<<<<
341.393	-37.2
341.776	-37.2
342.16	-37.2
342.543	-75.62
342.927	-97.31
343.31	-81.5
343.693	-45.56
344.077	-84.43
344.46	-76.3
344.843	-42.63
345.226	-22.97
345.61	-36.3
345.993	-13.93
346.376	1.89
346.759	-12.12
347.142	26.98
347.525	56.35
347.908	52.51
348.291	90.93
348.674	83.7
349.057	103.36
349.44	132.28
349.823	147.2
350.206	152.62
350.588	173.87
350.971	190.36
351.354	220.64
351.737	203.02
352.119	237.59
352.502	237.59
352.884	270.13
353.267	264.71
353.65	283.47
354.032	287.76
354.414	284.15
354.797	294.31
355.179	305.39
355.562	308.1
355.944	301.77
356.326	307.42
356.709	316.23
357.091	324.37
357.473	303.13
357.855	309.46
358.238	323.92
358.62	347.65
359.002	320.53
359.384	304.48
359.766	304.94
360.148	319.85
360.53	303.13
360.912	338.38
361.294	320.3
361.676	298.83
362.057	303.13
362.439	287.53
362.821	298.38
363.203	316.46
363.584	304.71
363.966	302
364.348	319.4
364.729	294.99
365.111	310.13
365.493	292.96
365.874	301.32
366.256	289.34
366.637	286.18
367.019	276.91
367.4	288.66
367.781	301.55
368.163	291.83
368.544	293.18
368.925	288.44
369.306	292.96
369.688	289.79
370.069	295.9
370.45	305.16
370.831	315.78
371.212	275.33
371.593	293.18
371.974	281.21
372.355	284.37
372.736	286.4
373.117	280.98
373.498	284.37
373.879	293.64
374.26	287.08
374.641	296.57
375.021	282.11
375.402	268.1
375.783	297.7
376.163	299.29
376.544	303.35
376.925	290.25
377.305	275.33
377.686	284.6
378.066	293.64
378.447	287.76
378.827	306.97
379.208	309.46
379.588	285.5
379.968	299.51
380.349	305.84
380.729	319.17
381.109	314.2
381.489	315.78
381.87	306.97
382.25	323.69
382.63	313.52
383.01	306.07
383.39	326.63
383.77	310.59
384.15	302.68
384.53	290.7
384.91	315.1
385.29	318.95
385.67	307.87
386.049	320.3
386.429	340.19
386.809	318.49
387.189	337.48
387.568	335.44
387.948	323.24
388.328	318.04
388.707	311.94
389.087	319.4
389.466	325.27
389.846	327.31
390.225	333.64
390.605	342.22
390.984	320.08
391.363	321.88
391.743	338.38
392.122	346.06
392.501	330.7
392.881	327.08
393.26	348.55
393.639	364.82
394.018	346.29
394.397	341.54
394.776	329.12
395.155	338.38
395.534	358.04
395.913	343.8
396.292	365.5
396.671	325.95
397.05	333.18
397.429	380.41
397.808	343.13
398.186	344.93
398.565	345.61
398.944	353.3
399.323	360.75
399.701	361.21
400.08	361.88
400.458	370.47
400.837	362.34
401.215	396.91
401.594	366.4
401.972	362.34
402.351	370.92
402.729	373.63
403.107	367.53
403.486	368.66
403.864	351.94
404.242	371.83
404.62	383.35
404.999	345.39
405.377	369.11
405.755	381.09
406.133	393.75
406.511	389.68
406.889	385.61
407.267	375.44
407.645	378.83
408.023	398.49
408.401	416.8
408.779	387.65
409.156	375.89
409.534	393.97
409.912	411.37
410.29	405.5
410.667	406.18
411.045	396.91
411.422	405.27
411.8	420.41
412.178	419.06
412.555	407.53
412.933	417.02
413.31	441.43
413.687	413.63
414.065	417.7
414.442	419.06
414.819	429.23
415.197	419.96
415.574	437.81
415.951	440.3
416.328	422.9
416.705	432.84
417.082	457.25
417.46	430.81
417.837	449.11
418.214	460.86
418.591	447.3
418.967	453.86
419.344	463.8
419.721	435.1
420.098	451.37
420.475	439.85
420.852	470.58
421.228	458.6
421.605	443.69
421.982	460.86
422.358	472.61
422.735	472.61
423.111	469.45
423.488	468.32
423.864	453.63
424.241	488.89
424.617	483.91
424.994	492.73
425.37	495.21
425.746	471.71
426.123	499.51
426.499	493.18
426.875	506.96
427.251	504.7
427.627	500.64
428.003	500.86
428.379	504.7
428.756	509.9
429.132	502.9
429.507	522.1
429.883	538.6
430.259	512.84
430.635	529.34
431.011	522.1
431.387	530.69
431.763	550.35
432.138	541.54
432.514	555.1
432.89	561.2
433.265	562.1
433.641	567.75
434.016	578.15
434.392	587.64
434.767	574.76
435.143	588.09
435.518	581.54
435.894	562.56
436.269	597.81
436.644	611.59
437.02	608.2
437.395	599.17
437.77	600.07
438.145	624.48
438.52	626.51
438.895	637.81
439.271	649.33
439.646	648.43
440.021	645.27
440.395	628.77
440.77	633.29
441.145	638.71
441.52	678.26
441.895	649.56
442.27	661.99
442.645	684.59
443.019	693.17
443.394	699.28
443.769	699.5
444.143	675.77
444.518	709.9
444.892	728.43
445.267	708.77
445.641	709.67
446.016	710.35
446.39	730.91
446.764	757.35
447.139	714.87
447.513	743.12
447.887	748.77
448.262	753.29
448.636	755.09
449.01	741.99
449.384	780.86
449.758	777.24
450.132	765.71
450.506	813.4
450.88	777.01
451.254	796.67
451.628	809.33
452.002	802.78
452.376	803.45
452.75	802.1
453.123	805.94
453.497	815.43
453.871	830.57
454.244	818.59
454.618	828.54
454.992	861.76
455.365	853.4
455.739	868.31
456.112	845.26
456.486	837.58
456.859	868.08
457.232	869.21
457.606	876.9
457.979	881.87
458.352	883
458.725	897.24
459.099	896.11
459.472	892.04
459.845	879.61
460.218	899.5
460.591	918.48
460.964	899.5
461.337	941.98
461.71	913.73
462.083	937.91
462.456	961.87
462.829	973.17
463.201	929.78
463.574	941.08
463.947	955.54
464.32	997.8
464.692	963.22
465.065	988.31
465.438	988.53
465.81	981.75
466.183	1001.87
466.555	1029.89
466.928	1025.14
467.3	1025.37
467.672	1013.39
468.045	1043.67
468.417	1060.62
468.789	1043.9
469.161	1035.09
469.534	1094.29
469.906	1088.64
470.278	1092.94
470.65	1090.23
471.022	1120.28
471.394	1129.09
471.766	1151.69
472.138	1131.81
472.51	1160.96
472.882	1143.11
473.253	1202.99
473.625	1206.61
473.997	1221.3
474.369	1205.93
474.74	1230.11
475.112	1255.64
475.484	1254.29
475.855	1270.79
476.227	1286.83
476.598	1332.03
476.97	1331.8
477.341	1351.46
477.713	1346.72
478.084	1337.45
478.455	1375.87
478.827	1406.15
479.198	1436.43
479.569	1417.45
479.94	1445.02
480.311	1474.17
480.682	1496.32
481.053	1508.75
481.424	1542.42
481.795	1553.49
482.166	1553.04
482.537	1569.99
482.908	1605.92
483.279	1625.8
483.65	1657.44
484.021	1658.8
484.391	1680.04
484.762	1711.23
485.133	1744.22
485.503	1746.48
485.874	1798.68
486.244	1778.34
486.615	1818.79
486.985	1823.54
487.356	1845.46
487.726	1866.7
488.097	1904.67
488.467	1911.22
488.837	1936.53
489.207	1969.75
489.578	1978.79
489.948	1996.19
490.318	2028.05
490.688	2042.97
491.058	2078.67
491.428	2091.78
491.798	2097.88
492.168	2138.33
492.538	2129.75
492.908	2183.08
493.278	2227.82
493.648	2198.9
494.017	2240.7
494.387	2202.74
494.757	2280.7
495.126	2293.36
495.496	2299.46
495.866	2348.5
496.235	2355.05
496.605	2346.92
496.974	2375.39
497.344	2387.82
497.713	2428.27
498.082	2404.09
498.452	2428.04
498.821	2426.69
499.19	2476.63
499.559	2522.5
499.928	2502.39
500.298	2502.62
500.667	2568.6
501.036	2561.15
501.405	2547.81
501.774	2595.27
502.143	2598.66
502.512	2617.19
502.88	2647.7
503.249	2666
503.618	2690.64
503.987	2693.8
504.356	2709.84
504.724	2701.03
505.093	2680.01
505.462	2756.4
505.83	2740.8
506.199	2790.75
506.567	2837.07
506.936	2869.39
507.304	2822.84
507.672	2854.25
508.041	2891.53
508.409	2914.13
508.777	2907.13
509.145	2901.7
509.514	2946.9
509.882	2966.33
510.25	2994.36
510.618	3015.37
510.986	2976.73
511.354	3063.51
511.722	3059.21
512.09	3115.03
512.458	3074.35
512.826	3083.39
513.193	3179.89
513.561	3160.68
513.929	3160.68
514.297	3180.11
514.664	3287.46
515.032	3230.96
515.4	3276.38
515.767	3260.11
516.135	3335.14
516.502	3308.92
516.869	3375.82
517.237	3364.74
517.604	3355.7
517.972	3434.57
518.339	3428.24
518.706	3452.42
519.073	3470.73
519.44	3497.39
519.808	3558.86
520.175	3512.76
520.542	3569.71
520.909	3545.98
521.276	3595.7
521.643	3626.66
522.009	3627.11
522.376	3706.88
522.743	3702.36
523.11	3752.08
523.477	3767.67
523.843	3804.5
524.21	3812.19
524.577	3859.87
524.943	3882.47
525.31	3897.16
525.676	3945.97
526.043	3961.56
526.409	4015.12
526.776	4037.94
527.142	4056.48
527.508	4067.32
527.874	4107.77
528.241	4095.8
528.607	4173.08
528.973	4184.16
529.339	4173.31
529.705	4230.03
530.071	4260.99
530.437	4268
530.803	4283.14
531.169	4324.72
531.535	4306.64
531.901	4325.85
532.267	4309.12
532.632	4364.26
532.998	4369.91
533.364	4430.25
533.73	4470.7
534.095	4482.68
534.461	4498.05
534.826	4516.35
535.192	4485.39
535.557	4536.69
535.923	4521.77
536.288	4578.04
536.653	4540.98
537.019	4605.16
537.384	4642.45
537.749	4691.49
538.114	4672.96
538.479	4670.47
538.845	4717.93
539.21	4661.21
539.575	4716.12
539.94	4685.39
540.305	4731.03
540.67	4780.3
541.034	4810.13
541.399	4832.05
541.764	4856.23
542.129	4860.75
542.494	4843.35
542.858	4848.77
543.223	4927.41
543.587	4938.94
543.952	4910.69
544.316	4933.74
544.681	4894.65
545.045	4969.22
545.41	5014.87
545.774	5037.24
546.138	5061.65
546.503	5042.21
546.867	5045.6
547.231	5102.78
547.595	5096.9
547.959	5084.24
548.324	5128.31
548.688	5152.94
549.052	5174.19
549.416	5180.29
549.779	5190
550.143	5206.73
550.507	5220.74
550.871	5248.99
551.235	5291.02
551.599	5305.03
551.962	5305.26
552.326	5279.49
552.689	5382.99
553.053	5329.44
553.417	5361.53
553.78	5450.11
554.143	5412.15
554.507	5494.86
554.87	5466.83
555.234	5581.86
555.597	5505.93
555.96	5566.72
556.323	5557.68
556.686	5570.11
557.05	5614.85
557.413	5634.74
557.776	5632.03
558.139	5677.68
558.502	5709.99
558.865	5708.64
559.228	5774.62
559.59	5790.44
559.953	5777.79
560.316	5867.28
560.679	5813.04
561.041	5906.6
561.404	5893.04
561.767	5961.74
562.129	5928.52
562.492	5988.18
562.854	5973.26
563.217	6001.06
563.579	6026.37
563.941	6084.44
564.304	6062.52
564.666	6110.66
565.028	6208.96
565.39	6159.24
565.753	6240.82
566.115	6221.84
566.477	6279.02
566.839	6302.52
567.201	6314.27
567.563	6299.58
567.925	6384.55
568.287	6424.77
568.648	6443.76
569.01	6428.39
569.372	6488.5
569.734	6434.72
570.095	6519.91
570.457	6550.2
570.819	6546.13
571.18	6529.86
571.542	6559.23
571.903	6571.21
572.265	6628.16
572.626	6594.04
572.987	6646.92
573.349	6723.52
573.71	6660.25
574.071	6688.04
574.432	6710.42
574.794	6777.53
575.155	6772.56
575.516	6737.31
575.877	6848.94
576.238	6851.66
576.599	6848.27
576.96	6829.74
577.32	6840.13
577.681	6906.57
578.042	6834.03
578.403	6870.19
578.763	6851.2
579.124	6881.71
579.485	6939.56
579.845	6978.66
580.206	6936.17
580.566	6883.97
580.927	6961.03
581.287	6970.3
581.648	6922.16
582.008	7005.55
582.368	6950.86
582.728	7011.65
583.089	6992.44
583.449	7000.8
583.809	6947.25
584.169	6981.6
584.529	6976.85
584.889	7063.63
585.249	7016.62
585.609	6983.86
585.969	7041.93
586.329	7000.35
586.688	7065.44
587.048	6996.74
587.408	7008.94
587.768	6984.76
588.127	7000.35
588.487	6988.83
588.846	7038.09
589.206	6974.14
589.565	6999.45
589.925	7046.45
590.284	7031.76
590.643	7043.06
591.003	7121.25
591.362	7025.66
591.721	7042.39
592.08	7050.29
592.44	7079.22
592.799	7078.54
593.158	7091.2
593.517	7070.41
593.876	7071.54
594.235	7040.8
594.593	7055.49
594.952	7091.88
595.311	7050.29
595.67	7110.63
596.029	7166
596.387	7099.79
596.746	7171.42
597.104	7130.29
597.463	7099.79
597.822	7046
598.18	7091.65
598.538	7098.88
598.897	7068.6
599.255	7101.14
599.613	7196.05
599.972	7165.55
600.33	7055.94
600.688	7127.13
601.046	7105.21
601.404	7136.85
601.762	7136.85
602.12	7187.92
602.478	7165.09
602.836	7153.34
603.194	7098.66
603.552	7124.87
603.91	7082.84
604.268	7174.36
604.625	7154.47
604.983	7228.37
605.341	7099.56
605.698	7198.77
606.056	7187.01
606.413	7170.07
606.771	7234.7
607.128	7210.29
607.485	7149.73
607.843	7191.53
608.2	7289.84
608.557	7280.57
608.914	7215.49
609.272	7275.37
609.629	7253
609.986	7302.49
610.343	7254.81
610.7	7323.96
611.057	7228.6
611.414	7263.62
611.771	7281.25
612.127	7359.21
612.484	7288.71
612.841	7354.02
613.198	7300.01
613.554	7305.66
613.911	7326.67
614.267	7302.94
614.624	7340.23
614.98	7379.55
615.337	7348.14
615.693	7394.92
616.05	7351.3
616.406	7374.13
616.762	7332.77
617.118	7377.52
617.475	7347.24
617.831	7356.05
618.187	7444.18
618.543	7420.91
618.899	7375.48
619.255	7383.62
619.611	7413.9
619.967	7434.47
620.323	7428.82
620.678	7398.31
621.034	7445.31
621.39	7335.26
621.746	7380.91
622.101	7474.46
622.457	7424.75
622.812	7452.54
623.168	7476.95
623.523	7458.87
623.879	7511.07
624.234	7450.06
624.589	7407.57
624.945	7471.53
625.3	7431.53
625.655	7392.21
626.01	7419.32
626.365	7408.7
626.72	7351.76
627.075	7363.51
627.43	7385.88
627.785	7379.55
628.14	7423.17
628.495	7466.33
628.85	7401.92
629.205	7358.08
629.559	7388.59
629.914	7359.21
630.269	7321.93
630.623	7324.41
630.978	7319.89
631.332	7371.42
631.687	7343.39
632.041	7300.91
632.396	7349.27
632.75	7303.17
633.104	7293
633.459	7287.58
633.813	7292.77
634.167	7267.92
634.521	7310.4
634.875	7234.47
635.229	7255.26
635.583	7255.71
635.937	7223.85
636.291	7233.79
636.645	7235.37
636.999	7208.48
637.352	7204.42
637.706	7148.6
638.06	7127.13
638.413	7071.09
638.767	7122.61
639.121	7142.72
639.474	7095.04
639.828	7090.52
640.181	7090.52
640.534	7160.12
640.888	7151.76
641.241	7053.68
641.594	7104.98
641.947	7077.19
642.301	7054.59
642.654	7034.93
643.007	7038.54
643.36	7004.19
643.713	7018.88
644.066	6966
644.419	7010.97
644.771	6911.54
645.124	6932.33
645.477	6845.1
645.83	6770.08
646.182	6789.06
646.535	6741.83
646.888	6769.4
647.24	6805.33
647.593	6791.77
647.945	6775.27
648.298	6737.53
648.65	6743.64
649.002	6625.22
649.355	6700.93
649.707	6686.01
650.059	6700.47
650.411	6764.65
650.763	6711.55
651.115	6864.31
651.467	6873.35
651.819	6888.27
652.171	6895.27
652.523	6798.78
652.875	6849.85
653.227	6762.84
653.578	6851.43
653.93	6831.54
654.282	6752.22
654.633	6738.66
654.985	6707.25
655.337	6725.11
655.688	6732.11
656.039	6765.56
656.391	6637.88
656.742	6685.11
657.094	6645.33
657.445	6718.78
657.796	6675.84
658.147	6707.7
658.498	6713.35
658.849	6712.9
659.2	6683.98
659.551	6698.67
659.902	6702.51
660.253	6722.62
660.604	6653.02
660.955	6580.7
661.306	6655.95
661.656	6627.93
662.007	6644.2
662.358	6589.52
662.708	6609.63
663.059	6612.79
663.409	6630.19
663.76	6622.28
664.11	6620.02
664.461	6583.87
664.811	6575.73
665.161	6579.35
665.511	6582.74
665.862	6567.6
666.212	6607.37
666.562	6637.2
666.912	6559.69
667.262	6555.17
667.612	6622.74
667.962	6560.14
668.312	6505.22
668.662	6577.76
669.011	6593.58
669.361	6573.7
669.711	6535.28
670.06	6510.2
670.41	6488.28
670.76	6472.91
671.109	6530.99
671.459	6548.16
671.808	6499.35
672.157	6531.66
672.507	6509.29
672.856	6488.05
673.205	6531.66
673.554	6523.3
673.904	6517.88
674.253	6505.9
674.602	6434.94
674.951	6373.02
675.3	6362.4
675.649	6413.48
675.998	6443.08
676.346	6399.69
676.695	6438.79
677.044	6360.82
677.393	6416.64
677.741	6444.89
678.09	6435.17
678.438	6438.33
678.787	6413.93
679.135	6459.8
679.484	6426.36
679.832	6443.53
680.181	6406.24
680.529	6494.83
680.877	6332.57
681.225	6343.87
681.573	6382.29
681.922	6284.67
682.27	6267.72
682.618	6309.3
682.966	6252.8
683.314	6350.88
683.661	6274.72
684.009	6224.78
684.357	6246.25
684.705	6255.74
685.053	6231.11
685.4	6269.98
685.748	6259.13
686.095	6207.83
686.443	6244.21
686.79	6171
687.138	6193.59
687.485	6160.6
687.832	6166.02
688.18	6180.49
688.527	6118.57
688.874	6079.47
689.221	5996.31
689.568	6054.61
689.915	6033.15
690.262	6065.69
690.609	6007.84
690.956	5999.48
691.303	6023.66
691.65	5986.37
691.997	6020.49
692.344	6001.73
692.69	5971.91
693.037	6002.86
693.383	5952.7
693.73	6014.16
694.077	5947.05
694.423	5924
694.769	5872.25
695.116	5854.39
695.462	5829.54
695.808	5797.9
696.155	5816.88
696.501	5784.11
696.847	5738.46
697.193	5731.69
697.539	5756.54
697.885	5686.49
698.231	5718.13
698.577	5741.63
698.923	5701.63
699.269	5666.15
699.614	5709.54
699.96	5695.53
700.306	5728.3
700.651	5643.33
700.997	5611.01
701.342	5597.9
701.688	5627.28
702.033	5531.92
702.379	5607.62
702.724	5502.76
703.069	5542.09
703.415	5470.9
703.76	5436.78
704.105	5381.41
704.45	5427.51
704.795	5429.77
705.14	5401.52
705.485	5461.18
705.83	5423.67
706.175	5458.02
706.52	5417.57
706.865	5455.31
707.209	5411.47
707.554	5325.82
707.899	5358.36
708.243	5409.43
708.588	5346.38
708.932	5290.12
709.277	5304.13
709.621	5260.06
709.966	5255.77
710.31	5200.17
710.654	5177.12
710.998	5192.49
711.342	5179.61
711.687	5178.03
712.031	5168.31
712.375	5159.05
712.719	5166.73
713.063	5196.56
713.407	5219.16
713.75	5166.05
714.094	5194.3
714.438	5147.07
714.782	5129.44
715.125	5117.24
715.469	5125.15
715.812	5056
716.156	5056.9
716.499	5050.35
716.843	5025.04
717.186	4972.61
717.53	5027.3
717.873	5015.09
718.216	4985.94
718.559	5000.18
718.902	4973.74
719.246	4960.86
719.589	4969.67
719.932	4967.41
720.275	5007.86
720.617	4984.59
720.96	4977.58
721.303	4994.53
721.646	4984.81
721.989	4929.45
722.331	4968.54
722.674	4947.98
723.016	4910.46
723.359	4877.47
723.701	4878.83
724.044	4876.11
724.386	4819.62
724.729	4838.6
725.071	4814.87
725.413	4794.08
725.755	4776.23
726.097	4763.8
726.439	4750.02
726.782	4809.22
727.124	4792.95
727.465	4819.85
727.807	4866.4
728.149	4821.2
728.491	4781.65
728.833	4831.82
729.175	4846.74
729.516	4832.73
729.858	4771.26
730.199	4751.82
730.541	4756.57
730.882	4667.76
731.224	4722.22
731.565	4664.82
731.906	4619.17
732.248	4667.53
732.589	4607.2
732.93	4619.85
733.271	4618.27
733.612	4668.89
733.953	4637.02
734.294	4644.03
734.635	4674.54
734.976	4648.32
735.317	4677.7
735.658	4647.87
735.999	4693.52
736.339	4696.23
736.68	4665.95
737.021	4653.97
737.361	4602
737.702	4659.4
738.042	4609.91
738.383	4555.9
738.723	4569.23
739.063	4539.17
739.404	4559.29
739.744	4540.98
740.084	4493.75
740.424	4498.27
740.764	4512.96
741.104	4504.15
741.444	4504.83
741.784	4508.89
742.124	4535.78
742.464	4518.38
742.804	4558.83
743.143	4509.8
743.483	4524.26
743.823	4476.8
744.162	4512.96
744.502	4514.09
744.841	4490.14
745.181	4499.63
745.52	4419.63
745.86	4468.67
746.199	4453.53
746.538	4387.99
746.877	4392.96
747.216	4403.81
747.556	4335.56
747.895	4340.76
748.234	4332.63
748.573	4301.44
748.911	4343.25
749.25	4332.17
749.589	4334.43
749.928	4370.59
750.267	4356.35
750.605	4339.18
750.944	4399.07
751.283	4337.37
751.621	4317.26
751.96	4322.46
752.298	4322.46
752.636	4315.23
752.975	4312.74
753.313	4305.28
753.651	4248.56
753.989	4241.78
754.327	4229.35
754.666	4236.36
755.004	4189.81
755.342	4193.65
755.679	4213.99
756.017	4123.14
756.355	4111.84
756.693	4133.76
757.031	4118.39
757.368	4125.85
757.706	4152.07
758.044	4141.67
758.381	4170.37
758.719	4139.18
759.056	4172.4
759.394	4133.54
759.731	4092.63
760.068	4111.84
760.405	4103.25
760.743	4112.07
761.08	4115.46
761.417	4032.52
761.754	4060.99
762.091	4056.48
762.428	4034.78
762.765	4007.21
763.102	3982.13
763.438	3942.81
763.775	3901.45
764.112	3916.59
764.449	3928.34
764.785	3938.51
765.122	3861.45
765.458	3890.38
765.795	3848.8
766.131	3912.52
766.467	3878.85
766.804	3880.89
767.14	3865.75
767.476	3877.5
767.812	3825.07
768.148	3893.32
768.485	3818.74
768.821	3838.85
769.157	3825.07
769.492	3825.75
769.828	3818.29
770.164	3774.9
770.5	3733.55
770.836	3711.85
771.171	3702.59
771.507	3704.85
771.842	3662.36
772.178	3651.06
772.513	3655.58
772.849	3623.49
773.184	3647.22
773.519	3607.22
773.855	3601.12
774.19	3586.43
774.525	3621.01
774.86	3614.45
775.195	3601.57
775.53	3609.03
775.865	3553.89
776.2	3587.11
776.535	3576.04
776.87	3581.23
777.205	3546.88
777.539	3557.05
777.874	3545.3
778.209	3555.47
778.543	3488.81
778.878	3448.36
779.212	3468.69
779.547	3416.94
779.881	3428.7
780.215	3374.46
780.55	3390.05
780.884	3352.31
781.218	3362.93
781.552	3337.17
781.886	3330.84
782.22	3332.65
782.554	3305.99
782.888	3289.72
783.222	3292.2
783.556	3285.87
783.889	3294.91
784.223	3285.2
784.557	3284.97
784.89	3307.12
785.224	3289.72
785.557	3335.14
785.891	3277.74
786.224	3257.17
786.558	3244.75
786.891	3223.05
787.224	3218.31
787.557	3169.04
787.891	3200.23
788.224	3156.61
788.557	3139.66
788.89	3143.5
789.223	3139.21
789.556	3077.07
789.888	3107.8
790.221	3080.68
790.554	3058.31
790.887	3048.82
791.219	3058.31
791.552	3047.91
791.884	3028.25
792.217	3047.24
792.549	3003.4
792.882	3017.41
793.214	2998.88
793.546	3022.38
793.879	3062.6
794.211	2999.78
794.543	3015.15
794.875	3032.1
795.207	3015.82
795.539	2992.77
795.871	2999.78
796.203	2961.59
796.535	2904.19
796.867	2931.76
797.198	2899.44
797.53	2878.43
797.862	2888.82
798.193	2879.33
798.525	2841.82
798.856	2845.21
799.188	2812.44
799.519	2825.1
799.85	2796.62
800.182	2833.91
800.513	2811.31
800.844	2793.23
801.175	2778.32
801.506	2783.29
801.837	2816.73
802.168	2802.5
802.499	2827.36
802.83	2839.11
803.161	2802.5
803.491	2776.06
803.822	2796.4
804.153	2770.41
804.483	2766.34
804.814	2735.83
805.145	2762.05
805.475	2774.48
805.805	2712.33
806.136	2684.99
806.466	2697.87
806.796	2694.7
807.126	2669.62
807.457	2651.54
807.787	2661.48
808.117	2634.82
808.447	2642.28
808.777	2668.94
809.107	2635.5
809.436	2594.59
809.766	2641.15
810.096	2642.05
810.426	2616.97
810.755	2630.3
811.085	2630.75
811.414	2628.72
811.744	2610.86
812.073	2574.03
812.403	2624.42
812.732	2582.16
813.061	2594.37
813.39	2597.76
813.719	2585.1
814.049	2609.28
814.378	2580.36
814.707	2589.17
815.036	2567.47
815.365	2583.07
815.693	2519.11
816.022	2541.26
816.351	2516.85
816.68	2455.84
817.008	2482.51
817.337	2500.13
817.665	2451.32
817.994	2496.29
818.322	2483.18
818.651	2454.26
818.979	2447.48
819.307	2451.77
819.636	2483.41
819.964	2428.27
820.292	2467.36
820.62	2457.42
820.948	2449.96
821.276	2481.38
821.604	2442.73
821.932	2499.45
822.259	2471.66
822.587	2473.24
822.915	2461.04
823.243	2467.36
823.57	2492.45
823.898	2467.36
824.225	2461.94
824.553	2466.46
824.88	2438.44
825.207	2467.59
825.535	2441.38
825.862	2477.99
826.189	2432.56
826.516	2453.58
826.843	2468.04
827.17	2457.2
827.497	2429.63
827.824	2409.74
828.151	2421.26
828.478	2407.25
828.805	2427.82
829.131	2446.35
829.458	2438.21
829.785	2427.37
830.111	2424.43
830.438	2465.33
830.764	2461.26
831.09	2442.05
831.417	2476.4
831.743	2444.09
832.069	2443.86
832.395	2460.36
832.722	2479.79
833.048	2425.11
833.374	2437.31
833.7	2458.33
834.026	2459.23
834.351	2436.4
834.677	2441.15
835.003	2424.43
835.329	2429.63
835.654	2407.48
835.98	2376.07
836.306	2366.8
836.631	2388.95
836.956	2393.24
837.282	2382.17
837.607	2375.62
837.932	2379.68
838.258	2340.36
838.583	2363.19
838.908	2337.65
839.233	2338.55
839.558	2346.92
839.883	2353.02
840.208	2353.24
840.533	2328.16
840.858	2369.97
841.182	2359.57
841.507	2335.39
841.832	2357.54
842.156	2350.76
842.481	2385.56
842.805	2367.71
843.13	2343.07
843.454	2332.68
843.778	2353.02
844.103	2339.91
844.427	2343.53
844.751	2383.98
845.075	2322.74
845.399	2311.21
845.723	2295.39
846.047	2265.34
846.371	2261.72
846.695	2267.6
847.019	2217.88
847.343	2236.64
847.666	2198.22
847.99	2199.12
848.313	2170.88
848.637	2182.63
848.96	2193.25
849.284	2190.54
849.607	2172.23
849.931	2186.02
850.254	2161.84
850.577	2140.14
850.9	2155.28
851.223	2126.13
851.546	2157.32
851.869	2125
852.192	2181.72
852.515	2159.35
852.838	2156.86
853.161	2108.05
853.483	2161.61
853.806	2131.33
854.129	2118.9
854.451	2131.78
854.774	2112.35
855.096	2061.27
855.419	2104.66
855.741	2102.85
856.063	2071.44
856.385	2046.81
856.708	2037.55
857.03	2045.23
857.352	2032.35
857.674	2044.32
857.996	2014.04
858.318	1984.21
858.64	2009.98
858.961	2019.01
859.283	1969.75
859.605	1998.45
859.926	2002.52
860.248	1975.17
860.57	1988.28
860.891	1988.96
861.212	1978.34
861.534	1983.76
861.855	1992.35
862.176	1998
862.498	2005.46
862.819	1988.73
863.14	1965.91
863.461	2002.29
863.782	1976.76
864.103	1993.25
864.424	1964.78
864.745	1948.96
865.065	1952.58
865.386	1959.13
865.707	1949.86
866.027	1943.99
866.348	1950.32
866.668	1931.56
866.989	1935.18
867.309	1904.22
867.63	1907.15
867.95	1910.99
868.27	1910.54
868.59	1894.72
868.91	1927.94
869.23	1916.64
869.55	1879.81
869.87	1894.72
870.19	1885.23
870.51	1890.2
870.83	1901.28
871.15	1878.68
871.469	1918.68
871.789	1889.98
872.109	1908.28
872.428	1879.13
872.748	1870.32
873.067	1895.18
873.386	1874.16
873.706	1905.35
874.025	1898.11
874.344	1877.55
874.663	1878
874.982	1875.52
875.301	1871.67
875.62	1890.43
875.939	1899.02
876.258	1885.46
876.577	1850.88
876.896	1855.18
877.214	1839.36
877.533	1849.53
877.852	1839.81
878.17	1850.21
878.489	1833.71
878.807	1828.29
879.125	1831.22
879.444	1828.96
879.762	1844.78
880.08	1841.39
880.398	1792.13
880.716	1806.82
881.034	1800.94
881.352	1816.31
881.67	1816.76
881.988	1803.43
882.306	1773.6
882.624	1789.19
882.941	1782.64
883.259	1804.56
883.577	1801.39
883.894	1784.9
884.212	1801.62
884.529	1820.15
884.846	1787.16
885.164	1796.2
885.481	1803.88
885.798	1806.82
886.115	1772.69
886.432	1735.41
886.75	1758.46
887.067	1794.61
887.383	1777.44
887.7	1751
888.017	1753.94
888.334	1743.99
888.651	1741.51
888.967	1730.89
889.284	1725.92
889.6	1722.98
889.917	1716.2
890.233	1693.83
890.55	1678.23
890.866	1719.81
891.182	1718.23
891.498	1702.41
891.815	1715.29
892.131	1690.44
892.447	1685.92
892.763	1659.02
893.079	1696.76
893.395	1683.88
893.71	1672.36
894.026	1678.91
894.342	1676.88
894.657	1645.47
894.973	1669.65
895.289	1656.99
895.604	1668.74
895.92	1657.44
896.235	1657.89
896.55	1670.55
896.865	1643.21
897.181	1623.54
897.496	1614.05
897.811	1666.03
898.126	1630.32
898.441	1617.9
898.756	1619.03
899.071	1607.05
899.386	1614.28
899.7	1609.76
900.015	1576.09
900.33	1563.21
900.644	1586.26
900.959	1543.77
901.273	1526.6
901.588	1566.82
901.902	1567.28
902.216	1503.77
902.531	1517.11
902.845	1506.49
903.159	1518.24
903.473	1535.41
903.787	1532.93
904.101	1525.47
904.415	1520.95
904.729	1529.76
905.042	1524.11
905.356	1478.69
905.67	1504.68
905.984	1541.97
906.297	1519.14
906.611	1513.49
906.924	1496.32
907.237	1482.98
907.551	1500.16
907.864	1495.86
908.177	1471.68
908.491	1499.71
908.804	1482.98
909.117	1475.98
909.43	1458.13
909.743	1467.84
910.056	1458.58
910.368	1438.47
910.681	1442.98
910.994	1423.78
911.307	1431.01
911.619	1438.69
911.932	1435.08
912.244	1425.36
912.557	1415.41
912.869	1419.93
913.181	1388.3
913.494	1385.59
913.806	1396.21
914.118	1387.17
914.43	1382.42
914.742	1388.07
915.054	1388.52
915.366	1357.34
915.678	1380.16
915.99	1353.95
916.302	1358.24
916.613	1358.47
916.925	1358.92
917.236	1344.91
917.548	1334.29
917.859	1334.29
918.171	1357.56
918.482	1319.6
918.794	1323.89
919.105	1314.63
919.416	1330.45
919.727	1301.52
920.038	1310.33
920.349	1318.02
920.66	1291.12
920.971	1301.97
921.282	1300.84
921.593	1289.09
921.903	1269.66
922.214	1283.89
922.525	1292.48
922.835	1273.05
923.146	1285.47
923.456	1262.42
923.767	1255.19
924.077	1264.91
924.387	1224.23
924.697	1243.22
925.008	1246.61
925.318	1216.1
925.628	1220.39
925.938	1238.47
926.248	1238.02
926.558	1229.66
926.867	1211.13
927.177	1222.43
927.487	1174.29
927.796	1210.22
928.106	1180.17
928.416	1186.72
928.725	1212.03
929.034	1179.04
929.344	1170
929.653	1180.84
929.962	1180.39
930.271	1174.52
930.581	1172.71
930.89	1185.36
931.199	1166.83
931.508	1179.49
931.817	1167.29
932.125	1173.84
932.434	1179.94
932.743	1148.53
933.051	1154.63
933.36	1141.98
933.669	1150.11
933.977	1138.36
934.286	1125.7
934.594	1131.81
934.902	1134.74
935.21	1105.82
935.519	1147.17
935.827	1129.77
936.135	1122.77
936.443	1105.59
936.751	1105.59
937.059	1132.26
937.367	1097.46
937.674	1112.37
937.982	1069.89
938.29	1066.72
938.597	1076.21
938.905	1065.59
939.213	1092.94
939.52	1090
939.827	1078.25
940.135	1036.89
940.442	1098.59
940.749	1062.66
941.056	1028.76
941.363	1064.24
941.67	1039.61
941.977	1043.22
942.284	1039.61
942.591	1018.82
942.898	1020.85
943.205	1009.32
943.511	1013.17
943.818	1004.35
944.125	1008.42
944.431	1025.59
944.738	998.93
945.044	994.41
945.35	1017.91
945.657	1009.1
945.963	995.76
946.269	1005.48
946.575	997.57
946.881	1023.33
947.187	1003
947.493	974.3
947.799	1000.74
948.105	999.83
948.41	977.69
948.716	985.37
949.022	979.27
949.327	973.17
949.633	948.08
949.938	953.73
950.244	961.64
950.549	975.65
950.854	952.83
951.16	950.79
951.465	940.17
951.77	916.22
952.075	942.43
952.38	947.63
952.685	938.37
952.99	919.61
953.294	928.65
953.599	920.29
953.904	898.82
954.209	925.94
954.513	917.57
954.818	918.03
955.122	913.28
955.426	883.23
955.731	918.25
956.035	900.85
956.339	893.39
956.643	918.25
956.948	921.42
957.252	889.55
957.556	903.56
957.86	884.58
958.163	911.93
958.467	898.59
958.771	882.55
959.075	866.73
959.378	885.49
959.682	844.58
959.985	877.35
960.289	876.9
960.592	887.75
960.896	875.09
961.199	890.46
961.502	865.37
961.805	877.35
962.108	859.72
962.411	861.76
962.714	848.65
963.017	843.68
963.32	875.99
963.623	842.77
963.926	861.31
964.228	859.95
964.531	835.54
964.833	850.46
965.136	847.07
965.438	812.94
965.741	819.5
966.043	815.43
966.345	840.74
966.648	831.93
966.95	807.3
967.252	807.97
967.554	805.49
967.856	793.74
968.158	798.48
968.46	784.7
968.761	810.91
969.063	807.3
969.365	796.22
969.666	803.91
969.968	777.69
970.269	804.58
970.571	806.84
970.872	777.24
971.174	795.54
971.475	794.19
971.776	779.95
972.077	790.12
972.378	760.06
972.679	774.75
972.98	788.54
973.281	772.72
973.582	755.77
973.883	774.53
974.183	763.68
974.484	745.38
974.785	762.1
975.085	775.66
975.386	759.84
975.686	753.74
975.986	768.65
976.287	762.32
976.587	744.7
976.887	739.73
977.187	730.24
977.487	719.16
977.787	720.07
978.087	725.49
978.387	748.09
978.687	723.68
978.987	727.07
979.286	751.03
979.586	715.77
979.885	732.72
980.185	706.05
980.484	720.97
980.784	746.28
981.083	686.62
981.382	702.67
981.682	713.51
981.981	698.37
982.28	705.83
982.579	713.06
982.878	713.06
983.177	704.25
983.475	695.21
983.774	711.48
984.073	688.65
984.372	650.69
984.67	684.59
984.969	685.26
985.267	687.98
985.566	676.9
985.864	680.07
986.162	685.04
986.461	665.6
986.759	669.67
987.057	696.34
987.355	675.32
987.653	673.51
987.951	694.98
988.249	688.65
988.547	660.41
988.844	669.45
989.142	656.34
989.44	668.77
989.737	674.19
990.035	657.47
990.332	684.59
990.63	670.58
990.927	680.07
991.224	646.17
991.521	642.1
991.819	661.99
992.116	655.89
992.413	647.07
992.71	647.98
993.006	635.1
993.303	636
993.6	668.09
993.897	627.19
994.193	646.62
994.49	642.33
994.787	619.96
995.083	635.55
995.379	633.51
995.676	614.98
995.972	621.31
996.268	609.56
996.565	612.72
996.861	613.4
997.157	637.36
997.453	609.33
997.749	611.14
998.044	621.09
998.34	601.2
998.636	600.52
998.932	620.18
999.227	604.81
999.523	610.24
999.818	605.49
1000.114	614.53
1000.409	600.97
1000.704	587.87
1001	600.75
1001.295	606.17
1001.59	597.36
1001.885	593.29
1002.18	578.15
1002.475	577.02
1002.77	569.56
1003.065	598.49
1003.359	580.63
1003.654	597.81
1003.949	562.56
1004.243	591.71
1004.538	571.82
1004.832	593.52
1005.127	579.28
1005.421	560.97
1005.715	562.33
1006.009	560.75
1006.304	569.34
1006.598	565.72
1006.892	584.25
1007.186	541.99
1007.48	551.26
1007.773	565.27
1008.067	556
1008.361	546.29
1008.655	537.92
1008.948	556
1009.242	550.8
1009.535	547.41
1009.829	518.04
1010.122	542.22
1010.415	533.63
1010.708	548.09
1011.001	522.78
1011.295	550.35
1011.588	538.6
1011.881	547.87
1012.173	525.27
1012.466	545.61
1012.759	539.96
1013.052	543.12
1013.344	515.33
1013.637	516.46
1013.93	513.52
1014.222	531.14
1014.514	516.23
1014.807	501.77
1015.099	525.49
1015.391	514.42
1015.683	513.52
1015.976	498.15
1016.268	504.93
1016.56	520.3
1016.851	497.47
1017.143	502.44
1017.435	494.08
1017.727	520.3
1018.018	504.93
1018.31	498.83
1018.602	505.16
1018.893	498.38
1019.185	501.09
1019.476	499.28
1019.767	513.52
1020.058	486.85
1020.35	479.85
1020.641	476
1020.932	504.7
1021.223	479.17
1021.514	483.46
1021.804	501.31
1022.095	472.84
1022.386	486.17
1022.677	461.09
1022.967	481.88
1023.258	477.13
1023.548	454.08
1023.839	470.13
1024.129	481.65
1024.419	483.91
1024.709	472.16
1025	451.37
1025.29	449.11
1025.58	478.72
1025.87	451.6
1026.16	431.49
1026.449	480.3
1026.739	469.68
1027.029	456.57
1027.319	467.19
1027.608	450.47
1027.898	450.02
1028.187	470.81
1028.477	440.3
1028.766	456.57
1029.055	452.05
1029.344	460.19
1029.634	444.82
1029.923	460.86
1030.212	442.56
1030.501	433.97
1030.79	446.63
1031.078	413.41
1031.367	444.37
1031.656	441.2
1031.945	426.06
1032.233	433.75
1032.522	434.42
1032.81	451.37
1033.099	430.81
1033.387	444.14
1033.675	424.03
1033.963	443.24
1034.251	456.8
1034.54	448.43
1034.828	453.63
1035.116	440.98
1035.403	415.22
1035.691	448.89
1035.979	427.64
1036.267	415.22
1036.554	431.71
1036.842	410.92
1037.129	418.83
1037.417	420.64
1037.704	423.58
1037.992	424.03
1038.279	425.84
1038.566	409.34
1038.853	409.34
1039.14	409.34
