Data from foam2_polystyrene_foam_FLMS001491_00033.txt Node
Date: Wed Feb 08 10:57:52 GMT 2017
User: dcchb
Spectrometer: FLMS00149
Trigger mode: 0
Integration Time (sec): 2.000000E-2
Scans to average: 10
Electric dark correction enabled: true
Nonlinearity correction enabled: false
Boxcar width: 0
XAxis mode: Wavelengths
Number of Pixels in Spectrum: 2048
>>>>>Begin Spectral Data<<<<<
341.393	10.73
341.776	10.73
342.16	10.73
342.543	-56.38
342.927	-71.52
343.31	-70.17
343.693	-63.16
344.077	-49.38
344.46	-51.41
344.843	-53.22
345.226	-27.23
345.61	-34.24
345.993	-29.49
346.376	-13.22
346.759	0.56
347.142	32.65
347.525	40.79
347.908	67.23
348.291	68.13
348.674	79.88
349.057	102.26
349.44	110.84
349.823	119.43
350.206	145.65
350.588	186.77
350.971	204.18
351.354	235.81
351.737	237.39
352.119	258.64
352.502	258.19
352.884	275.13
353.267	296.15
353.65	286.21
354.032	306.09
354.414	297.28
354.797	316.04
355.179	312.42
355.562	332.53
355.944	338.86
356.326	336.15
356.709	332.99
357.091	322.59
357.473	338.86
357.855	341.12
358.238	350.16
358.62	339.09
359.002	338.64
359.384	353.32
359.766	356.49
360.148	344.51
360.53	357.39
360.912	342.02
361.294	364.17
361.676	356.71
362.057	358.52
362.439	325.3
362.821	329.37
363.203	332.76
363.584	344.51
363.966	327.79
364.348	320.78
364.729	334.79
365.111	345.41
365.493	309.71
365.874	321.46
366.256	329.6
366.637	324.17
367.019	318.52
367.4	323.04
367.781	346.77
368.163	321.69
368.544	329.6
368.925	354
369.306	343.61
369.688	328.92
370.069	321.69
370.45	339.77
370.831	318.3
371.212	333.89
371.593	325.08
371.974	322.59
372.355	332.99
372.736	373.21
373.117	339.77
373.498	351.29
373.879	344.28
374.26	341.12
374.641	324.17
375.021	328.69
375.402	338.86
375.783	346.54
376.163	352.65
376.544	380.67
376.925	390.39
377.305	350.39
377.686	357.84
378.066	384.06
378.447	353.78
378.827	345.19
379.208	387.67
379.588	372.08
379.968	382.7
380.349	381.35
380.729	367.56
381.109	391.74
381.489	383.83
381.87	375.47
382.25	391.52
382.63	405.53
383.01	390.61
383.39	386.77
383.77	406.43
384.15	375.47
384.53	411.85
384.91	415.24
385.29	396.03
385.67	403.72
386.049	401.23
386.429	415.92
386.809	411.63
387.189	455.24
387.568	423.15
387.948	431.51
388.328	433.1
388.707	418.63
389.087	438.07
389.466	455.69
389.846	455.02
390.225	448.69
390.605	442.36
390.984	478.29
391.363	464.96
391.743	461.34
392.122	457.05
392.501	468.12
392.881	469.03
393.26	484.39
393.639	475.35
394.018	477.39
394.397	483.26
394.776	477.84
395.155	489.82
395.534	501.12
395.913	494.56
396.292	497.73
396.671	514.9
397.05	519.42
397.429	523.72
397.808	499.99
398.186	510.61
398.565	544.51
398.944	520.1
399.323	525.97
399.701	514
400.08	535.24
400.458	546.54
400.837	548.35
401.215	545.18
401.594	563.49
401.972	553.77
402.351	558.06
402.729	569.82
403.107	555.8
403.486	574.34
403.864	589.7
404.242	586.31
404.62	592.87
404.999	584.28
405.377	589.93
405.755	592.87
406.133	599.42
406.511	626.76
406.889	608.46
407.267	598.74
407.645	628.8
408.023	630.38
408.401	619.08
408.779	655.69
409.156	648.23
409.534	663.6
409.912	681.9
410.29	680.77
410.667	704.05
411.045	682.58
411.422	680.55
411.8	677.61
412.178	737.72
412.555	741.56
412.933	721.45
413.31	750.38
413.687	747.21
414.065	761.22
414.442	758.29
414.819	781.79
415.197	764.16
415.574	778.17
415.951	790.83
416.328	799.41
416.705	777.04
417.082	829.24
417.46	838.28
417.837	816.14
418.214	843.93
418.591	834.44
418.967	844.16
419.344	853.65
419.721	847.32
420.098	878.96
420.475	863.37
420.852	878.73
421.228	894.55
421.605	909.47
421.982	910.15
422.358	899.52
422.735	935.46
423.111	922.35
423.488	922.35
423.864	942.01
424.241	988.56
424.617	973.65
424.994	972.97
425.37	984.95
425.746	992.18
426.123	989.24
426.499	1008.22
426.875	1026.75
427.251	1029.69
427.627	1050.71
428.003	1038.05
428.379	1063.59
428.756	1098.16
429.132	1096.36
429.507	1129.8
429.883	1125.06
430.259	1136.13
430.635	1114.21
431.011	1135.68
431.387	1181.1
431.763	1213.41
432.138	1233.75
432.514	1233.3
432.89	1221.1
433.265	1273.07
433.641	1272.4
434.016	1269.68
434.392	1297.25
434.767	1309.23
435.143	1312.39
435.518	1325.95
435.894	1334.77
436.269	1389.45
436.644	1355.56
437.02	1389
437.395	1398.04
437.77	1442.11
438.145	1441.66
438.52	1481.2
438.895	1455.67
439.271	1483.69
439.646	1512.62
440.021	1496.8
440.395	1556.23
440.77	1515.33
441.145	1534.99
441.52	1553.97
441.895	1558.26
442.27	1574.99
442.645	1620.18
443.019	1593.97
443.394	1617.02
443.769	1650.47
444.143	1617.92
444.518	1646.85
444.892	1631.93
445.267	1671.03
445.641	1700.86
446.016	1720.07
446.39	1726.4
446.764	1726.62
447.139	1735.21
447.513	1783.57
447.887	1789.67
448.262	1784.92
448.636	1761.65
449.01	1820.18
449.384	1861.98
449.758	1859.05
450.132	1864.02
450.506	1871.93
450.88	1899.5
451.254	1901.08
451.628	1951.7
452.002	1960.29
452.376	1946.28
452.75	1994.64
453.123	2006.84
453.497	2043.22
453.871	2022.43
454.244	2063.34
454.618	2088.42
454.992	2106.27
455.365	2110.11
455.739	2162.09
456.112	2184.24
456.486	2201.64
456.859	2205.48
457.232	2259.71
457.606	2234.4
457.979	2276.89
458.352	2305.59
458.725	2367.51
459.099	2381.29
459.472	2424.91
459.845	2427.39
460.218	2438.24
460.591	2466.49
460.964	2478.69
461.337	2525.24
461.71	2556.66
462.083	2582.87
462.456	2575.86
462.829	2613.83
463.201	2650.21
463.574	2631.68
463.947	2686.14
464.32	2730.66
464.692	2795.75
465.065	2836.2
465.438	2847.5
465.81	2860.38
466.183	2892.24
466.555	2976.98
466.928	3003.65
467.3	2995.29
467.672	3053.59
468.045	3092.69
468.417	3100.6
468.789	3111.9
469.161	3168.62
469.534	3200.71
469.906	3256.3
470.278	3288.39
470.65	3318.9
471.022	3412.68
471.394	3463.07
471.766	3458.78
472.138	3503.75
472.51	3639.79
472.882	3651.09
473.253	3699.45
473.625	3740.81
473.997	3809.28
474.369	3818.32
474.74	3867.81
475.112	3938.09
475.484	4032.1
475.855	4056.28
476.227	4114.81
476.598	4229.15
476.97	4245.43
477.341	4305.99
477.713	4379.43
478.084	4461.69
478.455	4550.5
478.827	4597.73
479.198	4720.44
479.569	4713.89
479.94	4824.62
480.311	4938.97
480.682	4972.64
481.053	5110.26
481.424	5217.15
481.795	5259.86
482.166	5312.52
482.537	5342.35
482.908	5470.7
483.279	5593.19
483.65	5630.25
484.021	5793.86
484.391	5837.7
484.762	5874.31
485.133	5899.39
485.503	5992.27
485.874	6122.21
486.244	6176.45
486.615	6327.18
486.985	6375.99
487.356	6524.46
487.726	6567.85
488.097	6692.37
488.467	6684.01
488.837	6807.84
489.207	7014.17
489.578	7033.37
489.948	7069.53
490.318	7228.17
490.688	7235.63
491.058	7378.68
491.428	7475.17
491.798	7484.21
492.168	7700.25
492.538	7731.44
492.908	7831.32
493.278	7924.65
493.648	7858.89
494.017	8062.5
494.387	8130.97
494.757	8175.72
495.126	8244.64
495.496	8333.45
495.866	8427.69
496.235	8471.3
496.605	8558.98
496.974	8572.09
497.344	8641.69
497.713	8742.93
498.082	8840.11
498.452	8911.29
498.821	9000.33
499.19	9004.17
499.559	9141.79
499.928	9190.38
500.298	9191.51
500.667	9317.83
501.036	9318.74
501.405	9440.54
501.774	9446.64
502.143	9575.23
502.512	9570.71
502.88	9744.94
503.249	9708.33
503.618	9844.37
503.987	9774.55
504.356	9892.96
504.724	9962.34
505.093	10013.64
505.462	10078.04
505.83	10072.16
506.199	10247.98
506.567	10429.44
506.936	10400.07
507.304	10517.35
507.672	10540.4
508.041	10603
508.409	10636.9
508.777	10785.59
509.145	10893.84
509.514	10910.11
509.882	11005.47
510.25	10979.94
510.618	11121.18
510.986	11187.62
511.354	11275.07
511.722	11397.55
512.09	11528.62
512.458	11452.24
512.826	11650.43
513.193	11732.23
513.561	11707.15
513.929	11845.68
514.297	11939.46
514.664	12055.16
515.032	12139.23
515.4	12309.85
515.767	12273.01
516.135	12325.66
516.502	12341.71
516.869	12591.19
517.237	12579.44
517.604	12557.3
517.972	12820.79
518.339	12875.93
518.706	12985.53
519.073	13064.18
519.44	13144.17
519.808	13209.03
520.175	13292.64
520.542	13494.9
520.909	13547.1
521.276	13570.15
521.643	13721.33
522.009	13850.14
522.376	13952.51
522.743	14046.3
523.11	14222.79
523.477	14292.39
523.843	14419.62
524.21	14495.78
524.577	14568.54
524.943	14698.48
525.31	14742.1
525.676	14921.75
526.043	14964.69
526.409	15107.96
526.776	15323.33
527.142	15354.96
527.508	15434.06
527.874	15549.76
528.241	15670.44
528.607	15705.91
528.973	15898.9
529.339	15876.76
529.705	16026.81
530.071	16194.26
530.437	16230.65
530.803	16356.75
531.169	16398.1
531.535	16380.7
531.901	16592.22
532.267	16716.06
532.632	16697.53
532.998	16815.94
533.364	16838.54
533.73	16997.86
534.095	17129.61
534.461	17274.91
534.826	17245.08
535.192	17267.68
535.557	17438.07
535.923	17310.84
536.288	17558.07
536.653	17582.25
537.019	17612.53
537.384	17683.94
537.749	17767.78
538.114	17834.45
538.479	17883.03
538.845	17984.27
539.21	17999.64
539.575	18081.45
539.94	18160.99
540.305	18343.81
540.67	18293.87
541.034	18398.27
541.399	18472.4
541.764	18588.32
542.129	18687.08
542.494	18618.15
542.858	18753.97
543.223	18833.29
543.587	18856.57
543.952	18906.06
544.316	18968.43
544.681	19037.8
545.045	19162.32
545.41	19260.4
545.774	19225.14
546.138	19259.72
546.503	19431.24
546.867	19419.72
547.231	19603.44
547.595	19549.43
547.959	19587.85
548.324	19746.26
548.688	19909.19
549.052	19910.1
549.416	19995.29
549.779	19986.25
550.143	20053.82
550.507	20249.3
550.871	20207.72
551.235	20230.32
551.599	20419.24
551.962	20371.78
552.326	20533.81
552.689	20609.29
553.053	20583.53
553.417	20614.71
553.78	20979.67
554.143	20740.58
554.507	20966.34
554.87	21039.33
555.234	21235.49
555.597	21117.52
555.96	21239.33
556.323	21361.36
556.686	21470.73
557.05	21574.23
557.413	21505.54
557.776	21723.61
558.139	21951.63
558.502	21835.92
558.865	21828.24
559.228	21962.7
559.59	22226.87
559.953	22234.56
560.316	22615.79
560.679	22458.51
561.041	22629.8
561.404	22697.82
561.767	22803.81
562.129	22758.61
562.492	23029.11
562.854	23013.75
563.217	23049
563.579	23165.83
563.941	23375.09
564.304	23545.48
564.666	23668.87
565.028	23627.06
565.39	23712.48
565.753	23885.36
566.115	23968.75
566.477	24035.19
566.839	24085.58
567.201	24368.51
567.563	24290.1
567.925	24570.31
568.287	24527.38
568.648	24662.29
569.01	24754.49
569.372	24944.77
569.734	24694.6
570.095	25039.91
570.457	25138.44
570.819	25145.89
571.18	25178.89
571.542	25248.04
571.903	25333.46
572.265	25423.85
572.626	25476.51
572.987	25511.98
573.349	25533.23
573.71	25752.2
574.071	25772.54
574.432	25906.32
574.794	26048.69
575.155	26049.82
575.516	25932.09
575.877	26031.74
576.238	26118.07
576.599	26220.67
576.96	26214.34
577.32	26398.29
577.681	26389.7
578.042	26413.66
578.403	26518.96
578.763	26507.66
579.124	26619.75
579.485	26567.32
579.845	26704.95
580.206	26607.32
580.566	26697.49
580.927	26694.55
581.287	26844.15
581.648	26712.63
582.008	26846.19
582.368	26855.23
582.728	26940.42
583.089	26863.81
583.449	26950.36
583.809	26892.29
584.169	26956.69
584.529	26982.23
584.889	27027.65
585.249	26897.03
585.609	26877.6
585.969	27050.7
586.329	26887.09
586.688	27040.76
587.048	26920.99
587.408	26943.13
587.768	26965.51
588.127	26890.03
588.487	26977.93
588.846	27125.28
589.206	26986.07
589.565	27031.04
589.925	27132.73
590.284	27164.82
590.643	27019.52
591.003	27207.99
591.362	27200.98
591.721	27046.86
592.08	27042.79
592.44	27187.42
592.799	27186.06
593.158	27084.6
593.517	27084.37
593.876	27125.73
594.235	27153.75
594.593	27209.34
594.952	27273.97
595.311	27180.87
595.67	27106.97
596.029	27338.83
596.387	27355.78
596.746	27411.14
597.104	27233.52
597.463	27379.05
597.822	27393.97
598.18	27279.62
598.538	27271.94
598.897	27458.6
599.255	27179.96
599.613	27612.72
599.972	27379.51
600.33	27457.02
600.688	27391.48
601.046	27582.44
601.404	27641.42
601.762	27550.35
602.12	27720.06
602.478	27713.51
602.836	27594.87
603.194	27608.88
603.552	27703.11
603.91	27444.14
604.268	27656.79
604.625	27606.17
604.983	27794.18
605.341	27669.67
605.698	27736.33
606.056	27870.57
606.413	27890
606.771	27916.67
607.128	28032.6
607.485	27934.75
607.843	27817.23
608.2	28045.48
608.557	28077.34
608.914	28011.13
609.272	28092.03
609.629	28140.62
609.986	28303.32
610.343	28157.79
610.7	28374.28
611.057	28375.86
611.414	28244.34
611.771	28354.4
612.127	28450.44
612.484	28420.38
612.841	28534.28
613.198	28395.07
613.554	28436.43
613.911	28572.92
614.267	28446.14
614.624	28452.25
614.98	28531.11
615.337	28755.97
615.693	28668.29
616.05	28548.74
616.406	28663.99
616.762	28650.66
617.118	28621.28
617.475	28621.73
617.831	28629.19
618.187	28596.2
618.543	28747.83
618.899	28851.56
619.255	28814.95
619.611	28703.54
619.967	28969.29
620.323	29029.18
620.678	28793.48
621.034	28858.79
621.39	28845.23
621.746	28844.33
622.101	29150.53
622.457	28960.71
622.812	28907.15
623.168	28976.75
623.523	29020.82
623.879	29177.65
624.234	28849.3
624.589	29078.67
624.945	28942.4
625.3	29046.81
625.655	28933.82
626.01	28949.18
626.365	29000.48
626.72	28904.21
627.075	28929.97
627.43	28845.46
627.785	28885.91
628.14	28774.05
628.495	28908.73
628.85	28864.66
629.205	28829.19
629.559	28878.22
629.914	28813.14
630.269	28772.92
630.623	28739.7
630.978	28541.51
631.332	28769.98
631.687	28624.67
632.041	28611.34
632.396	28579.25
632.75	28526.59
633.104	28525.92
633.459	28391.46
633.813	28416.09
634.167	28415.86
634.521	28411.34
634.875	28441.63
635.229	28353.72
635.583	28374.28
635.937	28254.29
636.291	28226.26
636.645	28211.35
636.999	28160.28
637.352	28178.13
637.706	28074.4
638.06	28238.69
638.413	28062.43
638.767	28072.6
639.121	28067.4
639.474	27944.46
639.828	27914.18
640.181	27840.74
640.534	27858.36
640.888	27864.24
641.241	27667.41
641.594	27666.5
641.947	27680.06
642.301	27613.85
642.654	27668.31
643.007	27731.59
643.36	27645.94
643.713	27549.45
644.066	27663.11
644.419	27456.34
644.771	27228.78
645.124	27032.85
645.477	26972.06
645.83	26763.48
646.182	26693.2
646.535	26682.35
646.888	26598.28
647.24	26446.88
647.593	26494.11
647.945	26498.63
648.298	26400.55
648.65	26351.28
649.002	26287.56
649.355	26393.77
649.707	26221.12
650.059	26386.09
650.411	26823.36
650.763	26714.89
651.115	26974.77
651.467	26883.02
651.819	26887.77
652.171	26864.72
652.523	26857.94
652.875	26710.15
653.227	26740.43
653.578	26715.57
653.93	26782.46
654.282	26622.69
654.633	26634.21
654.985	26758.73
655.337	26605.74
655.688	26610.71
656.039	26773.42
656.391	26519.19
656.742	26498.4
657.094	26573.43
657.445	26416.59
657.796	26473.09
658.147	26366.65
658.498	26344.96
658.849	26419.98
659.2	26352.87
659.551	26456.14
659.902	26525.29
660.253	26399.64
660.604	26366.88
660.955	26225.86
661.306	26343.83
661.656	26346.99
662.007	26229.71
662.358	26327.1
662.708	26264.96
663.059	26205.3
663.409	26136.83
663.76	26311.51
664.11	26204.4
664.461	26263.15
664.811	26281.68
665.161	26170.27
665.511	26080.78
665.862	26030.39
666.212	26157.39
666.562	26229.25
666.912	26118.07
667.262	26107
667.612	26036.94
667.962	26075.59
668.312	25973.89
668.662	26114
669.011	25935.93
669.361	26030.61
669.711	26157.84
670.06	26040.56
670.41	25916.04
670.76	25970.96
671.109	26054.12
671.459	25926.21
671.808	25823.61
672.157	25987
672.507	25763.96
672.856	25829.72
673.205	25809.83
673.554	25970.05
673.904	25816.61
674.253	25893.44
674.602	25719.21
674.951	25367.81
675.3	25199.68
675.649	25624.3
675.998	25735.71
676.346	25638.08
676.695	25779.77
677.044	25474.02
677.393	25551.53
677.741	25702.26
678.09	25615.94
678.438	25521.48
678.787	25463.85
679.135	25496.17
679.484	25379.33
679.832	25350.63
680.181	25336.85
680.529	25356.96
680.877	25288.04
681.225	25218.43
681.573	25364.87
681.922	25123.52
682.27	25099.11
682.618	25031.77
682.966	24942.73
683.314	24894.37
683.661	24926.46
684.009	24688.28
684.357	24700.48
684.705	24670.65
685.053	24822.74
685.4	24596.75
685.748	24506.14
686.095	24466.59
686.443	24471.56
686.79	24474.95
687.138	24544.78
687.485	24386.59
687.832	24322.86
688.18	24214.39
688.527	24257.78
688.874	24092.13
689.221	24142.98
689.568	24076.77
689.915	23971.91
690.262	24113.38
690.609	23854.85
690.956	23793.39
691.303	23757.68
691.65	23622.09
691.997	23660.06
692.344	23472.94
692.69	23455.09
693.037	23558.14
693.383	23299.84
693.73	23376.22
694.077	23203.57
694.423	23217.58
694.769	23137.58
695.116	23199.5
695.462	23041.99
695.808	23050.81
696.155	23050.81
696.501	22808.78
696.847	22825.73
697.193	22618.05
697.539	22791.38
697.885	22567.43
698.231	22470.03
698.577	22529.24
698.923	22469.58
699.269	22340.77
699.614	22225.97
699.96	22201.56
700.306	22312.97
700.651	22161.11
700.997	22048.35
701.342	21950.5
701.688	22002.47
702.033	22027.56
702.379	21886.54
702.724	21795.7
703.069	21885.87
703.415	21649.71
703.76	21729.71
704.105	21637.06
704.45	21689.94
704.795	21555.48
705.14	21562.71
705.485	21437.97
705.83	21355.26
706.175	21449.49
706.52	21367.91
706.865	21215.37
707.209	21289.5
707.554	21052.67
707.899	21104.87
708.243	21037.53
708.588	20974.93
708.932	20882.28
709.277	20748.04
709.621	20646.35
709.966	20593.24
710.31	20663.3
710.654	20538.56
710.998	20571.78
711.342	20488.16
711.687	20463.53
712.031	20358
712.375	20374.04
712.719	20382.18
713.063	20422.85
713.407	20328.62
713.75	20350.99
714.094	20353.93
714.438	20219.02
714.782	20219.24
715.125	20053.15
715.469	20074.39
715.812	19958.23
716.156	19881.62
716.499	19885.92
716.843	19979.47
717.186	19886.6
717.53	19866.03
717.873	19908.52
718.216	19808.63
718.559	19659.48
718.902	19568.64
719.246	19632.59
719.589	19533.16
719.932	19416.78
720.275	19539.49
720.617	19340.85
720.96	19409.09
721.303	19427.85
721.646	19368.42
721.989	19245.03
722.331	19211.13
722.674	19163.22
723.016	19249.32
723.359	19157.35
723.701	19293.39
724.044	19057.69
724.386	19064.02
724.729	19099.72
725.071	19006.62
725.413	19006.62
725.755	18910.12
726.097	18859.28
726.439	18797.81
726.782	18836.91
727.124	18890.24
727.465	18757.13
727.807	18749.45
728.149	18694.99
728.491	18680.3
728.833	18642.79
729.175	18604.37
729.516	18521.21
729.858	18485.28
730.199	18467.88
730.541	18561.66
730.882	18439.4
731.224	18413.64
731.565	18367.99
731.906	18395.34
732.248	18346.98
732.589	18248.67
732.93	18101.78
733.271	18261.1
733.612	18189.47
733.953	18138.39
734.294	18147.43
734.635	18087.55
734.976	18021.33
735.317	17995.8
735.658	17935.91
735.999	17949.02
736.339	17919.19
736.68	17974.1
737.021	17912.86
737.361	17843.49
737.702	17910.15
738.042	17863.82
738.383	17740.89
738.723	17774.56
739.063	17697.5
739.404	17813.2
739.744	17658.18
740.084	17649.82
740.424	17697.5
740.764	17622.25
741.104	17712.19
741.444	17613.66
741.784	17539.76
742.124	17561.46
742.464	17476.26
742.804	17510.39
743.143	17410.5
743.483	17455.93
743.823	17346.32
744.162	17311.52
744.502	17454.12
744.841	17431.75
745.181	17433.55
745.52	17281.69
745.86	17258.42
746.199	17176.16
746.538	17158.08
746.877	17276.04
747.216	17142.04
747.556	17053.9
747.895	17104.3
748.234	17000.57
748.573	16978.2
748.911	16935.03
749.25	16911.53
749.589	16862.27
749.928	16899.56
750.267	16895.49
750.605	16740.01
750.944	16782.04
751.283	16693.46
751.621	16755.38
751.96	16683.97
752.298	16641.94
752.636	16650.52
752.975	16521.03
753.313	16582.5
753.651	16648.94
753.989	16533.24
754.327	16421.38
754.666	16376.41
755.004	16410.3
755.342	16332.34
755.679	16274.94
756.017	16318.1
756.355	16284.66
756.693	16094.15
757.031	16144.55
757.368	16054.15
757.706	16031.1
758.044	15895.06
758.381	16031.78
758.719	15912.91
759.056	15856.87
759.394	15847.83
759.731	15755.18
760.068	15655.29
760.405	15629.76
760.743	15643.32
761.08	15651.9
761.417	15498.46
761.754	15543.89
762.091	15493.04
762.428	15374.62
762.765	15372.82
763.102	15439.03
763.438	15232.25
763.775	15315.19
764.112	15206.49
764.449	15116.1
764.785	15153.61
765.122	14964.01
765.458	14963.79
765.795	14956.78
766.131	14939.16
766.467	14825.26
766.804	14774.41
767.14	14703
767.476	14645.15
767.812	14593.85
768.148	14667.52
768.485	14512.5
768.821	14473.63
769.157	14394.31
769.492	14412.16
769.828	14458.04
770.164	14272.96
770.5	14198.84
770.836	14221.21
771.171	14152.74
771.507	14104.37
771.842	13995.23
772.178	14060.99
772.513	13969.69
772.849	13979.41
773.184	13873.42
773.519	13854.66
773.855	13800.65
774.19	13799.3
774.525	13623.03
774.86	13685.4
775.195	13720.2
775.53	13610.83
775.865	13470.27
776.2	13487.22
776.535	13238.41
776.87	13399.53
777.205	13328.8
777.539	13256.49
777.874	13274.79
778.209	13116.6
778.543	13080
778.878	13028.47
779.212	12999.55
779.547	12941.69
779.881	12933.11
780.215	12885.2
780.55	12888.36
780.884	12842.94
781.218	12801.36
781.552	12801.13
781.886	12685.2
782.22	12610.4
782.554	12630.74
782.888	12427.81
783.222	12411.09
783.556	12397.3
783.889	12383.52
784.223	12197.08
784.557	12251.32
784.89	12313.01
785.224	12264.2
785.557	12180.81
785.891	12158.21
786.224	12109.17
786.558	12066.69
786.891	12012.9
787.224	11915.73
787.557	11888.61
787.891	11885
788.224	11794.38
788.557	11802.06
788.89	11715.06
789.223	11737.66
789.556	11628.96
789.888	11668.96
790.221	11628.51
790.554	11531.56
790.887	11571.11
791.219	11498.12
791.552	11428.29
791.884	11423.09
792.217	11348.06
792.549	11237.11
792.882	11215.19
793.214	11228.52
793.546	11190.78
793.879	11084.79
794.211	11057.68
794.543	11116.2
794.875	10998.24
795.207	11076.88
795.539	10971.35
795.871	10960.05
796.203	10827.85
796.535	10869.66
796.867	10818.36
797.198	10784.46
797.53	10796.89
797.862	10734.52
798.193	10737.23
798.525	10655.88
798.856	10630.12
799.188	10603.9
799.519	10610.91
799.85	10464.02
800.182	10481.65
800.513	10464.7
800.844	10418.6
801.175	10494.53
801.506	10417.92
801.837	10378.6
802.168	10287.53
802.499	10284.36
802.83	10250.46
803.161	10259.96
803.491	10219.05
803.822	10183.35
804.153	10128.43
804.483	10102.9
804.814	9951.04
805.145	9949.91
805.475	10012.28
805.805	10012.96
806.136	9911.72
806.466	9861.1
806.796	9828.33
807.126	9777.71
807.457	9875.79
807.787	9756.47
808.117	9749.24
808.447	9743.36
808.777	9765.51
809.107	9725.73
809.436	9724.6
809.766	9680.54
810.096	9617.71
810.426	9590.82
810.755	9620.43
811.085	9538.17
811.414	9572.29
811.744	9516.25
812.073	9498.62
812.403	9471.5
812.732	9413.88
813.061	9396.48
813.39	9353.77
813.719	9326.65
814.049	9328.91
814.378	9281.9
814.707	9280.55
815.036	9367.55
815.365	9228.34
815.693	9086.88
816.022	9120.33
816.351	9147.9
816.68	9057.73
817.008	9085.52
817.337	9026.77
817.665	8957.17
817.994	8990.61
818.322	8987.45
818.651	8958.07
818.979	8974.11
819.307	8950.16
819.636	8898.41
819.964	8871.97
820.292	8882.14
820.62	8855.7
820.948	8902.03
821.276	8842.14
821.604	8846.43
821.932	8871.74
822.259	8867.9
822.587	8872.42
822.915	8838.98
823.243	8864.51
823.57	8832.42
823.898	8889.14
824.225	8875.81
824.553	8835.13
824.88	8819.99
825.207	8905.19
825.535	8857.73
825.862	8892.53
826.189	8816.83
826.516	8851.18
826.843	8883.04
827.17	8854.12
827.497	8965.98
827.824	8843.04
828.151	8840.33
828.478	8811.41
828.805	8820.9
829.131	8809.37
829.458	8769.6
829.785	8801.46
830.111	8782.93
830.438	8758.98
830.764	8799.66
831.09	8803.05
831.417	8743.39
831.743	8778.19
832.069	8792.2
832.395	8737.06
832.722	8775.93
833.048	8778.87
833.374	8738.64
833.7	8738.19
834.026	8809.37
834.351	8753.56
834.677	8700
835.003	8756.72
835.329	8726.44
835.654	8730.73
835.98	8640.34
836.306	8720.56
836.631	8699.77
836.956	8788.13
837.282	8675.82
837.607	8653.67
837.932	8624.52
838.258	8657.29
838.583	8584.07
838.908	8643.28
839.233	8594.24
839.558	8544.07
839.883	8566.67
840.208	8514.47
840.533	8545.2
840.858	8579.55
841.182	8461.59
841.507	8455.48
841.832	8403.28
842.156	8409.61
842.481	8374.13
842.805	8417.07
843.13	8376.62
843.454	8351.08
843.778	8318.76
844.103	8323.51
844.427	8330.29
844.751	8344.3
845.075	8300.46
845.399	8261.14
845.723	8190.18
846.047	8202.16
846.371	8193.57
846.695	8126.23
847.019	8184.98
847.343	8062.95
847.666	8020.02
847.99	7979.79
848.313	8007.13
848.637	7962.62
848.96	7936.18
849.284	7844.88
849.607	7862.96
849.931	7827.03
850.254	7777.99
850.577	7765.78
850.9	7650.76
851.223	7672.91
851.546	7591.78
851.869	7575.73
852.192	7622.96
852.515	7571.44
852.838	7511.78
853.161	7535.96
853.483	7460.93
853.806	7388.17
854.129	7402.86
854.451	7377.09
854.774	7359.47
855.096	7270.43
855.419	7276.08
855.741	7312.46
856.063	7229.08
856.385	7221.62
856.708	7247.61
857.03	7216.87
857.352	7262.75
857.674	7181.39
857.996	7151.11
858.318	7121.51
858.64	7081.06
858.961	7125.35
859.283	7075.86
859.605	7030.89
859.926	7112.47
860.248	7023.88
860.57	6961.96
860.891	7011.68
861.212	6919.48
861.534	6958.8
861.855	6884.68
862.176	6882.19
862.498	6929.42
862.819	6912.02
863.14	6847.62
863.461	6824.57
863.782	6894.17
864.103	6816.66
864.424	6799.48
864.745	6834.96
865.065	6810.1
865.386	6739.6
865.707	6784.12
866.027	6781.86
866.348	6752.03
866.668	6684.23
866.989	6665.93
867.309	6662.54
867.63	6739.6
867.95	6696.43
868.27	6645.36
868.59	6675.64
868.91	6630
869.23	6599.04
869.55	6639.94
869.87	6623.89
870.19	6580.96
870.51	6577.12
870.83	6615.31
871.15	6550.68
871.469	6568.75
871.789	6583.89
872.109	6521.75
872.428	6534.86
872.748	6537.12
873.067	6488.76
873.386	6491.02
873.706	6494.86
874.025	6487.85
874.344	6479.49
874.663	6475.65
874.982	6416.89
875.301	6438.81
875.62	6440.4
875.939	6404.01
876.258	6407.85
876.577	6376.44
876.896	6355.43
877.214	6325.37
877.533	6332.15
877.852	6346.61
878.17	6352.94
878.489	6312.49
878.807	6316.56
879.125	6318.59
879.444	6263
879.762	6256.45
880.08	6214.19
880.398	6184.81
880.716	6278.14
881.034	6227.75
881.352	6260.51
881.67	6178.26
881.988	6169.89
882.306	6218.71
882.624	6127.41
882.941	6057.58
883.259	6103.23
883.577	6141.19
883.894	6109.1
884.212	6115.43
884.529	6129.67
884.846	6119.05
885.164	6139.16
885.481	6050.35
885.798	6045.83
886.115	6034.76
886.432	6036.34
886.75	6056
887.067	6021.65
887.383	5995.89
887.7	6049.22
888.017	6022.1
888.334	5950.92
888.651	5943.01
888.967	5983.68
889.284	5944.59
889.6	5940.52
889.917	5853.29
890.233	5865.5
890.55	5824.37
890.866	5833.18
891.182	5810.58
891.498	5783.69
891.815	5786.18
892.131	5764.26
892.447	5735.78
892.763	5731.49
893.079	5677.7
893.395	5697.14
893.71	5677.03
894.026	5609.91
894.342	5653.98
894.657	5556.13
894.973	5629.8
895.289	5571.72
895.604	5556.58
895.92	5515.9
896.235	5545.73
896.55	5479.97
896.865	5513.41
897.181	5497.37
897.496	5512.74
897.811	5432.96
898.126	5399.07
898.441	5404.72
898.756	5399.29
899.071	5361.55
899.386	5352.29
899.7	5302.12
900.015	5331.27
900.33	5238.17
900.644	5270.71
900.959	5295.79
901.273	5294.21
901.588	5223.7
901.902	5259.64
902.216	5202.69
902.531	5170.15
902.845	5125.85
903.159	5142.8
903.473	5127.44
903.787	5119.3
904.101	5049.47
904.415	5098.06
904.729	5077.95
905.042	5013.54
905.356	4987.1
905.67	4976.03
905.984	4975.8
906.297	4955.91
906.611	4926.99
906.924	4904.39
907.237	4865.75
907.551	4901.91
907.864	4853.54
908.177	4858.74
908.491	4819.42
908.804	4818.52
909.117	4831.4
909.43	4764.51
909.743	4710.05
910.056	4773.09
910.368	4712.53
910.681	4725.64
910.994	4704.85
911.307	4641.35
911.619	4662.82
911.932	4604.51
912.244	4595.47
912.557	4625.3
912.869	4609.03
913.181	4550.05
913.494	4574.23
913.806	4502.59
914.118	4542.14
914.43	4487.45
914.742	4485.64
915.054	4454.91
915.366	4466.66
915.678	4418.3
915.99	4392.99
916.302	4368.59
916.613	4368.81
916.925	4361.13
917.236	4321.81
917.548	4324.29
917.859	4352.09
918.171	4293.56
918.482	4249.94
918.794	4280.23
919.105	4244.75
919.416	4219.21
919.727	4212.88
920.038	4199.1
920.349	4147.8
920.66	4134.47
920.971	4144.86
921.282	4121.13
921.593	4070.29
921.903	4040.23
922.214	4042.49
922.525	4038.88
922.835	4045.66
923.146	3999.1
923.456	4025.09
923.767	3947.35
924.077	4000.69
924.387	3955.94
924.697	3943.51
925.008	3930.63
925.318	3899.9
925.628	3877.07
925.938	3874.81
926.248	3843.63
926.558	3839.11
926.867	3847.24
927.177	3864.87
927.487	3772.9
927.796	3773.12
928.106	3754.59
928.416	3756.85
928.725	3739.9
929.034	3732.9
929.344	3750.3
929.653	3695.84
929.962	3682.28
930.271	3651.77
930.581	3649.96
930.89	3603.41
931.199	3575.16
931.508	3542.84
931.817	3569.28
932.125	3609.96
932.434	3542.17
932.743	3544.65
933.051	3556.4
933.36	3506.91
933.669	3508.27
933.977	3506.46
934.286	3455.62
934.594	3487.03
934.902	3473.02
935.21	3478.21
935.519	3426.24
935.827	3407.93
936.135	3343.53
936.443	3366.58
936.751	3342.85
937.059	3326.58
937.367	3331.78
937.674	3325
937.982	3338.56
938.29	3287.71
938.597	3320.93
938.905	3263.3
939.213	3280.25
939.52	3255.85
939.827	3251.78
940.135	3211.33
940.442	3225.56
940.749	3218.79
941.056	3179.46
941.363	3178.79
941.67	3169.75
941.977	3149.41
942.284	3098.56
942.591	3088.39
942.898	3074.83
943.205	3115.06
943.511	3095.62
943.818	3044.78
944.125	3004.78
944.431	3072.8
944.738	3020.82
945.044	3029.86
945.35	3022.41
945.657	3015.85
945.963	2956.19
946.269	2946.48
946.575	2941.28
946.881	2942.18
947.187	2922.97
947.493	2947.38
947.799	2874.84
948.105	2896.99
948.41	2852.69
948.716	2901.96
949.022	2830.55
949.327	2843.43
949.633	2851.11
949.938	2856.76
950.244	2814.95
950.549	2830.55
950.854	2760.72
951.16	2798.46
951.465	2763.88
951.77	2732.02
952.075	2773.15
952.38	2748.06
952.685	2749.42
952.99	2695.64
953.294	2687.95
953.599	2687.05
953.904	2665.35
954.209	2660.61
954.513	2661.29
954.818	2661.96
955.122	2661.51
955.426	2605.24
955.731	2618.8
956.035	2604.11
956.339	2613.15
956.643	2560.05
956.948	2534.28
957.252	2575.19
957.556	2561.18
957.86	2562.08
958.163	2499.26
958.467	2537.22
958.771	2502.65
959.075	2518.01
959.378	2481.63
959.682	2489.77
959.985	2480.5
960.289	2449.77
960.592	2424
960.896	2428.3
961.199	2411.35
961.502	2430.11
961.805	2400.05
962.108	2364.34
962.411	2399.82
962.714	2357.11
963.017	2379.49
963.32	2386.49
963.623	2331.13
963.926	2358.92
964.228	2330.67
964.531	2341.52
964.833	2336.32
965.136	2311.46
965.438	2286.83
965.741	2296.32
966.043	2267.62
966.345	2279.15
966.648	2273.5
966.95	2272.37
967.252	2245.25
967.554	2245.7
967.856	2202.99
968.158	2209.09
968.46	2246.61
968.761	2205.25
969.063	2191.69
969.365	2201.64
969.666	2180.17
969.968	2169.77
970.269	2165.25
970.571	2150.79
970.872	2128.64
971.174	2132.94
971.475	2093.17
971.776	2089.78
972.077	2108.98
972.378	2098.81
972.679	2138.81
972.98	2093.17
973.281	2068.99
973.582	2056.33
973.883	2044.35
974.183	2047.74
974.484	2045.03
974.785	2028.53
975.085	1999.61
975.386	2019.49
975.686	2005.71
975.986	2017.91
976.287	1995.31
976.587	1969.1
976.887	1936.11
977.187	1958.93
977.487	1975.2
977.787	1965.03
978.087	1963.68
978.387	1929.55
978.687	1939.5
978.987	1889.55
979.286	1882.78
979.586	1884.36
979.885	1897.01
980.185	1890.01
980.484	1868.09
980.784	1850.91
981.083	1878.03
981.382	1842.78
981.682	1866.5
981.981	1850.23
982.28	1827.18
982.579	1839.84
982.878	1817.24
983.177	1806.62
983.475	1807.07
983.774	1793.29
984.073	1763.46
984.372	1767.3
984.67	1814.98
984.969	1770.46
985.267	1739.5
985.566	1754.64
985.864	1731.82
986.162	1720.75
986.461	1721.88
986.759	1714.42
987.057	1706.73
987.355	1669.67
987.653	1680.75
987.951	1702.22
988.249	1728.2
988.547	1699.73
988.844	1661.31
989.142	1638.04
989.44	1657.02
989.737	1646.85
990.035	1628.32
990.332	1652.05
990.63	1607.08
990.927	1619.51
991.224	1604.59
991.521	1597.59
991.819	1605.27
992.116	1599.84
992.413	1597.13
992.71	1599.39
993.006	1585.38
993.303	1570.92
993.6	1570.24
993.897	1549.68
994.193	1581.77
994.49	1539.96
994.787	1548.32
995.083	1508.77
995.379	1538.38
995.676	1501.77
995.972	1494.99
996.268	1482.56
996.565	1495.89
996.861	1469.9
997.157	1484.37
997.453	1479.17
997.749	1443.24
998.044	1450.02
998.34	1424.48
998.636	1440.75
998.932	1438.72
999.227	1449.11
999.523	1451.83
999.818	1436.91
1000.114	1414.09
1000.409	1402.56
1000.704	1397.59
1001	1398.49
1001.295	1406.18
1001.59	1395.1
1001.885	1390.58
1002.18	1358.72
1002.475	1338.16
1002.77	1348.1
1003.065	1339.29
1003.359	1341.77
1003.654	1350.13
1003.949	1327.08
1004.243	1342.9
1004.538	1348.33
1004.832	1304.03
1005.127	1339.96
1005.421	1299.51
1005.715	1289.8
1006.009	1297.93
1006.304	1297.25
1006.598	1255.45
1006.892	1281.44
1007.186	1279.18
1007.48	1254.54
1007.773	1257.93
1008.067	1246.86
1008.361	1211.15
1008.655	1234.43
1008.948	1213.64
1009.242	1215.45
1009.535	1208.67
1009.829	1182
1010.122	1212.51
1010.415	1190.59
1010.708	1209.35
1011.001	1184.26
1011.295	1173.42
1011.588	1157.82
1011.881	1139.52
1012.173	1155.11
1012.466	1162.12
1012.759	1141.33
1013.052	1124.6
1013.344	1131.16
1013.637	1119.18
1013.93	1096.13
1014.222	1115.56
1014.514	1121.67
1014.807	1098.84
1015.099	1100.65
1015.391	1095.9
1015.683	1091.38
1015.976	1079.41
1016.268	1069.46
1016.56	1047.54
1016.851	1062.68
1017.143	1076.47
1017.435	1052.51
1017.727	1049.12
1018.018	1014.78
1018.31	1051.84
1018.602	1048.9
1018.893	1027.66
1019.185	1028.33
1019.476	1019.52
1019.767	1010.48
1020.058	993.53
1020.35	998.96
1020.641	1005.06
1020.932	986.53
1021.223	968.68
1021.514	976.81
1021.804	970.93
1022.095	958.51
1022.386	955.12
1022.677	963.03
1022.967	938.39
1023.258	963.7
1023.548	938.62
1023.839	960.99
1024.129	917.6
1024.419	937.72
1024.709	935.46
1025	919.64
1025.29	904.27
1025.58	921.22
1025.87	896.36
1026.16	880.09
1026.449	883.71
1026.739	874.44
1027.029	898.17
1027.319	880.32
1027.608	879.19
1027.898	861.33
1028.187	838.28
1028.477	849.13
1028.766	840.32
1029.055	847.32
1029.344	865.4
1029.634	838.06
1029.923	834.89
1030.212	813.65
1030.501	862.92
1030.79	843.03
1031.078	808
1031.367	806.19
1031.656	819.07
1031.945	801.67
1032.233	781.34
1032.522	783.6
1032.81	797.38
1033.099	773.2
1033.387	781.56
1033.675	776.82
1033.963	773.2
1034.251	745.18
1034.54	763.93
1034.828	756.93
1035.116	736.59
1035.403	772.07
1035.691	743.14
1035.979	748.57
1036.267	718.06
1036.554	739.75
1036.842	727.78
1037.129	739.53
1037.417	746.99
1037.704	727.1
1037.992	743.14
1038.279	727.33
1038.566	719.19
1038.853	719.19
1039.14	719.19
