Data from foam1_polythene_foam_FLMS001491_00062.txt Node
Date: Wed Feb 08 10:55:13 GMT 2017
User: dcchb
Spectrometer: FLMS00149
Trigger mode: 0
Integration Time (sec): 2.000000E-2
Scans to average: 10
Electric dark correction enabled: true
Nonlinearity correction enabled: false
Boxcar width: 0
XAxis mode: Wavelengths
Number of Pixels in Spectrum: 2048
>>>>>Begin Spectral Data<<<<<
341.393	-9.07
341.776	-9.07
342.16	-9.07
342.543	-39.12
342.927	-70.76
343.31	-72.34
343.693	-42.74
344.077	-66.47
344.46	-46.13
344.843	-43.42
345.226	-61.72
345.61	-31.21
345.993	-12.01
346.376	-12.23
346.759	5.17
347.142	18.95
347.525	30.48
347.908	63.92
348.291	82.46
348.674	92.62
349.057	94.66
349.44	120.87
349.823	119.06
350.206	161.32
350.588	160.65
350.971	198.61
351.354	190.48
351.737	221.43
352.119	215.56
352.502	247.42
352.884	258.04
353.267	266.86
353.65	264.6
354.032	305.95
354.414	268.67
354.797	277.7
355.179	311.6
355.562	303.92
355.944	303.92
356.326	317.25
356.709	323.35
357.091	330.13
357.473	325.39
357.855	313.64
358.238	314.77
358.62	324.26
359.002	299.17
359.384	329
359.766	329.68
360.148	316.57
360.53	302.11
360.912	310.47
361.294	340.75
361.676	327.42
362.057	345.73
362.439	311.38
362.821	318.61
363.203	302.79
363.584	317.03
363.966	321.32
364.348	298.27
364.729	313.41
365.111	299.62
365.493	310.02
365.874	322.68
366.256	289.91
366.637	287.42
367.019	293.52
367.4	297.82
367.781	303.01
368.163	323.13
368.544	293.07
368.925	284.03
369.306	283.58
369.688	291.26
370.069	282.9
370.45	282
370.831	288.33
371.212	293.52
371.593	304.14
371.974	284.48
372.355	276.57
372.736	277.93
373.117	283.35
373.498	292.85
373.879	262.56
374.26	311.6
374.641	290.36
375.021	295.11
375.402	281.77
375.783	301.66
376.163	299.4
376.544	296.24
376.925	289
377.305	290.59
377.686	294.88
378.066	300.53
378.447	311.15
378.827	289.46
379.208	301.21
379.588	298.95
379.968	304.14
380.349	312.51
380.729	292.17
381.109	311.83
381.489	307.53
381.87	316.35
382.25	311.83
382.63	311.6
383.01	300.3
383.39	313.64
383.77	292.85
384.15	309.12
384.53	315.67
384.91	297.37
385.29	296.46
385.67	304.37
386.049	314.54
386.429	323.35
386.809	340.98
387.189	309.12
387.568	309.34
387.948	305.5
388.328	306.63
388.707	347.53
389.087	323.13
389.466	324.48
389.846	333.97
390.225	327.42
390.605	320.87
390.984	311.83
391.363	327.42
391.743	323.58
392.122	317.48
392.501	311.15
392.881	341.43
393.26	329.45
393.639	307.31
394.018	336.23
394.397	294.2
394.776	336.91
395.155	322.22
395.534	341.66
395.913	330.36
396.292	345.05
396.671	328.32
397.05	345.05
397.429	336.23
397.808	345.5
398.186	332.62
398.565	332.84
398.944	341.66
399.323	362.45
399.701	334.43
400.08	347.53
400.458	365.39
400.837	338.95
401.215	344.14
401.594	350.02
401.972	364.93
402.351	367.19
402.729	339.4
403.107	342.34
403.486	352.96
403.864	353.41
404.242	354.99
404.62	359.06
404.999	365.39
405.377	373.97
405.755	341.88
406.133	353.41
406.511	350.92
406.889	370.81
407.267	355.89
407.645	351.6
408.023	360.87
408.401	380.07
408.779	367.65
409.156	367.42
409.534	382.11
409.912	354.76
410.29	370.81
410.667	366.97
411.045	384.37
411.422	385.05
411.8	384.82
412.178	391.83
412.555	394.99
412.933	376.69
413.31	375.78
413.687	383.24
414.065	369.68
414.442	389.79
414.819	392.73
415.197	393.63
415.574	402
415.951	402.45
416.328	359.28
416.705	400.19
417.082	402.45
417.46	394.31
417.837	399.74
418.214	422.33
418.591	413.29
418.967	407.87
419.344	399.28
419.721	407.42
420.098	399.28
420.475	419.62
420.852	404.03
421.228	415.33
421.605	403.8
421.982	409
422.358	418.27
422.735	424.82
423.111	424.37
423.488	413.07
423.864	426.63
424.241	443.58
424.617	413.07
424.994	414.88
425.37	423.92
425.746	423.24
426.123	455.55
426.499	448.32
426.875	417.14
427.251	446.51
427.627	434.31
428.003	457.36
428.379	471.37
428.756	465.5
429.132	431.82
429.507	464.37
429.883	457.36
430.259	483.12
430.635	453.07
431.011	476.12
431.387	458.72
431.763	467.53
432.138	469.11
432.514	459.85
432.89	475.89
433.265	474.08
433.641	489.68
434.016	500.98
434.392	501.2
434.767	492.61
435.143	501.43
435.518	512.95
435.894	507.53
436.269	509.34
436.644	494.42
437.02	516.12
437.395	513.18
437.77	516.79
438.145	512.05
438.52	532.16
438.895	523.8
439.271	538.49
439.646	517.47
440.021	537.81
440.395	552.05
440.77	544.36
441.145	550.69
441.52	550.47
441.895	564.48
442.27	562.44
442.645	563.12
443.019	581.43
443.394	565.83
443.769	589.79
444.143	581.65
444.518	566.06
444.892	594.31
445.267	590.24
445.641	617.58
446.016	598.6
446.39	602.44
446.764	605.61
447.139	608.54
447.513	628.43
447.887	627.98
448.262	637.7
448.636	629.11
449.01	635.21
449.384	642.44
449.758	651.93
450.132	634.76
450.506	644.02
450.88	652.16
451.254	670.01
451.628	656.9
452.002	654.87
452.376	673.63
452.75	645.6
453.123	650.8
453.497	677.02
453.871	670.24
454.244	677.69
454.618	683.8
454.992	672.27
455.365	672.5
455.739	684.02
456.112	694.87
456.486	681.31
456.859	698.48
457.232	710.91
457.606	706.62
457.979	697.58
458.352	685.15
458.725	717.02
459.099	695.32
459.472	703.68
459.845	722.89
460.218	736.22
460.591	719.5
460.964	723.12
461.337	733.51
461.71	755.43
462.083	731.93
462.456	712.5
462.829	761.08
463.201	733.74
463.574	754.08
463.947	756.79
464.32	741.65
464.692	772.15
465.065	754.75
465.438	754.98
465.81	781.42
466.183	765.15
466.555	779.16
466.928	790.46
467.3	791.82
467.672	788.65
468.045	790.46
468.417	797.46
468.789	799.5
469.161	806.5
469.534	821.19
469.906	834.98
470.278	821.42
470.65	834.98
471.022	840.85
471.394	836.11
471.766	855.54
472.138	863.9
472.51	833.62
472.882	860.06
473.253	875.2
473.625	886.95
473.997	900.51
474.369	935.09
474.74	904.13
475.112	910.23
475.484	908.42
475.855	937.8
476.227	943.68
476.598	936.22
476.97	959.04
477.341	958.36
477.713	966.5
478.084	972.83
478.455	1009.21
478.827	995.43
479.198	1033.16
479.569	1030.23
479.94	1042.43
480.311	1067.06
480.682	1050.11
481.053	1067.97
481.424	1098.25
481.795	1105.93
482.166	1129.21
482.537	1119.72
482.908	1133.95
483.279	1138.7
483.65	1168.3
484.021	1174.86
484.391	1179.15
484.762	1173.5
485.133	1160.17
485.503	1204.69
485.874	1241.52
486.244	1240.84
486.615	1258.92
486.985	1273.16
487.356	1292.82
487.726	1306.83
488.097	1308.86
488.467	1311.12
488.837	1340.5
489.207	1359.71
489.578	1377.56
489.948	1392.7
490.318	1381.4
490.688	1402.65
491.058	1424.12
491.428	1428.18
491.798	1433.38
492.168	1443.32
492.538	1472.7
492.908	1467.73
493.278	1484.9
493.648	1506.15
494.017	1512.47
494.387	1545.47
494.757	1507.73
495.126	1551.57
495.496	1568.74
495.866	1562.42
496.235	1572.81
496.605	1572.13
496.974	1620.49
497.344	1616.43
497.713	1576.43
498.082	1640.38
498.452	1642.87
498.821	1642.64
499.19	1643.54
499.559	1652.13
499.928	1701.62
500.298	1707.72
500.667	1716.76
501.036	1702.53
501.405	1702.07
501.774	1715.63
502.143	1762.64
502.512	1773.48
502.88	1736.2
503.249	1753.37
503.618	1790.89
503.987	1780.26
504.356	1823.65
504.724	1788.63
505.093	1836.53
505.462	1807.16
505.83	1841.51
506.199	1856.65
506.567	1854.61
506.936	1847.38
507.304	1858
507.672	1902.52
508.041	1870.88
508.409	1890.09
508.777	1973.25
509.145	1937.55
509.514	1956.76
509.882	1953.14
510.25	1967.83
510.618	1966.93
510.986	1969.86
511.354	1988.39
511.722	1996.08
512.09	2039.47
512.458	2026.36
512.826	2038.79
513.193	2073.82
513.561	2052.57
513.929	2094.83
514.297	2081.5
514.664	2113.81
515.032	2145.9
515.4	2122.4
515.767	2133.25
516.135	2153.59
516.502	2127.83
516.869	2170.08
517.237	2169.63
517.604	2203.53
517.972	2218.44
518.339	2242.62
518.706	2257.31
519.073	2228.61
519.44	2247.37
519.808	2288.05
520.175	2268.84
520.542	2309.52
520.909	2342.28
521.276	2294.15
521.643	2345.22
522.009	2363.3
522.376	2375.5
522.743	2392.9
523.11	2402.62
523.477	2415.95
523.843	2450.98
524.21	2466.35
524.577	2469.06
524.943	2500.92
525.31	2511.32
525.676	2519.45
526.043	2521.04
526.409	2558.32
526.776	2583.41
527.142	2561.49
527.508	2593.58
527.874	2601.49
528.241	2624.08
528.607	2623.86
528.973	2645.33
529.339	2651.65
529.705	2675.16
530.071	2691.2
530.437	2704.99
530.803	2729.17
531.169	2709.51
531.535	2707.92
531.901	2754.02
532.267	2741.14
532.632	2776.62
532.998	2777.98
533.364	2791.08
533.73	2825.43
534.095	2829.95
534.461	2826.11
534.826	2821.82
535.192	2851.2
535.557	2866.79
535.923	2852.33
536.288	2866.11
536.653	2895.26
537.019	2905.66
537.384	2898.88
537.749	2893.23
538.114	2935.26
538.479	2889.84
538.845	2981.81
539.21	2931.65
539.575	2965.54
539.94	2971.19
540.305	2982.04
540.67	2973.45
541.034	2957.63
541.399	3015.71
541.764	3044.41
542.129	3005.09
542.494	3015.26
542.858	3038.08
543.223	3049.84
543.587	3063.39
543.952	3039.21
544.316	3089.61
544.681	3088.25
545.045	3083.73
545.41	3093
545.774	3090.74
546.138	3147.23
546.503	3120.79
546.867	3138.87
547.231	3133.9
547.595	3143.62
547.959	3149.95
548.324	3182.03
548.688	3191.53
549.052	3160.57
549.416	3186.55
549.779	3208.47
550.143	3224.75
550.507	3211.64
550.871	3255.48
551.235	3203.05
551.599	3230.4
551.962	3281.92
552.326	3294.8
552.689	3288.02
553.053	3280.56
553.417	3302.26
553.78	3338.42
554.143	3333.9
554.507	3357.4
554.87	3358.75
555.234	3388.13
555.597	3350.17
555.96	3369.15
556.323	3378.19
556.686	3376.15
557.05	3455.47
557.413	3458.41
557.776	3439.2
558.139	3526.21
558.502	3465.87
558.865	3487.34
559.228	3519.43
559.59	3555.81
559.953	3511.97
560.316	3548.35
560.679	3563.04
561.041	3595.81
561.404	3563.49
561.767	3609.14
562.129	3642.36
562.492	3581.8
562.854	3635.58
563.217	3648.24
563.579	3681.68
563.941	3685.75
564.304	3725.52
564.666	3685.98
565.028	3701.57
565.39	3745.64
565.753	3760.1
566.115	3759.19
566.477	3780.44
566.839	3780.89
567.201	3843.94
567.563	3832.64
567.925	3835.58
568.287	3849.36
568.648	3898.17
569.01	3837.84
569.372	3895.24
569.734	3885.97
570.095	3925.29
570.457	3944.95
570.819	3929.13
571.18	3936.59
571.542	3961
571.903	3982.24
572.265	3993.54
572.626	3992.86
572.987	3984.95
573.349	4033.99
573.71	4012.52
574.071	4039.41
574.432	4068.57
574.794	4085.29
575.155	4048.45
575.516	4105.4
575.877	4071.73
576.238	4139.98
576.599	4088.45
576.96	4138.17
577.32	4122.58
577.681	4132.29
578.042	4094.1
578.403	4155.79
578.763	4142.91
579.124	4100.2
579.485	4156.47
579.845	4145.17
580.206	4141.78
580.566	4131.61
580.927	4160.31
581.287	4156.47
581.648	4163.25
582.008	4186.3
582.368	4149.24
582.728	4135.46
583.089	4185.17
583.449	4148.79
583.809	4159.86
584.169	4193.08
584.529	4124.38
584.889	4179.3
585.249	4172.74
585.609	4139.98
585.969	4215.23
586.329	4170.03
586.688	4172.29
587.048	4171.84
587.408	4183.14
587.768	4213.65
588.127	4153.08
588.487	4168
588.846	4212.06
589.206	4161.9
589.565	4207.77
589.925	4206.64
590.284	4148.56
590.643	4195.34
591.003	4210.71
591.362	4195.12
591.721	4157.15
592.08	4151.5
592.44	4180.65
592.799	4165.74
593.158	4177.04
593.517	4175.46
593.876	4172.29
594.235	4150.37
594.593	4214.32
594.952	4237.15
595.311	4139.52
595.67	4194.44
596.029	4224.27
596.387	4229.24
596.746	4246.87
597.104	4186.75
597.463	4195.12
597.822	4181.1
598.18	4202.12
598.538	4186.75
598.897	4222.23
599.255	4196.47
599.613	4226.98
599.972	4191.05
600.33	4227.21
600.688	4207.77
601.046	4181.78
601.404	4219.75
601.762	4209.8
602.12	4225.85
602.478	4178.39
602.836	4231.05
603.194	4231.27
603.552	4212.74
603.91	4214.78
604.268	4245.51
604.625	4194.66
604.983	4172.52
605.341	4212.97
605.698	4206.19
606.056	4205.51
606.413	4255
606.771	4266.98
607.128	4266.3
607.485	4214.55
607.843	4193.76
608.2	4213.19
608.557	4237.83
608.914	4270.37
609.272	4239.63
609.629	4319.18
609.986	4263.59
610.343	4260.42
610.7	4312.63
611.057	4241.22
611.414	4251.16
611.771	4257.03
612.127	4313.3
612.484	4282.35
612.841	4274.44
613.198	4243.93
613.554	4278.5
613.911	4263.36
614.267	4272.4
614.624	4250.93
614.98	4323.25
615.337	4252.29
615.693	4315.34
616.05	4264.94
616.406	4297.94
616.762	4274.89
617.118	4228.34
617.475	4246.19
617.831	4294.1
618.187	4279.63
618.543	4292.97
618.899	4272.18
619.255	4311.95
619.611	4289.12
619.967	4318.28
620.323	4310.82
620.678	4249.13
621.034	4303.81
621.39	4238.73
621.746	4273.08
622.101	4316.69
622.457	4210.48
622.812	4273.98
623.168	4230.59
623.523	4258.62
623.879	4260.65
624.234	4241.22
624.589	4293.42
624.945	4239.41
625.3	4236.92
625.655	4248.67
626.01	4248.22
626.365	4250.93
626.72	4198.96
627.075	4215.23
627.43	4229.24
627.785	4240.76
628.14	4249.13
628.495	4218.39
628.85	4268.79
629.205	4231.05
629.559	4263.36
629.914	4188.56
630.269	4176.36
630.623	4225.85
630.978	4191.73
631.332	4183.14
631.687	4219.3
632.041	4196.25
632.396	4174.78
632.75	4158.96
633.104	4169.58
633.459	4130.48
633.813	4159.64
634.167	4136.36
634.521	4166.64
634.875	4126.87
635.229	4113.76
635.583	4077.83
635.937	4128.68
636.291	4118.73
636.645	4090.26
636.999	4039.64
637.352	4051.16
637.706	4068.79
638.06	4058.62
638.413	4060.43
638.767	4060.43
639.121	4065.85
639.474	4001.45
639.828	4016.14
640.181	4010.94
640.534	4039.87
640.888	4009.36
641.241	4038.74
641.594	3988.34
641.947	4055.68
642.301	3951.96
642.654	3966.2
643.007	3967.33
643.36	3950.83
643.713	3982.24
644.066	3990.83
644.419	3929.13
644.771	3911.73
645.124	3874.45
645.477	3854.56
645.83	3810.04
646.182	3833.32
646.535	3864.05
646.888	3839.87
647.24	3810.27
647.593	3841.23
647.945	3820.21
648.298	3797.84
648.65	3846.2
649.002	3780.89
649.355	3744.51
649.707	3761
650.059	3765.75
650.411	3802.36
650.763	3793.54
651.115	3837.38
651.467	3831.06
651.819	3843.03
652.171	3846.65
652.523	3801.45
652.875	3818.4
653.227	3762.13
653.578	3788.8
653.93	3800.55
654.282	3807.78
654.633	3788.35
654.985	3789.25
655.337	3764.17
655.688	3774.11
656.039	3790.83
656.391	3749.03
656.742	3744.51
657.094	3761.23
657.445	3752.42
657.796	3731.17
658.147	3770.72
658.498	3765.75
658.849	3721.68
659.2	3757.39
659.551	3739.76
659.902	3735.69
660.253	3749.25
660.604	3753.32
660.955	3728.69
661.306	3678.97
661.656	3742.47
662.007	3699.76
662.358	3710.16
662.708	3681.68
663.059	3673.32
663.409	3655.69
663.76	3697.28
664.11	3682.81
664.461	3687.33
664.811	3699.99
665.161	3702.7
665.511	3675.58
665.862	3661.34
666.212	3685.07
666.562	3662.7
666.912	3679.65
667.262	3609.59
667.612	3642.81
667.962	3654.56
668.312	3627.45
668.662	3662.47
669.011	3639.88
669.361	3638.75
669.711	3612.98
670.06	3645.07
670.41	3638.52
670.76	3619.09
671.109	3600.56
671.459	3570.27
671.808	3598.97
672.157	3592.65
672.507	3585.87
672.856	3632.42
673.205	3622.02
673.554	3582.02
673.904	3601.68
674.253	3593.78
674.602	3608.69
674.951	3580.89
675.3	3559.65
675.649	3572.53
675.998	3525.98
676.346	3554.91
676.695	3587
677.044	3542.03
677.393	3543.61
677.741	3559.43
678.09	3559.88
678.438	3542.25
678.787	3519.65
679.135	3532.53
679.484	3529.6
679.832	3536.83
680.181	3486.21
680.529	3520.78
680.877	3477.85
681.225	3461.8
681.573	3468.81
681.922	3480.33
682.27	3438.07
682.618	3479.2
682.966	3455.47
683.314	3438.53
683.661	3431.52
684.009	3468.58
684.357	3378.87
684.705	3428.81
685.053	3433.55
685.4	3423.61
685.748	3389.94
686.095	3415.93
686.443	3386.1
686.79	3394.46
687.138	3325.53
687.485	3372.99
687.832	3342.93
688.18	3332.09
688.527	3346.1
688.874	3380.67
689.221	3318.75
689.568	3318.08
689.915	3312.65
690.262	3318.75
690.609	3320.11
690.956	3280.79
691.303	3292.77
691.65	3292.99
691.997	3274.46
692.344	3271.3
692.69	3267.91
693.037	3282.6
693.383	3240.56
693.73	3211.19
694.077	3224.75
694.423	3214.8
694.769	3200.34
695.116	3194.46
695.462	3202.15
695.808	3201.47
696.155	3227.23
696.501	3177.97
696.847	3149.49
697.193	3162.37
697.539	3161.24
697.885	3129.38
698.231	3132.32
698.577	3127.35
698.923	3108.36
699.269	3133.45
699.614	3113.11
699.96	3052.77
700.306	3135.48
700.651	3061.13
700.997	3054.81
701.342	3049.16
701.688	3074.24
702.033	3024.07
702.379	3010.06
702.724	3030.4
703.069	3046.22
703.415	3011.19
703.76	2975.94
704.105	3004.86
704.45	2993.34
704.795	2984.98
705.14	2967.58
705.485	2933.45
705.83	2988.14
706.175	2952.66
706.52	2967.35
706.865	2957.86
707.209	2934.36
707.554	2885.77
707.899	2961.48
708.243	2912.44
708.588	2920.8
708.932	2866.34
709.277	2876.28
709.621	2913.79
709.966	2867.92
710.31	2876.73
710.654	2825.66
710.998	2856.17
711.342	2859.78
711.687	2806.9
712.031	2859.33
712.375	2833.8
712.719	2818.2
713.063	2820.01
713.407	2837.86
713.75	2786.34
714.094	2798.54
714.438	2786.79
714.782	2829.95
715.125	2788.82
715.469	2813.46
715.812	2780.69
716.156	2775.27
716.499	2789.73
716.843	2788.6
717.186	2735.04
717.53	2759
717.873	2772.78
718.216	2752.44
718.559	2785.89
718.902	2729.17
719.246	2735.95
719.589	2732.56
719.932	2704.31
720.275	2695.95
720.617	2704.99
720.96	2716.74
721.303	2695.27
721.646	2685.78
721.989	2697.3
722.331	2671.77
722.674	2677.19
723.016	2697.3
723.359	2678.32
723.701	2663.4
724.044	2658.66
724.386	2655.04
724.729	2647.13
725.071	2653.91
725.413	2686
725.755	2660.01
726.097	2629.28
726.439	2631.54
726.782	2596.29
727.124	2642.16
727.465	2614.14
727.807	2602.16
728.149	2588.38
728.491	2613.91
728.833	2608.94
729.175	2631.09
729.516	2584.76
729.858	2583.41
730.199	2608.26
730.541	2570.75
730.882	2576.4
731.224	2567.36
731.565	2558.77
731.906	2583.63
732.248	2574.82
732.589	2566.91
732.93	2528.04
733.271	2544.76
733.612	2560.13
733.953	2545.67
734.294	2563.97
734.635	2546.12
734.976	2534.82
735.317	2541.83
735.658	2536.4
735.999	2545.22
736.339	2524.65
736.68	2509.06
737.021	2513.13
737.361	2511.77
737.702	2514.48
738.042	2491.21
738.383	2513.13
738.723	2490.98
739.063	2512.22
739.404	2520.58
739.744	2512.67
740.084	2455.95
740.424	2496.18
740.764	2473.35
741.104	2488.95
741.444	2482.62
741.784	2455.27
742.124	2455.95
742.464	2502.05
742.804	2460.92
743.143	2454.82
743.483	2410.3
743.823	2438.78
744.162	2425.9
744.502	2421.15
744.841	2457.53
745.181	2431.09
745.52	2403.75
745.86	2412.11
746.199	2430.64
746.538	2439.91
746.877	2419.57
747.216	2405.33
747.556	2406.46
747.895	2394.94
748.234	2407.59
748.573	2397.65
748.911	2406.24
749.25	2372.34
749.589	2368.72
749.928	2383.19
750.267	2389.29
750.605	2373.02
750.944	2375.05
751.283	2349.29
751.621	2350.19
751.96	2380.47
752.298	2340.93
752.636	2354.03
752.975	2330.98
753.313	2314.26
753.651	2350.19
753.989	2313.13
754.327	2324.66
754.666	2318.1
755.004	2309.06
755.342	2325.11
755.679	2309.52
756.017	2310.19
756.355	2266.13
756.693	2304.54
757.031	2299.12
757.368	2264.32
757.706	2256.41
758.044	2285.79
758.381	2281.95
758.719	2243.75
759.056	2249.18
759.394	2262.06
759.731	2235.17
760.068	2230.2
760.405	2244.66
760.743	2213.25
761.08	2240.59
761.417	2228.39
761.754	2203.76
762.091	2206.02
762.428	2161.72
762.765	2192.91
763.102	2166.24
763.438	2169.18
763.775	2160.59
764.112	2163.08
764.449	2161.95
764.785	2189.74
765.122	2137.09
765.458	2136.19
765.795	2131.44
766.131	2131.89
766.467	2107.49
766.804	2095.74
767.14	2109.29
767.476	2102.06
767.812	2101.84
768.148	2113.59
768.485	2059.58
768.821	2087.15
769.157	2069.52
769.492	2073.82
769.828	2085.11
770.164	2030.2
770.5	2043.76
770.836	2067.04
771.171	2040.37
771.507	2023.42
771.842	2032.01
772.178	2006.92
772.513	2005.12
772.849	2046.47
773.184	2003.08
773.519	1983.87
773.855	1972.12
774.19	2014.83
774.525	1996.3
774.86	1988.17
775.195	1979.35
775.53	1990.2
775.865	1978.68
776.2	1982.07
776.535	1948.17
776.87	1965.34
777.205	1904.78
777.539	1937.1
777.874	1911.56
778.209	1937.55
778.543	1914.27
778.878	1913.59
779.212	1905.68
779.547	1923.54
779.881	1881.28
780.215	1853.93
780.55	1871.79
780.884	1872.46
781.218	1857.32
781.552	1870.66
781.886	1860.04
782.22	1822.97
782.554	1865.91
782.888	1801.28
783.222	1839.47
783.556	1826.36
783.889	1801.96
784.223	1819.36
784.557	1823.2
784.89	1792.69
785.224	1792.02
785.557	1775.07
785.891	1802.18
786.224	1767.38
786.558	1794.05
786.891	1768.74
787.224	1780.49
787.557	1771.9
787.891	1747.5
788.224	1742.98
788.557	1769.64
788.89	1754.73
789.223	1724.45
789.556	1740.94
789.888	1710.44
790.221	1721.96
790.554	1733.94
790.887	1727.16
791.219	1717.21
791.552	1713.6
791.884	1683.54
792.217	1696.88
792.549	1717.67
792.882	1694.62
793.214	1667.72
793.546	1690.1
793.879	1667.27
794.211	1654.17
794.543	1662.75
794.875	1687.61
795.207	1702.53
795.539	1620.27
795.871	1641.06
796.203	1638.35
796.535	1631.12
796.867	1628.18
797.198	1635.18
797.53	1603.77
797.862	1643.54
798.193	1610.78
798.525	1601.96
798.856	1597.67
799.188	1596.09
799.519	1586.37
799.85	1584.56
800.182	1611.91
800.513	1615.52
800.844	1558.35
801.175	1577.56
801.506	1599.93
801.837	1570.33
802.168	1586.37
802.499	1580.5
802.83	1566.03
803.161	1556.99
803.491	1568.29
803.822	1575.98
804.153	1525.58
804.483	1524
804.814	1537.78
805.145	1532.13
805.475	1510.89
805.805	1524
806.136	1521.06
806.466	1535.98
806.796	1486.71
807.126	1519.93
807.457	1511.8
807.787	1491.68
808.117	1506.37
808.447	1508.63
808.777	1515.19
809.107	1523.32
809.436	1466.83
809.766	1480.16
810.096	1477.22
810.426	1494.62
810.755	1473.83
811.085	1464.79
811.414	1494.85
811.744	1451.23
812.073	1462.31
812.403	1465.02
812.732	1435.41
813.061	1465.02
813.39	1425.7
813.719	1460.95
814.049	1459.59
814.378	1459.59
814.707	1441.52
815.036	1421.4
815.365	1412.82
815.693	1437.67
816.022	1397.45
816.351	1413.04
816.68	1380.05
817.008	1406.26
817.337	1414.17
817.665	1412.59
817.994	1416.43
818.322	1399.03
818.651	1390.44
818.979	1392.48
819.307	1432.93
819.636	1401.97
819.964	1369.43
820.292	1429.54
820.62	1408.3
820.948	1366.49
821.276	1356.77
821.604	1398.81
821.932	1415.53
822.259	1401.74
822.587	1371.46
822.915	1361.07
823.243	1385.25
823.57	1389.99
823.898	1367.39
824.225	1403.1
824.553	1366.94
824.88	1393.38
825.207	1406.26
825.535	1396.32
825.862	1380.73
826.189	1382.53
826.516	1380.27
826.843	1385.92
827.17	1373.49
827.497	1374.17
827.824	1375.75
828.151	1392.7
828.478	1362.65
828.805	1369.43
829.131	1370.11
829.458	1365.13
829.785	1363.33
830.111	1385.02
830.438	1375.53
830.764	1373.95
831.09	1344.57
831.417	1341.18
831.743	1375.3
832.069	1379.14
832.395	1362.65
832.722	1357.68
833.048	1362.2
833.374	1362.87
833.7	1399.93
834.026	1377.79
834.351	1389.31
834.677	1381.4
835.003	1388.64
835.329	1374.17
835.654	1356.55
835.98	1340.95
836.306	1378.92
836.631	1386.83
836.956	1354.29
837.282	1358.13
837.607	1343.67
837.932	1330.78
838.258	1332.59
838.583	1365.36
838.908	1363.1
839.233	1345.7
839.558	1354.74
839.883	1314.74
840.208	1346.15
840.533	1341.63
840.858	1348.86
841.182	1357.45
841.507	1325.36
841.832	1339.6
842.156	1322.42
842.481	1333.95
842.805	1314.29
843.13	1319.03
843.454	1332.59
843.778	1347.73
844.103	1308.64
844.427	1328.75
844.751	1303.67
845.075	1315.19
845.399	1278.36
845.723	1274.51
846.047	1294.63
846.371	1276.77
846.695	1291.92
847.019	1279.94
847.343	1286.72
847.666	1288.98
847.99	1281.07
848.313	1293.5
848.637	1254.63
848.96	1253.05
849.284	1256.21
849.607	1225.25
849.931	1269.99
850.254	1259.83
850.577	1244.68
850.9	1246.94
851.223	1224.35
851.546	1217.79
851.869	1225.02
852.192	1225.48
852.515	1216.89
852.838	1218.7
853.161	1222.31
853.483	1219.6
853.806	1212.82
854.129	1214.18
854.451	1204.01
854.774	1204.23
855.096	1216.89
855.419	1189.09
855.741	1178.7
856.063	1184.57
856.385	1209.21
856.708	1172.37
857.03	1184.8
857.352	1184.12
857.674	1150.68
857.996	1185.48
858.318	1186.16
858.64	1180.73
858.961	1163.56
859.283	1145.93
859.605	1152.03
859.926	1138.47
860.248	1170.56
860.57	1157
860.891	1146.61
861.212	1157.46
861.534	1148.64
861.855	1142.54
862.176	1148.42
862.498	1161.52
862.819	1137.79
863.14	1132.82
863.461	1126.04
863.782	1135.76
864.103	1098.93
864.424	1093.05
864.745	1126.72
865.065	1121.07
865.386	1119.26
865.707	1110.68
866.027	1128.3
866.348	1133.5
866.668	1103.45
866.989	1134.18
867.309	1111.58
867.63	1112.26
867.95	1106.38
868.27	1116.78
868.59	1121.52
868.91	1101.41
869.23	1086.95
869.55	1108.42
869.87	1088.53
870.19	1107.51
870.51	1080.4
870.83	1098.02
871.15	1100.96
871.469	1084.69
871.789	1111.35
872.109	1083.33
872.428	1107.29
872.748	1084.91
873.067	1106.84
873.386	1105.71
873.706	1111.35
874.025	1092.82
874.344	1095.31
874.663	1068.19
874.982	1117.46
875.301	1055.09
875.62	1091.24
875.939	1061.64
876.258	1077.01
876.577	1079.27
876.896	1075.88
877.214	1062.77
877.533	1067.51
877.852	1061.19
878.17	1072.26
878.489	1085.82
878.807	1055.54
879.125	1070.68
879.444	1058.93
879.762	1068.64
880.08	1072.94
880.398	1032.49
880.716	1073.16
881.034	1064.35
881.352	1069.32
881.67	1045.59
881.988	1065.03
882.306	1091.02
882.624	1056.67
882.941	1064.12
883.259	1035.65
883.577	1037.91
883.894	1052.83
884.212	1046.5
884.529	1054.41
884.846	1048.76
885.164	1029.55
885.481	1043.79
885.798	1035.2
886.115	1028.42
886.432	1012.15
886.75	1028.65
887.067	1033.62
887.383	1053.73
887.7	1047.18
888.017	1015.54
888.334	1012.15
888.651	997.91
888.967	1000.85
889.284	1008.31
889.6	982.77
889.917	998.82
890.233	1001.75
890.55	982.32
890.866	1001.98
891.182	1006.05
891.498	974.64
891.815	1000.17
892.131	981.41
892.447	1005.82
892.763	1000.62
893.079	987.29
893.395	1001.08
893.71	953.39
894.026	991.81
894.342	940.51
894.657	972.6
894.973	990.23
895.289	962.66
895.604	972.15
895.92	978.7
896.235	938.48
896.55	985.93
896.865	954.75
897.181	957.46
897.496	973.96
897.811	947.29
898.126	941.19
898.441	942.32
898.756	947.29
899.071	941.19
899.386	945.48
899.7	945.48
900.015	930.12
900.33	938.93
900.644	948.42
900.959	934.64
901.273	908.42
901.588	924.47
901.902	923.11
902.216	894.86
902.531	898.48
902.845	938.93
903.159	906.84
903.473	917.24
903.787	922.43
904.101	913.85
904.415	898.71
904.729	909.1
905.042	923.79
905.356	919.72
905.67	901.64
905.984	901.19
906.297	904.35
906.611	909.78
906.924	895.09
907.237	885.15
907.551	886.95
907.864	916.11
908.177	876.56
908.491	884.47
908.804	895.99
909.117	877.69
909.43	870.23
909.743	847.86
910.056	880.63
910.368	853.06
910.681	850.34
910.994	863.9
911.307	847.86
911.619	848.54
911.932	849.21
912.244	863.45
912.557	848.09
912.869	856.45
913.181	843.79
913.494	837.92
913.806	830.91
914.118	836.33
914.43	826.84
914.742	830.91
915.054	830.23
915.366	813.28
915.678	810.57
915.99	827.29
916.302	824.58
916.613	839.05
916.925	814.64
917.236	815.32
917.548	812.83
917.859	805.83
918.171	799.27
918.482	818.48
918.794	798.82
919.105	814.19
919.416	802.66
919.727	794.53
920.038	808.76
920.349	798.37
920.66	787.97
920.971	780.29
921.282	787.52
921.593	783.68
921.903	778.03
922.214	775.09
922.525	786.84
922.835	760.4
923.146	780.52
923.456	794.53
923.767	770.57
924.077	748.2
924.387	761.53
924.697	759.05
925.008	754.53
925.318	754.08
925.628	763.57
925.938	752.04
926.248	750.23
926.558	749.1
926.867	745.71
927.177	744.58
927.487	750.46
927.796	759.73
928.106	745.26
928.416	727.86
928.725	724.02
929.034	731.93
929.344	747.97
929.653	745.71
929.962	731.7
930.271	732.16
930.581	714.3
930.89	723.34
931.199	728.99
931.508	739.16
931.817	723.57
932.125	721.53
932.434	715.89
932.743	735.55
933.051	707.52
933.36	733.51
933.669	700.52
933.977	693.96
934.286	731.25
934.594	711.37
934.902	703
935.21	703.68
935.519	700.97
935.827	681.76
936.135	688.09
936.443	707.75
936.751	679.5
937.059	684.25
937.367	684.47
937.674	688.54
937.982	678.37
938.29	682.44
938.597	682.67
938.905	667.3
939.213	665.04
939.52	673.17
939.827	662.1
940.135	668.88
940.442	676.34
940.749	659.84
941.056	660.75
941.363	645.38
941.67	654.87
941.977	655.32
942.284	653.51
942.591	651.25
942.898	660.07
943.205	649.9
943.511	631.82
943.818	665.04
944.125	658.71
944.431	665.72
944.738	648.09
945.044	639.28
945.35	666.62
945.657	623.46
945.963	655.55
946.269	639.5
946.575	657.36
946.881	638.83
947.187	638.6
947.493	618.71
947.799	617.36
948.105	653.29
948.41	610.58
948.716	615.55
949.022	634.53
949.327	623.68
949.633	626.62
949.938	611.03
950.244	632.27
950.549	603.8
950.854	634.76
951.16	614.19
951.465	604.02
951.77	597.47
952.075	588.88
952.38	585.49
952.685	623.68
952.99	590.24
953.294	623.68
953.599	628.2
953.904	594.31
954.209	600.41
954.513	618.49
954.818	608.09
955.122	597.47
955.426	605.15
955.731	599.5
956.035	604.7
956.339	600.41
956.643	606.51
956.948	590.24
957.252	599.05
957.556	603.57
957.86	583.46
958.163	604.93
958.467	606.28
958.771	590.69
959.075	597.92
959.378	599.28
959.682	572.61
959.985	581.43
960.289	578.04
960.592	570.35
960.896	582.78
961.199	569.22
961.502	586.4
961.805	574.19
962.108	593.18
962.411	563.57
962.714	557.7
963.017	557.02
963.32	560.18
963.623	554.99
963.926	568.54
964.228	561.09
964.531	551.37
964.833	531.48
965.136	540.07
965.438	548.21
965.741	571.48
966.043	547.08
966.345	546.4
966.648	547.98
966.95	564.93
967.252	552.73
967.554	541.88
967.856	549.79
968.158	554.31
968.46	531.03
968.761	527.87
969.063	530.35
969.365	536.68
969.666	545.95
969.968	538.49
970.269	547.75
970.571	545.72
970.872	539.62
971.174	512.95
971.475	529.22
971.776	527.64
972.077	560.41
972.378	533.52
972.679	518.6
972.98	517.02
973.281	526.06
973.582	517.7
973.883	495.78
974.183	516.79
974.484	532.16
974.785	536.23
975.085	512.95
975.386	531.71
975.686	537.36
975.986	511.82
976.287	532.39
976.587	531.03
976.887	526.74
977.187	538.04
977.487	523.57
977.787	515.66
978.087	519.96
978.387	510.01
978.687	498.94
978.987	502.78
979.286	509.34
979.586	507.98
979.885	516.34
980.185	500.75
980.484	489.45
980.784	506.4
981.083	493.52
981.382	507.76
981.682	512.73
981.981	490.35
982.28	490.13
982.579	503.24
982.878	474.76
983.177	484.03
983.475	487.19
983.774	478.83
984.073	469.34
984.372	487.87
984.67	493.07
984.969	492.16
985.267	480.86
985.566	487.64
985.864	499.62
986.162	477.25
986.461	474.08
986.759	490.35
987.057	481.77
987.355	487.19
987.653	486.29
987.951	484.25
988.249	483.57
988.547	470.92
988.844	470.47
989.142	478.15
989.44	494.2
989.737	465.72
990.035	484.7
990.332	457.36
990.63	506.4
990.927	483.8
991.224	492.39
991.521	456.68
991.819	476.12
992.116	461.88
992.413	478.83
992.71	476.34
993.006	471.37
993.303	458.94
993.6	444.71
993.897	473.63
994.193	468.66
994.49	458.94
994.787	464.14
995.083	460.98
995.379	454.88
995.676	428.89
995.972	467.08
996.268	458.04
996.565	449.9
996.861	464.82
997.157	459.62
997.453	436.57
997.749	442.67
998.044	465.04
998.34	442.9
998.636	449.45
998.932	459.62
999.227	434.08
999.523	455.1
999.818	455.1
1000.114	444.71
1000.409	451.49
1000.704	438.6
1001	437.7
1001.295	432.05
1001.59	441.09
1001.885	467.76
1002.18	446.97
1002.475	446.29
1002.77	436.12
1003.065	453.52
1003.359	447.42
1003.654	431.37
1003.949	453.07
1004.243	441.54
1004.538	416.23
1004.832	443.35
1005.127	449.23
1005.421	421.2
1005.715	429.11
1006.009	440.86
1006.304	425.72
1006.598	449.45
1006.892	429.79
1007.186	432.73
1007.48	412.39
1007.773	447.42
1008.067	451.71
1008.361	447.19
1008.655	425.27
1008.948	431.82
1009.242	425.72
1009.535	415.1
1009.829	417.36
1010.122	408.77
1010.415	417.14
1010.708	420.75
1011.001	437.25
1011.295	402
1011.588	422.56
1011.881	399.51
1012.173	434.99
1012.466	439.06
1012.759	422.56
1013.052	420.3
1013.344	407.87
1013.637	414.65
1013.93	425.72
1014.222	394.54
1014.514	417.59
1014.807	420.75
1015.099	411.26
1015.391	400.41
1015.683	401.54
1015.976	397.93
1016.268	416.68
1016.56	411.49
1016.851	411.03
1017.143	392.05
1017.435	423.92
1017.727	386.18
1018.018	420.75
1018.31	395.67
1018.602	384.14
1018.893	424.14
1019.185	385.05
1019.476	392.05
1019.767	407.19
1020.058	401.54
1020.35	389.11
1020.641	390.24
1020.932	403.8
1021.223	386.85
1021.514	390.02
1021.804	393.18
1022.095	390.24
1022.386	405.61
1022.677	403.12
1022.967	412.16
1023.258	375.1
1023.548	402.9
1023.839	397.48
1024.129	374.2
1024.419	402
1024.709	388.89
1025	387.98
1025.29	383.92
1025.58	386.63
1025.87	393.41
1026.16	384.82
1026.449	389.34
1026.739	365.39
1027.029	396.57
1027.319	376.46
1027.608	364.71
1027.898	381.2
1028.187	402
1028.477	382.56
1028.766	381.2
1029.055	385.95
1029.344	399.74
1029.634	380.75
1029.923	370.36
1030.212	373.07
1030.501	377.81
1030.79	361.54
1031.078	390.47
1031.367	364.93
1031.656	371.49
1031.945	369.68
1032.233	364.26
1032.522	368.78
1032.81	366.52
1033.099	384.14
1033.387	362.45
1033.675	382.56
1033.963	362.22
1034.251	371.49
1034.54	377.59
1034.828	369.91
1035.116	356.57
1035.403	384.82
1035.691	374.65
1035.979	376.01
1036.267	377.59
1036.554	363.8
1036.842	363.13
1037.129	363.58
1037.417	358.61
1037.704	378.04
1037.992	370.58
1038.279	370.13
1038.566	369.91
1038.853	369.91
1039.14	369.91
