Data from foam2_polystyrene_foam_FLMS001491_00094.txt Node
Date: Wed Feb 08 10:58:47 GMT 2017
User: dcchb
Spectrometer: FLMS00149
Trigger mode: 0
Integration Time (sec): 2.000000E-2
Scans to average: 10
Electric dark correction enabled: true
Nonlinearity correction enabled: false
Boxcar width: 0
XAxis mode: Wavelengths
Number of Pixels in Spectrum: 2048
>>>>>Begin Spectral Data<<<<<
341.393	-3.16
341.776	-3.16
342.16	-3.16
342.543	-58.98
342.927	-82.94
343.31	-94.69
343.693	-65.08
344.077	-76.61
344.46	-62.6
344.843	-42.26
345.226	-59.21
345.61	-8.81
345.993	-7.46
346.376	5.88
346.759	19.43
347.142	18.3
347.525	45.2
347.908	52.88
348.291	63.95
348.674	99.88
349.057	111.18
349.44	114.12
349.823	135.14
350.206	156.15
350.588	196.15
350.971	217.85
351.354	213.33
351.737	221.46
352.119	255.81
352.502	261.91
352.884	281.35
353.267	278.41
353.65	275.7
354.032	312.53
354.414	318.41
354.797	320.67
355.179	332.19
355.562	309.82
355.944	330.61
356.326	334.23
356.709	356.37
357.091	345.98
357.473	350.95
357.855	339.2
358.238	345.98
358.62	344.85
359.002	355.24
359.384	368.58
359.766	329.48
360.148	341.46
360.53	357.73
360.912	363.83
361.294	335.36
361.676	338.3
362.057	366.54
362.439	365.41
362.821	328.58
363.203	336.71
363.584	341.23
363.966	345.08
364.348	324.29
364.729	336.71
365.111	337.39
365.493	323.38
365.874	341.91
366.256	328.35
366.637	318.86
367.019	315.02
367.4	320.44
367.781	318.41
368.163	331.97
368.544	342.59
368.925	357.28
369.306	340.1
369.688	336.71
370.069	311.63
370.45	349.14
370.831	334
371.212	340.33
371.593	324.74
371.974	356.6
372.355	335.36
372.736	336.26
373.117	328.35
373.498	330.61
373.879	339.2
374.26	339.43
374.641	322.03
375.021	350.95
375.402	336.71
375.783	366.54
376.163	357.28
376.544	374.23
376.925	359.99
377.305	358.18
377.686	345.53
378.066	354.57
378.447	382.14
378.827	370.84
379.208	363.15
379.588	358.41
379.968	383.94
380.349	357.28
380.729	369.03
381.109	381.91
381.489	374.23
381.87	391.85
382.25	390.05
382.63	391.85
383.01	393.89
383.39	387.11
383.77	394.34
384.15	407.22
384.53	413.32
384.91	414.68
385.29	411.74
385.67	405.64
386.049	416.71
386.429	416.49
386.809	448.12
387.189	403.83
387.568	415.58
387.948	441.12
388.328	425.53
388.707	423.72
389.087	454.68
389.466	427.11
389.846	461.46
390.225	451.51
390.605	433.66
390.984	435.47
391.363	464.62
391.743	464.62
392.122	459.2
392.501	459.2
392.881	493.77
393.26	486.99
393.639	448.58
394.018	501.46
394.397	485.41
394.776	475.02
395.155	496.94
395.534	490.38
395.913	482.02
396.292	512.53
396.671	494.68
397.05	494.68
397.429	515.47
397.808	488.57
398.186	506.65
398.565	519.08
398.944	530.61
399.323	534.68
399.701	531.74
400.08	540.1
400.458	537.84
400.837	531.74
401.215	551.4
401.594	528.35
401.972	542.81
402.351	552.98
402.729	568.57
403.107	571.74
403.486	578.29
403.864	586.88
404.242	575.8
404.62	585.75
404.999	577.61
405.377	581.91
405.755	595.24
406.133	586.2
406.511	597.95
406.889	602.24
407.267	612.19
407.645	624.84
408.023	636.59
408.401	632.98
408.779	642.47
409.156	654.22
409.534	660.55
409.912	649.7
410.29	672.98
410.667	668.46
411.045	665.52
411.422	685.86
411.8	695.8
412.178	703.71
412.555	707.55
412.933	707.33
413.31	715.01
413.687	728.57
414.065	745.07
414.442	754.56
414.819	750.26
415.197	777.83
415.574	785.06
415.951	792.3
416.328	768.12
416.705	794.33
417.082	797.49
417.46	792.07
417.837	793.43
418.214	812.86
418.591	843.82
418.967	829.36
419.344	850.37
419.721	856.93
420.098	828.9
420.475	845.63
420.852	855.8
421.228	864.16
421.605	853.08
421.982	877.27
422.358	888.56
422.735	909.81
423.111	897.83
423.488	936.02
423.864	919.3
424.241	906.87
424.617	925.17
424.994	943.25
425.37	958.17
425.746	962.91
426.123	962.46
426.499	969.69
426.875	973.08
427.251	987.54
427.627	1004.95
428.003	1036.13
428.379	1040.2
428.756	1043.59
429.132	1041.78
429.507	1064.6
429.883	1082.46
430.259	1107.32
430.635	1103.93
431.011	1115.45
431.387	1107.32
431.763	1154.09
432.138	1155.45
432.514	1158.61
432.89	1159.52
433.265	1208.33
433.641	1221.66
434.016	1231.61
434.392	1231.15
434.767	1270.02
435.143	1252.85
435.518	1273.19
435.894	1281.1
436.269	1303.47
436.644	1314.32
437.02	1322
437.395	1340.08
437.77	1373.3
438.145	1367.87
438.52	1392.73
438.895	1405.84
439.271	1413.07
439.646	1423.92
440.021	1447.42
440.395	1467.08
440.77	1467.53
441.145	1468.21
441.52	1493.07
441.895	1503.69
442.27	1517.25
442.645	1518.6
443.019	1552.73
443.394	1535.55
443.769	1567.64
444.143	1573.29
444.518	1569
444.892	1558.6
445.267	1596.34
445.641	1629.56
446.016	1628.43
446.39	1652.39
446.764	1641.09
447.139	1653.06
447.513	1692.84
447.887	1652.16
448.262	1699.62
448.636	1723.8
449.01	1721.54
449.384	1734.42
449.758	1754.08
450.132	1773.74
450.506	1818.71
450.88	1777.13
451.254	1803.79
451.628	1828.2
452.002	1874.75
452.376	1866.17
452.75	1885.83
453.123	1896.22
453.497	1939.61
453.871	1922.89
454.244	1952.94
454.618	2036.33
454.992	2015.77
455.365	1995.43
455.739	2049.21
456.112	2061.41
456.486	2083.79
456.859	2107.97
457.232	2140.96
457.606	2129.44
457.979	2168.3
458.352	2219.15
458.725	2208.76
459.099	2224.35
459.472	2268.87
459.845	2298.02
460.218	2264.12
460.591	2324.23
460.964	2319.04
461.337	2375.98
461.71	2421.18
462.083	2406.04
462.456	2441.52
462.829	2449.88
463.201	2470.9
463.574	2491.01
463.947	2549.54
464.32	2598.12
464.692	2611.91
465.065	2639.7
465.438	2676.77
465.81	2706.6
466.183	2692.36
466.555	2755.41
466.928	2797.21
467.3	2768.06
467.672	2843.09
468.045	2888.51
468.417	2895.97
468.789	2900.71
469.161	2987.49
469.534	3014.16
469.906	3071.56
470.278	3068.85
470.65	3100.26
471.022	3175.51
471.394	3208.5
471.766	3228.39
472.138	3291.21
472.51	3298.44
472.882	3389.74
473.253	3443.98
473.625	3468.16
473.997	3530.3
474.369	3523.07
474.74	3590.19
475.112	3629.74
475.484	3692.56
475.855	3771.88
476.227	3839.67
476.598	3858.2
476.97	3974.58
477.341	4023.62
477.713	4071.31
478.084	4073.34
478.455	4217.97
478.827	4223.62
479.198	4372.54
479.569	4372.09
479.94	4502.48
480.311	4543.38
480.682	4592.65
481.053	4691.63
481.424	4852.98
481.795	4819.76
482.166	4849.36
482.537	4962.81
482.908	5071.28
483.279	5175.23
483.65	5224.04
484.021	5282.35
484.391	5354.89
484.762	5390.14
485.133	5489.57
485.503	5498.84
485.874	5611.6
486.244	5664.03
486.615	5812.05
486.985	5850.02
487.356	5985.15
487.726	6016.79
488.097	6115.32
488.467	6192.15
488.837	6266.73
489.207	6319.38
489.578	6434.41
489.948	6490.68
490.318	6604.8
490.688	6602.54
491.058	6746.04
491.428	6809.09
491.798	6891.34
492.168	7070.32
492.538	7005.47
492.908	7110.32
493.278	7216.08
493.648	7250.88
494.017	7338.34
494.387	7413.36
494.757	7461.27
495.126	7588.95
495.496	7616.97
495.866	7675.5
496.235	7725.67
496.605	7819.68
496.974	7839.57
497.344	7942.84
497.713	7951.2
498.082	8028.72
498.452	8103.29
498.821	8170.86
499.19	8212.89
499.559	8288.37
499.928	8343.96
500.298	8394.81
500.667	8495.6
501.036	8496.95
501.405	8570.17
501.774	8552.77
502.143	8764.97
502.512	8736.49
502.88	8830.05
503.249	8813.33
503.618	8947.56
503.987	8990.72
504.356	9000.44
504.724	9087.67
505.093	9124.05
505.462	9129.25
505.83	9180.55
506.199	9327.66
506.567	9422.35
506.936	9476.59
507.304	9493.54
507.672	9595.68
508.041	9688.11
508.409	9713.19
508.777	9817.59
509.145	9872.28
509.514	9963.35
509.882	10035.89
510.25	10041.54
510.618	10121.54
510.986	10149.34
511.354	10239.96
511.722	10296.45
512.09	10436.79
512.458	10379.61
512.826	10592.49
513.193	10665.26
513.561	10611.02
513.929	10763.11
514.297	10829.55
514.664	10891.47
515.032	10935.98
515.4	11009.65
515.767	11067.28
516.135	11142.98
516.502	11092.36
516.869	11349.08
517.237	11320.38
517.604	11365.58
517.972	11556.53
518.339	11578
518.706	11745.45
519.073	11746.81
519.44	11831.33
519.808	11934.38
520.175	11963.3
520.542	12088.5
520.909	12286.91
521.276	12218.44
521.643	12309.51
522.009	12412.78
522.376	12485.55
522.743	12594.92
523.11	12698.88
523.477	12829.95
523.843	12904.29
524.21	13028.13
524.577	13125.3
524.943	13125.08
525.31	13283.72
525.676	13236.26
526.043	13496.37
526.409	13513.09
526.776	13596.03
527.142	13657.72
527.508	13750.6
527.874	13880.09
528.241	14096.58
528.607	13996.69
528.973	14236.69
529.339	14195.33
529.705	14429.68
530.071	14461.99
530.437	14499.28
530.803	14579.5
531.169	14619.05
531.535	14653.4
531.901	14742.66
532.267	14908.53
532.632	14961.41
532.998	15032.37
533.364	15055.42
533.73	15117.79
534.095	15205.48
534.461	15199.6
534.826	15396.43
535.192	15424.91
535.557	15530.44
535.923	15518.69
536.288	15631
536.653	15737.44
537.019	15762.52
537.384	15699.47
537.749	15829.41
538.114	15824.67
538.479	15985.12
538.845	15998.68
539.21	15896.08
539.575	16091.55
539.94	16079.35
540.305	16273.02
540.67	16209.29
541.034	16322.06
541.399	16458.1
541.764	16444.54
542.129	16524.09
542.494	16472.56
542.858	16607.02
543.223	16699.67
543.587	16781.25
543.952	16668.49
544.316	16778.99
544.681	16785.32
545.045	16919.33
545.41	17052.66
545.774	17056.73
546.138	17044.98
546.503	17000
546.867	17133.56
547.231	17332.65
547.595	17393.44
547.959	17496.49
548.324	17459.65
548.688	17362.71
549.052	17604.28
549.416	17549.82
549.779	17657.39
550.143	17734
550.507	17887.67
550.871	17976.93
551.235	17854.9
551.599	18031.39
551.962	18129.47
552.326	18170.37
552.689	18254.21
553.053	18332.85
553.417	18218.28
553.78	18533.75
554.143	18423.24
554.507	18546.86
554.87	18625.27
555.234	18889.45
555.597	18734.87
555.96	18901.88
556.323	18916.79
556.686	18926.73
557.05	19194.52
557.413	19201.3
557.776	19135.99
558.139	19389.55
558.502	19394.74
558.865	19642.2
559.228	19575.08
559.59	19723.1
559.953	19728.75
560.316	19929.65
560.679	19888.52
561.041	20043.99
561.404	20154.72
561.767	20336.19
562.129	20288.05
562.492	20521.27
562.854	20453.25
563.217	20520.14
563.579	20659.57
563.941	20854.37
564.304	20899.34
564.666	21044.87
565.028	21027.24
565.39	21111.31
565.753	21318.54
566.115	21449.38
566.477	21554.46
566.839	21476.72
567.201	21688.92
567.563	21729.6
567.925	21808.69
568.287	21954.23
568.648	21850.95
569.01	22000.33
569.372	22212.52
569.734	22088.91
570.095	22302.46
570.457	22445.74
570.819	22385.63
571.18	22455
571.542	22469.24
571.903	22645.28
572.265	22755.79
572.626	22770.93
572.987	22773.64
573.349	22919.85
573.71	22969.34
574.071	23113.29
574.432	23094.53
574.794	23390.8
575.155	23314.42
575.516	23294.3
575.877	23443
576.238	23485.26
576.599	23447.52
576.96	23570.23
577.32	23567.74
577.681	23553.73
578.042	23611.13
578.403	23651.58
578.763	23648.64
579.124	23833.5
579.485	23950.33
579.845	24019.26
580.206	23951.91
580.566	23944.23
580.927	23922.31
581.287	23952.59
581.648	23985.58
582.008	24050.89
582.368	23948.75
582.728	24015.64
583.089	23980.16
583.449	24030.78
583.809	24159.82
584.169	24179.93
584.529	24168.18
584.889	24385.35
585.249	24166.14
585.609	24164.11
585.969	24244.33
586.329	24197.33
586.688	24212.02
587.048	24322.3
587.408	24190.32
587.768	24189.87
588.127	24307.84
588.487	24205.92
588.846	24280.94
589.206	24240.72
589.565	24311.68
589.925	24485.23
590.284	24336.99
590.643	24472.12
591.003	24309.87
591.362	24520.49
591.721	24477.77
592.08	24369.75
592.44	24427.15
592.799	24391.9
593.158	24405.69
593.517	24448.85
593.876	24583.53
594.235	24508.96
594.593	24592.12
594.952	24618.56
595.311	24443.2
595.67	24540.6
596.029	24537.43
596.387	24683.19
596.746	24689.52
597.104	24508.73
597.463	24577.21
597.822	24631.89
598.18	24559.58
598.538	24563.2
598.897	24848.84
599.255	24477.32
599.613	24854.94
599.972	24774.49
600.33	24899.23
600.688	24706.92
601.046	24849.52
601.404	24872.79
601.762	24840.7
602.12	24871.66
602.478	24911.21
602.836	25047.03
603.194	24816.97
603.552	24910.31
603.91	24901.94
604.268	25044.99
604.625	24956.63
604.983	25117.98
605.341	24806.58
605.698	24968.38
606.056	25109.85
606.413	24943.3
606.771	25089.74
607.128	25082.96
607.485	24922.28
607.843	25030.3
608.2	25130.64
608.557	25169.06
608.914	25148.94
609.272	25271.65
609.629	25411.99
609.986	25391.2
610.343	25213.57
610.7	25479.1
611.057	25350.52
611.414	25230.75
611.771	25374.93
612.127	25583.96
612.484	25443.4
612.841	25562.49
613.198	25484.08
613.554	25472.55
613.911	25513.23
614.267	25702.83
614.624	25535.15
614.98	25631.42
615.337	25650.85
615.693	25646.33
616.05	25725.43
616.406	25786.67
616.762	25685.2
617.118	25745.99
617.475	25659.44
617.831	25789.38
618.187	25718.65
618.543	25746.67
618.899	25858.53
619.255	25782.6
619.611	25769.72
619.967	25900.79
620.323	25970.39
620.678	25747.35
621.034	25764.97
621.39	25763.39
621.746	25820.11
622.101	26084.06
622.457	25847.91
622.812	25930.62
623.168	25963.39
623.523	25933.56
623.879	25909.6
624.234	25826.67
624.589	25859.43
624.945	25938.3
625.3	25914.35
625.655	25863.27
626.01	25822.6
626.365	25897.85
626.72	25919.09
627.075	25874.57
627.43	25699.44
627.785	25755.26
628.14	25758.87
628.495	25750.28
628.85	25710.51
629.205	25689.04
629.559	25748.7
629.914	25557.52
630.269	25677.29
630.623	25549.16
630.978	25518.65
631.332	25624.18
631.687	25723.17
632.041	25469.16
632.396	25574.24
632.75	25421.7
633.104	25531.31
633.459	25301.48
633.813	25198.66
634.167	25292.89
634.521	25302.84
634.875	25275.04
635.229	25207.25
635.583	25180.81
635.937	25115.5
636.291	25109.85
636.645	25099.68
636.999	25041.6
637.352	25200.69
637.706	24871.66
638.06	25076.18
638.413	25004.54
638.767	24850.19
639.121	24914.6
639.474	24832.57
639.828	24713.93
640.181	24804.32
640.534	24748.95
640.888	24656.98
641.241	24557.09
641.594	24546.7
641.947	24708.05
642.301	24668.5
642.654	24519.36
643.007	24556.19
643.36	24467.38
643.713	24443.43
644.066	24549.86
644.419	24336.99
644.771	24140.38
645.124	23978.35
645.477	23892.25
645.83	23791.92
646.182	23744.23
646.535	23517.12
646.888	23527.06
647.24	23414.98
647.593	23626.95
647.945	23455.88
648.298	23419.27
648.65	23350.57
649.002	23331.14
649.355	23358.03
649.707	23396.67
650.059	23444.81
650.411	23763.89
650.763	23703.11
651.115	23945.36
651.467	23845.02
651.819	23867.62
652.171	23954.17
652.523	23781.97
652.875	23844.8
653.227	23617.68
653.578	23828.75
653.93	23739.71
654.282	23629.89
654.633	23608.19
654.985	23659.94
655.337	23556.22
655.688	23629.66
656.039	23661.75
656.391	23414.07
656.742	23470.8
657.094	23510.79
657.445	23546.73
657.796	23470.57
658.147	23435.99
658.498	23464.02
658.849	23425.37
659.2	23388.31
659.551	23229.45
659.902	23351.7
660.253	23302.44
660.604	23399.16
660.955	23273.96
661.306	23316.45
661.656	23200.29
662.007	23276.9
662.358	23296.79
662.708	23324.13
663.059	23164.81
663.409	23144.25
663.76	23345.15
664.11	23272.61
664.461	23210.69
664.811	23335.21
665.161	23085.04
665.511	23085.04
665.862	23162.78
666.212	23101.99
666.562	23294.98
666.912	23082.78
667.262	23079.39
667.612	23007.98
667.962	23157.13
668.312	23099.96
668.662	23171.59
669.011	23038.72
669.361	23071.26
669.711	23090.01
670.06	22958.04
670.41	22960.53
670.76	23040.52
671.109	23019.96
671.459	22916.01
671.808	22834.65
672.157	23065.38
672.507	22872.39
672.856	22828.1
673.205	22818.61
673.554	23036.23
673.904	22936.8
674.253	22905.61
674.602	22789.23
674.951	22546.98
675.3	22418.62
675.649	22886.18
675.998	22841.89
676.346	22740.87
676.695	22838.5
677.044	22668.78
677.393	22807.54
677.741	22795.33
678.09	22646.41
678.438	22637.6
678.787	22689.8
679.135	22716.69
679.484	22530.48
679.832	22530.03
680.181	22524.15
680.529	22547.2
680.877	22602.12
681.225	22491.61
681.573	22528.22
681.922	22432.4
682.27	22325.29
682.618	22301.79
682.966	22252.97
683.314	22388.56
683.661	22249.36
684.009	22051.17
684.357	22052.75
684.705	22085.97
685.053	22108.8
685.4	22116.93
685.748	21974.11
686.095	21978.86
686.443	21798.3
686.79	21833.1
687.138	21796.26
687.485	21913.55
687.832	21791.29
688.18	21800.33
688.527	21662.26
688.874	21692.31
689.221	21633.56
689.568	21592.65
689.915	21574.8
690.262	21524.63
690.609	21422.49
690.956	21388.14
691.303	21437.85
691.65	21215.71
691.997	21212.32
692.344	21095.94
692.69	21151.08
693.037	21073.57
693.383	20861.37
693.73	21023.18
694.077	20868.38
694.423	20860.69
694.769	20939.79
695.116	20708.83
695.462	20654.37
695.808	20736.86
696.155	20683.98
696.501	20509.52
696.847	20575.05
697.193	20412.34
697.539	20485.56
697.885	20314.72
698.231	20274.72
698.577	20192.24
698.923	20196.31
699.269	20157.21
699.614	20076.99
699.96	20027.04
700.306	20044.44
700.651	19906.6
700.997	19986.59
701.342	19875.86
701.688	19832.92
702.033	19820.95
702.379	19802.87
702.724	19675.19
703.069	19723.32
703.415	19551.35
703.76	19472.71
704.105	19528.98
704.45	19479.04
704.795	19354.29
705.14	19238.59
705.485	19262.09
705.83	19105.94
706.175	19084.47
706.52	19072.27
706.865	18988.2
707.209	19031.14
707.554	18920.18
707.899	18967.64
708.243	18926.73
708.588	18876.79
708.932	18768.55
709.277	18772.16
709.621	18858.71
709.966	18630.02
710.31	18674.99
710.654	18441.32
710.998	18480.42
711.342	18442.23
711.687	18360.87
712.031	18374.88
712.375	18190.03
712.719	18305.51
713.063	18202.23
713.407	18487.2
713.75	18228.45
714.094	18181.89
714.438	18234.1
714.782	18242.01
715.125	18110.26
715.469	18105.29
715.812	18109.58
716.156	17946.42
716.499	17901.9
716.843	17935.57
717.186	17773.32
717.53	17849.47
717.873	17855.58
718.216	17825.97
718.559	17717.27
718.902	17519.31
719.246	17539.2
719.589	17646.09
719.932	17533.32
720.275	17610.38
720.617	17564.96
720.96	17581.91
721.303	17515.92
721.646	17472.31
721.989	17374.68
722.331	17464.17
722.674	17329.71
723.016	17445.19
723.359	17356.15
723.701	17327
724.044	17300.56
724.386	17099.44
724.729	17138.76
725.071	17141.92
725.413	17060.12
725.755	17024.64
726.097	17016.95
726.439	16929.95
726.782	16923.4
727.124	17016.5
727.465	16954.36
727.807	16930.18
728.149	16815.83
728.491	16861.93
728.833	16865.77
729.175	16776.28
729.516	16760.69
729.858	16643.63
730.199	16668.94
730.541	16660.58
730.882	16603.18
731.224	16674.14
731.565	16521.83
731.906	16567.93
732.248	16548.27
732.589	16501.04
732.93	16394.82
733.271	16400.47
733.612	16421.26
733.953	16428.27
734.294	16389.4
734.635	16288.61
734.976	16250.65
735.317	16156.64
735.658	16284.09
735.999	16197.99
736.339	16182.63
736.68	16219.23
737.021	16156.19
737.361	16006.81
737.702	16179.91
738.042	16075.96
738.383	16065.57
738.723	15986.92
739.063	15985.79
739.404	15919.81
739.744	15934.5
740.084	15809.98
740.424	15904.89
740.764	15852.01
741.104	15915.51
741.444	15824.89
741.784	15769.53
742.124	15732.02
742.464	15629.65
742.804	15728.17
743.143	15583.09
743.483	15637.55
743.823	15498.8
744.162	15519.59
744.502	15555.75
744.841	15393.72
745.181	15527.5
745.52	15445.47
745.86	15460.61
746.199	15459.71
746.538	15377.67
746.877	15436.88
747.216	15425.81
747.556	15325.47
747.895	15329.99
748.234	15183.33
748.573	15163.9
748.911	15233.27
749.25	15031.02
749.589	15002.77
749.928	15084.58
750.267	15079.38
750.605	14939.27
750.944	14960.96
751.283	14891.81
751.621	14936.1
751.96	14906.05
752.298	14899.5
752.636	14901.76
752.975	14839.61
753.313	14730.69
753.651	14853.17
753.989	14673.74
754.327	14606.17
754.666	14592.84
755.004	14620.63
755.342	14667.18
755.679	14536.11
756.017	14477.36
756.355	14477.59
756.693	14461.77
757.031	14400.98
757.368	14264.71
757.706	14302.67
758.044	14274.88
758.381	14313.3
758.719	14240.3
759.056	14186.07
759.394	14129.35
759.731	14065.84
760.068	14057.71
760.405	13937.03
760.743	14006.86
761.08	13964.83
761.417	13936.58
761.754	13870.37
762.091	13783.82
762.428	13809.81
762.765	13664.95
763.102	13746.98
763.438	13673.54
763.775	13590.15
764.112	13521
764.449	13516.71
764.785	13452.98
765.122	13310.61
765.458	13353.55
765.795	13273.32
766.131	13231.52
766.467	13161.69
766.804	13287.11
767.14	13111.29
767.476	13109.03
767.812	13130.5
768.148	13130.5
768.485	13006.21
768.821	12934.58
769.157	12929.15
769.492	12844.86
769.828	12756.73
770.164	12697.07
770.5	12710.17
770.836	12691.64
771.171	12661.81
771.507	12513.8
771.842	12422.5
772.178	12490.97
772.513	12441.71
772.849	12413.46
773.184	12279
773.519	12379.56
773.855	12211.2
774.19	12146.57
774.525	12108.83
774.86	12199.91
775.195	12124.88
775.53	12077.42
775.865	12029.51
776.2	11940.93
776.535	11834.27
776.87	11947.03
777.205	11789.97
777.539	11703.2
777.874	11738.67
778.209	11612.58
778.543	11608.96
778.878	11506.14
779.212	11515.63
779.547	11454.84
779.881	11422.52
780.215	11391.11
780.55	11386.14
780.884	11381.85
781.218	11285.58
781.552	11298.46
781.886	11200.38
782.22	11183.21
782.554	11149.31
782.888	11041.52
783.222	10964.01
783.556	10954.51
783.889	10940.96
784.223	10752.71
784.557	10817.57
784.89	10794.52
785.224	10742.09
785.557	10692.6
785.891	10644.24
786.224	10631.13
786.558	10632.49
786.891	10539.61
787.224	10469.56
787.557	10518.59
787.891	10492.61
788.224	10488.54
788.557	10406.96
788.89	10430.23
789.223	10400.63
789.556	10366.73
789.888	10238.6
790.221	10184.14
790.554	10177.13
790.887	10132.39
791.219	10168.32
791.552	10036.35
791.884	10042.45
792.217	9938.04
792.549	9894.88
792.882	9916.58
793.214	9861.89
793.546	9845.62
793.879	9793.87
794.211	9734.89
794.543	9797.26
794.875	9689.01
795.207	9766.3
795.539	9662.34
795.871	9722.91
796.203	9588.67
796.535	9537.38
796.867	9530.37
797.198	9511.39
797.53	9510.03
797.862	9416.7
798.193	9484.72
798.525	9354.1
798.856	9440.2
799.188	9304.84
799.519	9292.41
799.85	9252.41
800.182	9298.29
800.513	9215.58
800.844	9116.37
801.175	9188.46
801.506	9220.77
801.837	9148.46
802.168	9101.91
802.499	9060.1
802.83	9035.24
803.161	8959.54
803.491	8938.75
803.822	8988.24
804.153	8942.36
804.483	8870.05
804.814	8855.81
805.145	8856.26
805.475	8796.83
805.805	8724.52
806.136	8801.8
806.466	8757.96
806.796	8741.92
807.126	8662.37
807.457	8659.21
807.787	8670.73
808.117	8640.45
808.447	8589.38
808.777	8586.89
809.107	8556.39
809.436	8499.21
809.766	8520
810.096	8502.83
810.426	8441.13
810.755	8465.77
811.085	8436.16
811.414	8367.92
811.744	8310.06
812.073	8327.69
812.403	8327.01
812.732	8216.06
813.061	8295.38
813.39	8256.51
813.719	8216.06
814.049	8263.29
814.378	8167.47
814.707	8190.97
815.036	8218.09
815.365	8132.67
815.693	8114.14
816.022	8083.86
816.351	8060.13
816.68	8073.01
817.008	8076.4
817.337	7994.82
817.665	7933.8
817.994	8008.15
818.322	7946.91
818.651	7890.19
818.979	7917.98
819.307	7937.64
819.636	7883.18
819.964	7811.55
820.292	7844.77
820.62	7770.87
820.948	7768.16
821.276	7791.66
821.604	7799.34
821.932	7850.19
822.259	7774.94
822.587	7815.61
822.915	7817.87
823.243	7764.54
823.57	7778.33
823.898	7812
824.225	7804.09
824.553	7799.57
824.88	7827.36
825.207	7798.89
825.535	7752.79
825.862	7776.07
826.189	7771.1
826.516	7718.67
826.843	7784.2
827.17	7784.2
827.497	7791.89
827.824	7761.6
828.151	7799.79
828.478	7783.3
828.805	7815.16
829.131	7774.26
829.458	7776.29
829.785	7727.03
830.111	7796.41
830.438	7816.07
830.764	7839.79
831.09	7752.34
831.417	7748.5
831.743	7836.86
832.069	7783.52
832.395	7748.04
832.722	7790.08
833.048	7751.66
833.374	7759.34
833.7	7679.35
834.026	7727.48
834.351	7702.17
834.677	7651.55
835.003	7719.35
835.329	7687.48
835.654	7721.15
835.98	7667.14
836.306	7622.4
836.631	7610.65
836.956	7663.3
837.282	7666.92
837.607	7596.41
837.932	7593.47
838.258	7596.18
838.583	7566.35
838.908	7544.21
839.233	7554.38
839.558	7520.03
839.883	7519.8
840.208	7513.02
840.533	7480.26
840.858	7500.59
841.182	7512.57
841.507	7414.49
841.832	7404.55
842.156	7439.13
842.481	7438
842.805	7335.17
843.13	7362.52
843.454	7339.24
843.778	7352.12
844.103	7314.61
844.427	7346.7
844.751	7337.21
845.075	7260.37
845.399	7218.79
845.723	7217.89
846.047	7270.09
846.371	7233.71
846.695	7183.54
847.019	7176.08
847.343	7069.64
847.666	7050.89
847.99	7073.71
848.313	7029.65
848.637	6993.26
848.96	6961.62
849.284	6976.99
849.607	6908.52
849.931	6879.82
850.254	6845.92
850.577	6781.29
850.9	6767.73
851.223	6759.37
851.546	6700.39
851.869	6715.53
852.192	6705.13
852.515	6653.61
852.838	6648.19
853.161	6633.05
853.483	6604.35
853.806	6590.34
854.129	6596.66
854.451	6493.61
854.774	6515.08
855.096	6485.25
855.419	6519.15
855.741	6492.03
856.063	6461.07
856.385	6431.02
856.708	6444.12
857.03	6407.29
857.352	6381.53
857.674	6366.84
857.996	6292.04
858.318	6312.15
858.64	6281.64
858.961	6332.49
859.283	6231.02
859.605	6243.45
859.926	6204.36
860.248	6215.88
860.57	6188.09
860.891	6209.33
861.212	6184.24
861.534	6086.85
861.855	6116
862.176	6169.33
862.498	6135.88
862.819	6094.08
863.14	6101.99
863.461	6141.53
863.782	6083.68
864.103	6085.49
864.424	6046.85
864.745	6086.85
865.065	6052.95
865.386	5989
865.707	6048.2
866.027	6045.94
866.348	5998.03
866.668	6003.46
866.989	6021.99
867.309	6008.88
867.63	5998.49
867.95	5945.83
868.27	5906.51
868.59	5908.77
868.91	5875.1
869.23	5863.57
869.55	5857.02
869.87	5906.74
870.19	5863.57
870.51	5892.27
870.83	5901.99
871.15	5833.52
871.469	5889.11
871.789	5851.82
872.109	5841.43
872.428	5818.38
872.748	5857.47
873.067	5865.16
873.386	5800.75
873.706	5833.74
874.025	5777.7
874.344	5794.42
874.663	5798.49
874.982	5782.45
875.301	5791.49
875.62	5717.82
875.939	5767.53
876.258	5770.47
876.577	5739.51
876.896	5725.73
877.214	5628.1
877.533	5688.66
877.852	5582.68
878.17	5659.96
878.489	5646.63
878.807	5615.9
879.125	5631.94
879.444	5619.74
879.762	5573.64
880.08	5604.82
880.398	5569.8
880.716	5626.52
881.034	5554.66
881.352	5553.53
881.67	5540.87
881.988	5627.42
882.306	5534.77
882.624	5502.68
882.941	5496.13
883.259	5461.55
883.577	5440.08
883.894	5469.23
884.212	5386.3
884.529	5433.53
884.846	5449.35
885.164	5436.24
885.481	5464.94
885.798	5412.29
886.115	5380.42
886.432	5390.59
886.75	5353.53
887.067	5375.9
887.383	5393.76
887.7	5402.12
888.017	5380.42
888.334	5315.34
888.651	5258.17
888.967	5342.91
889.284	5266.75
889.6	5250.03
889.917	5269.47
890.233	5250.26
890.55	5191.73
890.866	5256.81
891.182	5186.76
891.498	5178.17
891.815	5147.21
892.131	5135.23
892.447	5104.05
892.763	5102.46
893.079	5084.16
893.395	5029.47
893.71	5026.53
894.026	5018.85
894.342	5063.6
894.657	5029.02
894.973	5032.41
895.289	4987.44
895.604	5033.99
895.92	4945.63
896.235	4951.73
896.55	4953.77
896.865	4881.23
897.181	4931.4
897.496	4916.71
897.811	4921.23
898.126	4796.26
898.441	4840.32
898.756	4837.39
899.071	4802.36
899.386	4781.57
899.7	4796.94
900.015	4749.93
900.33	4685.75
900.644	4701.12
900.959	4729.82
901.273	4686.43
901.588	4668.8
901.902	4690.27
902.216	4658.86
902.531	4602.59
902.845	4590.84
903.159	4592.65
903.473	4568.02
903.787	4612.76
904.101	4563.72
904.415	4608.01
904.729	4543.16
905.042	4478.75
905.356	4481.46
905.67	4512.88
905.984	4477.17
906.297	4487.34
906.611	4444.18
906.924	4437.62
907.237	4407.34
907.551	4416.38
907.864	4384.97
908.177	4377.29
908.491	4335.25
908.804	4309.94
909.117	4311.98
909.43	4288.7
909.743	4298.87
910.056	4253.45
910.368	4306.33
910.681	4231.3
910.994	4208.48
911.307	4198.31
911.619	4161.47
911.932	4185.88
912.244	4151.53
912.557	4108.59
912.869	4157.63
913.181	4141.13
913.494	4111.3
913.806	4054.13
914.118	4050.74
914.43	4027.46
914.742	4033.34
915.054	3982.27
915.366	4018.43
915.678	3958.09
915.99	4003.51
916.302	3938.2
916.613	3931.2
916.925	3917.19
917.236	3921.03
917.548	3860.24
917.859	3888.71
918.171	3862.72
918.482	3845.32
918.794	3805.78
919.105	3847.58
919.416	3775.04
919.727	3800.13
920.038	3748.38
920.349	3757.87
920.66	3745.66
920.971	3699.56
921.282	3727.81
921.593	3648.04
921.903	3714.25
922.214	3724.42
922.525	3631.09
922.835	3648.04
923.146	3624.31
923.456	3591.32
923.767	3584.31
924.077	3584.76
924.387	3564.43
924.697	3519.68
925.008	3526.91
925.318	3512.9
925.628	3467.93
925.938	3456.18
926.248	3488.72
926.558	3453.47
926.867	3440.81
927.177	3473.13
927.487	3386.13
927.796	3387.26
928.106	3376.63
928.416	3348.39
928.725	3355.39
929.034	3333.25
929.344	3336.41
929.653	3305.68
929.962	3313.81
930.271	3277.88
930.581	3262.06
930.89	3284.89
931.199	3230.2
931.508	3249.41
931.817	3218.22
932.125	3177.09
932.434	3209.86
932.743	3226.58
933.051	3183.19
933.36	3149.52
933.669	3146.81
933.977	3143.42
934.286	3112.01
934.594	3139.35
934.902	3089.64
935.21	3077.89
935.519	3053.03
935.827	3068.17
936.135	3035.85
936.443	3016.64
936.751	3008.06
937.059	3021.84
937.367	3013.25
937.674	2981.84
937.982	2973.48
938.29	2944.78
938.597	2963.09
938.905	2941.84
939.213	2954.05
939.52	2888.96
939.827	2914.73
940.135	2883.09
940.442	2883.99
940.749	2897.78
941.056	2858
941.363	2815.29
941.67	2876.08
941.977	2811.68
942.284	2811.9
942.591	2807.61
942.898	2763.09
943.205	2769.19
943.511	2764.45
943.818	2763.54
944.125	2739.81
944.431	2724.22
944.738	2690.78
945.044	2669.31
945.35	2705.92
945.657	2680.83
945.963	2667.5
946.269	2654.17
946.575	2650.55
946.881	2648.74
947.187	2620.72
947.493	2602.87
947.799	2603.77
948.105	2583.21
948.41	2566.94
948.716	2540.95
949.022	2568.07
949.327	2562.19
949.633	2520.61
949.938	2530.1
950.244	2516.09
950.549	2472.03
950.854	2493.72
951.16	2489.65
951.465	2479.71
951.77	2489.65
952.075	2468.18
952.38	2464.79
952.685	2415.08
952.99	2407.17
953.294	2461.18
953.599	2393.16
953.904	2400.61
954.209	2381.86
954.513	2348.41
954.818	2380.73
955.122	2366.49
955.426	2349.54
955.731	2352.93
956.035	2341.18
956.339	2308.87
956.643	2337.79
956.948	2325.59
957.252	2260.73
957.556	2309.54
957.86	2255.76
958.163	2273.16
958.467	2249.21
958.771	2259.38
959.075	2231.13
959.378	2234.74
959.682	2211.69
959.985	2192.26
960.289	2195.2
960.592	2201.07
960.896	2191.13
961.199	2157.01
961.502	2172.37
961.805	2117.23
962.108	2125.14
962.411	2094.41
962.714	2140.28
963.017	2125.37
963.32	2128.31
963.623	2097.12
963.926	2113.84
964.228	2062.77
964.531	2066.84
964.833	2077.23
965.136	2045.14
965.438	2048.08
965.741	2019.16
966.043	2038.59
966.345	2013.05
966.648	1997.46
966.95	2024.35
967.252	1998.59
967.554	1978.71
967.856	2006.27
968.158	1965.6
968.46	1962.89
968.761	1971.02
969.063	1939.84
969.365	1940.97
969.666	1937.12
969.968	1910.23
970.269	1917.69
970.571	1905.49
970.872	1922.44
971.174	1904.81
971.475	1886.73
971.776	1878.14
972.077	1885.6
972.378	1896.9
972.679	1861.65
972.98	1864.81
973.281	1837.92
973.582	1830.46
973.883	1863.68
974.183	1828.2
974.484	1819.84
974.785	1808.54
975.085	1836.56
975.386	1826.17
975.686	1814.87
975.986	1803.79
976.287	1783.68
976.587	1763.57
976.887	1756.79
977.187	1753.85
977.487	1723.57
977.787	1741.42
978.087	1717.92
978.387	1748.43
978.687	1730.58
978.987	1716.11
979.286	1717.02
979.586	1689.22
979.885	1686.28
980.185	1669.79
980.484	1657.81
980.784	1647.87
981.083	1661.88
981.382	1649
981.682	1655.55
981.981	1644.02
982.28	1652.61
982.579	1636.12
982.878	1628.66
983.177	1616.23
983.475	1605.61
983.774	1576.68
984.073	1590.01
984.372	1591.6
984.67	1591.82
984.969	1591.14
985.267	1554.08
985.566	1553.63
985.864	1565.61
986.162	1559.28
986.461	1560.41
986.759	1510.47
987.057	1518.6
987.355	1520.19
987.653	1518.15
987.951	1524.03
988.249	1506.18
988.547	1497.81
988.844	1494.42
989.142	1498.04
989.44	1492.62
989.737	1505.05
990.035	1483.35
990.332	1461.43
990.63	1453.3
990.927	1466.85
991.224	1454.88
991.521	1458.94
991.819	1456.46
992.116	1450.36
992.413	1448.55
992.71	1437.7
993.006	1407.19
993.303	1424.37
993.6	1394.54
993.897	1385.95
994.193	1404.48
994.49	1390.02
994.787	1357.48
995.083	1349.34
995.379	1373.52
995.676	1362.9
995.972	1346.86
996.268	1333.75
996.565	1348.67
996.861	1337.59
997.157	1340.08
997.453	1328.33
997.749	1331.49
998.044	1297.59
998.34	1298.27
998.636	1303.24
998.932	1321.77
999.227	1292.62
999.523	1314.32
999.818	1271.83
1000.114	1268.67
1000.409	1268.89
1000.704	1273.86
1001	1248.55
1001.295	1247.65
1001.59	1254.88
1001.885	1227.09
1002.18	1217.82
1002.475	1237.03
1002.77	1209.23
1003.065	1214.43
1003.359	1225.28
1003.654	1179.4
1003.949	1212.85
1004.243	1195.9
1004.538	1192.51
1004.832	1188.22
1005.127	1190.93
1005.421	1162.91
1005.715	1146.64
1006.009	1162.46
1006.304	1160.65
1006.598	1173.53
1006.892	1138.95
1007.186	1119.07
1007.48	1134.43
1007.773	1132.85
1008.067	1116.13
1008.361	1111.38
1008.655	1090.37
1008.948	1102.8
1009.242	1113.19
1009.535	1084.72
1009.829	1079.52
1010.122	1091.72
1010.415	1072.06
1010.708	1065.96
1011.001	1044.72
1011.295	1041.78
1011.588	1036.58
1011.881	1066.64
1012.173	1034.32
1012.466	1059.63
1012.759	1029.35
1013.052	1036.36
1013.344	1021.22
1013.637	1030.71
1013.93	1005.62
1014.222	1010.59
1014.514	1020.54
1014.807	1013.08
1015.099	987.77
1015.391	977.15
1015.683	981.44
1015.976	977.6
1016.268	942.35
1016.56	977.15
1016.851	963.82
1017.143	971.95
1017.435	987.32
1017.727	951.16
1018.018	927.66
1018.31	949.13
1018.602	925.17
1018.893	916.81
1019.185	929.69
1019.476	916.13
1019.767	903.25
1020.058	919.98
1020.35	903.25
1020.641	912.52
1020.932	869.58
1021.223	886.76
1021.514	880.43
1021.804	865.29
1022.095	847.66
1022.386	866.87
1022.677	861.22
1022.967	865.51
1023.258	822.13
1023.548	836.14
1023.839	851.95
1024.129	839.53
1024.419	828.23
1024.709	825.29
1025	830.71
1025.29	815.57
1025.58	815.57
1025.87	814.22
1026.16	819.19
1026.449	793.65
1026.739	791.84
1027.029	794.56
1027.319	790.94
1027.608	771.96
1027.898	795.69
1028.187	766.08
1028.477	765.63
1028.766	769.02
1029.055	760.43
1029.344	764.73
1029.634	752.3
1029.923	751.17
1030.212	738.74
1030.501	744.84
1030.79	738.51
1031.078	737.83
1031.367	751.17
1031.656	746.87
1031.945	716.37
1032.233	732.64
1032.522	713.88
1032.81	724.95
1033.099	710.49
1033.387	716.37
1033.675	709.81
1033.963	680.43
1034.251	691.06
1034.54	693.54
1034.828	703.94
1035.116	698.06
1035.403	682.47
1035.691	679.98
1035.979	691.28
1036.267	690.15
1036.554	673.88
1036.842	659.42
1037.129	660.1
1037.417	663.71
1037.704	660.1
1037.992	678.85
1038.279	658.97
1038.566	660.55
1038.853	660.55
1039.14	660.55
