Data from foam1_polythene_foam_FLMS001491_00006.txt Node
Date: Wed Feb 08 10:54:18 GMT 2017
User: dcchb
Spectrometer: FLMS00149
Trigger mode: 0
Integration Time (sec): 2.000000E-2
Scans to average: 10
Electric dark correction enabled: true
Nonlinearity correction enabled: false
Boxcar width: 0
XAxis mode: Wavelengths
Number of Pixels in Spectrum: 2048
>>>>>Begin Spectral Data<<<<<
341.393	-22.54
341.776	-22.54
342.16	-22.54
342.543	-51.47
342.927	-63.22
343.31	-79.26
343.693	-60.51
344.077	-48.98
344.46	-47.85
344.843	-74.29
345.226	-34.07
345.61	-45.14
345.993	-14.86
346.376	3.67
346.759	13.84
347.142	17.01
347.525	47.96
347.908	38.25
348.291	72.14
348.674	97.23
349.057	114.86
349.44	116.89
349.823	136.1
350.206	168.19
350.588	180.84
350.971	197.57
351.354	217.9
351.737	234.85
352.119	235.53
352.502	257.45
352.884	264.68
353.267	262.42
353.65	284.34
354.032	283.89
354.414	291.35
354.797	306.72
355.179	299.03
355.562	309.88
355.944	298.35
356.326	338.13
356.709	326.38
357.091	303.33
357.473	331.12
357.855	312.36
358.238	326.83
358.62	327.73
359.002	315.3
359.384	319.6
359.766	341.29
360.148	324.79
360.53	334.51
360.912	303.1
361.294	309.65
361.676	322.08
362.057	298.58
362.439	313.95
362.821	297
363.203	303.55
363.584	311.23
363.966	323.21
364.348	293.16
364.729	315.3
365.111	294.96
365.493	289.31
365.874	295.87
366.256	287.96
366.637	315.53
367.019	273.72
367.4	314.4
367.781	287.51
368.163	313.27
368.544	297.9
368.925	294.29
369.306	304.91
369.688	277.34
370.069	266.49
370.45	308.3
370.831	286.38
371.212	303.55
371.593	301.97
371.974	296.55
372.355	299.71
372.736	319.14
373.117	267.17
373.498	294.51
373.879	298.13
374.26	313.27
374.641	294.51
375.021	304.68
375.402	320.95
375.783	293.16
376.163	306.49
376.544	319.82
376.925	307.17
377.305	311.01
377.686	307.17
378.066	298.58
378.447	314.4
378.827	301.74
379.208	319.14
379.588	311.46
379.968	316.88
380.349	318.47
380.729	301.29
381.109	305.13
381.489	321.4
381.87	303.55
382.25	319.37
382.63	332.7
383.01	322.31
383.39	332.03
383.77	332.7
384.15	313.27
384.53	321.4
384.91	341.97
385.29	320.5
385.67	314.62
386.049	321.86
386.429	319.14
386.809	329.31
387.189	318.69
387.568	340.61
387.948	343.78
388.328	349.2
388.707	338.8
389.087	339.71
389.466	325.02
389.846	336.54
390.225	366.6
390.605	327.96
390.984	342.65
391.363	354.62
391.743	344
392.122	334.06
392.501	329.09
392.881	332.48
393.26	352.82
393.639	352.59
394.018	341.74
394.397	340.61
394.776	345.81
395.155	323.89
395.534	347.62
395.913	347.39
396.292	345.81
396.671	346.04
397.05	353.49
397.429	353.04
397.808	338.35
398.186	370.22
398.565	353.72
398.944	362.76
399.323	359.6
399.701	355.53
400.08	362.76
400.458	359.37
400.837	384
401.215	370.89
401.594	396.66
401.972	358.92
402.351	380.84
402.729	377.45
403.107	371.57
403.486	367.28
403.864	349.2
404.242	365.47
404.62	374.96
404.999	358.69
405.377	399.37
405.755	400.95
406.133	385.13
406.511	385.13
406.889	396.66
407.267	384.23
407.645	398.92
408.023	393.72
408.401	403.66
408.779	401.18
409.156	404.57
409.534	398.24
409.912	400.72
410.29	419.71
410.667	399.14
411.045	407.5
411.422	405.02
411.8	405.92
412.178	421.97
412.555	425.13
412.933	435.3
413.31	413.15
413.687	430.33
414.065	424.23
414.442	444.56
414.819	431.01
415.197	433.72
415.574	418.58
415.951	443.21
416.328	450.89
416.705	437.56
417.082	434.4
417.46	433.94
417.837	443.89
418.214	446.15
418.591	441.4
418.967	443.43
419.344	468.74
419.721	467.61
420.098	472.36
420.475	458.8
420.852	468.97
421.228	455.64
421.605	457.67
421.982	474.85
422.358	458.58
422.735	477.11
423.111	464
423.488	486.82
423.864	501.96
424.241	471
424.617	478.69
424.994	485.47
425.37	496.99
425.746	508.74
426.123	478.69
426.499	519.82
426.875	511.46
427.251	510.33
427.627	518.91
428.003	528.86
428.379	517.56
428.756	511.68
429.132	534.73
429.507	551.45
429.883	554.39
430.259	541.96
430.635	537.67
431.011	534.73
431.387	546.03
431.763	548.06
432.138	539.7
432.514	552.13
432.89	575.86
433.265	575.63
433.641	572.92
434.016	576.09
434.392	591.23
434.767	595.07
435.143	584
435.518	605.24
435.894	599.36
436.269	607.27
436.644	590.78
437.02	612.92
437.395	621.06
437.77	602.53
438.145	628.06
438.52	645.46
438.895	639.36
439.271	630.32
439.646	643.66
440.021	647.72
440.395	667.16
440.77	670.55
441.145	658.34
441.52	666.93
441.895	673.03
442.27	661.51
442.645	661.51
443.019	696.99
443.394	705.8
443.769	687.5
444.143	689.53
444.518	734.27
444.892	704.22
445.267	745.35
445.641	710.77
446.016	735.4
446.39	715.29
446.764	720.94
447.139	765.91
447.513	719.13
447.887	756.65
448.262	762.3
448.636	753.71
449.01	762.3
449.384	792.13
449.758	772.69
450.132	757.32
450.506	761.17
450.88	800.04
451.254	812.69
451.628	813.59
452.002	807.04
452.376	798.45
452.75	823.09
453.123	814.5
453.497	811.11
453.871	836.19
454.244	841.62
454.618	848.62
454.992	852.24
455.365	831.45
455.739	868.51
456.112	887.26
456.486	880.03
456.859	881.62
457.232	878.45
457.606	878.23
457.979	874.16
458.352	896.76
458.725	901.05
459.099	880.71
459.472	918.22
459.845	889.52
460.218	870.77
460.591	919.58
460.964	925.68
461.337	915.51
461.71	932.01
462.083	936.08
462.456	951.44
462.829	970.43
463.201	980.6
463.574	945.34
463.947	970.88
464.32	997.77
464.692	1005
465.065	967.26
465.438	1007.26
465.81	998.9
466.183	1034.38
466.555	1035.28
466.928	1045.23
467.3	1034.83
467.672	1036.64
468.045	1056.07
468.417	1061.27
468.789	1076.19
469.161	1070.31
469.534	1088.84
469.906	1096.75
470.278	1095.17
470.65	1112.12
471.022	1130.87
471.394	1130.2
471.766	1133.81
472.138	1160.25
472.51	1199.12
472.882	1205.9
473.253	1205.9
473.625	1214.04
473.997	1219.23
474.369	1219.69
474.74	1233.02
475.112	1267.59
475.484	1264.66
475.855	1274.15
476.227	1294.03
476.598	1321.38
476.97	1334.03
477.341	1339
477.713	1378.1
478.084	1373.35
478.455	1391.66
478.827	1402.28
479.198	1466.01
479.569	1443.86
479.94	1480.7
480.311	1463.52
480.682	1506.68
481.053	1533.35
481.424	1574.7
481.795	1551.2
482.166	1575.38
482.537	1601.14
482.908	1644.76
483.279	1621.71
483.65	1667.13
484.021	1676.4
484.391	1713.23
484.762	1721.82
485.133	1746.68
485.503	1747.13
485.874	1768.82
486.244	1821.93
486.615	1832.1
486.985	1838.43
487.356	1866.67
487.726	1880.91
488.097	1907.58
488.467	1903.51
488.837	1934.02
489.207	1941.47
489.578	2001.81
489.948	2020.57
490.318	2050.62
490.688	2064.86
491.058	2092.2
491.428	2087.01
491.798	2122.49
492.168	2135.14
492.538	2171.98
492.908	2197.51
493.278	2213.11
493.648	2221.92
494.017	2232.31
494.387	2252.88
494.757	2246.33
495.126	2300.56
495.496	2305.08
495.866	2313.22
496.235	2358.86
496.605	2376.72
496.974	2342.37
497.344	2397.28
497.713	2419.65
498.082	2424.17
498.452	2460.33
498.821	2492.87
499.19	2480.67
499.559	2491.06
499.928	2503.27
500.298	2525.19
500.667	2525.19
501.036	2553.21
501.405	2577.84
501.774	2588.24
502.143	2584.85
502.512	2626.88
502.88	2613.32
503.249	2625.07
503.618	2669.59
503.987	2654.45
504.356	2681.12
504.724	2740.55
505.093	2728.35
505.462	2726.31
505.83	2768.35
506.199	2727.22
506.567	2816.48
506.936	2839.3
507.304	2865.52
507.672	2837.95
508.041	2899.42
508.409	2889.25
508.777	2955.68
509.145	2889.25
509.514	2927.21
509.882	2947.55
510.25	2967.66
510.618	2988.68
510.986	3019.41
511.354	3050.82
511.722	3054.21
512.09	3105.96
512.458	3139.86
512.826	3093.76
513.193	3134.66
513.561	3140.31
513.929	3179.86
514.297	3235
514.664	3244.49
515.032	3237.49
515.4	3278.16
515.767	3284.26
516.135	3323.36
516.502	3287.88
516.869	3343.92
517.237	3365.17
517.604	3359.97
517.972	3437.25
518.339	3447.88
518.706	3461.66
519.073	3439.06
519.44	3501.43
519.808	3500.53
520.175	3520.64
520.542	3573.75
520.909	3606.97
521.276	3626.85
521.643	3662.33
522.009	3641.77
522.376	3705.27
522.743	3697.81
523.11	3727.64
523.477	3758.38
523.843	3792.5
524.21	3794.31
524.577	3830.69
524.943	3850.35
525.31	3904.81
525.676	3964.02
526.043	3916.11
526.409	4018.93
526.776	4026.17
527.142	4019.84
527.508	4061.19
527.874	4076.79
528.241	4071.59
528.607	4133.73
528.973	4193.62
529.339	4221.41
529.705	4253.5
530.071	4237.23
530.437	4277.68
530.803	4254.18
531.169	4299.6
531.535	4296.21
531.901	4258.7
532.267	4354.52
532.632	4355.2
532.998	4404.46
533.364	4458.02
533.73	4477.23
534.095	4478.36
534.461	4503.21
534.826	4550.22
535.192	4519.94
535.557	4567.39
535.923	4515.19
536.288	4568.3
536.653	4616.21
537.019	4595.87
537.384	4622.53
537.749	4664.79
538.114	4687.16
538.479	4708.41
538.845	4712.93
539.21	4702.31
539.575	4763.77
539.94	4708.63
540.305	4759.48
540.67	4801.06
541.034	4821.85
541.399	4827.05
541.764	4828.86
542.129	4873.37
542.494	4882.19
542.858	4873.83
543.223	4872.24
543.587	4916.99
543.952	4946.14
544.316	4935.52
544.681	4963.99
545.045	4987.27
545.41	4976.65
545.774	5029.75
546.138	5004.22
546.503	5055.74
546.867	5034.73
547.231	5083.99
547.595	5101.17
547.959	5118.34
548.324	5126.93
548.688	5107.94
549.052	5197.43
549.416	5187.04
549.779	5199.24
550.143	5224.33
550.507	5254.16
550.871	5286.92
551.235	5225.91
551.599	5330.54
551.962	5282.18
552.326	5302.06
552.689	5365.34
553.053	5356.75
553.417	5371.21
553.78	5449.63
554.143	5408.95
554.507	5475.17
554.87	5516.75
555.234	5577.99
555.597	5527.82
555.96	5557.42
556.323	5549.74
556.686	5607.14
557.05	5608.95
557.413	5688.04
557.776	5711.54
558.139	5699.12
558.502	5721.71
558.865	5747.7
559.228	5754.26
559.59	5773.46
559.953	5786.35
560.316	5858.21
560.679	5816.85
561.041	5900.01
561.404	5919.45
561.767	5900.24
562.129	5928.71
562.492	5967.36
562.854	5965.78
563.217	6026.11
563.579	6084.64
563.941	6079.44
564.304	6073.34
564.666	6128.93
565.028	6125.09
565.39	6163.96
565.753	6215.49
566.115	6150.63
566.477	6258.65
566.839	6260.68
567.201	6273.34
567.563	6368.02
567.925	6379.78
568.287	6381.81
568.648	6432.43
569.01	6391.53
569.372	6459.77
569.734	6472.43
570.095	6535.7
570.457	6561.24
570.819	6564.4
571.18	6572.77
571.542	6568.25
571.903	6547.45
572.265	6600.33
572.626	6638.98
572.987	6667.45
573.349	6664.97
573.71	6703.84
574.071	6727.34
574.432	6735.47
574.794	6813.89
575.155	6785.19
575.516	6770.95
575.877	6747.68
576.238	6821.12
576.599	6890.04
576.96	6850.5
577.32	6854.79
577.681	6862.93
578.042	6912.42
578.403	6894.56
578.763	6859.31
579.124	6920.55
579.485	6922.13
579.845	6965.98
580.206	6963.94
580.566	6911.74
580.927	6961
581.287	6987.9
581.648	6971.85
582.008	7018.4
582.368	6973.43
582.728	6975.01
583.089	6988.8
583.449	6970.04
583.809	6994.45
584.169	7020.66
584.529	6951.96
584.889	7064.96
585.249	7031.96
585.609	6972.08
585.969	7039.87
586.329	7045.29
586.688	7021.79
587.048	7022.24
587.408	7104.05
587.768	7022.7
588.127	7011.4
588.487	7002.81
588.846	7038.06
589.206	6998.29
589.565	7012.3
589.925	6985.64
590.284	7006.88
590.643	7065.63
591.003	7059.08
591.362	7093.43
591.721	7015.01
592.08	6995.35
592.44	7121.68
592.799	7019.53
593.158	7045.75
593.517	7042.81
593.876	7064.05
594.235	7020.66
594.593	7104.95
594.952	7080.55
595.311	7104.5
595.67	7103.6
596.029	7108.57
596.387	7149.25
596.746	7121.23
597.104	7128.46
597.463	7089.59
597.822	7138.85
598.18	7090.94
598.538	7029.93
598.897	7116.03
599.255	7085.75
599.613	7131.17
599.972	7134.33
600.33	7137.72
600.688	7135.24
601.046	7169.81
601.404	7159.87
601.762	7121.45
602.12	7161.22
602.478	7165.29
602.836	7155.8
603.194	7095.69
603.552	7099.53
603.91	7153.77
604.268	7156.93
604.625	7145.63
604.983	7211.62
605.341	7176.36
605.698	7191.28
606.056	7168.23
606.413	7191.28
606.771	7214.1
607.128	7237.15
607.485	7184.95
607.843	7247.55
608.2	7231.5
608.557	7210.26
608.914	7195.12
609.272	7301.56
609.629	7249.81
609.986	7230.6
610.343	7194.44
610.7	7370.71
611.057	7310.15
611.414	7271.96
611.771	7258.85
612.127	7321.67
612.484	7284.84
612.841	7325.97
613.198	7330.49
613.554	7325.06
613.911	7372.52
614.267	7329.13
614.624	7320.32
614.98	7406.19
615.337	7400.09
615.693	7383.37
616.05	7390.82
616.406	7430.82
616.762	7347.66
617.118	7382.46
617.475	7392.18
617.831	7342.46
618.187	7414.1
618.543	7414.78
618.899	7387.88
619.255	7439.18
619.611	7402.57
619.967	7356.47
620.323	7496.13
620.678	7396.25
621.034	7443.25
621.39	7398.28
621.746	7408.22
622.101	7488.67
622.457	7376.36
622.812	7472.63
623.168	7446.19
623.523	7400.31
623.879	7490.93
624.234	7401.44
624.589	7439.86
624.945	7472.18
625.3	7369.58
625.655	7425.62
626.01	7454.32
626.365	7393.76
626.72	7403.03
627.075	7373.65
627.43	7402.8
627.785	7382.24
628.14	7401.44
628.495	7412.29
628.85	7444.83
629.205	7366.87
629.559	7379.52
629.914	7368.22
630.269	7409.35
630.623	7260.2
630.978	7327.32
631.332	7368.45
631.687	7332.07
632.041	7302.46
632.396	7275.12
632.75	7270.6
633.104	7306.76
633.459	7314.89
633.813	7264.72
634.167	7281.9
634.521	7257.27
634.875	7280.54
635.229	7288.45
635.583	7181.79
635.937	7232.63
636.291	7186.76
636.645	7182.92
636.999	7190.6
637.352	7182.92
637.706	7066.76
638.06	7139.76
638.413	7083.71
638.767	7146.31
639.121	7157.16
639.474	7081.9
639.828	7129.81
640.181	7122.36
640.534	7176.82
640.888	7110.15
641.241	7071.96
641.594	7115.35
641.947	7068.8
642.301	7006.2
642.654	7056.59
643.007	7037.84
643.36	6986.54
643.713	6981.12
644.066	7025.41
644.419	6959.2
644.771	6960.33
645.124	6893.66
645.477	6909.71
645.83	6811.85
646.182	6752.65
646.535	6766.43
646.888	6838.52
647.24	6716.26
647.593	6807.79
647.945	6790.39
648.298	6759.2
648.65	6720.11
649.002	6701.58
649.355	6648.92
649.707	6708.35
650.059	6686.66
650.411	6749.71
650.763	6790.16
651.115	6855.7
651.467	6824.74
651.819	6876.94
652.171	6860.22
652.523	6849.59
652.875	6822.25
653.227	6819.99
653.578	6808.24
653.93	6816.6
654.282	6773.66
654.633	6731.63
654.985	6731.4
655.337	6782.03
655.688	6731.4
656.039	6763.27
656.391	6708.58
656.742	6709.71
657.094	6669.26
657.445	6696.38
657.796	6747.45
658.147	6647.11
658.498	6741.12
658.849	6742.03
659.2	6703.61
659.551	6668.36
659.902	6674.23
660.253	6688.24
660.604	6679.65
660.955	6620.45
661.306	6672.2
661.656	6606.66
662.007	6617.51
662.358	6617.51
662.708	6657.28
663.059	6585.42
663.409	6556.04
663.76	6659.99
664.11	6606.21
664.461	6648.92
664.811	6631.75
665.161	6578.87
665.511	6557.85
665.862	6621.35
666.212	6638.98
666.562	6633.1
666.912	6612.76
667.262	6572.99
667.612	6587.91
667.962	6528.25
668.312	6597.85
668.662	6572.99
669.011	6538.87
669.361	6549.26
669.711	6567.79
670.06	6524.63
670.41	6488.47
670.76	6478.08
671.109	6603.72
671.459	6513.33
671.808	6546.78
672.157	6522.6
672.507	6526.66
672.856	6494.12
673.205	6490.51
673.554	6528.25
673.904	6493.9
674.253	6483.28
674.602	6470.39
674.951	6400.79
675.3	6358.76
675.649	6478.08
675.998	6469.04
676.346	6474.46
676.695	6500
677.044	6432.2
677.393	6429.49
677.741	6467.01
678.09	6473.78
678.438	6442.6
678.787	6420.68
679.135	6447.8
679.484	6417.97
679.832	6424.52
680.181	6436.27
680.529	6417.29
680.877	6399.89
681.225	6311.53
681.573	6387.46
681.922	6340.68
682.27	6270.63
682.618	6266.11
682.966	6282.6
683.314	6308.59
683.661	6217.75
684.009	6298.2
684.357	6269.95
684.705	6259.1
685.053	6228.37
685.4	6288.25
685.748	6238.54
686.095	6214.13
686.443	6194.92
686.79	6210.29
687.138	6224.3
687.485	6219.33
687.832	6146.56
688.18	6157.41
688.527	6071.08
688.874	6108.82
689.221	6056.85
689.568	6038.77
689.915	6036.73
690.262	6016.4
690.609	6019.56
690.956	6043.74
691.303	6014.81
691.65	5978.43
691.997	6009.16
692.344	5955.83
692.69	5986.57
693.037	5993.8
693.383	5934.59
693.73	5936.85
694.077	5890.75
694.423	5868.6
694.769	5832.9
695.116	5842.61
695.462	5866.57
695.808	5828.15
696.155	5776.63
696.501	5719.45
696.847	5707.25
697.193	5674.71
697.539	5763.29
697.885	5676.52
698.231	5719
698.577	5683.75
698.923	5686.91
699.269	5711.09
699.614	5673.35
699.96	5671.09
700.306	5717.42
700.651	5630.64
700.997	5626.12
701.342	5609.4
701.688	5604.88
702.033	5552
702.379	5559.68
702.724	5493.02
703.069	5511.55
703.415	5433.36
703.76	5472
704.105	5469.97
704.45	5439.69
704.795	5414.38
705.14	5404.21
705.485	5425.9
705.83	5424.09
706.175	5469.74
706.52	5439.91
706.865	5459.12
707.209	5404.66
707.554	5419.58
707.899	5408.28
708.243	5365.11
708.588	5325.34
708.932	5266.81
709.277	5299.35
709.621	5304.78
709.966	5250.54
710.31	5245.34
710.654	5196.53
710.998	5178.45
711.342	5166.7
711.687	5148.4
712.031	5218.9
712.375	5166.25
712.719	5236.3
713.063	5197.43
713.407	5226.36
713.75	5225.23
714.094	5170.54
714.438	5163.99
714.782	5187.26
715.125	5109.07
715.469	5100.71
715.812	5055.52
716.156	5107.94
716.499	5016.87
716.843	5058.68
717.186	5007.16
717.53	5015.52
717.873	5017.1
718.216	4999.93
718.559	4951.56
718.902	4955.86
719.246	4924.45
719.589	5005.8
719.932	4960.38
720.275	4980.04
720.617	5019.36
720.96	5008.29
721.303	4927.61
721.646	4983.65
721.989	4929.19
722.331	4949.98
722.674	4906.14
723.016	4941.85
723.359	4872.02
723.701	4895.97
724.044	4885.13
724.386	4840.16
724.729	4796.77
725.071	4818.01
725.413	4807.61
725.755	4827.95
726.097	4830.89
726.439	4768.52
726.782	4816.2
727.124	4828.4
727.465	4820.72
727.807	4860.49
728.149	4822.98
728.491	4804.9
728.833	4851.91
729.175	4853.71
729.516	4781.4
729.858	4782.53
730.199	4772.13
730.541	4783.21
730.882	4720.61
731.224	4711.57
731.565	4707.96
731.906	4676.77
732.248	4650.56
732.589	4644.23
732.93	4651.23
733.271	4620.95
733.612	4596.77
733.953	4658.24
734.294	4669.31
734.635	4666.37
734.976	4705.24
735.317	4656.66
735.658	4683.32
735.999	4678.35
736.339	4682.42
736.68	4685.13
737.021	4664.34
737.361	4632.03
737.702	4667.28
738.042	4606.49
738.383	4573.5
738.723	4607.39
739.063	4554.74
739.404	4565.81
739.744	4481.75
740.084	4531.46
740.424	4543.89
740.764	4528.98
741.104	4540.05
741.444	4498.24
741.784	4526.04
742.124	4536.43
742.464	4536.89
742.804	4538.24
743.143	4476.1
743.483	4588.18
743.823	4480.39
744.162	4515.19
744.502	4501.18
744.841	4477.9
745.181	4481.97
745.52	4475.42
745.86	4518.58
746.199	4462.99
746.538	4445.82
746.877	4387.29
747.216	4409.88
747.556	4402.43
747.895	4398.36
748.234	4341.86
748.573	4343.9
748.911	4380.96
749.25	4340.96
749.589	4361.98
749.928	4388.42
750.267	4376.44
750.605	4378.02
750.944	4352.26
751.283	4347.06
751.621	4404.69
751.96	4338.25
752.298	4358.59
752.636	4355.87
752.975	4278.81
753.313	4300.96
753.651	4313.16
753.989	4311.58
754.327	4209.44
754.666	4207.18
755.004	4182.55
755.342	4231.13
755.679	4180.06
756.017	4171.47
756.355	4193.62
756.693	4163.56
757.031	4149.1
757.368	4108.65
757.706	4136.22
758.044	4156.11
758.381	4180.74
758.719	4146.84
759.056	4190.68
759.394	4171.7
759.731	4147.07
760.068	4126.05
760.405	4146.61
760.743	4121.76
761.08	4094.64
761.417	4104.58
761.754	4065.71
762.091	4043.57
762.428	3979.39
762.765	4001.76
763.102	4006.73
763.438	3942.78
763.775	3901.87
764.112	3928.31
764.449	3939.16
764.785	3891.03
765.122	3907.98
765.458	3884.93
765.795	3844.25
766.131	3870.01
766.467	3889.45
766.804	3889.22
767.14	3844.25
767.476	3882.89
767.812	3888.54
768.148	3866.17
768.485	3842.44
768.821	3822.78
769.157	3831.82
769.492	3796.57
769.828	3821.42
770.164	3785.04
770.5	3773.29
770.836	3737.81
771.171	3724.7
771.507	3722.22
771.842	3641.54
772.178	3651.49
772.513	3656.91
772.849	3651.94
773.184	3620.07
773.519	3667.76
773.855	3602.22
774.19	3576.23
774.525	3571.04
774.86	3628.66
775.195	3624.59
775.53	3616.91
775.865	3616.46
776.2	3542.79
776.535	3538.04
776.87	3569.45
777.205	3555.67
777.539	3518.83
777.874	3527.87
778.209	3527.2
778.543	3511.15
778.878	3462.11
779.212	3427.76
779.547	3445.84
779.881	3447.88
780.215	3412.4
780.55	3390.48
780.884	3376.69
781.218	3386.18
781.552	3343.25
781.886	3350.48
782.22	3310.48
782.554	3335.56
782.888	3302.34
783.222	3316.13
783.556	3306.18
783.889	3305.05
784.223	3307.09
784.557	3300.53
784.89	3321.78
785.224	3283.59
785.557	3288.11
785.891	3274.55
786.224	3286.07
786.558	3243.36
786.891	3234.1
787.224	3226.86
787.557	3198.16
787.891	3195.68
788.224	3167.66
788.557	3183.7
788.89	3157.71
789.223	3111.39
789.556	3077.26
789.888	3088.34
790.221	3087.66
790.554	3084.95
790.887	3057.6
791.219	3059.41
791.552	3033.65
791.884	3007.21
792.217	3034.1
792.549	3022.35
792.882	3057.83
793.214	3018.06
793.546	3033.42
793.879	3042.69
794.211	2986.42
794.543	3007.44
794.875	3002.01
795.207	3031.84
795.539	3004.72
795.871	3039.52
796.203	3025.51
796.535	2947.1
796.867	2914.1
797.198	2891.51
797.53	2929.47
797.862	2873.2
798.193	2878.17
798.525	2845.41
798.856	2870.72
799.188	2802.92
799.519	2823.49
799.85	2800.89
800.182	2809.02
800.513	2864.39
800.844	2802.47
801.175	2815.12
801.506	2839.76
801.837	2827.78
802.168	2851.05
802.499	2809.7
802.83	2818.97
803.161	2797.27
803.491	2799.53
803.822	2818.74
804.153	2794.79
804.483	2783.03
804.814	2755.69
805.145	2791.17
805.475	2776.71
805.805	2734.9
806.136	2717.95
806.466	2729.7
806.796	2715.69
807.126	2678.63
807.457	2662.36
807.787	2668.23
808.117	2655.13
808.447	2632.98
808.777	2651.06
809.107	2629.59
809.436	2615.81
809.766	2645.64
810.096	2618.52
810.426	2627.78
810.755	2612.64
811.085	2608.58
811.414	2614.9
811.744	2635.24
812.073	2619.87
812.403	2609.25
812.732	2598.86
813.061	2610.16
813.39	2585.75
813.719	2626.43
814.049	2616.26
814.378	2611.06
814.707	2540.55
815.036	2576.26
815.365	2551.85
815.693	2558.63
816.022	2517.5
816.351	2522.25
816.68	2498.52
817.008	2527
817.337	2479.77
817.665	2467.11
817.994	2457.39
818.322	2516.15
818.651	2472.99
818.979	2433.44
819.307	2486.77
819.636	2427.34
819.964	2454.91
820.292	2439.54
820.62	2462.36
820.948	2480.9
821.276	2454.46
821.604	2449.26
821.932	2494
822.259	2484.74
822.587	2499.88
822.915	2494.91
823.243	2514.34
823.57	2496.94
823.898	2442.48
824.225	2491.29
824.553	2464.62
824.88	2455.36
825.207	2444.29
825.535	2449.48
825.862	2456.49
826.189	2406.77
826.516	2403.16
826.843	2418.52
827.17	2445.42
827.497	2457.62
827.824	2410.61
828.151	2420.56
828.478	2429.82
828.805	2450.61
829.131	2424.85
829.458	2441.12
829.785	2432.08
830.111	2441.57
830.438	2484.28
830.764	2454.91
831.09	2452.42
831.417	2451.07
831.743	2474.79
832.069	2450.39
832.395	2470.95
832.722	2473.44
833.048	2449.48
833.374	2442.48
833.7	2439.09
834.026	2450.16
834.351	2422.82
834.677	2424.17
835.003	2436.83
835.329	2466.88
835.654	2420.11
835.98	2396.6
836.306	2371.29
836.631	2368.36
836.956	2363.84
837.282	2365.19
837.607	2371.75
837.932	2383.95
838.258	2343.05
838.583	2330.62
838.908	2344.85
839.233	2406.55
839.558	2362.48
839.883	2362.03
840.208	2348.02
840.533	2335.81
840.858	2354.8
841.182	2365.42
841.507	2347.79
841.832	2357.96
842.156	2331.52
842.481	2345.98
842.805	2354.34
843.13	2357.51
843.454	2352.31
843.778	2353.21
844.103	2327.45
844.427	2336.94
844.751	2331.97
845.075	2299.88
845.399	2318.64
845.723	2264.4
846.047	2287.23
846.371	2278.19
846.695	2259.66
847.019	2227.79
847.343	2259.21
847.666	2240.9
847.99	2196.61
848.313	2221.24
848.637	2190.51
848.96	2178.53
849.284	2171.3
849.607	2180.34
849.931	2203.84
850.254	2168.81
850.577	2154.58
850.9	2157.97
851.223	2147.57
851.546	2169.04
851.869	2171.75
852.192	2152.77
852.515	2153.9
852.838	2157.06
853.161	2153.67
853.483	2117.29
853.806	2117.29
854.129	2130.4
854.451	2112.54
854.774	2098.31
855.096	2100.79
855.419	2084.07
855.741	2096.5
856.063	2076.84
856.385	2050.4
856.708	2046.33
857.03	2068.25
857.352	2036.39
857.674	2049.27
857.996	2002.04
858.318	2010.85
858.64	2021.7
858.961	1999.78
859.283	1994.35
859.605	1995.26
859.926	1990.29
860.248	2011.76
860.57	1980.57
860.891	2013.56
861.212	2001.13
861.534	1994.35
861.855	1971.98
862.176	1997.07
862.498	2006.78
862.819	1990.96
863.14	1972.43
863.461	1986.67
863.782	1990.51
864.103	1967.01
864.424	2010.4
864.745	1974.92
865.065	1953.68
865.386	1991.19
865.707	1974.69
866.027	1940.8
866.348	1950.51
866.668	1964.98
866.989	1942.15
867.309	1908.03
867.63	1908.48
867.95	1917.52
868.27	1924.75
868.59	1922.49
868.91	1917.29
869.23	1913.68
869.55	1887.69
869.87	1902.83
870.19	1884.53
870.51	1906.22
870.83	1886.56
871.15	1906
871.469	1886.79
871.789	1894.02
872.109	1887.24
872.428	1908.93
872.748	1920.68
873.067	1887.24
873.386	1911.87
873.706	1901.7
874.025	1914.58
874.344	1870.74
874.663	1872.55
874.982	1904.87
875.301	1897.41
875.62	1890.63
875.939	1861.93
876.258	1897.18
876.577	1844.53
876.896	1863.96
877.214	1844.75
877.533	1859.44
877.852	1833.23
878.17	1876.84
878.489	1845.43
878.807	1833.91
879.125	1822.61
879.444	1821.48
879.762	1793.46
880.08	1833.68
880.398	1836.17
880.716	1831.42
881.034	1811.76
881.352	1805.66
881.67	1839.33
881.988	1812.21
882.306	1808.82
882.624	1774.47
882.941	1808.37
883.259	1795.49
883.577	1789.84
883.894	1803.62
884.212	1804.75
884.529	1786.22
884.846	1796.62
885.164	1829.61
885.481	1784.87
885.798	1782.83
886.115	1778.99
886.432	1802.49
886.75	1789.61
887.067	1757.98
887.383	1761.14
887.7	1765.43
888.017	1743.97
888.334	1761.59
888.651	1765.66
888.967	1744.64
889.284	1719.79
889.6	1724.98
889.917	1729.95
890.233	1725.43
890.55	1722.95
890.866	1759.33
891.182	1665.78
891.498	1734.7
891.815	1701.48
892.131	1703.51
892.447	1701.71
892.763	1675.27
893.079	1669.62
893.395	1687.7
893.71	1675.04
894.026	1671.2
894.342	1700.12
894.657	1663.52
894.973	1697.64
895.289	1659.22
895.604	1690.18
895.92	1673.91
896.235	1664.87
896.55	1639.34
896.865	1645.44
897.181	1635.49
897.496	1677.53
897.811	1626.68
898.126	1653.35
898.441	1605.44
898.756	1606.79
899.071	1599.79
899.386	1595.04
899.7	1607.25
900.015	1596.85
900.33	1615.83
900.644	1601.14
900.959	1602.5
901.273	1573.57
901.588	1551.43
901.902	1560.47
902.216	1549.62
902.531	1574.7
902.845	1526.57
903.159	1540.58
903.473	1563.18
903.787	1524.54
904.101	1520.92
904.415	1532.9
904.729	1542.39
905.042	1499
905.356	1503.52
905.67	1534.03
905.984	1529.73
906.297	1487.02
906.611	1513.69
906.924	1489.06
907.237	1489.73
907.551	1508.94
907.864	1510.3
908.177	1513.91
908.491	1523.18
908.804	1468.94
909.117	1501.03
909.43	1479.57
909.743	1463.07
910.056	1459.45
910.368	1441.15
910.681	1457.87
910.994	1437.08
911.307	1446.35
911.619	1428.04
911.932	1428.49
912.244	1416.52
912.557	1422.17
912.869	1435.5
913.181	1411.77
913.494	1409.28
913.806	1402.05
914.118	1408.83
914.43	1382.84
914.742	1342.39
915.054	1367.03
915.366	1363.41
915.678	1375.61
915.99	1372.45
916.302	1363.86
916.613	1375.39
916.925	1355.05
917.236	1353.24
917.548	1372.9
917.859	1343.52
918.171	1357.08
918.482	1327.93
918.794	1317.54
919.105	1329.74
919.416	1317.08
919.727	1342.62
920.038	1315.95
920.349	1318.21
920.66	1297.2
920.971	1316.86
921.282	1310.08
921.593	1308.5
921.903	1313.69
922.214	1279.12
922.525	1293.36
922.835	1288.16
923.146	1259.68
923.456	1292.45
923.767	1263.07
924.077	1279.8
924.387	1277.09
924.697	1236.86
925.008	1238.67
925.318	1226.92
925.628	1239.57
925.938	1229.18
926.248	1192.79
926.558	1250.42
926.867	1215.62
927.177	1229.63
927.487	1225.11
927.796	1210.87
928.106	1185.56
928.416	1200.93
928.725	1202.74
929.034	1202.06
929.344	1175.39
929.653	1173.58
929.962	1165.68
930.271	1178.78
930.581	1189.4
930.89	1173.13
931.199	1172
931.508	1190.08
931.817	1188.73
932.125	1166.13
932.434	1133.59
932.743	1153.47
933.051	1174.49
933.36	1139.01
933.669	1145.79
933.977	1143.3
934.286	1161.16
934.594	1135.17
934.902	1110.76
935.21	1144.21
935.519	1133.59
935.827	1117.54
936.135	1094.49
936.443	1099.91
936.751	1104.43
937.059	1090.88
937.367	1105.11
937.674	1101.27
937.982	1087.94
938.29	1088.16
938.597	1081.84
938.905	1082.97
939.213	1089.75
939.52	1096.52
939.827	1071.44
940.135	1073.47
940.442	1049.97
940.749	1070.31
941.056	1052.23
941.363	1024.89
941.67	1039.13
941.977	1072.34
942.284	1057.43
942.591	1054.94
942.898	1047.71
943.205	1045.23
943.511	1035.06
943.818	1024.66
944.125	1037.54
944.431	1033.25
944.738	1042.97
945.044	1001.84
945.35	1015.17
945.657	1019.69
945.963	991.44
946.269	1007.71
946.575	1011.33
946.881	979.01
947.187	1021.5
947.493	1003.65
947.799	998.9
948.105	1003.19
948.41	976.3
948.716	990.54
949.022	991.67
949.327	988.96
949.633	967.94
949.938	960.94
950.244	965
950.549	969.97
950.854	930.65
951.16	966.36
951.465	952.57
951.77	966.36
952.075	922.97
952.38	967.49
952.685	942.86
952.99	925.46
953.294	936.76
953.599	933.14
953.904	946.7
954.209	931.11
954.513	945.12
954.818	939.47
955.122	920.03
955.426	917.32
955.731	922.74
956.035	924.33
956.339	914.38
956.643	931.56
956.948	923.87
957.252	904.21
957.556	933.37
957.86	909.86
958.163	892.91
958.467	878.23
958.771	891.78
959.075	889.98
959.378	880.03
959.682	894.27
959.985	902.63
960.289	862.63
960.592	890.43
960.896	894.72
961.199	866.25
961.502	864.67
961.805	854.95
962.108	862.63
962.411	867.38
962.714	845.46
963.017	854.95
963.32	835.51
963.623	838.45
963.926	876.64
964.228	855.63
964.531	860.15
964.833	832.13
965.136	845.68
965.438	816.31
965.741	822.86
966.043	823.99
966.345	813.37
966.648	815.85
966.95	834.16
967.252	817.44
967.554	831.9
967.856	817.21
968.158	804.1
968.46	808.17
968.761	805.46
969.063	815.4
969.365	805.46
969.666	792.35
969.968	810.2
970.269	812.01
970.571	807.27
970.872	782.18
971.174	780.15
971.475	792.13
971.776	815.85
972.077	802.75
972.378	783.54
972.679	765.23
972.98	783.99
973.281	781.28
973.582	792.13
973.883	772.47
974.183	792.13
974.484	765.46
974.785	765.91
975.085	763.2
975.386	753.48
975.686	770.21
975.986	759.81
976.287	744.44
976.587	757.78
976.887	750.09
977.187	761.17
977.487	769.75
977.787	742.86
978.087	742.41
978.387	772.24
978.687	758.91
978.987	731.79
979.286	716.42
979.586	751.9
979.885	728.17
980.185	705.8
980.484	714.84
980.784	726.82
981.083	723.2
981.382	718.46
981.682	715.97
981.981	709.42
982.28	716.2
982.579	715.29
982.878	700.15
983.177	675.07
983.475	688.63
983.774	700.15
984.073	704.44
984.372	698.8
984.67	712.13
984.969	698.12
985.267	678.68
985.566	692.69
985.864	678.23
986.162	711.22
986.461	684.78
986.759	681.85
987.057	708.29
987.355	675.74
987.653	658.34
987.951	692.47
988.249	680.72
988.547	684.11
988.844	662.64
989.142	675.52
989.44	685.01
989.737	665.35
990.035	652.69
990.332	663.09
990.63	657.67
990.927	673.26
991.224	661.06
991.521	649.98
991.819	656.54
992.116	660.38
992.413	653.6
992.71	643.2
993.006	645.24
993.303	643.66
993.6	661.51
993.897	641.85
994.193	646.37
994.49	636.42
994.787	636.42
995.083	654.95
995.379	631.45
995.676	641.62
995.972	637.78
996.268	632.81
996.565	649.76
996.861	638.01
997.157	628.29
997.453	607.72
997.749	600.04
998.044	605.24
998.34	630.55
998.636	628.97
998.932	623.77
999.227	606.82
999.523	612.24
999.818	606.14
1000.114	597.33
1000.409	604.56
1000.704	592.58
1001	614.96
1001.295	612.02
1001.59	610.21
1001.885	611.11
1002.18	594.17
1002.475	622.41
1002.77	580.38
1003.065	616.99
1003.359	595.07
1003.654	598.91
1003.949	591.23
1004.243	598.46
1004.538	582.64
1004.832	577.89
1005.127	574.96
1005.421	585.35
1005.715	587.39
1006.009	585.8
1006.304	580.38
1006.598	566.82
1006.892	586.71
1007.186	543.77
1007.48	586.71
1007.773	564.79
1008.067	546.93
1008.361	555.75
1008.655	546.26
1008.948	546.03
1009.242	545.58
1009.535	555.3
1009.829	563.88
1010.122	538.8
1010.415	553.71
1010.708	545.8
1011.001	563.66
1011.295	538.12
1011.588	541.51
1011.881	553.26
1012.173	541.96
1012.466	524.79
1012.759	522.53
1013.052	536.77
1013.344	541.51
1013.637	538.35
1013.93	553.26
1014.222	525.01
1014.514	523.88
1014.807	539.93
1015.099	526.14
1015.391	508.97
1015.683	551.23
1015.976	513.49
1016.268	524.11
1016.56	504
1016.851	497.44
1017.143	518.46
1017.435	507.16
1017.727	510.1
1018.018	508.74
1018.31	504.9
1018.602	500.16
1018.893	506.26
1019.185	509.42
1019.476	522.3
1019.767	499.03
1020.058	486.82
1020.35	499.7
1020.641	491.12
1020.932	479.14
1021.223	500.16
1021.514	494.28
1021.804	466.48
1022.095	488.63
1022.386	481.85
1022.677	496.54
1022.967	475.3
1023.258	487.05
1023.548	492.92
1023.839	493.15
1024.129	476.43
1024.419	493.83
1024.709	490.44
1025	459.71
1025.29	468.07
1025.58	471.91
1025.87	460.16
1026.16	471.46
1026.449	458.8
1026.739	454.73
1027.029	467.61
1027.319	464.68
1027.608	456.09
1027.898	464.23
1028.187	451.12
1028.477	452.25
1028.766	448.63
1029.055	468.97
1029.344	454.06
1029.634	460.84
1029.923	458.35
1030.212	444.56
1030.501	456.77
1030.79	461.06
1031.078	461.51
1031.367	452.93
1031.656	445.69
1031.945	461.97
1032.233	434.85
1032.522	445.92
1032.81	426.26
1033.099	452.47
1033.387	445.47
1033.675	447.95
1033.963	458.8
1034.251	464
1034.54	423.1
1034.828	435.07
1035.116	420.16
1035.403	441.85
1035.691	456.99
1035.979	448.41
1036.267	428.29
1036.554	417.67
1036.842	442.08
1037.129	416.32
1037.417	426.94
1037.704	424.68
1037.992	432.14
1038.279	423.1
1038.566	427.16
1038.853	427.16
1039.14	427.16
