Data from foam1_polythene_foam_FLMS001491_00093.txt Node
Date: Wed Feb 08 10:55:39 GMT 2017
User: dcchb
Spectrometer: FLMS00149
Trigger mode: 0
Integration Time (sec): 2.000000E-2
Scans to average: 10
Electric dark correction enabled: true
Nonlinearity correction enabled: false
Boxcar width: 0
XAxis mode: Wavelengths
Number of Pixels in Spectrum: 2048
>>>>>Begin Spectral Data<<<<<
341.393	-4.55
341.776	-4.55
342.16	-4.55
342.543	-57.65
342.927	-75.73
343.31	-90.2
343.693	-78.67
344.077	-56.52
344.46	-47.71
344.843	-51.1
345.226	-33.25
345.61	-32.57
345.993	-9.07
346.376	-8.39
346.759	23.7
347.142	22.34
347.525	49.01
347.908	44.94
348.291	77.94
348.674	87.88
349.057	101.66
349.44	106.41
349.823	142.11
350.206	164.71
350.588	167.65
350.971	198.38
351.354	211.27
351.737	214.43
352.119	239.51
352.502	240.87
352.884	241.1
353.267	271.83
353.65	270.7
354.032	275.22
354.414	262.79
354.797	267.31
355.179	299.17
355.562	298.27
355.944	303.92
356.326	321.09
356.709	305.27
357.091	303.92
357.473	314.09
357.855	310.7
358.238	300.3
358.62	300.53
359.002	314.54
359.384	305.95
359.766	307.99
360.148	316.8
360.53	330.58
360.912	306.4
361.294	311.6
361.676	312.28
362.057	307.53
362.439	310.02
362.821	329.23
363.203	318.61
363.584	303.01
363.966	303.24
364.348	300.3
364.729	311.83
365.111	315.9
365.493	294.88
365.874	289.23
366.256	295.33
366.637	290.81
367.019	298.04
367.4	289.23
367.781	309.12
368.163	312.73
368.544	287.2
368.925	283.81
369.306	305.5
369.688	272.05
370.069	291.94
370.45	263.92
370.831	297.37
371.212	287.87
371.593	291.94
371.974	303.69
372.355	292.39
372.736	264.37
373.117	309.57
373.498	298.04
373.879	288.1
374.26	284.48
374.641	301.43
375.021	291.26
375.402	316.8
375.783	288.33
376.163	318.61
376.544	297.82
376.925	312.28
377.305	303.01
377.686	315.22
378.066	305.95
378.447	324.71
378.827	304.82
379.208	326.52
379.588	330.58
379.968	315.67
380.349	307.99
380.729	316.12
381.109	320.64
381.489	319.29
381.87	322.22
382.25	330.81
382.63	305.5
383.01	337.14
383.39	327.42
383.77	334.88
384.15	324.26
384.53	338.04
384.91	340.08
385.29	314.31
385.67	333.07
386.049	347.08
386.429	326.97
386.809	326.97
387.189	336.46
387.568	329.45
387.948	345.05
388.328	345.5
388.707	363.58
389.087	341.43
389.466	328.32
389.846	352.28
390.225	358.83
390.605	339.85
390.984	352.5
391.363	338.72
391.743	357.02
392.122	354.09
392.501	362
392.881	340.75
393.26	349.34
393.639	357.25
394.018	359.06
394.397	349.79
394.776	370.36
395.155	352.96
395.534	351.6
395.913	347.08
396.292	380.75
396.671	377.59
397.05	386.4
397.429	388.89
397.808	361.32
398.186	358.15
398.565	392.73
398.944	378.27
399.323	377.81
399.701	357.02
400.08	394.76
400.458	398.61
400.837	370.13
401.215	380.3
401.594	391.83
401.972	403.58
402.351	390.02
402.729	402
403.107	398.38
403.486	416.23
403.864	409.23
404.242	389.57
404.62	408.1
404.999	416.23
405.377	428.66
405.755	393.41
406.133	402
406.511	426.18
406.889	420.75
407.267	424.82
407.645	422.56
408.023	426.85
408.401	425.27
408.779	452.16
409.156	432.73
409.534	434.99
409.912	461.65
410.29	448.55
410.667	434.76
411.045	463.69
411.422	438.38
411.8	453.07
412.178	443.58
412.555	445.16
412.933	464.37
413.31	466.85
413.687	475.89
414.065	477.25
414.442	501.2
414.819	464.14
415.197	454.65
415.574	491.71
415.951	486.06
416.328	489
416.705	488.77
417.082	503.46
417.46	515.89
417.837	498.94
418.214	507.3
418.591	513.18
418.967	513.4
419.344	499.85
419.721	518.83
420.098	526.06
420.475	509.79
420.852	517.7
421.228	513.18
421.605	528.32
421.982	547.53
422.358	532.84
422.735	529
423.111	550.24
423.488	553.86
423.864	543.46
424.241	565.83
424.617	547.08
424.994	561.76
425.37	569.9
425.746	565.38
426.123	559.05
426.499	562.67
426.875	607.19
427.251	572.39
427.627	595.66
428.003	591.59
428.379	601.76
428.756	610.8
429.132	606.06
429.507	625.94
429.883	633.85
430.259	626.17
430.635	625.94
431.011	621.88
431.387	662.33
431.763	653.51
432.138	636.57
432.514	679.28
432.89	667.3
433.265	646.73
433.641	682.67
434.016	704.13
434.392	704.36
434.767	695.32
435.143	698.71
435.518	707.3
435.894	723.34
436.269	734.87
436.644	749.1
437.02	733.96
437.395	742.33
437.77	759.27
438.145	771.7
438.52	763.79
438.895	777.58
439.271	771.93
439.646	787.97
440.021	794.3
440.395	811.25
440.77	791.82
441.145	807.18
441.52	818.48
441.895	810.35
442.27	837.46
442.645	846.5
443.019	849.44
443.394	846.28
443.769	852.38
444.143	835.88
444.518	842.21
444.892	863.23
445.267	886.73
445.641	867.29
446.016	881.76
446.39	902.55
446.764	878.59
447.139	887.63
447.513	931.02
447.887	902.09
448.262	922.21
448.636	935.31
449.01	939.61
449.384	937.8
449.758	955.2
450.132	992.71
450.506	966.05
450.88	978.7
451.254	983.45
451.628	994.75
452.002	999.04
452.376	1015.76
452.75	1012.6
453.123	1018.02
453.497	1030.45
453.871	1015.09
454.244	1060.96
454.618	1022.09
454.992	1030.23
455.365	1053.28
455.739	1089.89
456.112	1071.36
456.486	1077.46
456.859	1101.41
457.232	1109.77
457.606	1110.9
457.979	1121.07
458.352	1131.69
458.725	1149.32
459.099	1178.47
459.472	1150.22
459.845	1159.26
460.218	1169.43
460.591	1181.86
460.964	1159.72
461.337	1206.95
461.71	1194.06
462.083	1222.54
462.456	1237.23
462.829	1218.47
463.201	1261.41
463.574	1258.92
463.947	1262.54
464.32	1269.77
464.692	1309.32
465.065	1306.15
465.438	1348.86
465.81	1334.85
466.183	1358.58
466.555	1359.03
466.928	1356.09
467.3	1368.3
467.672	1394.51
468.045	1426.15
468.417	1433.83
468.789	1423.89
469.161	1437
469.534	1472.25
469.906	1480.84
470.278	1488.52
470.65	1510.21
471.022	1521.97
471.394	1568.52
471.766	1573.94
472.138	1557.44
472.51	1614.84
472.882	1617.56
473.253	1631.57
473.625	1656.65
473.997	1649.19
474.369	1683.32
474.74	1696.65
475.112	1752.92
475.484	1776.2
475.855	1810.55
476.227	1786.82
476.598	1865.46
476.97	1836.08
477.341	1918.79
477.713	1881.73
478.084	1926.47
478.455	1970.32
478.827	1978.9
479.198	2001.5
479.569	2065.23
479.94	2080.6
480.311	2107.49
480.682	2145.9
481.053	2173.47
481.424	2178.67
481.795	2203.76
482.166	2228.39
482.537	2282.85
482.908	2331.21
483.279	2328.95
483.65	2344.77
484.021	2410.53
484.391	2455.27
484.762	2474.93
485.133	2468.16
485.503	2532.11
485.874	2528.94
486.244	2610.75
486.615	2653.69
486.985	2664.99
487.356	2650.52
487.726	2686.23
488.097	2785.66
488.467	2787.7
488.837	2855.94
489.207	2867.24
489.578	2889.84
489.948	2909.5
490.318	2957.63
490.688	2991.53
491.058	3049.61
491.428	3070.63
491.798	3111.98
492.168	3102.72
492.538	3163.28
492.908	3191.98
493.278	3240.11
493.648	3248.02
494.017	3294.8
494.387	3325.08
494.757	3309.04
495.126	3415.7
495.496	3390.39
495.866	3434.68
496.235	3463.61
496.605	3453.89
496.974	3502.7
497.344	3543.83
497.713	3577.5
498.082	3579.09
498.452	3641.23
498.821	3656.15
499.19	3656.6
499.559	3708.12
499.928	3715.58
500.298	3738.18
500.667	3777.27
501.036	3773.66
501.405	3796.71
501.774	3796.93
502.143	3862.47
502.512	3881.68
502.88	3916.48
503.249	3893.2
503.618	3975.46
503.987	3981.56
504.356	3999.64
504.724	4059.07
505.093	4073.99
505.462	4101.56
505.83	4156.7
506.199	4140.65
506.567	4168.45
506.936	4160.99
507.304	4221.78
507.672	4262.68
508.041	4267.43
508.409	4324.38
508.777	4384.72
509.145	4424.71
509.514	4404.38
509.882	4423.36
510.25	4450.48
510.618	4563.24
510.986	4500.19
511.354	4573.18
511.722	4586.07
512.09	4620.19
512.458	4642.56
512.826	4700.19
513.193	4719.4
513.561	4723.01
513.929	4818.15
514.297	4852.27
514.664	4847.08
515.032	4880.3
515.4	4893.4
515.767	4914.64
516.135	4991.93
516.502	4933.85
516.869	5042.78
517.237	5039.61
517.604	5047.75
517.972	5151.47
518.339	5181.08
518.706	5145.15
519.073	5212.26
519.44	5265.37
519.808	5290.68
520.175	5293.39
520.542	5361.64
520.909	5366.16
521.276	5405.03
521.643	5456.78
522.009	5513.73
522.376	5552.14
522.743	5612.93
523.11	5640.05
523.477	5680.5
523.843	5774.28
524.21	5738.35
524.577	5809.54
524.943	5790.55
525.31	5891.79
525.676	5996.88
526.043	6004.79
526.409	6033.94
526.776	6092.47
527.142	6070.32
527.508	6149.87
527.874	6205.23
528.241	6194.16
528.607	6211.56
528.973	6310.09
529.339	6266.25
529.705	6388.5
530.071	6373.59
530.437	6416.07
530.803	6471.67
531.169	6501.04
531.535	6499.46
531.901	6516.18
532.267	6635.28
532.632	6638.44
532.998	6636.41
533.364	6724.77
533.73	6749.17
534.095	6836.18
534.461	6780.81
534.826	6791.66
535.192	6899.45
535.557	6928.6
535.923	6875.72
536.288	6936.96
536.653	6957.53
537.019	6994.36
537.384	6992.33
537.749	7052.89
538.114	6990.52
538.479	7033.46
538.845	7110.97
539.21	7149.84
539.575	7212.44
539.94	7240.46
540.305	7218.54
540.67	7264.41
541.034	7304.41
541.399	7323.85
541.764	7315.26
542.129	7394.81
542.494	7405.65
542.858	7420.57
543.223	7422.83
543.587	7470.74
543.952	7474.35
544.316	7459.44
544.681	7492.88
545.045	7552.32
545.41	7688.81
545.774	7670.5
546.138	7650.39
546.503	7696.72
546.867	7635.93
547.231	7752.54
547.595	7759.09
547.959	7805.87
548.324	7785.76
548.688	7845.42
549.052	7925.64
549.416	7868.92
549.779	7873.66
550.143	7868.01
550.507	7969.25
550.871	8022.13
551.235	8032.53
551.599	8119.76
551.962	8132.87
552.326	8097.16
552.689	8153.2
553.053	8102.81
553.417	8174.22
553.78	8315.01
554.143	8315.91
554.507	8344.61
554.87	8326.08
555.234	8421.22
555.597	8366.53
555.96	8335.35
556.323	8439.07
556.686	8470.03
557.05	8548.67
557.413	8630.48
557.776	8617.6
558.139	8624.38
558.502	8736.24
558.865	8686.3
559.228	8749.35
559.59	8782.79
559.953	8877.7
560.316	8851.49
560.679	8947.76
561.041	8959.28
561.404	8999.06
561.767	9048.55
562.129	9002.22
562.492	9144.82
562.854	9117.92
563.217	9123.57
563.579	9221.88
563.941	9217.36
564.304	9367.86
564.666	9321.99
565.028	9233.4
565.39	9356.11
565.753	9361.08
566.115	9470.01
566.477	9540.29
566.839	9591.36
567.201	9668.87
567.563	9634.75
567.925	9687.85
568.287	9665.48
568.648	9699.38
569.01	9754.74
569.372	9819.83
569.734	9784.35
570.095	9939.82
570.457	9884.01
570.819	9940.05
571.18	9971.23
571.542	10001.06
571.903	9961.97
572.265	10024.11
572.626	10035.87
572.987	10024.11
573.349	10195.64
573.71	10169.2
574.071	10260.94
574.432	10237.44
574.794	10291.23
575.155	10286.03
575.516	10257.56
575.877	10335.97
576.238	10272.24
576.599	10394.5
576.96	10412.58
577.32	10484.22
577.681	10487.15
578.042	10476.53
578.403	10410.77
578.763	10422.3
579.124	10510.43
579.485	10502.07
579.845	10567.38
580.206	10611.9
580.566	10527.83
580.927	10585.91
581.287	10579.13
581.648	10530.99
582.008	10586.13
582.368	10537.1
582.728	10666.58
583.089	10594.04
583.449	10688.5
583.809	10666.58
584.169	10668.17
584.529	10651.22
584.889	10729.63
585.249	10630.43
585.609	10587.04
585.969	10681.27
586.329	10583.2
586.688	10711.55
587.048	10643.53
587.408	10639.01
587.768	10640.37
588.127	10649.18
588.487	10648.05
588.846	10610.54
589.206	10610.31
589.565	10687.37
589.925	10692.57
590.284	10637.21
590.643	10768.28
591.003	10788.84
591.362	10761.04
591.721	10760.14
592.08	10746.13
592.44	10713.36
592.799	10685.34
593.158	10686.24
593.517	10682.4
593.876	10732.12
594.235	10750.42
594.593	10783.87
594.952	10758.56
595.311	10727.83
595.67	10709.75
596.029	10756.75
596.387	10743.87
596.746	10846.01
597.104	10760.59
597.463	10799.46
597.822	10815.51
598.18	10877.43
598.538	10839.23
598.897	10880.82
599.255	10753.36
599.613	10915.62
599.972	10807.82
600.33	10800.59
600.688	10852.57
601.046	10858.44
601.404	10944.32
601.762	10902.28
602.12	10967.59
602.478	10914.49
602.836	10875.62
603.194	10865.45
603.552	10839.23
603.91	10806.69
604.268	10860.7
604.625	10871.55
604.983	10937.99
605.341	10957.2
605.698	10951.1
606.056	10973.24
606.413	11002.39
606.771	11036.07
607.128	10964.2
607.485	10951.77
607.843	11006.24
608.2	11012.56
608.557	11110.64
608.914	11079.23
609.272	11058.44
609.629	11123.07
609.986	11091.66
610.343	11081.49
610.7	11090.53
611.057	11208.04
611.414	11126.91
611.771	11140.47
612.127	11155.84
612.484	11194.71
612.841	11222.73
613.198	11171.2
613.554	11208.04
613.911	11230.64
614.267	11248.26
614.624	11268.15
614.98	11251.88
615.337	11316.06
615.693	11188.6
616.05	11222.95
616.406	11320.35
616.762	11289.62
617.118	11301.82
617.475	11276.06
617.831	11313.57
618.187	11318.32
618.543	11364.87
618.899	11389.95
619.255	11333.01
619.611	11330.75
619.967	11398.54
620.323	11410.07
620.678	11390.63
621.034	11363.06
621.39	11330.75
621.746	11426.56
622.101	11462.27
622.457	11311.09
622.812	11393.34
623.168	11396.96
623.523	11304.76
623.879	11443.06
624.234	11313.57
624.589	11414.36
624.945	11345.21
625.3	11307.92
625.655	11434.47
626.01	11344.76
626.365	11358.32
626.72	11392.44
627.075	11300.47
627.43	11295.49
627.785	11297.98
628.14	11355.61
628.495	11408.49
628.85	11437.86
629.205	11330.3
629.559	11433.34
629.914	11297.75
630.269	11326.23
630.623	11191.99
630.978	11200.13
631.332	11222.95
631.687	11257.75
632.041	11131.88
632.396	11200.13
632.75	11112.9
633.104	11163.97
633.459	11149.51
633.813	11096.4
634.167	11169.85
634.521	11146.12
634.875	11126.23
635.229	11108.15
635.583	11109.06
635.937	11036.29
636.291	11053.92
636.645	11024.31
636.999	11058.44
637.352	11004.65
637.706	11016.86
638.06	11079.23
638.413	11010.53
638.767	10943.19
639.121	10956.97
639.474	10890.53
639.828	10847.37
640.181	10887.82
640.534	10906.35
640.888	10868.16
641.241	10813.02
641.594	10825.9
641.947	10939.57
642.301	10821.38
642.654	10794.94
643.007	10755.85
643.36	10789.07
643.713	10657.54
644.066	10801.27
644.419	10782.06
644.771	10668.39
645.124	10720.82
645.477	10570.09
645.83	10566.25
646.182	10469.98
646.535	10363.32
646.888	10378.46
647.24	10383.88
647.593	10402.18
647.945	10393.6
648.298	10386.82
648.65	10394.5
649.002	10313.82
649.355	10369.19
649.707	10381.85
650.059	10317.89
650.411	10418.68
650.763	10443.54
651.115	10519.47
651.467	10584.33
651.819	10491.9
652.171	10470.2
652.523	10442.41
652.875	10378.23
653.227	10373.26
653.578	10512.92
653.93	10418.91
654.282	10378.91
654.633	10359.02
654.985	10390.21
655.337	10380.49
655.688	10382.98
656.039	10408.29
656.391	10273.83
656.742	10378.91
657.094	10306.37
657.445	10299.59
657.796	10353.82
658.147	10292.13
658.498	10299.36
658.849	10273.83
659.2	10368.51
659.551	10257.56
659.902	10329.87
660.253	10308.18
660.604	10281.28
660.955	10242.41
661.306	10263.43
661.656	10234.96
662.007	10307.95
662.358	10272.7
662.708	10316.54
663.059	10218.01
663.409	10203.32
663.76	10262.53
664.11	10225.01
664.461	10135.52
664.811	10161.96
665.161	10133.26
665.511	10084.68
665.862	10197.22
666.212	10180.04
666.562	10241.28
666.912	10155.41
667.262	10122.19
667.612	10103.89
667.962	10179.14
668.312	10167.39
668.662	10153.38
669.011	10112.93
669.361	10141.63
669.711	10098.01
670.06	10083.32
670.41	10083.32
670.76	10041.52
671.109	10131.68
671.459	10080.61
671.808	10054.85
672.157	10094.85
672.507	10098.69
672.856	10030.22
673.205	10049.88
673.554	10079.93
673.904	9991.12
674.253	10079.71
674.602	9986.6
674.951	9859.37
675.3	9875.64
675.649	9996.55
675.998	9980.05
676.346	9979.37
676.695	9953.16
677.044	9849.88
677.393	9977.56
677.741	9989.31
678.09	9954.29
678.438	9896.89
678.787	9891.92
679.135	9858.47
679.484	9788.19
679.832	9782.31
680.181	9811.47
680.529	9806.72
680.877	9855.98
681.225	9751.13
681.573	9860.5
681.922	9803.78
682.27	9821.18
682.618	9818.02
682.966	9757.46
683.314	9826.83
683.661	9704.35
684.009	9649.44
684.357	9594.97
684.705	9663.67
685.053	9657.34
685.4	9611.7
685.748	9565.14
686.095	9605.59
686.443	9530.12
686.79	9600.4
687.138	9573.51
687.485	9560.4
687.832	9571.02
688.18	9490.12
688.527	9491.02
688.874	9457.35
689.221	9339.16
689.568	9397.69
689.915	9349.56
690.262	9359.05
690.609	9319.05
690.956	9336.68
691.303	9254.87
691.65	9260.52
691.997	9300.29
692.344	9230.69
692.69	9229.11
693.037	9190.01
693.383	9102.33
693.73	9196.57
694.077	9008.1
694.423	9023.24
694.769	9020.98
695.116	9057.13
695.462	9004.25
695.808	8975.55
696.155	9020.75
696.501	8936.69
696.847	8983.46
697.193	8896.01
697.539	8938.49
697.885	8844.26
698.231	8815.79
698.577	8816.92
698.923	8745.5
699.269	8660.99
699.614	8687.65
699.96	8643.81
700.306	8639.29
700.651	8602.01
700.997	8616.02
701.342	8646.75
701.688	8659.18
702.033	8582.12
702.379	8581.44
702.724	8532.18
703.069	8558.62
703.415	8450.37
703.76	8414.21
704.105	8413.31
704.45	8459.41
704.795	8381.45
705.14	8339.41
705.485	8366.08
705.83	8337.38
706.175	8367.44
706.52	8326.08
706.865	8255.57
707.209	8306.87
707.554	8293.31
707.899	8234.11
708.243	8169.25
708.588	8180.55
708.932	8184.62
709.277	8147.55
709.621	8135.58
709.966	8138.97
710.31	8081.34
710.654	7981
710.998	8042.02
711.342	8031.17
711.687	8007.44
712.031	7981.46
712.375	7978.07
712.719	8029.59
713.063	7967.22
713.407	7942.81
713.75	7913.21
714.094	7882.7
714.438	7805.19
714.782	7845.42
715.125	7800.9
715.469	7785.08
715.812	7801.8
716.156	7748.02
716.499	7804.96
716.843	7805.19
717.186	7726.32
717.53	7821.46
717.873	7823.04
718.216	7727.45
718.559	7691.52
718.902	7675.93
719.246	7662.14
719.589	7595.93
719.932	7606.1
720.275	7609.94
720.617	7589.83
720.96	7634.8
721.303	7561.81
721.646	7582.37
721.989	7583.05
722.331	7598.19
722.674	7594.12
723.016	7566.78
723.359	7526.1
723.701	7530.85
724.044	7478.42
724.386	7447.01
724.729	7421.47
725.071	7497.63
725.413	7493.11
725.755	7374.69
726.097	7395.48
726.439	7383.73
726.782	7401.81
727.124	7355.26
727.465	7322.72
727.807	7347.12
728.149	7300.12
728.491	7312.77
728.833	7237.3
729.175	7353
729.516	7249.95
729.858	7282.94
730.199	7287.24
730.541	7218.09
730.882	7199.78
731.224	7286.33
731.565	7236.84
731.906	7191.87
732.248	7243.4
732.589	7165.89
732.93	7100.58
733.271	7171.31
733.612	7146.22
733.953	7145.32
734.294	7186
734.635	7155.26
734.976	7168.82
735.317	7071.2
735.658	7119.56
735.999	7096.96
736.339	7021.03
736.68	7037.3
737.021	7039.56
737.361	6993.01
737.702	7040.24
738.042	7034.82
738.383	6990.3
738.723	7016.51
739.063	6979.22
739.404	6998.21
739.744	6981.71
740.084	6987.58
740.424	6990.75
740.764	6958.88
741.104	6967.47
741.444	6908.04
741.784	6877.98
742.124	6931.54
742.464	6899.45
742.804	6884.54
743.143	6772
743.483	6879.56
743.823	6754.82
744.162	6830.3
744.502	6836.63
744.841	6781.49
745.181	6790.3
745.52	6829.17
745.86	6747.14
746.199	6768.16
746.538	6723.64
746.877	6760.92
747.216	6747.59
747.556	6760.02
747.895	6706.69
748.234	6702.17
748.573	6674.15
748.911	6682.51
749.25	6705.11
749.589	6634.37
749.928	6651.77
750.267	6650.64
750.605	6614.26
750.944	6605.22
751.283	6610.65
751.621	6584.43
751.96	6601.15
752.298	6560.03
752.636	6593.7
752.975	6579.23
753.313	6519.8
753.651	6479.58
753.989	6469.41
754.327	6461.27
754.666	6398.9
755.004	6430.99
755.342	6383.31
755.679	6404.78
756.017	6414.94
756.355	6385.79
756.693	6364.55
757.031	6337.66
757.368	6307.83
757.706	6367.71
758.044	6341.95
758.381	6293.82
758.719	6302.63
759.056	6325
759.394	6266.25
759.731	6208.4
760.068	6199.58
760.405	6231.22
760.743	6172.24
761.08	6164.33
761.417	6109.87
761.754	6101.05
762.091	6029.64
762.428	6089.98
762.765	6073.94
763.102	6099.92
763.438	6031.9
763.775	6015.18
764.112	6070.09
764.449	6083.65
764.785	6021.06
765.122	5973.37
765.458	5928.4
765.795	5932.25
766.131	5908.74
766.467	5892.25
766.804	5864
767.14	5789.65
767.476	5853.38
767.812	5787.84
768.148	5818.35
768.485	5720.73
768.821	5730.89
769.157	5763.89
769.492	5775.87
769.828	5761.85
770.164	5714.4
770.5	5700.16
770.836	5737.22
771.171	5664.23
771.507	5613.61
771.842	5622.42
772.178	5587.85
772.513	5582.42
772.849	5579.94
773.184	5537.91
773.519	5537.23
773.855	5478.47
774.19	5477.57
774.525	5479.15
774.86	5462.2
775.195	5391.92
775.53	5378.81
775.865	5400.96
776.2	5341.53
776.535	5352.15
776.87	5325.71
777.205	5324.13
777.539	5300.62
777.874	5294.75
778.209	5245.03
778.543	5232.6
778.878	5207.97
779.212	5239.38
779.547	5137.69
779.881	5184.69
780.215	5148.08
780.55	5120.74
780.884	5066.28
781.218	5102.21
781.552	5079.16
781.886	5064.25
782.22	5070.35
782.554	5057.92
782.888	5044.13
783.222	4984.25
783.556	5021.31
783.889	5011.59
784.223	4911.03
784.557	4948.99
784.89	4958.26
785.224	4891.14
785.557	4861.99
785.891	4868.54
786.224	4843.46
786.558	4844.59
786.891	4793.74
787.224	4783.12
787.557	4729.56
787.891	4765.5
788.224	4778.38
788.557	4772.73
788.89	4758.49
789.223	4711.26
789.556	4735.67
789.888	4755.33
790.221	4718.49
790.554	4651.15
790.887	4623.35
791.219	4625.61
791.552	4577.25
791.884	4550.13
792.217	4526.63
792.549	4562.79
792.882	4487.09
793.214	4438.27
793.546	4514.2
793.879	4497.48
794.211	4477.59
794.543	4478.95
794.875	4458.16
795.207	4514.66
795.539	4468.1
795.871	4438.27
796.203	4402.12
796.535	4379.97
796.867	4371.61
797.198	4368.44
797.53	4416.8
797.862	4337.71
798.193	4337.26
798.525	4331.16
798.856	4278.73
799.188	4238.73
799.519	4246.41
799.85	4189.01
800.182	4233.08
800.513	4258.84
800.844	4216.36
801.175	4236.92
801.506	4226.53
801.837	4228.34
802.168	4194.44
802.499	4196.25
802.83	4197.6
803.161	4184.49
803.491	4179.52
803.822	4170.03
804.153	4098.4
804.483	4111.05
804.814	4053.2
805.145	4114.89
805.475	4128.45
805.805	4022.92
806.136	4015.69
806.466	4030.37
806.796	4001.22
807.126	3999.41
807.457	3976.36
807.787	3958.29
808.117	3985.4
808.447	3939.3
808.777	3986.31
809.107	3959.19
809.436	3922.81
809.766	3961.68
810.096	3970.26
810.426	3916.48
810.755	3986.08
811.085	3927.33
811.414	3873.32
811.744	3868.8
812.073	3855.69
812.403	3858.4
812.732	3850.72
813.061	3810.27
813.39	3805.97
813.719	3747.44
814.049	3758.29
814.378	3802.58
814.707	3776.6
815.036	3761.91
815.365	3822.02
815.693	3768.23
816.022	3756.94
816.351	3748.8
816.68	3750.83
817.008	3760.78
817.337	3709.7
817.665	3734.79
817.994	3721.23
818.322	3684.62
818.651	3706.09
818.979	3684.39
819.307	3650.5
819.636	3618.18
819.964	3595.13
820.292	3621.57
820.62	3630.84
820.948	3649.59
821.276	3638.52
821.604	3619.76
821.932	3646.43
822.259	3662.47
822.587	3650.27
822.915	3596.71
823.243	3683.26
823.57	3643.94
823.898	3666.32
824.225	3665.86
824.553	3639.65
824.88	3641.01
825.207	3698.41
825.535	3651.85
825.862	3673.55
826.189	3595.36
826.516	3608.92
826.843	3634.23
827.17	3607.56
827.497	3577.96
827.824	3584.28
828.151	3593.1
828.478	3648.24
828.805	3655.47
829.131	3605.53
829.458	3591.97
829.785	3607.56
830.111	3608.69
830.438	3592.87
830.764	3689.59
831.09	3648.92
831.417	3632.42
831.743	3629.71
832.069	3605.53
832.395	3600.1
832.722	3569.82
833.048	3574.79
833.374	3575.7
833.7	3561.23
834.026	3590.16
834.351	3581.12
834.677	3548.35
835.003	3567.34
835.329	3525.98
835.654	3548.8
835.98	3570.05
836.306	3544.29
836.631	3535.7
836.956	3575.7
837.282	3631.74
837.607	3579.76
837.932	3565.53
838.258	3542.25
838.583	3542.03
838.908	3485.98
839.233	3587.9
839.558	3532.99
839.883	3493.67
840.208	3490.28
840.533	3491.18
840.858	3414.35
841.182	3446.89
841.507	3449.15
841.832	3427.23
842.156	3452.99
842.481	3413.89
842.805	3430.16
843.13	3422.93
843.454	3417.73
843.778	3392.65
844.103	3401.46
844.427	3414.57
844.751	3412.31
845.075	3437.17
845.399	3418.41
845.723	3390.62
846.047	3359.21
846.371	3382.71
846.695	3371.41
847.019	3362.82
847.343	3322.14
847.666	3273.56
847.99	3281.69
848.313	3271.07
848.637	3270.17
848.96	3192.66
849.284	3217.97
849.607	3205.09
849.931	3195.82
850.254	3172.77
850.577	3169.15
850.9	3198.76
851.223	3171.41
851.546	3201.47
851.869	3181.81
852.192	3165.76
852.515	3149.27
852.838	3143.62
853.161	3129.38
853.483	3113.79
853.806	3084.18
854.129	3111.08
854.451	3114.69
854.774	3103.62
855.096	3056.16
855.419	3059.55
855.741	3033.56
856.063	2990.4
856.385	2998.31
856.708	2972.32
857.03	2986.33
857.352	2950.63
857.674	2977.97
857.996	2958.09
858.318	2942.49
858.64	2983.4
858.961	2951.76
859.283	2931.42
859.605	2899.33
859.926	2970.74
860.248	2926
860.57	2944.98
860.891	2948.59
861.212	2931.87
861.534	2924.87
861.855	2895.04
862.176	2881.25
862.498	2876.96
862.819	2864.76
863.14	2863.17
863.461	2855.49
863.782	2854.13
864.103	2881.93
864.424	2870.4
864.745	2833.8
865.065	2838.32
865.386	2777.53
865.707	2803.29
866.027	2836.28
866.348	2840.58
866.668	2841.7
866.989	2818.65
867.309	2842.61
867.63	2812.78
867.95	2783.4
868.27	2818.65
868.59	2809.39
868.91	2771.42
869.23	2804.19
869.55	2751.76
869.87	2806
870.19	2774.36
870.51	2769.16
870.83	2749.28
871.15	2740.24
871.469	2743.18
871.789	2736.85
872.109	2723.06
872.428	2696.4
872.748	2713.57
873.067	2751.99
873.386	2733.46
873.706	2726.91
874.025	2716.51
874.344	2704.53
874.663	2737.3
874.982	2711.99
875.301	2717.87
875.62	2729.84
875.939	2689.17
876.258	2702.05
876.577	2689.17
876.896	2736.62
877.214	2680.35
877.533	2664.31
877.852	2705.44
878.17	2691.43
878.489	2676.96
878.807	2684.19
879.125	2658.21
879.444	2620.47
879.762	2649.85
880.08	2672.67
880.398	2637.87
880.716	2611.88
881.034	2596.97
881.352	2640.58
881.67	2607.13
881.988	2598.55
882.306	2625.89
882.624	2627.25
882.941	2615.04
883.259	2616.63
883.577	2607.59
883.894	2590.86
884.212	2587.25
884.529	2596.74
884.846	2547.48
885.164	2560.36
885.481	2573.69
885.798	2594.93
886.115	2563.97
886.432	2534.37
886.75	2534.82
887.067	2529.85
887.383	2512.45
887.7	2530.75
888.017	2508.38
888.334	2501.37
888.651	2491.66
888.967	2477.65
889.284	2506.12
889.6	2498.44
889.917	2470.42
890.233	2479.45
890.55	2480.81
890.866	2457.31
891.182	2467.93
891.498	2440.36
891.815	2479.68
892.131	2479.45
892.447	2447.14
892.763	2431.77
893.079	2410.98
893.395	2448.95
893.71	2464.31
894.026	2426.12
894.342	2432.9
894.657	2389.74
894.973	2364.2
895.289	2383.19
895.604	2390.87
895.92	2370.76
896.235	2364.66
896.55	2401.94
896.865	2331.44
897.181	2317.42
897.496	2352.68
897.811	2310.65
898.126	2317.2
898.441	2323.53
898.756	2282.85
899.071	2295.96
899.386	2297.09
899.7	2301.15
900.015	2289.63
900.33	2302.51
900.644	2286.24
900.959	2295.96
901.273	2259.35
901.588	2256.86
901.902	2258.22
902.216	2239.69
902.531	2234.94
902.845	2227.26
903.159	2236.52
903.473	2206.47
903.787	2202.63
904.101	2207.82
904.415	2171.89
904.729	2152.91
905.042	2156.75
905.356	2141.38
905.67	2145
905.984	2147.03
906.297	2127.37
906.611	2153.59
906.924	2133.47
907.237	2126.7
907.551	2106.36
907.864	2084.21
908.177	2146.36
908.491	2090.99
908.804	2101.61
909.117	2076.75
909.43	2063.65
909.743	2101.16
910.056	2080.6
910.368	2059.35
910.681	2055.51
910.994	2055.51
911.307	2040.6
911.619	2024.55
911.932	2034.95
912.244	2012.57
912.557	2017.55
912.869	2008.96
913.181	2008.73
913.494	1989.3
913.806	1971.67
914.118	1952.46
914.43	1956.08
914.742	1918.79
915.054	1940.26
915.366	1927.38
915.678	1933.48
915.99	1902.07
916.302	1899.13
916.613	1874.5
916.925	1903.65
917.236	1916.76
917.548	1900.26
917.859	1895.06
918.171	1909.53
918.482	1916.76
918.794	1880.15
919.105	1861.84
919.416	1886.48
919.727	1870.21
920.038	1851.22
920.349	1857.1
920.66	1841.28
920.971	1848.06
921.282	1848.06
921.593	1810.32
921.903	1771
922.214	1806.03
922.525	1808.29
922.835	1777.1
923.146	1760.83
923.456	1751.79
923.767	1756.76
924.077	1790.89
924.387	1743.88
924.697	1722.64
925.008	1729.87
925.318	1737.78
925.628	1721.28
925.938	1721.06
926.248	1733.94
926.558	1724.45
926.867	1687.61
927.177	1714.5
927.487	1693.26
927.796	1687.39
928.106	1695.07
928.416	1703.88
928.725	1662.3
929.034	1652.58
929.344	1681.74
929.653	1675.86
929.962	1620.49
930.271	1623.21
930.581	1611.45
930.89	1613.04
931.199	1609.42
931.508	1622.08
931.817	1582.53
932.125	1603.09
932.434	1584.34
932.743	1585.92
933.051	1595.86
933.36	1604.22
933.669	1570.78
933.977	1563.55
934.286	1584.79
934.594	1577.78
934.902	1534.17
935.21	1529.88
935.519	1555.19
935.827	1575.75
936.135	1573.04
936.443	1524.68
936.751	1563.09
937.059	1530.78
937.367	1504.11
937.674	1510.44
937.982	1536.65
938.29	1486.03
938.597	1511.34
938.905	1470.89
939.213	1479.71
939.52	1467.05
939.827	1479.03
940.135	1454.62
940.442	1440.39
940.749	1453.94
941.056	1437.9
941.363	1457.56
941.67	1434.28
941.977	1417.34
942.284	1394.51
942.591	1409.43
942.898	1413.27
943.205	1413.27
943.511	1384.12
943.818	1390.67
944.125	1391.12
944.431	1397.9
944.738	1376.88
945.044	1388.64
945.35	1384.12
945.657	1385.7
945.963	1374.62
946.269	1371.01
946.575	1399.93
946.881	1348.64
947.187	1362.87
947.493	1351.35
947.799	1345.25
948.105	1355.19
948.41	1337.34
948.716	1326.04
949.022	1336.89
949.327	1310.45
949.633	1316.32
949.938	1314.29
950.244	1333.95
950.549	1301.41
950.854	1310.45
951.16	1293.5
951.465	1288.07
951.77	1279.94
952.075	1266.38
952.38	1255.53
952.685	1246.72
952.99	1251.69
953.294	1257.34
953.599	1283.1
953.904	1280.62
954.209	1249.2
954.513	1250.11
954.818	1230.9
955.122	1266.15
955.426	1246.49
955.731	1236.1
956.035	1240.62
956.339	1232.48
956.643	1227.28
956.948	1227.28
957.252	1224.12
957.556	1230.67
957.86	1241.97
958.163	1211.69
958.467	1192.26
958.771	1171.69
959.075	1185.7
959.378	1167.4
959.682	1167.4
959.985	1138.7
960.289	1158.36
960.592	1161.75
960.896	1153.61
961.199	1154.97
961.502	1141.86
961.805	1147.51
962.108	1144.12
962.411	1137.12
962.714	1146.16
963.017	1135.54
963.32	1154.74
963.623	1124.01
963.926	1151.58
964.228	1133.05
964.531	1106.38
964.833	1107.74
965.136	1115.65
965.438	1110.9
965.741	1105.48
966.043	1135.54
966.345	1102.32
966.648	1117
966.95	1065.03
967.252	1069.32
967.554	1078.59
967.856	1098.25
968.158	1075.42
968.46	1085.59
968.761	1047.85
969.063	1054.86
969.365	1048.76
969.666	1040.17
969.968	1026.61
970.269	1060.06
970.571	1033.62
970.872	1039.27
971.174	1017.12
971.475	1046.05
971.776	1014.18
972.077	1052.37
972.378	1023.9
972.679	1028.42
972.98	1021.19
973.281	1027.29
973.582	1023
973.883	995.43
974.183	1023.9
974.484	995.65
974.785	979.83
975.085	1011.92
975.386	984.35
975.686	999.72
975.986	983.9
976.287	950.68
976.587	975.31
976.887	994.07
977.187	957.23
977.487	986.84
977.787	979.16
978.087	949.1
978.387	964.47
978.687	951.59
978.987	960.62
979.286	940.51
979.586	936.22
979.885	930.12
980.185	927.18
980.484	931.25
980.784	921.98
981.083	935.54
981.382	932.83
981.682	917.01
981.981	925.37
982.28	922.21
982.579	917.24
982.878	912.94
983.177	927.18
983.475	908.42
983.774	903.45
984.073	900.29
984.372	914.07
984.67	894.64
984.969	895.32
985.267	886.5
985.566	878.14
985.864	885.6
986.162	888.76
986.461	881.3
986.759	868.65
987.057	876.11
987.355	876.11
987.653	865.49
987.951	860.97
988.249	862.1
988.547	843.34
988.844	853.73
989.142	864.13
989.44	831.59
989.737	815.54
990.035	842.44
990.332	832.72
990.63	838.37
990.927	825.71
991.224	837.92
991.521	819.16
991.819	813.28
992.116	832.49
992.413	821.65
992.71	817.35
993.006	819.16
993.303	835.2
993.6	813.28
993.897	812.61
994.193	809.67
994.49	824.36
994.787	799.27
995.083	808.31
995.379	816
995.676	775.09
995.972	819.61
996.268	780.97
996.565	802.89
996.861	793.62
997.157	783.68
997.453	766.28
997.749	768.77
998.044	766.05
998.34	753.4
998.636	762.66
998.932	793.17
999.227	742.78
999.523	748.43
999.818	763.12
1000.114	753.17
1000.409	761.53
1000.704	744.36
1001	741.2
1001.295	748.88
1001.59	745.04
1001.885	746.17
1002.18	743.91
1002.475	750.46
1002.77	753.85
1003.065	711.82
1003.359	722.66
1003.654	717.47
1003.949	718.82
1004.243	735.55
1004.538	699.84
1004.832	714.08
1005.127	752.95
1005.421	718.37
1005.715	722.66
1006.009	721.31
1006.304	693.29
1006.598	708.43
1006.892	689.45
1007.186	717.69
1007.48	688.32
1007.773	640.18
1008.067	676.56
1008.361	681.31
1008.655	685.83
1008.948	691.25
1009.242	656
1009.535	653.29
1009.829	685.6
1010.122	685.6
1010.415	683.34
1010.708	671.59
1011.001	679.05
1011.295	672.5
1011.588	647.64
1011.881	662.78
1012.173	650.12
1012.466	659.16
1012.759	652.61
1013.052	653.97
1013.344	653.97
1013.637	623.91
1013.93	631.82
1014.222	637.92
1014.514	636.57
1014.807	623.68
1015.099	618.03
1015.391	626.4
1015.683	630.24
1015.976	618.94
1016.268	612.39
1016.56	612.39
1016.851	623.23
1017.143	614.42
1017.435	597.02
1017.727	611.26
1018.018	599.96
1018.31	604.93
1018.602	612.84
1018.893	593.85
1019.185	611.03
1019.476	573.52
1019.767	581.2
1020.058	594.76
1020.35	590.92
1020.641	578.49
1020.932	589.11
1021.223	571.48
1021.514	564.7
1021.804	591.59
1022.095	575.32
1022.386	566.06
1022.677	572.39
1022.967	585.27
1023.258	551.82
1023.548	559.96
1023.839	575.55
1024.129	564.48
1024.419	550.69
1024.709	566.28
1025	554.53
1025.29	539.62
1025.58	550.47
1025.87	557.02
1026.16	556.57
1026.449	553.4
1026.739	536
1027.029	543.01
1027.319	534.19
1027.608	514.99
1027.898	522.9
1028.187	516.12
1028.477	528.32
1028.766	529
1029.055	540.97
1029.344	511.82
1029.634	513.4
1029.923	539.17
1030.212	516.57
1030.501	517.25
1030.79	513.4
1031.078	521.99
1031.367	512.27
1031.656	511.6
1031.945	506.85
1032.233	492.61
1032.522	485.38
1032.81	503.01
1033.099	483.12
1033.387	505.04
1033.675	497.13
1033.963	486.29
1034.251	500.75
1034.54	507.76
1034.828	490.81
1035.116	488.09
1035.403	481.99
1035.691	471.37
1035.979	484.93
1036.267	465.72
1036.554	487.64
1036.842	472.28
1037.129	481.99
1037.417	470.24
1037.704	460.3
1037.992	462.56
1038.279	480.41
1038.566	478.6
1038.853	478.6
1039.14	478.6
