Data from foam_black_FLMS001491_00059.txt Node
Date: Wed Feb 08 10:44:09 GMT 2017
User: dcchb
Spectrometer: FLMS00149
Trigger mode: 0
Integration Time (sec): 2.000000E-2
Scans to average: 10
Electric dark correction enabled: true
Nonlinearity correction enabled: false
Boxcar width: 0
XAxis mode: Wavelengths
Number of Pixels in Spectrum: 2048
>>>>>Begin Spectral Data<<<<<
341.393	-12.54
341.776	-12.54
342.16	-12.54
342.543	-53.22
342.927	-60.68
343.31	-57.74
343.693	-63.39
344.077	-76.95
344.46	-90.05
344.843	-43.73
345.226	-48.25
345.61	-35.59
345.993	-13.22
346.376	3.5
346.759	13.45
347.142	23.16
347.525	32.88
347.908	63.39
348.291	85.53
348.674	97.96
349.057	109.04
349.44	110.39
349.823	116.04
350.206	159.2
350.588	170.73
350.971	197.62
351.354	198.3
351.737	212.31
352.119	217.28
352.502	232.42
352.884	253.89
353.267	254.34
353.65	276.49
354.032	304.51
354.414	306.32
354.797	303.61
355.179	297.28
355.562	295.47
355.944	317.39
356.326	321.69
356.709	311.07
357.091	313.78
357.473	304.74
357.855	344.96
358.238	320.56
358.62	315.58
359.002	329.37
359.384	333.89
359.766	323.49
360.148	307
360.53	313.55
360.912	313.55
361.294	319.65
361.676	332.76
362.057	309.03
362.439	299.31
362.821	325.98
363.203	326.43
363.584	321.01
363.966	296.6
364.348	305.87
364.729	290.73
365.111	273.33
365.493	298.86
365.874	289.6
366.256	298.41
366.637	300.22
367.019	292.99
367.4	305.42
367.781	280.56
368.163	291.4
368.544	294.57
368.925	305.19
369.306	282.14
369.688	305.64
370.069	299.54
370.45	285.3
370.831	279.43
371.212	295.7
371.593	294.12
371.974	297.96
372.355	305.19
372.736	301.35
373.117	289.82
373.498	300.9
373.879	305.87
374.26	299.54
374.641	286.89
375.021	299.31
375.402	313.1
375.783	287.34
376.163	315.81
376.544	315.36
376.925	305.64
377.305	309.94
377.686	293.21
378.066	290.05
378.447	326.66
378.827	321.91
379.208	317.39
379.588	311.74
379.968	307.68
380.349	331.4
380.729	303.83
381.109	315.13
381.489	324.62
381.87	322.14
382.25	321.91
382.63	326.66
383.01	322.36
383.39	329.82
383.77	320.56
384.15	343.15
384.53	337.51
384.91	336.38
385.29	342.93
385.67	333.66
386.049	335.92
386.429	335.7
386.809	326.43
387.189	344.74
387.568	332.08
387.948	329.14
388.328	341.12
388.707	352.19
389.087	332.08
389.466	331.63
389.846	328.24
390.225	345.19
390.605	365.75
390.984	325.75
391.363	351.52
391.743	347
392.122	362.36
392.501	362.59
392.881	379.76
393.26	366.66
393.639	364.17
394.018	375.02
394.397	344.06
394.776	354.91
395.155	352.65
395.534	363.27
395.913	358.52
396.292	339.09
396.671	368.46
397.05	361.46
397.429	375.47
397.808	360.78
398.186	343.61
398.565	380.67
398.944	364.17
399.323	381.35
399.701	392.42
400.08	370.5
400.458	374.34
400.837	382.7
401.215	381.8
401.594	366.88
401.972	370.95
402.351	361.01
402.729	399.65
403.107	383.15
403.486	389.48
403.864	387.67
404.242	382.48
404.62	397.39
404.999	399.88
405.377	402.59
405.755	387.22
406.133	375.24
406.511	394.45
406.889	411.63
407.267	399.88
407.645	389.48
408.023	422.25
408.401	405.98
408.779	406.66
409.156	406.2
409.534	421.8
409.912	404.4
410.29	399.2
410.667	419.09
411.045	424.73
411.422	420.89
411.8	432.64
412.178	396.71
412.555	434.23
412.933	425.64
413.31	427.67
413.687	441.01
414.065	448.24
414.442	438.75
414.819	432.64
415.197	449.82
415.574	440.55
415.951	452.08
416.328	414.79
416.705	451.85
417.082	463.83
417.46	457.73
417.837	468.8
418.214	463.83
418.591	472.19
418.967	466.99
419.344	464.28
419.721	480.1
420.098	465.19
420.475	462.93
420.852	497.95
421.228	480.78
421.605	486.65
421.982	476.94
422.358	495.02
422.735	494.79
423.111	491.63
423.488	511.51
423.864	509.03
424.241	498.18
424.617	492.98
424.994	498.18
425.37	477.84
425.746	497.28
426.123	506.54
426.499	516.71
426.875	495.92
427.251	498.18
427.627	506.31
428.003	529.59
428.379	528.01
428.756	544.28
429.132	541.34
429.507	543.6
429.883	544.51
430.259	528.69
430.635	552.19
431.011	549.25
431.387	559.42
431.763	555.8
432.138	569.36
432.514	587.44
432.89	585.86
433.265	572.75
433.641	576.82
434.016	569.36
434.392	603.26
434.767	596.26
435.143	616.14
435.518	579.31
435.894	619.76
436.269	617.72
436.644	612.98
437.02	603.49
437.395	629.7
437.77	628.57
438.145	604.62
438.52	630.6
438.895	614.79
439.271	637.16
439.646	631.06
440.021	650.94
440.395	654.79
440.77	641
441.145	654.33
441.52	659.3
441.895	658.85
442.27	653.43
442.645	668.8
443.019	641.9
443.394	680.55
443.769	672.64
444.143	688
444.518	681.45
444.892	663.37
445.267	674.45
445.641	695.91
446.016	699.08
446.39	688.68
446.764	695.24
447.139	687.78
447.513	705.18
447.887	706.54
448.262	684.84
448.636	717.38
449.01	715.12
449.384	719.87
449.758	705.18
450.132	711.73
450.506	729.13
450.88	751.28
451.254	709.02
451.628	758.96
452.002	742.92
452.376	753.54
452.75	749.47
453.123	756.93
453.497	757.16
453.871	747.21
454.244	774.78
454.618	790.37
454.992	787.66
455.365	778.4
455.739	807.55
456.112	787.44
456.486	805.74
456.859	799.19
457.232	830.37
457.606	824.72
457.979	810.94
458.352	851.84
458.725	844.16
459.099	841.67
459.472	873.76
459.845	848.9
460.218	872.63
460.591	856.36
460.964	875.57
461.337	925.74
461.71	890.94
462.083	921.22
462.456	925.96
462.829	922.8
463.201	920.54
463.574	927.09
463.947	956.92
464.32	953.08
464.692	953.53
465.065	961.67
465.438	973.65
465.81	975
466.183	968.68
466.555	1008.22
466.928	1038.28
467.3	1011.61
467.672	1011.39
468.045	1030.82
468.417	1030.82
468.789	1043.93
469.161	1063.59
469.534	1048.45
469.906	1084.6
470.278	1089.8
470.65	1111.27
471.022	1102.68
471.394	1140.2
471.766	1144.72
472.138	1148.33
472.51	1158.5
472.882	1163.7
473.253	1152.85
473.625	1203.92
473.997	1226.52
474.369	1240.08
474.74	1219.74
475.112	1230.36
475.484	1252.06
475.855	1281.89
476.227	1283.02
476.598	1319.63
476.97	1335.67
477.341	1338.61
477.713	1371.83
478.084	1361.43
478.455	1400.3
478.827	1396.69
479.198	1449.11
479.569	1451.15
479.94	1474.42
480.311	1469.45
480.682	1521.2
481.053	1533.63
481.424	1543.12
481.795	1566.4
482.166	1570.69
482.537	1616.34
482.908	1611.82
483.279	1632.39
483.65	1650.01
484.021	1663.57
484.391	1695.21
484.762	1694.31
485.133	1719.39
485.503	1746.06
485.874	1747.64
486.244	1788.54
486.615	1804.59
486.985	1826.05
487.356	1872.61
487.726	1910.8
488.097	1901.08
488.467	1918.25
488.837	1914.19
489.207	1963
489.578	2005.94
489.948	1986.05
490.318	2038.93
490.688	2033.05
491.058	2073.5
491.428	2049.1
491.798	2088.87
492.168	2103.33
492.538	2140.17
492.908	2172.71
493.278	2162.54
493.648	2190.56
494.017	2210.68
494.387	2234.63
494.757	2224.91
495.126	2238.92
495.496	2256.32
495.866	2279.38
496.235	2293.39
496.605	2331.35
496.974	2341.97
497.344	2336.32
497.713	2347.17
498.082	2377.45
498.452	2400.95
498.821	2409.54
499.19	2454.06
499.559	2429.2
499.928	2442.76
500.298	2429.43
500.667	2496.54
501.036	2524.57
501.405	2522.53
501.774	2517.79
502.143	2566.37
502.512	2529.09
502.88	2574.06
503.249	2565.7
503.618	2610.21
503.987	2633.04
504.356	2605.02
504.724	2621.06
505.093	2645.24
505.462	2646.82
505.83	2660.38
506.199	2704.45
506.567	2694.73
506.936	2720.49
507.304	2749.19
507.672	2739.7
508.041	2760.49
508.409	2795.29
508.777	2816.31
509.145	2842.52
509.514	2824.9
509.882	2854.73
510.25	2828.74
510.618	2840.94
510.986	2890.21
511.354	2935.4
511.722	2948.51
512.09	2956.65
512.458	2957.78
512.826	2978.57
513.193	2998
513.561	2983.76
513.929	3060.37
514.297	3068.96
514.664	3070.31
515.032	3099.24
515.4	3135.4
515.767	3122.97
516.135	3150.09
516.502	3153.93
516.869	3197.54
517.237	3213.36
517.604	3185.79
517.972	3245.68
518.339	3263.53
518.706	3247.26
519.073	3305.11
519.44	3303.98
519.808	3315.28
520.175	3351.89
520.542	3390.08
520.909	3407.26
521.276	3422.17
521.643	3443.86
522.009	3427.82
522.376	3505.11
522.743	3475.05
523.11	3498.78
523.477	3544.88
523.843	3581.71
524.21	3586.23
524.577	3598.66
524.943	3645.21
525.31	3623.97
525.676	3682.95
526.043	3728.6
526.409	3729.28
526.776	3769.51
527.142	3763.86
527.508	3808.6
527.874	3802.72
528.241	3869.16
528.607	3856.06
528.973	3926.56
529.339	3909.84
529.705	3963.85
530.071	3995.71
530.437	4017.41
530.803	4003.17
531.169	4031.65
531.535	4057.41
531.901	4051.98
532.267	4057.63
532.632	4094.92
532.998	4179.66
533.364	4151.64
533.73	4127.69
534.095	4191.42
534.461	4216.95
534.826	4214.47
535.192	4216.95
535.557	4259.21
535.923	4249.72
536.288	4279.77
536.653	4296.5
537.019	4249.04
537.384	4333.56
537.749	4299.43
538.114	4337.63
538.479	4322.26
538.845	4305.54
539.21	4382.6
539.575	4376.27
539.94	4467.34
540.305	4400.68
540.67	4421.69
541.034	4454.46
541.399	4439.77
541.764	4511.41
542.129	4466.89
542.494	4539.43
542.858	4544.17
543.223	4558.86
543.587	4567.45
543.952	4569.03
544.316	4632.31
544.681	4639.77
545.045	4659.65
545.41	4695.13
545.774	4671.4
546.138	4657.62
546.503	4701.91
546.867	4710.27
547.231	4743.72
547.595	4770.38
547.959	4763.38
548.324	4799.08
548.688	4814.68
549.052	4839.08
549.416	4786.65
549.779	4802.47
550.143	4916.37
550.507	4905.52
550.871	4884.28
551.235	4868.01
551.599	4907.1
551.962	5000.21
552.326	4938.06
552.689	4987.55
553.053	4974.67
553.417	4996.14
553.78	5032.3
554.143	4966.99
554.507	5050.83
554.87	5071.62
555.234	5100.32
555.597	5094.89
555.96	5084.05
556.323	5105.29
556.686	5162.92
557.05	5173.54
557.413	5147.32
557.776	5185.06
558.139	5252.4
558.502	5220.31
558.865	5308
559.228	5280.88
559.59	5362.01
559.953	5376.47
560.316	5391.16
560.679	5371.72
561.041	5428.44
561.404	5450.59
561.767	5533.98
562.129	5521.78
562.492	5574.2
562.854	5556.58
563.217	5552.06
563.579	5584.37
563.941	5593.86
564.304	5627.08
564.666	5685.61
565.028	5726.97
565.39	5742.79
565.753	5764.93
566.115	5748.89
566.477	5810.36
566.839	5796.57
567.201	5872.5
567.563	5857.81
567.925	5888.55
568.287	5889.22
568.648	5876.79
569.01	5904.14
569.372	5974.42
569.734	5979.62
570.095	6056.68
570.457	6029.11
570.819	6089.9
571.18	6060.97
571.542	6118.14
571.903	6098.71
572.265	6098.48
572.626	6141.42
572.987	6165.15
573.349	6140.06
573.71	6177.8
574.071	6198.59
574.432	6177.35
574.794	6205.15
575.155	6235.66
575.516	6203.34
575.877	6210.35
576.238	6272.04
576.599	6317.69
576.96	6289.44
577.32	6325.6
577.681	6344.13
578.042	6390.23
578.403	6354.75
578.763	6370.57
579.124	6386.16
579.485	6408.08
579.845	6421.87
580.206	6424.35
580.566	6417.35
580.927	6450.11
581.287	6454.63
581.648	6463.45
582.008	6518.81
582.368	6486.04
582.728	6475.65
583.089	6456.44
583.449	6473.39
583.809	6500.96
584.169	6487.85
584.529	6488.98
584.889	6524.24
585.249	6501.41
585.609	6479.72
585.969	6513.39
586.329	6508.64
586.688	6503.67
587.048	6538.25
587.408	6495.31
587.768	6482.88
588.127	6502.31
588.487	6492.82
588.846	6520.85
589.206	6470.45
589.565	6508.87
589.925	6519.72
590.284	6570.56
590.643	6507.96
591.003	6578.02
591.362	6489.89
591.721	6532.82
592.08	6508.19
592.44	6502.77
592.799	6501.86
593.158	6548.19
593.517	6491.02
593.876	6572.14
594.235	6533.73
594.593	6531.47
594.952	6521.52
595.311	6516.78
595.67	6518.36
596.029	6554.29
596.387	6547.96
596.746	6596.1
597.104	6537.57
597.463	6516.33
597.822	6576.44
598.18	6617.11
598.538	6559.49
598.897	6568.98
599.255	6535.76
599.613	6621.86
599.972	6568.3
600.33	6677.23
600.688	6588.19
601.046	6633.38
601.404	6660.28
601.762	6617.11
602.12	6700.95
602.478	6636.55
602.836	6712.25
603.194	6611.24
603.552	6673.84
603.91	6688.52
604.268	6680.16
604.625	6649.88
604.983	6696.43
605.341	6672.48
605.698	6730.11
606.056	6765.58
606.413	6752.7
606.771	6742.76
607.128	6740.73
607.485	6698.24
607.843	6718.81
608.2	6733.04
608.557	6764
608.914	6782.31
609.272	6774.85
609.629	6733.5
609.986	6761.29
610.343	6768.97
610.7	6794.28
611.057	6807.84
611.414	6747.28
611.771	6821.85
612.127	6819.59
612.484	6782.76
612.841	6809.2
613.198	6775.53
613.554	6812.82
613.911	6877.67
614.267	6798.8
614.624	6817.11
614.98	6829.76
615.337	6839.93
615.693	6859.14
616.05	6863.66
616.406	6877.45
616.762	6861.63
617.118	6893.72
617.475	6837.67
617.831	6923.09
618.187	6910.21
618.543	6881.06
618.899	6894.85
619.255	6903.89
619.611	6884.9
619.967	6949.08
620.323	6958.8
620.678	6894.39
621.034	6881.06
621.39	6946.15
621.746	6913.15
622.101	7051.45
622.457	6946.6
622.812	7005.13
623.168	6938.69
623.523	7002.41
623.879	6989.31
624.234	6931.46
624.589	6985.47
624.945	6960.61
625.3	6959.93
625.655	6985.24
626.01	7005.35
626.365	6989.31
626.72	6999.48
627.075	6969.42
627.43	6998.57
627.785	7011.91
628.14	7006.71
628.495	6967.16
628.85	6966.03
629.205	6972.59
629.559	7063.2
629.914	6977.56
630.269	6982.98
630.623	6955.18
630.978	6925.35
631.332	6994.51
631.687	6967.61
632.041	6933.26
632.396	6962.42
632.75	6923.09
633.104	6886.26
633.459	6838.13
633.813	6889.42
634.167	6900.27
634.521	6828.18
634.875	6858.46
635.229	6789.76
635.583	6815.53
635.937	6756.77
636.291	6793.38
636.645	6790.22
636.999	6735.08
637.352	6755.42
637.706	6706.15
638.06	6705.47
638.413	6728.98
638.767	6712.93
639.121	6708.86
639.474	6684.46
639.828	6680.84
640.181	6678.36
640.534	6689.88
640.888	6690.56
641.241	6604.23
641.594	6646.04
641.947	6667.96
642.301	6647.17
642.654	6656.89
643.007	6588.19
643.36	6622.76
643.713	6618.24
644.066	6640.39
644.419	6570.79
644.771	6481.3
645.124	6405.82
645.477	6391.81
645.83	6417.35
646.182	6442.2
646.535	6430.68
646.888	6403.79
647.24	6427.74
647.593	6432.49
647.945	6430.9
648.298	6394.52
648.65	6428.64
649.002	6404.46
649.355	6462.77
649.707	6409.89
650.059	6383.67
650.411	6463.67
650.763	6487.4
651.115	6543.22
651.467	6487.4
651.819	6512.71
652.171	6552.71
652.523	6511.13
652.875	6540.05
653.227	6438.81
653.578	6501.41
653.93	6485.59
654.282	6453.28
654.633	6475.42
654.985	6492.6
655.337	6441.98
655.688	6454.18
656.039	6433.16
656.391	6411.02
656.742	6455.31
657.094	6448.76
657.445	6439.94
657.796	6439.72
658.147	6387.74
658.498	6352.26
658.849	6422.54
659.2	6403.33
659.551	6411.7
659.902	6390.45
660.253	6333.28
660.604	6335.09
660.955	6322.21
661.306	6350
661.656	6412.83
662.007	6298.25
662.358	6331.02
662.708	6335.99
663.059	6269.33
663.409	6250.34
663.76	6293.51
664.11	6264.13
664.461	6285.82
664.811	6261.87
665.161	6313.17
665.511	6261.87
665.862	6266.61
666.212	6280.17
666.562	6278.82
666.912	6265.94
667.262	6252.38
667.612	6310.91
667.962	6280.63
668.312	6268.65
668.662	6272.94
669.011	6272.49
669.361	6295.54
669.711	6218.71
670.06	6240.85
670.41	6239.5
670.76	6220.51
671.109	6230.23
671.459	6251.25
671.808	6185.49
672.157	6283.11
672.507	6287.86
672.856	6232.49
673.205	6243.56
673.554	6260.06
673.904	6243.11
674.253	6244.24
674.602	6223.45
674.951	6128.54
675.3	6111.14
675.649	6237.92
675.998	6205.6
676.346	6275.2
676.695	6239.04
677.044	6182.32
677.393	6168.54
677.741	6231.36
678.09	6184.81
678.438	6199.27
678.787	6179.16
679.135	6163.57
679.484	6158.37
679.832	6137.35
680.181	6157.24
680.529	6101.2
680.877	6097.35
681.225	6111.36
681.573	6120.86
681.922	6090.12
682.27	6100.29
682.618	6058.03
682.966	6064.36
683.314	6101.65
683.661	6020.52
684.009	6023.91
684.357	6010.58
684.705	6010.12
685.053	6008.54
685.4	5990.92
685.748	5979.84
686.095	5921.77
686.443	5934.65
686.79	5901.88
687.138	5931.48
687.485	5894.42
687.832	5863.46
688.18	5872.73
688.527	5830.24
688.874	5812.16
689.221	5773.75
689.568	5794.76
689.915	5770.58
690.262	5764.03
690.609	5758.15
690.956	5743.24
691.303	5729.23
691.65	5682.45
691.997	5680.64
692.344	5712.05
692.69	5646.97
693.037	5671.6
693.383	5633.86
693.73	5598.16
694.077	5616.46
694.423	5629.57
694.769	5633.64
695.116	5594.99
695.462	5563.81
695.808	5519.97
696.155	5559.29
696.501	5480.42
696.847	5533.53
697.193	5494.43
697.539	5498.27
697.885	5500.31
698.231	5512.74
698.577	5484.04
698.923	5454.43
699.269	5390.48
699.614	5429.35
699.96	5458.5
700.306	5399.97
700.651	5419.63
700.997	5376.69
701.342	5417.37
701.688	5359.97
702.033	5327.66
702.379	5340.76
702.724	5311.39
703.069	5336.24
703.415	5327.2
703.76	5272.29
704.105	5304.15
704.45	5260.09
704.795	5251.27
705.14	5233.2
705.485	5242.69
705.83	5200.65
706.175	5269.8
706.52	5198.85
706.865	5194.33
707.209	5158.4
707.554	5118.17
707.899	5177.38
708.243	5153.65
708.588	5133.09
708.932	5085.4
709.277	5089.7
709.621	5107.1
709.966	5048.34
710.31	5070.94
710.654	5019.19
710.998	5062.58
711.342	5017.61
711.687	5002.47
712.031	4984.16
712.375	4989.13
712.719	4988
713.063	5028
713.407	4969.93
713.75	4924.28
714.094	4962.69
714.438	4955.46
714.782	4973.77
715.125	4899.65
715.469	4913.2
715.812	4914.56
716.156	4906.65
716.499	4883.83
716.843	4874.79
717.186	4837.27
717.53	4894.9
717.873	4876.14
718.216	4811.06
718.559	4825.07
718.902	4776.94
719.246	4845.18
719.589	4807.9
719.932	4772.42
720.275	4771.06
720.617	4778.74
720.96	4827.33
721.303	4757.95
721.646	4745.52
721.989	4702.36
722.331	4742.81
722.674	4695.81
723.016	4707.56
723.359	4726.77
723.701	4756.82
724.044	4675.7
724.386	4663.49
724.729	4656.04
725.071	4671.85
725.413	4653.1
725.755	4631.86
726.097	4636.6
726.439	4609.48
726.782	4594.12
727.124	4602.03
727.465	4608.35
727.807	4590.27
728.149	4586.43
728.491	4594.57
728.833	4584.85
729.175	4540.78
729.516	4597.73
729.858	4539.43
730.199	4564.51
730.541	4568.35
730.882	4587.79
731.224	4522.93
731.565	4480.22
731.906	4537.85
732.248	4510.28
732.589	4499.66
732.93	4478.64
733.271	4482.03
733.612	4533.78
733.953	4499.2
734.294	4479.77
734.635	4415.59
734.976	4515.93
735.317	4466.66
735.658	4465.76
735.999	4464.4
736.339	4432.99
736.68	4494.01
737.021	4405.42
737.361	4412.43
737.702	4448.58
738.042	4404.97
738.383	4436.61
738.723	4441.58
739.063	4402.26
739.404	4386.66
739.744	4372.88
740.084	4390.51
740.424	4375.14
740.764	4339.21
741.104	4356.83
741.444	4317.97
741.784	4348.47
742.124	4403.39
742.464	4306.89
742.804	4319.1
743.143	4286.55
743.483	4261.7
743.823	4293.11
744.162	4245.65
744.502	4276.84
744.841	4291.75
745.181	4261.47
745.52	4215.6
745.86	4207.69
746.199	4214.01
746.538	4183.96
746.877	4228.48
747.216	4215.6
747.556	4180.34
747.895	4190.06
748.234	4134.47
748.573	4196.84
748.911	4161.59
749.25	4178.76
749.589	4084.53
749.928	4129.95
750.267	4168.14
750.605	4110.51
750.944	4094.02
751.283	4129.5
751.621	4126.78
751.96	4126.78
752.298	4130.63
752.636	4076.84
752.975	4038.2
753.313	4075.94
753.651	4093.11
753.989	4086.79
754.327	4047.46
754.666	4022.38
755.004	4023.96
755.342	4056.96
755.679	4062.61
756.017	4030.97
756.355	3995.04
756.693	4012.66
757.031	3971.76
757.368	3923.17
757.706	3966.34
758.044	3978.54
758.381	3977.64
758.719	3940.57
759.056	3946.22
759.394	3931.08
759.731	3890.41
760.068	3893.57
760.405	3858.54
760.743	3877.07
761.08	3880.24
761.417	3841.14
761.754	3881.14
762.091	3848.83
762.428	3808.83
762.765	3803.85
763.102	3822.39
763.438	3809.96
763.775	3774.03
764.112	3760.24
764.449	3785.32
764.785	3727.47
765.122	3724.08
765.458	3755.04
765.795	3769.73
766.131	3697.19
766.467	3659.45
766.804	3656.97
767.14	3684.99
767.476	3663.52
767.812	3621.03
768.148	3645.89
768.485	3626.46
768.821	3586.69
769.157	3627.59
769.492	3559.12
769.828	3628.72
770.164	3539.45
770.5	3579
770.836	3541.49
771.171	3547.59
771.507	3534.26
771.842	3510.76
772.178	3510.98
772.513	3516.4
772.849	3472.56
773.184	3455.62
773.519	3455.16
773.855	3442.06
774.19	3472.34
774.525	3457.2
774.86	3436.86
775.195	3438.44
775.53	3375.17
775.865	3369.06
776.2	3391.21
776.535	3342.62
776.87	3388.95
777.205	3380.36
777.539	3306.69
777.874	3342.85
778.209	3326.13
778.543	3335.17
778.878	3302.63
779.212	3331.1
779.547	3282.74
779.881	3288.39
780.215	3300.14
780.55	3303.75
780.884	3254.04
781.218	3263.53
781.552	3220.82
781.886	3255.85
782.22	3214.72
782.554	3183.76
782.888	3169.52
783.222	3153.93
783.556	3192.57
783.889	3181.5
784.223	3132.23
784.557	3119.58
784.89	3168.62
785.224	3089.3
785.557	3066.7
785.891	3088.39
786.224	3097.88
786.558	3116.42
786.891	3049.07
787.224	3074.61
787.557	3012.69
787.891	3031.22
788.224	3012.46
788.557	3028.28
788.89	2997.32
789.223	2994.84
789.556	2981.73
789.888	2970.88
790.221	2952.8
790.554	2952.58
790.887	2934.05
791.219	2902.86
791.552	2934.73
791.884	2912.8
792.217	2883.43
792.549	2875.97
792.882	2853.82
793.214	2898.34
793.546	2905.35
793.879	2873.71
794.211	2861.51
794.543	2834.61
794.875	2837.78
795.207	2867.61
795.539	2821.96
795.871	2865.8
796.203	2804.11
796.535	2783.77
796.867	2771.57
797.198	2788.97
797.53	2758.91
797.862	2774.96
798.193	2791.23
798.525	2747.39
798.856	2761.4
799.188	2747.61
799.519	2738.12
799.85	2715.07
800.182	2739.25
800.513	2726.37
800.844	2682.53
801.175	2708.29
801.506	2687.27
801.837	2673.26
802.168	2700.38
802.499	2697.67
802.83	2670.33
803.161	2637.33
803.491	2656.09
803.822	2630.78
804.153	2632.59
804.483	2620.38
804.814	2647.73
805.145	2613.15
805.475	2643.66
805.805	2597.33
806.136	2604.79
806.466	2593.72
806.796	2577.9
807.126	2555.75
807.457	2568.86
807.787	2572.25
808.117	2573.15
808.447	2510.56
808.777	2544
809.107	2543.1
809.436	2529.54
809.766	2538.8
810.096	2511.91
810.426	2529.99
810.755	2510.78
811.085	2512.36
811.414	2508.3
811.744	2492.25
812.073	2485.7
812.403	2426.72
812.732	2458.58
813.061	2470.33
813.39	2447.73
813.719	2441.4
814.049	2460.61
814.378	2420.16
814.707	2450.67
815.036	2430.56
815.365	2407.51
815.693	2375.19
816.022	2432.82
816.351	2445.47
816.68	2387.39
817.008	2418.81
817.337	2349.88
817.665	2428.07
817.994	2410.9
818.322	2393.72
818.651	2382.42
818.979	2392.37
819.307	2384.68
819.636	2359.6
819.964	2364.57
820.292	2362.54
820.62	2362.76
820.948	2354.4
821.276	2384.46
821.604	2346.27
821.932	2382.2
822.259	2322.54
822.587	2336.32
822.915	2358.92
823.243	2326.38
823.57	2349.43
823.898	2350.79
824.225	2338.13
824.553	2339.26
824.88	2335.42
825.207	2342.42
825.535	2315.98
825.862	2358.92
826.189	2317.34
826.516	2347.17
826.843	2325.25
827.17	2320.73
827.497	2364.34
827.824	2346.27
828.151	2332.48
828.478	2302.65
828.805	2308.07
829.131	2319.83
829.458	2315.53
829.785	2290.22
830.111	2342.88
830.438	2334.29
830.764	2315.98
831.09	2332.71
831.417	2321.41
831.743	2319.37
832.069	2375.19
832.395	2304.46
832.722	2326.61
833.048	2273.95
833.374	2338.36
833.7	2304.23
834.026	2297.68
834.351	2342.88
834.677	2291.58
835.003	2330.22
835.329	2296.1
835.654	2312.14
835.98	2281.41
836.306	2312.37
836.631	2305.36
836.956	2289.09
837.282	2308.3
837.607	2279.6
837.932	2279.83
838.258	2264.23
838.583	2264.23
838.908	2257.91
839.233	2266.72
839.558	2280.96
839.883	2243.67
840.208	2225.59
840.533	2252.26
840.858	2253.84
841.182	2233.05
841.507	2230.11
841.832	2208.87
842.156	2251.81
842.481	2193.73
842.805	2212.71
843.13	2208.87
843.454	2226.95
843.778	2209.32
844.103	2209.77
844.427	2192.15
844.751	2208.42
845.075	2195.08
845.399	2196.44
845.723	2162.77
846.047	2178.81
846.371	2167.06
846.695	2184.91
847.019	2144.46
847.343	2140.17
847.666	2117.8
847.99	2137.23
848.313	2122.77
848.637	2120.28
848.96	2117.35
849.284	2100.17
849.607	2130
849.931	2085.26
850.254	2087.29
850.577	2082.54
850.9	2059.04
851.223	2085.03
851.546	2046.16
851.869	2040.74
852.192	2050.45
852.515	2066.27
852.838	2018.14
853.161	2035.31
853.483	2027.63
853.806	2038.93
854.129	2028.08
854.451	2019.27
854.774	1995.77
855.096	1989.67
855.419	1996.67
855.741	1995.31
856.063	1966.61
856.385	1964.81
856.708	1988.08
857.03	1978.37
857.352	1968.65
857.674	1970.68
857.996	1934.98
858.318	1934.98
858.64	1951.47
858.961	1945.15
859.283	1928.88
859.605	1933.4
859.926	1951.25
860.248	1941.08
860.57	1890.01
860.891	1912.83
861.212	1914.64
861.534	1923
861.855	1909.44
862.176	1893.85
862.498	1885.26
862.819	1876.67
863.14	1878.03
863.461	1895.88
863.782	1892.49
864.103	1883
864.424	1852.49
864.745	1870.12
865.065	1871.25
865.386	1877.8
865.707	1854.3
866.027	1855.66
866.348	1867.86
866.668	1880.29
866.989	1885.04
867.309	1829.22
867.63	1851.36
867.95	1842.78
868.27	1845.71
868.59	1833.29
868.91	1828.54
869.23	1840.97
869.55	1839.39
869.87	1818.6
870.19	1824.7
870.51	1828.09
870.83	1808.88
871.15	1774.98
871.469	1838.71
871.789	1812.72
872.109	1781.31
872.428	1803.91
872.748	1784.47
873.067	1809.1
873.386	1784.02
873.706	1788.31
874.025	1791.25
874.344	1792.83
874.663	1785.83
874.982	1770.24
875.301	1786.05
875.62	1763.23
875.939	1766.17
876.258	1735.89
876.577	1768.88
876.896	1749.67
877.214	1754.19
877.533	1766.39
877.852	1757.58
878.17	1743.34
878.489	1793.29
878.807	1743.12
879.125	1746.96
879.444	1759.61
879.762	1737.24
880.08	1756.68
880.398	1725.72
880.716	1753.51
881.034	1728.66
881.352	1729.56
881.67	1715.55
881.988	1722.33
882.306	1702.22
882.624	1741.99
882.941	1703.57
883.259	1695.89
883.577	1708.32
883.894	1691.14
884.212	1712.84
884.529	1691.14
884.846	1697.02
885.164	1655.21
885.481	1695.21
885.798	1674.19
886.115	1690.92
886.432	1664.93
886.75	1680.07
887.067	1659.5
887.383	1656.11
887.7	1671.03
888.017	1658.37
888.334	1647.75
888.651	1635.32
888.967	1690.92
889.284	1673.52
889.6	1631.48
889.917	1641.43
890.233	1628.54
890.55	1612.05
890.866	1636.45
891.182	1624.25
891.498	1621.77
891.815	1637.58
892.131	1588.55
892.447	1614.08
892.763	1575.89
893.079	1622.22
893.395	1608.66
893.71	1591.94
894.026	1580.41
894.342	1581.77
894.657	1587.42
894.973	1560.52
895.289	1593.97
895.604	1561.65
895.92	1586.51
896.235	1543.58
896.55	1556.91
896.865	1536.57
897.181	1541.09
897.496	1549
897.811	1535.89
898.126	1540.19
898.441	1551.03
898.756	1558.26
899.071	1523.69
899.386	1512.84
899.7	1514.88
900.015	1510.81
900.33	1509.68
900.644	1513.07
900.959	1504.93
901.273	1488.66
901.588	1479.85
901.902	1497.93
902.216	1492.05
902.531	1502.9
902.845	1480.53
903.159	1477.36
903.473	1451.15
903.787	1459.74
904.101	1457.02
904.415	1458.83
904.729	1486.85
905.042	1451.83
905.356	1450.7
905.67	1449.34
905.984	1421.32
906.297	1447.98
906.611	1417.02
906.924	1419.06
907.237	1442.79
907.551	1393.52
907.864	1393.97
908.177	1411.38
908.491	1407.31
908.804	1408.66
909.117	1376.57
909.43	1397.59
909.743	1399.62
910.056	1374.31
910.368	1362.11
910.681	1346.07
910.994	1368.21
911.307	1376.35
911.619	1368.66
911.932	1354.43
912.244	1353.75
912.557	1350.13
912.869	1363.92
913.181	1342.45
913.494	1331.83
913.806	1319.85
914.118	1302
914.43	1287.76
914.742	1320.08
915.054	1297.03
915.366	1299.74
915.678	1322.79
915.99	1316.24
916.302	1299.74
916.613	1269.23
916.925	1279.63
917.236	1272.17
917.548	1271.72
917.859	1282.57
918.171	1259.51
918.482	1249.35
918.794	1273.98
919.105	1245.28
919.416	1231.72
919.727	1244.83
920.038	1228.56
920.349	1238.72
920.66	1214.77
920.971	1229.23
921.282	1224.26
921.593	1201.66
921.903	1197.37
922.214	1188.56
922.525	1229.46
922.835	1204.83
923.146	1201.44
923.456	1212.06
923.767	1172.51
924.077	1186.07
924.387	1167.77
924.697	1186.3
925.008	1156.69
925.318	1170.03
925.628	1139.07
925.938	1177.71
926.248	1147.2
926.558	1119.41
926.867	1152.63
927.177	1128.44
927.487	1146.07
927.796	1127.09
928.106	1113.76
928.416	1102
928.725	1116.24
929.034	1110.59
929.344	1117.15
929.653	1112.63
929.962	1098.16
930.271	1090.03
930.581	1082.8
930.89	1087.09
931.199	1070.37
931.508	1075.11
931.817	1086.19
932.125	1085.73
932.434	1106.75
932.743	1072.85
933.051	1059.29
933.36	1060.2
933.669	1063.81
933.977	1055.23
934.286	1055.9
934.594	1061.55
934.902	1071.05
935.21	1058.84
935.519	1023.36
935.827	1010.26
936.135	1041.67
936.443	1032.4
936.751	1029.92
937.059	1025.17
937.367	1022.46
937.674	1023.59
937.982	1005.51
938.29	1033.76
938.597	993.53
938.905	1030.59
939.213	1012.06
939.52	999.63
939.827	1013.65
940.135	982.69
940.442	989.01
940.749	963.25
941.056	989.69
941.363	963.7
941.67	984.95
941.977	988.34
942.284	971.16
942.591	969.81
942.898	944.27
943.205	958.28
943.511	954.44
943.818	952.18
944.125	962.35
944.431	950.14
944.738	921.44
945.044	922.57
945.35	929.13
945.657	949.92
945.963	940.2
946.269	916.93
946.575	928.68
946.881	918.51
947.187	920.54
947.493	911.05
947.799	936.81
948.105	932.97
948.41	903.14
948.716	905.85
949.022	895.23
949.327	917.38
949.633	914.67
949.938	883.48
950.244	913.08
950.549	881.67
950.854	877.38
951.16	904.27
951.465	873.31
951.77	877.38
952.075	886.64
952.38	872.86
952.685	881.45
952.99	884.16
953.294	868.79
953.599	870.15
953.904	877.83
954.209	863.37
954.513	854.1
954.818	838.74
955.122	881.67
955.426	874.89
955.731	838.28
956.035	867.66
956.339	832.86
956.643	838.51
956.948	846.87
957.252	833.54
957.556	830.6
957.86	859.53
958.163	863.14
958.467	841.22
958.771	824.05
959.075	818.62
959.378	833.99
959.682	781.79
959.985	812.3
960.289	807.32
960.592	803.71
960.896	792.86
961.199	818.4
961.502	808.45
961.805	799.87
962.108	815.01
962.411	788.34
962.714	793.31
963.017	775.23
963.32	803.93
963.623	791.5
963.926	807.55
964.228	807.55
964.531	785.63
964.833	784.5
965.136	788.11
965.438	746.99
965.741	767.78
966.043	790.15
966.345	771.84
966.648	755.35
966.95	765.29
967.252	791.28
967.554	775.23
967.856	764.16
968.158	765.52
968.46	742.47
968.761	775.46
969.063	745.18
969.365	734.33
969.666	753.09
969.968	729.36
970.269	756.7
970.571	757.38
970.872	750.83
971.174	750.38
971.475	734.56
971.776	746.76
972.077	731.62
972.378	704.28
972.679	718.51
972.98	697.95
973.281	720.32
973.582	718.29
973.883	732.3
974.183	707.89
974.484	732.07
974.785	718.29
975.085	729.81
975.386	718.29
975.686	712.86
975.986	693.88
976.287	711.28
976.587	695.69
976.887	700.43
977.187	695.91
977.487	706.76
977.787	698.85
978.087	683.71
978.387	677.16
978.687	690.04
978.987	687.55
979.286	662.47
979.586	684.16
979.885	685.52
980.185	671.06
980.484	655.46
980.784	666.08
981.083	678.29
981.382	651.85
981.682	668.8
981.981	648.46
982.28	657.72
982.579	654.33
982.878	667.89
983.177	650.49
983.475	652.07
983.774	646.42
984.073	635.35
984.372	623.6
984.67	638.74
984.969	649.81
985.267	633.54
985.566	625.86
985.864	630.38
986.162	655.01
986.461	640.77
986.759	628.8
987.057	623.15
987.355	617.05
987.653	635.58
987.951	653.66
988.249	622.92
988.547	619.76
988.844	623.37
989.142	645.07
989.44	626.54
989.737	640.1
990.035	615.24
990.332	609.59
990.63	630.38
990.927	604.84
991.224	612.53
991.521	614.79
991.819	608.46
992.116	595.58
992.413	589.48
992.71	591.06
993.006	595.35
993.303	625.86
993.6	620.44
993.897	582.02
994.193	594
994.49	587.44
994.787	584.96
995.083	590.83
995.379	603.49
995.676	588.57
995.972	592.19
996.268	574.11
996.565	577.27
996.861	586.54
997.157	592.87
997.453	566.43
997.749	565.3
998.044	572.98
998.34	570.04
998.636	575.69
998.932	579.08
999.227	547.67
999.523	563.94
999.818	545.41
1000.114	558.74
1000.409	577.05
1000.704	552.64
1001	554.67
1001.295	546.31
1001.59	547.44
1001.885	570.27
1002.18	579.53
1002.475	551.96
1002.77	540.66
1003.065	542.92
1003.359	523.72
1003.654	548.12
1003.949	561.45
1004.243	548.35
1004.538	536.14
1004.832	529.36
1005.127	539.76
1005.421	521.46
1005.715	539.53
1006.009	540.21
1006.304	521.46
1006.598	522.36
1006.892	519.42
1007.186	509.93
1007.48	530.72
1007.773	523.94
1008.067	517.84
1008.361	515.13
1008.655	521
1008.948	507.22
1009.242	502.02
1009.535	526.2
1009.829	519.65
1010.122	502.02
1010.415	503.6
1010.708	495.69
1011.001	521
1011.295	489.59
1011.588	512.19
1011.881	520.55
1012.173	491.17
1012.466	510.38
1012.759	500.89
1013.052	496.37
1013.344	481.46
1013.637	507.9
1013.93	494.79
1014.222	493.66
1014.514	482.13
1014.807	500.66
1015.099	483.94
1015.391	487.11
1015.683	478.29
1015.976	490.27
1016.268	481.23
1016.56	468.8
1016.851	490.5
1017.143	491.4
1017.435	468.8
1017.727	484.17
1018.018	464.06
1018.31	475.13
1018.602	501.57
1018.893	482.81
1019.185	459.08
1019.476	468.58
1019.767	481.46
1020.058	446.43
1020.35	453.21
1020.641	457.05
1020.932	456.6
1021.223	445.3
1021.514	464.51
1021.804	453.89
1022.095	477.61
1022.386	449.82
1022.677	438.97
1022.967	444.4
1023.258	432.87
1023.548	466.32
1023.839	430.84
1024.129	438.97
1024.419	443.72
1024.709	447.11
1025	440.1
1025.29	440.1
1025.58	441.01
1025.87	445.75
1026.16	429.48
1026.449	452.53
1026.739	436.71
1027.029	452.08
1027.319	443.27
1027.608	438.29
1027.898	425.19
1028.187	429.48
1028.477	442.36
1028.766	452.3
1029.055	424.96
1029.344	442.81
1029.634	433.32
1029.923	422.93
1030.212	419.09
1030.501	433.32
1030.79	410.05
1031.078	411.4
1031.367	404.85
1031.656	436.26
1031.945	433.32
1032.233	415.7
1032.522	418.86
1032.81	416.6
1033.099	417.73
1033.387	420.44
1033.675	402.14
1033.963	393.55
1034.251	435.13
1034.54	398.52
1034.828	405.07
1035.116	408.69
1035.403	397.84
1035.691	387.45
1035.979	415.47
1036.267	425.64
1036.554	397.62
1036.842	392.42
1037.129	408.92
1037.417	407.79
1037.704	397.39
1037.992	403.27
1038.279	399.88
1038.566	396.03
1038.853	396.03
1039.14	396.03
