Data from foam1_polythene_foam_FLMS001491_00025.txt Node
Date: Wed Feb 08 10:54:36 GMT 2017
User: dcchb
Spectrometer: FLMS00149
Trigger mode: 0
Integration Time (sec): 2.000000E-2
Scans to average: 10
Electric dark correction enabled: true
Nonlinearity correction enabled: false
Boxcar width: 0
XAxis mode: Wavelengths
Number of Pixels in Spectrum: 2048
>>>>>Begin Spectral Data<<<<<
341.393	-19.45
341.776	-19.45
342.16	-19.45
342.543	-60.13
342.927	-71.88
343.31	-69.16
343.693	-55.38
344.077	-79.11
344.46	-74.14
344.843	-58.54
345.226	-27.13
345.61	-28.04
345.993	-11.77
346.376	1.57
346.759	12.87
347.142	39.08
347.525	48.57
347.908	35.69
348.291	62.81
348.674	101.45
349.057	101.23
349.44	136.93
349.823	130.6
350.206	139.19
350.588	174.44
350.971	202.47
351.354	202.69
351.737	220.09
352.119	236.59
352.502	256.7
352.884	256.25
353.267	254.44
353.65	261.67
354.032	279.75
354.414	297.61
354.797	288.11
355.179	289.02
355.562	308.45
355.944	302.8
356.326	307.55
356.709	294.89
357.091	310.49
357.473	322.24
357.855	334.44
358.238	326.53
358.62	327.66
359.002	335.34
359.384	301.9
359.766	322.46
360.148	308.23
360.53	311.62
360.912	308.9
361.294	310.94
361.676	304.38
362.057	303.71
362.439	329.47
362.821	316.14
363.203	314.78
363.584	301.22
363.966	304.61
364.348	304.38
364.729	302.35
365.111	309.13
365.493	309.13
365.874	301.22
366.256	289.47
366.637	289.47
367.019	309.58
367.4	296.48
367.781	306.64
368.163	322.92
368.544	286.98
368.925	281.79
369.306	302.8
369.688	315.01
370.069	299.19
370.45	285.4
370.831	282.46
371.212	282.92
371.593	312.97
371.974	290.37
372.355	303.93
372.736	288.34
373.117	278.62
373.498	304.16
373.879	288.11
374.26	293.09
374.641	283.14
375.021	283.14
375.402	322.46
375.783	303.03
376.163	306.87
376.544	311.62
376.925	313.2
377.305	300.09
377.686	301.22
378.066	325.4
378.447	317.04
378.827	290.83
379.208	301.45
379.588	321.33
379.968	303.71
380.349	315.68
380.729	326.08
381.109	327.43
381.489	330.82
381.87	303.03
382.25	309.36
382.63	327.21
383.01	329.24
383.39	312.75
383.77	319.53
384.15	321.79
384.53	355.91
384.91	332.63
385.29	317.94
385.67	329.47
386.049	351.16
386.429	344.38
386.809	334.21
387.189	322.69
387.568	352.07
387.948	336.47
388.328	327.43
388.707	335.57
389.087	332.86
389.466	349.58
389.846	346.42
390.225	340.77
390.605	339.41
390.984	335.8
391.363	334.44
391.743	346.42
392.122	358.39
392.501	342.8
392.881	351.84
393.26	376.47
393.639	363.14
394.018	358.17
394.397	366.98
394.776	348.68
395.155	363.59
395.534	356.59
395.913	364.27
396.292	368.34
396.671	372.18
397.05	378.96
397.429	380.09
397.808	387.77
398.186	392.29
398.565	371.73
398.944	390.26
399.323	358.62
399.701	368.79
400.08	372.18
400.458	364.72
400.837	382.57
401.215	379.18
401.594	396.81
401.972	404.04
402.351	384.61
402.729	395
403.107	402.24
403.486	394.55
403.864	389.58
404.242	399.3
404.62	414.66
404.999	407.43
405.377	401.11
405.755	396.81
406.133	414.66
406.511	408.34
406.889	402.91
407.267	406.53
407.645	407.43
408.023	427.32
408.401	426.64
408.779	427.77
409.156	421.9
409.534	417.38
409.912	435.68
410.29	446.75
410.667	448.34
411.045	443.36
411.422	433.42
411.8	447.88
412.178	456.47
412.555	446.3
412.933	445.85
413.31	465.74
413.687	467.32
414.065	449.47
414.442	462.35
414.819	476.36
415.197	478.39
415.574	470.03
415.951	481.33
416.328	471.84
416.705	485.62
417.082	494.89
417.46	498.96
417.837	483.81
418.214	502.35
418.591	510.25
418.967	509.13
419.344	505.74
419.721	486.07
420.098	504.38
420.475	499.86
420.852	511.84
421.228	521.78
421.605	515.45
421.982	518.16
422.358	503.48
422.735	531.72
423.111	522.91
423.488	524.27
423.864	553.19
424.241	552.74
424.617	559.29
424.994	552.51
425.37	554.1
425.746	545.96
426.123	573.53
426.499	551.61
426.875	572.17
427.251	560.88
427.627	593.64
428.003	563.81
428.379	576.47
428.756	596.13
429.132	597.48
429.507	588.67
429.883	617.14
430.259	605.17
430.635	617.6
431.011	639.97
431.387	626.64
431.763	664.38
432.138	602.68
432.514	669.8
432.89	673.19
433.265	659.63
433.641	668.89
434.016	678.61
434.392	675.9
434.767	659.63
435.143	686.97
435.518	707.76
435.894	680.19
436.269	684.49
436.644	725.62
437.02	727.88
437.395	712.96
437.77	714.09
438.145	742.34
438.52	743.47
438.895	757.93
439.271	741.44
439.646	760.42
440.021	780.3
440.395	787.08
440.77	760.42
441.145	761.32
441.52	805.84
441.895	795.9
442.27	792.28
442.645	803.58
443.019	822.79
443.394	827.31
443.769	804.26
444.143	839.96
444.518	822.79
444.892	841.77
445.267	844.94
445.641	865.05
446.016	860.3
446.39	861.88
446.764	872.96
447.139	891.71
447.513	900.3
447.887	896.91
448.262	897.36
448.636	888.55
449.01	917.93
449.384	923.8
449.758	933.97
450.132	932.16
450.506	944.37
450.88	969
451.254	933.52
451.628	985.95
452.002	985.04
452.376	974.88
452.75	991.6
453.123	967.64
453.497	998.38
453.871	993.63
454.244	1016
454.618	1010.35
454.992	1018.49
455.365	1022.56
455.739	1053.07
456.112	1071.6
456.486	1081.31
456.859	1072.95
457.232	1065.49
457.606	1045.16
457.979	1075.89
458.352	1107.08
458.725	1100.75
459.099	1093.06
459.472	1128.54
459.845	1115.89
460.218	1151.82
460.591	1132.84
460.964	1147.75
461.337	1153.63
461.71	1192.72
462.083	1180.29
462.456	1194.53
462.829	1177.58
463.201	1213.51
463.574	1217.81
463.947	1230.01
464.32	1257.13
464.692	1253.74
465.065	1249.22
465.438	1277.92
465.81	1274.08
466.183	1286.51
466.555	1305.26
466.928	1333.28
467.3	1300.29
467.672	1326.28
468.045	1347.07
468.417	1376.67
468.789	1376.9
469.161	1420.74
469.534	1377.12
469.906	1416.67
470.278	1412.38
470.65	1421.19
471.022	1465.48
471.394	1497.12
471.766	1510.68
472.138	1514.52
472.51	1561.3
472.882	1547.74
473.253	1574.41
473.625	1580.06
473.997	1641.98
474.369	1606.95
474.74	1640.85
475.112	1656.44
475.484	1691.47
475.855	1701.41
476.227	1739.83
476.598	1751.8
476.97	1793.39
477.341	1815.53
477.713	1834.06
478.084	1834.51
478.455	1874.06
478.827	1910.67
479.198	1929.88
479.569	1944.57
479.94	1973.27
480.311	2022.76
480.682	2007.62
481.053	2073.15
481.424	2103.21
481.795	2121.74
482.166	2140.72
482.537	2189.31
482.908	2222.07
483.279	2234.5
483.65	2299.59
484.021	2361.96
484.391	2316.99
484.762	2362.18
485.133	2389.75
485.503	2389.3
485.874	2471.79
486.244	2481.28
486.615	2526.7
486.985	2522.63
487.356	2592.01
487.726	2630.43
488.097	2650.99
488.467	2662.74
488.837	2764.43
489.207	2752.91
489.578	2795.39
489.948	2805.56
490.318	2848.05
490.688	2836.3
491.058	2907.48
491.428	2921.72
491.798	3012.79
492.168	3001.71
492.538	3022.51
492.908	3073.58
493.278	3088.49
493.648	3098.21
494.017	3135.95
494.387	3163.52
494.757	3195.83
495.126	3217.75
495.496	3247.81
495.866	3279.67
496.235	3305.66
496.605	3326.68
496.974	3359.22
497.344	3378.65
497.713	3399.44
498.082	3394.7
498.452	3441.48
498.821	3494.81
499.19	3484.87
499.559	3533
499.928	3544.07
500.298	3538.2
500.667	3580.91
501.036	3609.61
501.405	3640.57
501.774	3656.61
502.143	3697.52
502.512	3729.15
502.88	3730.51
503.249	3760.34
503.618	3807.12
503.987	3813.44
504.356	3837.4
504.724	3880.79
505.093	3883.73
505.462	3864.52
505.83	3939.77
506.199	3961.69
506.567	4019.77
506.936	4016.15
507.304	4064.29
507.672	4063.38
508.041	4071.74
508.409	4101.12
508.777	4166.2
509.145	4176.15
509.514	4175.47
509.882	4225.19
510.25	4209.37
510.618	4258.4
510.986	4268.12
511.354	4334.34
511.722	4369.36
512.09	4419.08
512.458	4416.82
512.826	4433.77
513.193	4457.5
513.561	4500.66
513.929	4534.78
514.297	4598.96
514.664	4539.3
515.032	4622.69
515.4	4673.31
515.767	4685.29
516.135	4728.9
516.502	4721.9
516.869	4757.15
517.237	4809.35
517.604	4807.32
517.972	4847.54
518.339	4947.88
518.706	4870.14
519.073	4996.92
519.44	4958.27
519.808	5056.35
520.175	5024.03
520.542	5095.22
520.909	5107.87
521.276	5142
521.643	5210.47
522.009	5224.93
522.376	5267.64
522.743	5267.87
523.11	5399.84
523.477	5390.8
523.843	5426.74
524.21	5507.64
524.577	5582.89
524.943	5581.76
525.31	5585.83
525.676	5601.19
526.043	5636.45
526.409	5699.05
526.776	5739.5
527.142	5845.48
527.508	5783.79
527.874	5839.38
528.241	5909.89
528.607	5927.51
528.973	5977.23
529.339	5984.91
529.705	5993.95
530.071	6053.61
530.437	6116.44
530.803	6163.89
531.169	6173.38
531.535	6186.72
531.901	6206.15
532.267	6198.92
532.632	6264.68
532.998	6281.4
533.364	6335.19
533.73	6312.81
534.095	6445.47
534.461	6463.77
534.826	6443.21
535.192	6482.75
535.557	6525.69
535.923	6566.14
536.288	6546.03
536.653	6577.89
537.019	6542.19
537.384	6645.69
537.749	6654.27
538.114	6716.19
538.479	6687.27
538.845	6767.72
539.21	6702.63
539.575	6781.5
539.94	6831.22
540.305	6861.95
540.67	6846.13
541.034	6852.91
541.399	6882.74
541.764	6891.33
542.129	6894.72
542.494	6979.46
542.858	6954.61
543.223	7001.16
543.587	7079.57
543.952	7108.5
544.316	7082.29
544.681	7114.6
545.045	7072.34
545.41	7150.31
545.774	7155.05
546.138	7096.3
546.503	7152.34
546.867	7179.01
547.231	7264.88
547.595	7312.56
547.959	7369.96
548.324	7333.8
548.688	7311.88
549.052	7383.29
549.416	7448.38
549.779	7357.98
550.143	7377.64
550.507	7479.56
550.871	7522.05
551.235	7555.27
551.599	7566.57
551.962	7576.51
552.326	7602.72
552.689	7672.33
553.053	7627.81
553.417	7655.15
553.78	7795.26
554.143	7767.92
554.507	7760.46
554.87	7781.48
555.234	7861.02
555.597	7834.13
555.96	7888.82
556.323	7950.29
556.686	7943.96
557.05	7960.23
557.413	7988.25
557.776	8032.32
558.139	8042.49
558.502	8114.12
558.865	8129.94
559.228	8146.21
559.59	8173.1
559.953	8221.01
560.316	8314.34
560.679	8355.92
561.041	8326.32
561.404	8381.23
561.767	8440.44
562.129	8458.07
562.492	8493.32
562.854	8448.8
563.217	8497.84
563.579	8527.67
563.941	8587.56
564.304	8659.42
564.666	8687.22
565.028	8643.83
565.39	8727.44
565.753	8840.66
566.115	8796.14
566.477	8897.61
566.839	8895.57
567.201	8867.32
567.563	8955.46
567.925	8997.04
568.287	9021.67
568.648	9060.76
569.01	9162.23
569.372	9173.08
569.734	9138.28
570.095	9207.65
570.457	9247.65
570.819	9239.29
571.18	9311.38
571.542	9277.03
571.903	9305.5
572.265	9352.73
572.626	9374.2
572.987	9443.13
573.349	9451.26
573.71	9516.35
574.071	9516.12
574.432	9459.4
574.794	9560.19
575.155	9608.55
575.516	9549.11
575.877	9561.09
576.238	9617.13
576.599	9670.69
576.96	9671.37
577.32	9731.71
577.681	9673.18
578.042	9715.21
578.403	9718.15
578.763	9699.39
579.124	9754.08
579.485	9807.64
579.845	9786.62
580.206	9797.92
580.566	9796.34
580.927	9793.4
581.287	9893.06
581.648	9819.61
582.008	9847.18
582.368	9803.12
582.728	9841.08
583.089	9836.79
583.449	9860.29
583.809	9813.51
584.169	9823
584.529	9809.45
584.889	9882.66
585.249	9902.78
585.609	9820.07
585.969	9812.16
586.329	9865.04
586.688	9912.04
587.048	9916.56
587.408	9832.04
587.768	9850.12
588.127	9832.04
588.487	9852.83
588.846	9927.41
589.206	9866.62
589.565	9882.44
589.925	9866.85
590.284	9899.84
590.643	9912.27
591.003	9951.81
591.362	9962.89
591.721	9950.01
592.08	9853.06
592.44	9931.7
592.799	9902.1
593.158	9961.53
593.517	9925.37
593.876	9898.03
594.235	9938.03
594.593	10001.3
594.952	9979.84
595.311	9897.58
595.67	9985.71
596.029	10019.61
596.387	10072.49
596.746	10020.06
597.104	9912.72
597.463	9935.77
597.822	10001.08
598.18	9878.82
598.538	9989.33
598.897	10030.91
599.255	9891.93
599.613	10134.63
599.972	10022.55
600.33	10080.62
600.688	9999.72
601.046	10092.83
601.404	10030.91
601.762	10076.56
602.12	10130.34
602.478	10059.38
602.836	10073.85
603.194	10022.55
603.552	9998.59
603.91	10003.34
604.268	10170.11
604.625	10020.97
604.983	10156.78
605.341	10066.39
605.698	10140.28
606.056	10181.41
606.413	10093.51
606.771	10157.46
607.128	10129.44
607.485	10206.95
607.843	10160.4
608.2	10249.43
608.557	10239.04
608.914	10162.66
609.272	10219.83
609.629	10271.81
609.986	10318.36
610.343	10241.07
610.7	10248.3
611.057	10245.82
611.414	10361.97
611.771	10269.55
612.127	10361.52
612.484	10414.85
612.841	10449.2
613.198	10296.44
613.554	10318.36
613.911	10418.47
614.267	10327.4
614.624	10317
614.98	10394.74
615.337	10418.24
615.693	10413.95
616.05	10421.63
616.406	10468.41
616.762	10297.12
617.118	10390.9
617.475	10369.66
617.831	10407.17
618.187	10417.79
618.543	10420.95
618.899	10463.67
619.255	10433.38
619.611	10492.37
619.967	10481.07
620.323	10467.06
620.678	10463.67
621.034	10477.9
621.39	10479.03
621.746	10416.44
622.101	10514.74
622.457	10453.04
622.812	10393.16
623.168	10495.08
623.523	10446.49
623.879	10540.05
624.234	10470.67
624.589	10521.52
624.945	10514.06
625.3	10552.25
625.655	10430.22
626.01	10525.13
626.365	10519.71
626.72	10454.4
627.075	10462.76
627.43	10467.06
627.785	10435.19
628.14	10446.49
628.495	10464.57
628.85	10405.59
629.205	10400.39
629.559	10429.77
629.914	10352.48
630.269	10391.8
630.623	10390.9
630.978	10322.2
631.332	10453.72
631.687	10397
632.041	10359.94
632.396	10416.89
632.75	10342.54
633.104	10332.14
633.459	10260.96
633.813	10240.39
634.167	10224.8
634.521	10267.06
634.875	10211.69
635.229	10237.23
635.583	10183.9
635.937	10183.22
636.291	10161.75
636.645	10195.65
636.999	10181.41
637.352	10238.81
637.706	10154.52
638.06	10159.27
638.413	10135.76
638.767	10129.89
639.121	10119.95
639.474	10023.45
639.828	10008.99
640.181	10036.11
640.534	10107.06
640.888	9925.37
641.241	10015.99
641.594	9987.52
641.947	9996.33
642.301	9994.07
642.654	10037.01
643.007	9962.89
643.36	9991.14
643.713	9908.43
644.066	9933.74
644.419	9953.62
644.771	9872.27
645.124	9792.5
645.477	9751.14
645.83	9626.4
646.182	9583.01
646.535	9580.52
646.888	9568.1
647.24	9522.22
647.593	9528.1
647.945	9482
648.298	9461.43
648.65	9449.23
649.002	9423.69
649.355	9503.24
649.707	9468.66
650.059	9515.89
650.411	9635.21
650.763	9611.03
651.115	9797.02
651.467	9699.84
651.819	9659.62
652.171	9651.71
652.523	9670.24
652.875	9605.38
653.227	9540.07
653.578	9623.69
653.93	9664.14
654.282	9590.47
654.633	9527.87
654.985	9560.64
655.337	9541.43
655.688	9580.52
656.039	9623.01
656.391	9499.62
656.742	9548.66
657.094	9528.55
657.445	9549.57
657.796	9552.28
658.147	9485.39
658.498	9509.79
658.849	9513.86
659.2	9485.84
659.551	9448.1
659.902	9524.93
660.253	9451.71
660.604	9465.05
660.955	9409.46
661.306	9496.23
661.656	9436.12
662.007	9423.69
662.358	9467.76
662.708	9447.87
663.059	9434.54
663.409	9319.29
663.76	9374.65
664.11	9365.84
664.461	9397.48
664.811	9370.59
665.161	9335.56
665.511	9301.44
665.862	9277.71
666.212	9342.57
666.562	9319.06
666.912	9291.94
667.262	9298.95
667.612	9261.44
667.962	9316.13
668.312	9275.9
668.662	9280.87
669.011	9286.3
669.361	9274.32
669.711	9293.53
670.06	9235.45
670.41	9260.31
670.76	9202
671.109	9209.46
671.459	9216.01
671.808	9113.42
672.157	9279.74
672.507	9164.94
672.856	9199.74
673.205	9158.39
673.554	9123.59
673.904	9105.51
674.253	9173.53
674.602	9163.81
674.951	9020.99
675.3	8939.19
675.649	9071.16
675.998	9154.1
676.346	9151.84
676.695	9164.94
677.044	9092.4
677.393	9097.15
677.741	9072.97
678.09	9072.29
678.438	9112.74
678.787	9074.32
679.135	9096.7
679.484	8997.26
679.832	9044.49
680.181	9009.92
680.529	9009.92
680.877	8980.31
681.225	8975.34
681.573	9006.98
681.922	8946.87
682.27	9008.11
682.618	8988.22
682.966	8931.95
683.314	8956.59
683.661	8893.09
684.009	8878.17
684.357	8887.21
684.705	8934.21
685.053	8836.82
685.4	8866.42
685.748	8759.76
686.095	8778.74
686.443	8731.96
686.79	8769.02
687.138	8692.41
687.485	8737.38
687.832	8701.23
688.18	8635.24
688.527	8656.48
688.874	8682.02
689.221	8623.26
689.568	8556.15
689.915	8516.6
690.262	8583.49
690.609	8579.65
690.956	8498.29
691.303	8519.76
691.65	8427.79
691.997	8452.42
692.344	8409.71
692.69	8449.71
693.037	8370.39
693.383	8282.25
693.73	8370.16
694.077	8234.12
694.423	8248.13
694.769	8239.32
695.116	8222.14
695.462	8239.32
695.808	8165.87
696.155	8181.01
696.501	8130.17
696.847	8070.96
697.193	8066.67
697.539	8114.12
697.885	8044.07
698.231	8008.81
698.577	7982.37
698.923	8003.39
699.269	7941.47
699.614	7895.6
699.96	7885.2
700.306	7907.35
700.651	7871.64
700.997	7879.55
701.342	7773.34
701.688	7842.72
702.033	7785.32
702.379	7878.87
702.724	7752.78
703.069	7807.46
703.415	7701.7
703.76	7688.37
704.105	7690.41
704.45	7689.73
704.795	7660.35
705.14	7542.16
705.485	7581.03
705.83	7600.24
706.175	7530.86
706.52	7558.21
706.865	7535.61
707.209	7519.34
707.554	7448.15
707.899	7507.36
708.243	7427.59
708.588	7482.05
708.932	7453.58
709.277	7397.31
709.621	7452.67
709.966	7400.7
710.31	7348.95
710.654	7320.47
710.998	7351.21
711.342	7355.95
711.687	7312.79
712.031	7282.73
712.375	7207.48
712.719	7330.87
713.063	7237.99
713.407	7249.51
713.75	7233.24
714.094	7196.86
714.438	7203.86
714.782	7257.87
715.125	7190.98
715.469	7185.56
715.812	7205.22
716.156	7084.09
716.499	7134.71
716.843	7127.03
717.186	7052.46
717.53	7154.6
717.873	7057.88
718.216	7061.27
718.559	7062.17
718.902	7005.23
719.246	7042.51
719.589	7000.25
719.932	7025.11
720.275	6967.03
720.617	6935.4
720.96	6954.83
721.303	6939.01
721.646	6910.99
721.989	6870.77
722.331	6945.57
722.674	6907.83
723.016	6887.26
723.359	6913.02
723.701	6877.77
724.044	6819.47
724.386	6761.39
724.729	6804.78
725.071	6752.35
725.413	6807.49
725.755	6790.09
726.097	6751.22
726.439	6722.75
726.782	6759.81
727.124	6751.9
727.465	6697.66
727.807	6653.37
728.149	6719.13
728.491	6616.54
728.833	6673.26
729.175	6622.64
729.516	6623.99
729.858	6639.59
730.199	6609.08
730.541	6583.54
730.882	6614.05
731.224	6614.28
731.565	6490.66
731.906	6531.11
732.248	6569.53
732.589	6516.65
732.93	6472.58
733.271	6492.7
733.612	6486.82
733.953	6510.78
734.294	6469.42
734.635	6470.1
734.976	6453.83
735.317	6433.49
735.658	6461.06
735.999	6459.7
736.339	6391.68
736.68	6442.08
737.021	6362.53
737.361	6367.95
737.702	6360.95
738.042	6411.79
738.383	6403.66
738.723	6372.47
739.063	6383.77
739.404	6379.25
739.744	6345.13
740.084	6320.95
740.424	6390.1
740.764	6262.87
741.104	6300.39
741.444	6252.7
741.784	6248.18
742.124	6281.4
742.464	6303.1
742.804	6227.84
743.143	6260.16
743.483	6261.97
743.823	6219.71
744.162	6178.35
744.502	6231.69
744.841	6220.61
745.181	6212.03
745.52	6186.04
745.86	6184.23
746.199	6232.36
746.538	6158.47
746.877	6207.73
747.216	6194.4
747.556	6168.86
747.895	6152.14
748.234	6130.45
748.573	6119.37
748.911	6096.1
749.25	6098.13
749.589	6028.75
749.928	6033.5
750.267	6047.74
750.605	6006.61
750.944	6024.69
751.283	5925.71
751.621	6026.49
751.96	5927.06
752.298	5978.13
752.636	5976.55
752.975	5937
753.313	5951.69
753.651	5990.34
753.989	5915.31
754.327	5885.93
754.666	5872.83
755.004	5873.73
755.342	5918.47
755.679	5858.59
756.017	5825.6
756.355	5847.97
756.693	5807.06
757.031	5877.57
757.368	5788.99
757.706	5790.79
758.044	5812.26
758.381	5811.13
758.719	5745.82
759.056	5699.27
759.394	5719.16
759.731	5614.3
760.068	5666.5
760.405	5650.91
760.743	5592.38
761.08	5623.11
761.417	5558.26
761.754	5621.31
762.091	5586.73
762.428	5597.13
762.765	5564.59
763.102	5600.97
763.438	5510.58
763.775	5493.17
764.112	5506.73
764.449	5494.53
764.785	5443.23
765.122	5440.75
765.458	5422.89
765.795	5378.83
766.131	5411.59
766.467	5406.85
766.804	5384.93
767.14	5366.62
767.476	5365.95
767.812	5264.03
768.148	5355.55
768.485	5268.55
768.821	5272.16
769.157	5221.09
769.492	5257.02
769.828	5227.42
770.164	5219.51
770.5	5232.16
770.836	5140.87
771.171	5124.82
771.507	5103.81
771.842	5114.65
772.178	5093.86
772.513	5063.36
772.849	5054.54
773.184	5082.56
773.519	5073.52
773.855	4994.43
774.19	5012.06
774.525	4997.59
774.86	4963.7
775.195	4988.1
775.53	4928.44
775.865	4926.18
776.2	4877.15
776.535	4899.52
776.87	4874.66
777.205	4840.54
777.539	4803.25
777.874	4831.95
778.209	4810.03
778.543	4795.11
778.878	4792.63
779.212	4783.14
779.547	4755.79
779.881	4710.14
780.215	4722.57
780.55	4741.56
780.884	4674.44
781.218	4674.21
781.552	4629.92
781.886	4611.84
782.22	4624.95
782.554	4608.68
782.888	4579.75
783.222	4572.07
783.556	4544.73
783.889	4552.18
784.223	4518.74
784.557	4499.75
784.89	4491.62
785.224	4507.21
785.557	4459.3
785.891	4489.81
786.224	4457.27
786.558	4413.66
786.891	4390.38
787.224	4404.16
787.557	4381.79
787.891	4370.27
788.224	4340.21
788.557	4345.18
788.89	4321.23
789.223	4325.97
789.556	4276.94
789.888	4276.94
790.221	4307.22
790.554	4244.85
790.887	4222.02
791.219	4191.97
791.552	4198.75
791.884	4162.36
792.217	4181.57
792.549	4177.73
792.882	4116.71
793.214	4121.91
793.546	4124.4
793.879	4095.25
794.211	4100.67
794.543	4122.14
794.875	4081.01
795.207	4121.23
795.539	4087.79
795.871	4062.25
796.203	4010.5
796.535	4031.29
796.867	3970.5
797.198	3962.82
797.53	3979.32
797.862	3965.98
798.193	3994.23
798.525	3934.35
798.856	3921.24
799.188	3925.31
799.519	3855.7
799.85	3868.13
800.182	3849.38
800.513	3847.57
800.844	3835.82
801.175	3829.26
801.506	3852.54
801.837	3811.41
802.168	3808.93
802.499	3784.07
802.83	3789.72
803.161	3758.31
803.491	3747.68
803.822	3762.15
804.153	3754.46
804.483	3742.03
804.814	3719.21
805.145	3679.89
805.475	3682.37
805.805	3673.79
806.136	3637.86
806.466	3685.09
806.796	3658.19
807.126	3653
807.457	3688.02
807.787	3641.47
808.117	3599.67
808.447	3634.47
808.777	3645.09
809.107	3570.97
809.436	3548.82
809.766	3568.03
810.096	3586.78
810.426	3556.5
810.755	3538.65
811.085	3576.84
811.414	3561.25
811.744	3507.92
812.073	3554.24
812.403	3506.33
812.732	3466.56
813.061	3492.1
813.39	3493.68
813.719	3484.64
814.049	3506.56
814.378	3483.06
814.707	3492.1
815.036	3459.78
815.365	3435.83
815.693	3429.73
816.022	3399.22
816.351	3411.65
816.68	3368.71
817.008	3410.74
817.337	3358.99
817.665	3377.07
817.994	3396.05
818.322	3403.74
818.651	3387.24
818.979	3350.41
819.307	3381.14
819.636	3365.1
819.964	3303.63
820.292	3373.23
820.62	3317.41
820.948	3330.07
821.276	3321.03
821.604	3292.33
821.932	3302.72
822.259	3311.31
822.587	3335.27
822.915	3330.52
823.243	3320.58
823.57	3332.55
823.898	3341.82
824.225	3297.3
824.553	3300.01
824.88	3329.39
825.207	3342.95
825.535	3308.83
825.862	3319.9
826.189	3326.45
826.516	3351.76
826.843	3341.82
827.17	3333.46
827.497	3332.1
827.824	3304.08
828.151	3333.01
828.478	3321.25
828.805	3337.53
829.131	3334.81
829.458	3327.13
829.785	3295.72
830.111	3300.01
830.438	3328.94
830.764	3322.84
831.09	3331.42
831.417	3265.21
831.743	3322.84
832.069	3311.76
832.395	3303.85
832.722	3310.41
833.048	3307.47
833.374	3315.83
833.7	3271.76
834.026	3286.91
834.351	3299.56
834.677	3270.18
835.003	3234.03
835.329	3284.87
835.654	3249.17
835.98	3255.04
836.306	3254.14
836.631	3245.55
836.956	3266.57
837.282	3220.69
837.607	3247.36
837.932	3206.68
838.258	3226.34
838.583	3204.87
838.908	3208.49
839.233	3216.4
839.558	3208.26
839.883	3220.01
840.208	3167.13
840.533	3173.46
840.858	3145.44
841.182	3168.04
841.507	3160.13
841.832	3147.7
842.156	3161.48
842.481	3149.51
842.805	3108.38
843.13	3169.39
843.454	3114.03
843.778	3091.88
844.103	3079
844.427	3108.6
844.751	3118.1
845.075	3093.01
845.399	3080.81
845.723	3035.84
846.047	3060.24
846.371	3052.11
846.695	2994.48
847.019	2991.32
847.343	2998.78
847.666	2980.7
847.99	2940.47
848.313	2966.24
848.637	2952.9
848.96	2935.95
849.284	2964.65
849.607	2912.23
849.931	2921.49
850.254	2895.5
850.577	2872.9
850.9	2860.25
851.223	2847.82
851.546	2831.1
851.869	2823.41
852.192	2853.7
852.515	2835.39
852.838	2786.35
853.161	2809.18
853.483	2792.91
853.806	2752.68
854.129	2787.48
854.451	2751.55
854.774	2773.02
855.096	2743.19
855.419	2762.4
855.741	2720.14
856.063	2744.32
856.385	2719.69
856.708	2715.85
857.03	2724.43
857.352	2681.5
857.674	2664.32
857.996	2683.08
858.318	2670.88
858.64	2639.24
858.961	2642.85
859.283	2653.48
859.605	2660.48
859.926	2622.74
860.248	2652.8
860.57	2639.01
860.891	2620.26
861.212	2580.71
861.534	2629.3
861.855	2631.33
862.176	2587.94
862.498	2615.51
862.819	2594.27
863.14	2601.73
863.461	2595.4
863.782	2611.67
864.103	2603.31
864.424	2600.37
864.745	2591.56
865.065	2586.81
865.386	2580.48
865.707	2563.31
866.027	2555.85
866.348	2539.35
866.668	2559.47
866.989	2561.5
867.309	2570.99
867.63	2532.12
867.95	2540.71
868.27	2562.4
868.59	2545.68
868.91	2545.23
869.23	2529.64
869.55	2521.28
869.87	2542.29
870.19	2502.74
870.51	2552.01
870.83	2532.57
871.15	2518.11
871.469	2497.55
871.789	2512.24
872.109	2489.19
872.428	2479.47
872.748	2497.77
873.067	2485.57
873.386	2488.51
873.706	2470.2
874.025	2455.29
874.344	2501.16
874.663	2472.92
874.982	2503.87
875.301	2475.85
875.62	2450.09
875.939	2436.53
876.258	2449.86
876.577	2479.47
876.896	2446.7
877.214	2449.41
877.533	2455.51
877.852	2422.75
878.17	2458.23
878.489	2431.79
878.807	2431.56
879.125	2459.58
879.444	2423.42
879.762	2418.45
880.08	2448.28
880.398	2447.38
880.716	2451.45
881.034	2424.33
881.352	2416.65
881.67	2425.68
881.988	2417.32
882.306	2413.48
882.624	2397.44
882.941	2350.21
883.259	2400.15
883.577	2375.06
883.894	2359.92
884.212	2376.87
884.529	2345.69
884.846	2336.2
885.164	2324.22
885.481	2312.47
885.798	2357.21
886.115	2331.68
886.432	2307.5
886.75	2362.86
887.067	2300.94
887.383	2286.03
887.7	2297.78
888.017	2311.34
888.334	2300.04
888.651	2314.95
888.967	2302.98
889.284	2307.72
889.6	2267.72
889.917	2241.06
890.233	2252.36
890.55	2268.17
890.866	2303.43
891.182	2261.85
891.498	2235.86
891.815	2259.14
892.131	2259.59
892.447	2240.15
892.763	2225.24
893.079	2211.68
893.395	2199.25
893.71	2184.11
894.026	2214.16
894.342	2166.93
894.657	2189.76
894.973	2164.45
895.289	2187.5
895.604	2171.23
895.92	2124.45
896.235	2179.82
896.55	2152.47
896.865	2163.09
897.181	2121.29
897.496	2114.73
897.811	2120.61
898.126	2129.65
898.441	2146.14
898.756	2126.03
899.071	2098.01
899.386	2087.84
899.7	2065.47
900.015	2057.78
900.33	2033.15
900.644	2028.86
900.959	2043.1
901.273	2056.65
901.588	2073.38
901.902	2046.49
902.216	2019.14
902.531	1998.58
902.845	2025.92
903.159	2027.5
903.473	1990.67
903.787	2002.42
904.101	1947.73
904.415	1973.04
904.729	1986.83
905.042	2025.92
905.356	1955.41
905.67	1942.53
905.984	1955.64
906.297	1935.75
906.611	1920.39
906.924	1907.28
907.237	1949.77
907.551	1928.07
907.864	1898.92
908.177	1888.3
908.491	1874.51
908.804	1906.6
909.117	1868.41
909.43	1879.48
909.743	1869.09
910.056	1872.25
910.368	1844.68
910.681	1824.57
910.994	1868.64
911.307	1844.91
911.619	1841.52
911.932	1839.94
912.244	1797.45
912.557	1812.37
912.869	1841.07
913.181	1817.11
913.494	1800.62
913.806	1801.07
914.118	1780.28
914.43	1792.03
914.742	1762.88
915.054	1772.14
915.366	1773.27
915.678	1748.19
915.99	1744.57
916.302	1745.93
916.613	1768.07
916.925	1752.48
917.236	1747.74
917.548	1710
917.859	1698.02
918.171	1705.93
918.482	1727.62
918.794	1675.2
919.105	1690.34
919.416	1695.08
919.727	1671.58
920.038	1659.83
920.349	1658.25
920.66	1622.32
920.971	1664.35
921.282	1672.26
921.593	1624.12
921.903	1620.28
922.214	1628.64
922.525	1635.42
922.835	1634.29
923.146	1604.24
923.456	1615.31
923.767	1572.6
924.077	1623.9
924.387	1593.84
924.697	1621.86
925.008	1593.84
925.318	1602.2
925.628	1592.49
925.938	1581.19
926.248	1564.24
926.558	1544.8
926.867	1562.2
927.177	1554.07
927.487	1553.84
927.796	1515.43
928.106	1514.52
928.416	1557.46
928.725	1544.58
929.034	1532.37
929.344	1477.46
929.653	1506.84
929.962	1494.64
930.271	1478.59
930.581	1497.57
930.89	1458.25
931.199	1475.88
931.508	1469.33
931.817	1455.09
932.125	1475.43
932.434	1485.14
932.743	1472.04
933.051	1430.46
933.36	1454.18
933.669	1458.03
933.977	1448.76
934.286	1432.72
934.594	1455.09
934.902	1407.63
935.21	1386.62
935.519	1384.13
935.827	1418.03
936.135	1370.8
936.443	1378.71
936.751	1379.61
937.059	1361.08
937.367	1375.54
937.674	1390.01
937.982	1377.58
938.29	1365.15
938.597	1366.28
938.905	1359.5
939.213	1348.2
939.52	1352.49
939.827	1361.08
940.135	1327.63
940.442	1329.67
940.749	1336.22
941.056	1333.96
941.363	1335.32
941.67	1309.78
941.977	1327.41
942.284	1311.14
942.591	1298.93
942.898	1298.48
943.205	1304.81
943.511	1281.31
943.818	1284.25
944.125	1290.8
944.431	1286.28
944.738	1268.88
945.044	1295.32
945.35	1281.08
945.657	1267.3
945.963	1266.17
946.269	1225.94
946.575	1281.99
946.881	1237.69
947.187	1236.34
947.493	1252.38
947.799	1253.74
948.105	1206.96
948.41	1228.2
948.716	1212.84
949.022	1192.95
949.327	1230.24
949.633	1203.57
949.938	1200.41
950.244	1204.93
950.549	1209.22
950.854	1161.99
951.16	1185.49
951.465	1193.63
951.77	1163.8
952.075	1181.65
952.38	1181.2
952.685	1185.72
952.99	1152.5
953.294	1152.72
953.599	1152.5
953.904	1138.49
954.209	1155.89
954.513	1154.08
954.818	1159.73
955.122	1150.46
955.426	1164.48
955.731	1158.37
956.035	1126.06
956.339	1142.33
956.643	1129.22
956.948	1111.82
957.252	1111.6
957.556	1147.53
957.86	1082.44
958.163	1130.13
958.467	1102.33
958.771	1098.04
959.075	1091.26
959.378	1106.17
959.682	1074.53
959.985	1096
960.289	1083.57
960.592	1048.09
960.896	1089.22
961.199	1055.55
961.502	1057.13
961.805	1080.18
962.108	1054.42
962.411	1046.74
962.714	1024.59
963.017	1059.39
963.32	1070.47
963.623	1046.51
963.926	1055.78
964.228	1045.61
964.531	1025.5
964.833	1043.12
965.136	1003.8
965.438	996.34
965.741	1023.24
966.043	995.89
966.345	1041.31
966.648	1003.12
966.95	1012.84
967.252	983.69
967.554	992.5
967.856	991.6
968.158	983.91
968.46	958.15
968.761	970.58
969.063	972.16
969.365	985.72
969.666	989.79
969.968	960.19
970.269	982.33
970.571	953.18
970.872	966.29
971.174	949.34
971.475	952.73
971.776	956.12
972.077	988.21
972.378	969.9
972.679	950.7
972.98	947.98
973.281	928.55
973.582	948.44
973.883	942.11
974.183	920.41
974.484	926.97
974.785	901.88
975.085	935.1
975.386	934.88
975.686	915.67
975.986	913.41
976.287	914.99
976.587	902.34
976.887	924.93
977.187	899.4
977.487	896.91
977.787	898.04
978.087	900.75
978.387	902.79
978.687	874.09
978.987	909.79
979.286	881.32
979.586	870.02
979.885	869.79
980.185	867.31
980.484	857.82
980.784	853.3
981.083	876.12
981.382	853.75
981.682	861.66
981.981	863.47
982.28	854.43
982.579	835.22
982.878	861.43
983.177	857.59
983.475	820.98
983.774	827.31
984.073	837.48
984.372	822.34
984.67	837.93
984.969	825.73
985.267	813.98
985.566	809.46
985.864	824.14
986.162	823.92
986.461	817.37
986.759	815.78
987.057	821.21
987.355	772.17
987.653	820.08
987.951	799.96
988.249	812.85
988.547	813.52
988.844	783.47
989.142	778.5
989.44	786.63
989.737	770.14
990.035	783.47
990.332	783.47
990.63	801.09
990.927	805.84
991.224	769.01
991.521	762
991.819	764.49
992.116	753.41
992.413	751.38
992.71	767.42
993.006	760.87
993.303	773.52
993.6	765.16
993.897	766.07
994.193	769.91
994.49	745.28
994.787	762.45
995.083	728.33
995.379	740.08
995.676	753.41
995.972	746.41
996.268	737.37
996.565	737.59
996.861	733.07
997.157	722
997.453	718.84
997.749	719.97
998.044	707.99
998.34	723.36
998.636	704.83
998.932	706.18
999.227	718.84
999.523	688.1
999.818	705.05
1000.114	693.75
1000.409	713.87
1000.704	685.17
1001	699.63
1001.295	686.97
1001.59	690.59
1001.885	700.76
1002.18	690.59
1002.475	716.8
1002.77	680.19
1003.065	666.18
1003.359	686.75
1003.654	655.79
1003.949	679.06
1004.243	678.39
1004.538	660.76
1004.832	673.87
1005.127	656.92
1005.421	686.97
1005.715	669.35
1006.009	655.79
1006.304	662.34
1006.598	652.85
1006.892	648.1
1007.186	668.89
1007.48	640.87
1007.773	645.17
1008.067	665.73
1008.361	638.39
1008.655	649.91
1008.948	629.57
1009.242	647.43
1009.535	634.09
1009.829	645.17
1010.122	606.07
1010.415	617.6
1010.708	628.44
1011.001	613.76
1011.295	604.94
1011.588	609.01
1011.881	609.69
1012.173	589.35
1012.466	613.53
1012.759	605.39
1013.052	596.35
1013.344	601.55
1013.637	611.27
1013.93	581.44
1014.222	599.07
1014.514	580.31
1014.807	590.48
1015.099	601.33
1015.391	597.03
1015.683	581.21
1015.976	575.34
1016.268	582.34
1016.56	577.82
1016.851	591.83
1017.143	601.55
1017.435	587.54
1017.727	555.45
1018.018	567.2
1018.31	555
1018.602	551.16
1018.893	568.11
1019.185	556.58
1019.476	553.42
1019.767	581.44
1020.058	573.08
1020.35	572.17
1020.641	542.12
1020.932	562.46
1021.223	548.67
1021.514	542.34
1021.804	523.81
1022.095	536.24
1022.386	576.47
1022.677	550.71
1022.967	516.36
1023.258	542.12
1023.548	520.88
1023.839	530.37
1024.129	536.69
1024.419	534.21
1024.709	517.03
1025	538.05
1025.29	540.99
1025.58	529.46
1025.87	512.51
1026.16	528.11
1026.449	548.45
1026.739	476.13
1027.029	527.43
1027.319	506.87
1027.608	516.58
1027.898	511.38
1028.187	511.38
1028.477	500.09
1028.766	476.13
1029.055	496.92
1029.344	500.31
1029.634	493.98
1029.923	507.09
1030.212	492.63
1030.501	500.76
1030.79	520.42
1031.078	481.56
1031.367	493.98
1031.656	485.4
1031.945	484.27
1032.233	513.64
1032.522	473.42
1032.81	487.66
1033.099	484.72
1033.387	495.57
1033.675	475.91
1033.963	466.64
1034.251	468
1034.54	473.65
1034.828	459.86
1035.116	460.54
1035.403	472.29
1035.691	451.27
1035.979	468.9
1036.267	466.64
1036.554	459.63
1036.842	465.51
1037.129	462.57
1037.417	439.07
1037.704	446.98
1037.992	468
1038.279	428.9
1038.566	453.99
1038.853	453.99
1039.14	453.99
