Data from foam_black_FLMS001491_00035.txt Node
Date: Wed Feb 08 10:43:48 GMT 2017
User: dcchb
Spectrometer: FLMS00149
Trigger mode: 0
Integration Time (sec): 2.000000E-2
Scans to average: 10
Electric dark correction enabled: true
Nonlinearity correction enabled: false
Boxcar width: 0
XAxis mode: Wavelengths
Number of Pixels in Spectrum: 2048
>>>>>Begin Spectral Data<<<<<
341.393	-14.94
341.776	-14.94
342.16	-14.94
342.543	-42.06
342.927	-68.28
343.31	-53.59
343.693	-74.83
344.077	-71.66
344.46	-69.4
344.843	-71.66
345.226	-41.61
345.61	-12.23
345.993	-45
346.376	-3.19
346.759	7.43
347.142	35.9
347.525	31.16
347.908	79.29
348.291	85.39
348.674	82.46
349.057	121.55
349.44	130.36
349.823	146.63
350.206	152.96
350.588	188.44
350.971	192.96
351.354	201.55
351.737	226.63
352.119	243.81
352.502	240.64
352.884	236.8
353.267	274.31
353.65	285.39
354.032	274.99
354.414	292.85
354.797	306.86
355.179	312.96
355.562	310.92
355.944	313.18
356.326	307.31
356.709	307.99
357.091	307.08
357.473	327.87
357.855	326.06
358.238	338.04
358.62	327.42
359.002	310.7
359.384	314.31
359.766	337.82
360.148	298.04
360.53	330.13
360.912	315.67
361.294	315.67
361.676	306.18
362.057	303.24
362.439	316.57
362.821	305.05
363.203	319.29
363.584	305.05
363.966	292.85
364.348	313.18
364.729	314.31
365.111	294.43
365.493	312.05
365.874	286.29
366.256	303.24
366.637	310.7
367.019	313.64
367.4	300.53
367.781	276.8
368.163	289.68
368.544	286.97
368.925	292.39
369.306	299.17
369.688	288.78
370.069	319.06
370.45	290.81
370.831	277.03
371.212	298.95
371.593	293.98
371.974	327.42
372.355	300.98
372.736	302.56
373.117	301.66
373.498	312.96
373.879	300.3
374.26	278.83
374.641	304.37
375.021	308.21
375.402	321.55
375.783	300.53
376.163	310.47
376.544	298.27
376.925	297.37
377.305	317.48
377.686	318.61
378.066	296.91
378.447	307.31
378.827	312.51
379.208	300.08
379.588	306.63
379.968	316.35
380.349	318.83
380.729	320.19
381.109	333.97
381.489	303.69
381.87	310.7
382.25	317.25
382.63	317.48
383.01	330.36
383.39	300.3
383.77	309.34
384.15	326.52
384.53	314.54
384.91	321.55
385.29	321.32
385.67	332.84
386.049	316.8
386.429	334.88
386.809	322.9
387.189	338.27
387.568	319.06
387.948	323.81
388.328	327.87
388.707	320.64
389.087	346.18
389.466	326.29
389.846	335.56
390.225	351.15
390.605	352.5
390.984	352.73
391.363	339.17
391.743	330.13
392.122	332.17
392.501	337.36
392.881	345.95
393.26	350.25
393.639	360.87
394.018	340.08
394.397	330.58
394.776	347.08
395.155	341.66
395.534	349.12
395.913	366.97
396.292	349.79
396.671	357.48
397.05	349.12
397.429	336.91
397.808	364.03
398.186	356.57
398.565	355.22
398.944	371.94
399.323	377.81
399.701	387.98
400.08	373.52
400.458	378.04
400.837	359.28
401.215	363.35
401.594	357.02
401.972	350.7
402.351	362.45
402.729	360.87
403.107	378.49
403.486	383.46
403.864	364.26
404.242	383.69
404.62	362.45
404.999	380.3
405.377	378.94
405.755	389.79
406.133	395.22
406.511	378.04
406.889	397.48
407.267	414.2
407.645	403.58
408.023	382.11
408.401	380.3
408.779	411.49
409.156	397.02
409.534	418.27
409.912	400.19
410.29	384.59
410.667	407.64
411.045	398.38
411.422	426.85
411.8	409.68
412.178	426.4
412.555	448.1
412.933	408.32
413.31	439.51
413.687	430.47
414.065	459.85
414.442	440.64
414.819	424.82
415.197	437.47
415.574	451.94
415.951	446.74
416.328	430.69
416.705	433.41
417.082	438.15
417.46	427.98
417.837	435.21
418.214	439.73
418.591	424.59
418.967	476.57
419.344	475.89
419.721	485.61
420.098	462.56
420.475	466.85
420.852	458.26
421.228	459.17
421.605	473.63
421.982	456
422.358	466.85
422.735	480.64
423.111	485.16
423.488	455.33
423.864	474.08
424.241	490.58
424.617	471.37
424.994	474.08
425.37	486.74
425.746	505.72
426.123	510.24
426.499	494.2
426.875	471.15
427.251	482.44
427.627	512.05
428.003	508.43
428.379	502.11
428.756	493.52
429.132	522.22
429.507	495.1
429.883	529.68
430.259	507.98
430.635	516.12
431.011	544.82
431.387	546.17
431.763	550.24
432.138	554.31
432.514	544.14
432.89	555.21
433.265	563.57
433.641	559.73
434.016	568.54
434.392	568.09
434.767	569.22
435.143	564.7
435.518	562.44
435.894	581.43
436.269	573.74
436.644	571.48
437.02	584.36
437.395	569.67
437.77	590.01
438.145	582.1
438.52	599.5
438.895	580.97
439.271	608.54
439.646	616.68
440.021	611.26
440.395	615.1
440.77	612.61
441.145	616.45
441.52	605.38
441.895	627.07
442.27	616.23
442.645	621.42
443.019	635.44
443.394	638.83
443.769	632.05
444.143	631.37
444.518	637.24
444.892	635.89
445.267	641.54
445.641	638.6
446.016	632.27
446.39	644.47
446.764	643.12
447.139	644.93
447.513	659.16
447.887	666.17
448.262	685.15
448.636	670.46
449.01	658.94
449.384	656.9
449.758	665.49
450.132	688.32
450.506	677.24
450.88	657.36
451.254	693.51
451.628	698.26
452.002	707.98
452.376	689.67
452.75	670.46
453.123	705.26
453.497	688.99
453.871	734.42
454.244	713.63
454.618	727.86
454.992	761.99
455.365	751.14
455.739	733.74
456.112	738.94
456.486	752.95
456.859	757.47
457.232	775.54
457.606	752.72
457.979	764.25
458.352	770.57
458.725	798.59
459.099	804.02
459.472	792.95
459.845	809.67
460.218	802.66
460.591	813.74
460.964	804.7
461.337	832.04
461.71	829.1
462.083	855.77
462.456	848.09
462.829	866.84
463.201	864.13
463.574	869.1
463.947	884.92
464.32	884.02
464.692	879.5
465.065	893.28
465.438	889.89
465.81	897.35
466.183	904.35
466.555	941.87
466.928	922.66
467.3	945.03
467.672	949.33
468.045	963.34
468.417	985.71
468.789	990.23
469.161	973.96
469.534	993.84
469.906	1027.74
470.278	1003.79
470.65	1018.93
471.022	1044.69
471.394	1046.05
471.766	1032.04
472.138	1062.99
472.51	1067.06
472.882	1114.97
473.253	1096.67
473.625	1105.03
473.997	1124.69
474.369	1126.95
474.74	1125.82
475.112	1161.52
475.484	1153.84
475.855	1184.35
476.227	1178.25
476.598	1213.05
476.97	1232.71
477.341	1247.62
477.713	1272.25
478.084	1225.25
478.455	1275.42
478.827	1301.41
479.198	1314.06
479.569	1316.32
479.94	1340.05
480.311	1371.01
480.682	1408.97
481.053	1434.28
481.424	1420.73
481.795	1434.96
482.166	1463.66
482.537	1439.03
482.908	1464.34
483.279	1508.41
483.65	1493.04
484.021	1531.91
484.391	1568.29
484.762	1545.24
485.133	1587.73
485.503	1632.7
485.874	1608.97
486.244	1608.74
486.615	1665.24
486.985	1659.36
487.356	1720.38
487.726	1738.01
488.097	1730.77
488.467	1763.54
488.837	1767.61
489.207	1779.13
489.578	1844.89
489.948	1810.32
490.318	1826.36
490.688	1817.55
491.058	1854.84
491.428	1907.72
491.798	1918.34
492.168	1915.63
492.538	1926.93
492.908	1964.44
493.278	1959.02
493.648	1987.04
494.017	2010.77
494.387	2071.1
494.757	2039.24
495.126	2045.34
495.496	2069.52
495.866	2074.04
496.235	2124.66
496.605	2144.32
496.974	2129.86
497.344	2127.83
497.713	2141.38
498.082	2150.65
498.452	2191.33
498.821	2184.1
499.19	2213.47
499.559	2233.59
499.928	2215.51
500.298	2244.21
500.667	2242.4
501.036	2252.57
501.405	2272.45
501.774	2257.99
502.143	2320.14
502.512	2303.19
502.88	2331.89
503.249	2302.06
503.618	2355.84
503.987	2357.88
504.356	2375.28
504.724	2371.21
505.093	2373.47
505.462	2394.49
505.83	2432.22
506.199	2423.41
506.567	2489.62
506.936	2472.45
507.304	2502.05
507.672	2503.63
508.041	2505.44
508.409	2554.48
508.777	2537.98
509.145	2568.04
509.514	2588.15
509.882	2572.79
510.25	2598.55
510.618	2589.28
510.986	2619.34
511.354	2639
511.722	2659.56
512.09	2660.01
512.458	2663.86
512.826	2692.78
513.193	2683.07
513.561	2737.3
513.929	2761.48
514.297	2736.85
514.664	2750.41
515.032	2781.37
515.4	2829.28
515.767	2790.41
516.135	2837.41
516.502	2818.43
516.869	2889.84
517.237	2884.19
517.604	2864.76
517.972	2973.9
518.339	2928.03
518.706	2934.36
519.073	2954.02
519.44	2984.07
519.808	3001.7
520.175	3053.9
520.542	3069.72
520.909	3079.44
521.276	3107.23
521.643	3162.6
522.009	3156.95
522.376	3091.87
522.743	3163.28
523.11	3190.85
523.477	3253.9
523.843	3253.9
524.21	3288.02
524.577	3275.37
524.943	3306.1
525.31	3336.16
525.676	3370.05
526.043	3337.29
526.409	3344.97
526.776	3373.89
527.142	3446.21
527.508	3428.13
527.874	3407.79
528.241	3484.63
528.607	3443.72
528.973	3536.6
529.339	3558.75
529.705	3539.99
530.071	3538.18
530.437	3569.14
530.803	3604.62
531.169	3655.47
531.535	3608.24
531.901	3670.61
532.267	3698.41
532.632	3708.12
532.998	3780.89
533.364	3713.55
533.73	3708.12
534.095	3773.88
534.461	3775.47
534.826	3834.22
535.192	3844.39
535.557	3829.93
535.923	3838.51
536.288	3876.93
536.653	3886.2
537.019	3886.42
537.384	3938.4
537.749	3933.88
538.114	3985.63
538.479	3973.65
538.845	3969.13
539.21	4024.5
539.575	3991.05
539.94	4002.13
540.305	4061.79
540.67	3975.91
541.034	4047.77
541.399	4109.02
541.764	4026.98
542.129	4090.94
542.494	4111.5
542.858	4115.12
543.223	4126.42
543.587	4128
543.952	4172.29
544.316	4138.62
544.681	4182.69
545.045	4155.79
545.41	4194.21
545.774	4223.82
546.138	4242.35
546.503	4255.68
546.867	4213.19
547.231	4275.11
547.595	4271.72
547.959	4275.57
548.324	4306.53
548.688	4369.35
549.052	4338.84
549.416	4363.92
549.779	4380.87
550.143	4341.78
550.507	4440.31
550.871	4447.76
551.235	4479.18
551.599	4478.72
551.962	4453.41
552.326	4464.49
552.689	4499.74
553.053	4476.46
553.417	4508.78
553.78	4562.56
554.143	4570.47
554.507	4610.47
554.87	4614.77
555.234	4607.08
555.597	4616.57
555.96	4638.04
556.323	4649.12
556.686	4652.5
557.05	4732.05
557.413	4735.21
557.776	4761.65
558.139	4763.01
558.502	4787.64
558.865	4811.14
559.228	4847.3
559.59	4847.3
559.953	4895.44
560.316	4914.87
560.679	5016.11
561.041	4889.79
561.404	4979.28
561.767	5008.65
562.129	4977.02
562.492	5028.99
562.854	5031.48
563.217	5029.44
563.579	5079.39
563.941	5116
564.304	5159.61
564.666	5177.01
565.028	5135.66
565.39	5214.98
565.753	5216.78
566.115	5307.18
566.477	5320.06
566.839	5272.83
567.201	5310.79
567.563	5388.76
567.925	5391.24
568.287	5377.68
568.648	5374.07
569.01	5399.83
569.372	5460.85
569.734	5430.56
570.095	5423.11
570.457	5497.23
570.819	5521.41
571.18	5445.7
571.542	5570.22
571.903	5529.77
572.265	5538.81
572.626	5592.14
572.987	5586.94
573.349	5589.2
573.71	5641.41
574.071	5661.07
574.432	5685.02
574.794	5716.88
575.155	5663.1
575.516	5678.92
575.877	5715.53
576.238	5767.5
576.599	5788.07
576.96	5767.96
577.32	5780.16
577.681	5789.2
578.042	5786.71
578.403	5832.81
578.763	5833.04
579.124	5852.02
579.485	5859.48
579.845	5899.7
580.206	5899.93
580.566	5821.06
580.927	5900.16
581.287	5896.09
581.648	5892.25
582.008	5892.25
582.368	5893.15
582.728	5903.55
583.089	5925.92
583.449	5965.69
583.809	5904.45
584.169	5953.71
584.529	5944.9
584.889	6005.24
585.249	5929.31
585.609	5915.07
585.969	5942.64
586.329	5955.75
586.688	5904.45
587.048	5932.25
587.408	5877.78
587.768	5936.76
588.127	5993.49
588.487	5940.15
588.846	6032.81
589.206	5915.97
589.565	5929.99
589.925	5971.11
590.284	6007.27
590.643	5932.92
591.003	5958.91
591.362	5972.02
591.721	5963.66
592.08	5988.29
592.44	5918.01
592.799	6005.24
593.158	5932.02
593.517	5971.79
593.876	5962.53
594.235	5961.62
594.593	5965.69
594.952	5963.2
595.311	6007.72
595.67	5962.07
596.029	5984.67
596.387	5981.28
596.746	6019.47
597.104	5979.7
597.463	5971.57
597.822	6025.35
598.18	5951.45
598.538	6019.93
598.897	6028.74
599.255	6002.98
599.613	6121.84
599.972	6040.04
600.33	6077.33
600.688	6080.26
601.046	6073.71
601.404	6101.96
601.762	6071.45
602.12	6086.82
602.478	6047.5
602.836	6057.89
603.194	6068.51
603.552	6075.29
603.91	6099.47
604.268	6117.1
604.625	6099.7
604.983	6106.03
605.341	6062.86
605.698	6170.66
606.056	6179.47
606.413	6092.47
606.771	6169.53
607.128	6174.27
607.485	6114.84
607.843	6093.37
608.2	6139.7
608.557	6174.27
608.914	6165.46
609.272	6147.38
609.629	6183.99
609.986	6223.08
610.343	6160.94
610.7	6188.28
611.057	6180.37
611.414	6222.41
611.771	6179.24
612.127	6206.14
612.484	6228.51
612.841	6239.13
613.198	6261.95
613.554	6262.86
613.911	6330.43
614.267	6236.87
614.624	6335.85
614.98	6355.74
615.337	6358.9
615.693	6372.46
616.05	6353.93
616.406	6411.78
616.762	6425.79
617.118	6353.7
617.475	6399.58
617.831	6444.77
618.187	6433.7
618.543	6479.12
618.899	6436.19
619.255	6415.17
619.611	6468.5
619.967	6463.53
620.323	6489.07
620.678	6463.3
621.034	6485
621.39	6397.09
621.746	6409.29
622.101	6470.08
622.457	6427.15
622.812	6402.52
623.168	6390.31
623.523	6375.4
623.879	6360.48
624.234	6357.32
624.589	6376.75
624.945	6317.77
625.3	6322.52
625.655	6298.11
626.01	6301.27
626.365	6283.65
626.72	6300.37
627.075	6279.58
627.43	6286.13
627.785	6280.26
628.14	6292.46
628.495	6233.71
628.85	6245.01
629.205	6237.77
629.559	6281.16
629.914	6242.97
630.269	6249.98
630.623	6251.11
630.978	6251.78
631.332	6291.11
631.687	6273.25
632.041	6336.53
632.396	6319.35
632.75	6250.43
633.104	6295.4
633.459	6286.81
633.813	6315.96
634.167	6282.29
634.521	6325.23
634.875	6328.39
635.229	6392.8
635.583	6292.01
635.937	6305.57
636.291	6364.55
636.645	6353.7
636.999	6276.87
637.352	6331.1
637.706	6278.9
638.06	6348.73
638.413	6308.28
638.767	6310.54
639.121	6336.53
639.474	6294.95
639.828	6315.51
640.181	6261.28
640.534	6268.06
640.888	6240.71
641.241	6239.36
641.594	6210.88
641.947	6244.33
642.301	6242.52
642.654	6188.51
643.007	6189.41
643.36	6140.15
643.713	6121.62
644.066	6173.59
644.419	6110.32
644.771	6035.29
645.124	5912.58
645.477	5881.17
645.83	5914.39
646.182	5925.01
646.535	5888.18
646.888	5959.59
647.24	5893.38
647.593	5954.17
647.945	5911.45
648.298	5872.13
648.65	5882.98
649.002	5899.7
649.355	5851.8
649.707	5830.78
650.059	5816.77
650.411	5945.35
650.763	5916.88
651.115	6050.66
651.467	6016.99
651.819	5999.36
652.171	5993.03
652.523	5979.02
652.875	5986.03
653.227	5960.49
653.578	5982.87
653.93	6000.04
654.282	5969.76
654.633	5946.93
654.985	5965.46
655.337	5999.36
655.688	6005.46
656.039	5985.8
656.391	5949.42
656.742	5959.14
657.094	5989.42
657.445	5935.41
657.796	5957.1
658.147	5952.36
658.498	5969.31
658.849	5959.36
659.2	5965.69
659.551	5876.65
659.902	5936.31
660.253	5902.19
660.604	5932.7
660.955	5828.52
661.306	5897.44
661.656	5877.33
662.007	5891.12
662.358	5842.3
662.708	5835.52
663.059	5825.58
663.409	5773.61
663.76	5838.91
664.11	5835.98
664.461	5867.61
664.811	5795.53
665.161	5837.56
665.511	5779.48
665.862	5790.1
666.212	5780.61
666.562	5821.29
666.912	5793.04
667.262	5808.18
667.612	5748.97
667.962	5781.74
668.312	5798.69
668.662	5831.46
669.011	5822.42
669.361	5781.74
669.711	5781.29
670.06	5758.01
670.41	5836.88
670.76	5833.04
671.109	5769.31
671.459	5841.4
671.808	5872.81
672.157	5898.12
672.507	5850.21
672.856	5810.21
673.205	5870.55
673.554	5899.93
673.904	5840.72
674.253	5912.81
674.602	5919.14
674.951	5804.11
675.3	5754.4
675.649	5846.15
675.998	5866.94
676.346	5810.21
676.695	5877.33
677.044	5782.19
677.393	5852.93
677.741	5850.44
678.09	5855.19
678.438	5867.61
678.787	5843.89
679.135	5836.65
679.484	5763.89
679.832	5804.56
680.181	5793.49
680.529	5760.95
680.877	5739.48
681.225	5689.31
681.573	5750.1
681.922	5694.96
682.27	5630.33
682.618	5669.43
682.966	5646.15
683.314	5656.55
683.661	5569.99
684.009	5613.61
684.357	5546.49
684.705	5545.81
685.053	5553.05
685.4	5518.24
685.748	5472.6
686.095	5550.33
686.443	5448.64
686.79	5426.72
687.138	5502.88
687.485	5442.54
687.832	5379.49
688.18	5452.71
688.527	5413.16
688.874	5398.93
689.221	5407.29
689.568	5365.48
689.915	5393.95
690.262	5382.2
690.609	5396.44
690.956	5393.73
691.303	5352.15
691.65	5304.24
691.997	5358.25
692.344	5316.67
692.69	5324.58
693.037	5324.8
693.383	5311.47
693.73	5301.98
694.077	5262.66
694.423	5273.28
694.769	5262.21
695.116	5257.46
695.462	5302.21
695.808	5220.63
696.155	5256.33
696.501	5219.27
696.847	5214.07
697.193	5183.79
697.539	5227.86
697.885	5139.05
698.231	5184.69
698.577	5232.15
698.923	5190.12
699.269	5231.47
699.614	5149.44
699.96	5153.96
700.306	5172.27
700.651	5078.26
700.997	5096.56
701.342	5082.78
701.688	5067.64
702.033	5027.86
702.379	5091.36
702.724	5028.77
703.069	5044.81
703.415	4972.04
703.76	5034.64
704.105	4972.72
704.45	4976.34
704.795	4970.91
705.14	4936.79
705.485	4907.87
705.83	4915.55
706.175	4910.35
706.52	4896.57
706.865	4860.63
707.209	4816.57
707.554	4873.97
707.899	4789.45
708.243	4822.22
708.588	4796.68
708.932	4775.44
709.277	4757.13
709.621	4750.13
709.966	4726.63
710.31	4727.08
710.654	4739.96
710.998	4674.2
711.342	4721.66
711.687	4717.36
712.031	4681.2
712.375	4676.01
712.719	4652.28
713.063	4694.31
713.407	4696.57
713.75	4662.22
714.094	4698.61
714.438	4647.31
714.782	4622
715.125	4638.04
715.469	4669.91
715.812	4583.13
716.156	4609.57
716.499	4606.86
716.843	4597.36
717.186	4570.25
717.53	4620.87
717.873	4577.7
718.216	4574.09
718.559	4621.32
718.902	4537.25
719.246	4569.34
719.589	4584.48
719.932	4544.03
720.275	4537.25
720.617	4541.77
720.96	4517.14
721.303	4521.43
721.646	4542.9
721.989	4447.31
722.331	4531.83
722.674	4477.14
723.016	4464.49
723.359	4492.51
723.701	4481.66
724.044	4447.54
724.386	4462.91
724.729	4450.93
725.071	4378.61
725.413	4439.86
725.755	4425.84
726.097	4363.25
726.439	4362.12
726.782	4389.69
727.124	4450.7
727.465	4394.88
727.807	4349.69
728.149	4316.02
728.491	4311.95
728.833	4345.62
729.175	4274.89
729.516	4308.79
729.858	4295.45
730.199	4342.23
730.541	4253.42
730.882	4295.9
731.224	4278.73
731.565	4302.01
731.906	4288.45
732.248	4275.11
732.589	4231.5
732.93	4235.34
733.271	4205.74
733.612	4209.58
733.953	4202.35
734.294	4226.3
734.635	4179.07
734.976	4221.56
735.317	4212.52
735.658	4216.81
735.999	4176.36
736.339	4205.51
736.68	4168
737.021	4189.69
737.361	4111.95
737.702	4229.01
738.042	4177.72
738.383	4167.55
738.723	4140.65
739.063	4116.25
739.404	4147.89
739.744	4121.9
740.084	4099.75
740.424	4132.07
740.764	4133.87
741.104	4079.19
741.444	4135
741.784	4124.84
742.124	4122.12
742.464	4086.87
742.804	4109.47
743.143	4109.47
743.483	4103.37
743.823	4059.3
744.162	4059.98
744.502	4048.45
744.841	4062.69
745.181	4107.43
745.52	4058.4
745.86	4068.11
746.199	4084.61
746.538	4055.91
746.877	4049.36
747.216	4039.41
747.556	4050.71
747.895	4054.1
748.234	4027.66
748.573	4021.79
748.911	4034.89
749.25	4041.9
749.589	3995.35
749.928	3957.16
750.267	4042.8
750.605	3982.24
750.944	3980.21
751.283	3975.46
751.621	3991.96
751.96	3951.73
752.298	3942.69
752.636	3956.03
752.975	3918.51
753.313	3909.02
753.651	3917.38
753.989	3916.48
754.327	3919.64
754.666	3871.51
755.004	3902.02
755.342	3907.89
755.679	3871.51
756.017	3896.82
756.355	3894.33
756.693	3865.41
757.031	3861.34
757.368	3843.03
757.706	3846.2
758.044	3841.23
758.381	3802.81
758.719	3777.05
759.056	3778.63
759.394	3768.46
759.731	3788.57
760.068	3794.45
760.405	3764.17
760.743	3721.68
761.08	3728.01
761.417	3713.09
761.754	3686.88
762.091	3698.18
762.428	3701.57
762.765	3669.93
763.102	3669.03
763.438	3664.73
763.775	3607.11
764.112	3615.47
764.449	3629.48
764.785	3660.21
765.122	3585.64
765.458	3590.16
765.795	3591.74
766.131	3586.32
766.467	3569.82
766.804	3519.88
767.14	3518.75
767.476	3526.66
767.812	3531.4
768.148	3518.07
768.485	3468.36
768.821	3478.3
769.157	3426.77
769.492	3475.13
769.828	3433.33
770.164	3439.66
770.5	3436.94
770.836	3432.42
771.171	3395.14
771.507	3403.95
771.842	3368.02
772.178	3373.67
772.513	3334.12
772.849	3349.04
773.184	3364.63
773.519	3361.47
773.855	3314.23
774.19	3295.7
774.525	3287.79
774.86	3304.97
775.195	3268.81
775.53	3242.6
775.865	3262.26
776.2	3255.25
776.535	3218.42
776.87	3242.37
777.205	3186.55
777.539	3192.43
777.874	3198.31
778.209	3192.66
778.543	3204.63
778.878	3175.93
779.212	3143.17
779.547	3165.76
779.881	3153.56
780.215	3110.4
780.55	3133
780.884	3109.72
781.218	3106.78
781.552	3106.56
781.886	3111.75
782.22	3107.46
782.554	3075.82
782.888	3089.16
783.222	3052.32
783.556	3051.19
783.889	3076.73
784.223	3001.93
784.557	3025.88
784.89	3023.4
785.224	2992.66
785.557	3015.26
785.891	3014.58
786.224	3008.03
786.558	2981.81
786.891	2944.08
787.224	2919.44
787.557	2911.76
787.891	2961.02
788.224	2979.33
788.557	2951.31
788.89	2931.65
789.223	2912.21
789.556	2929.84
789.888	2888.94
790.221	2877.64
790.554	2902.49
790.887	2858.43
791.219	2878.31
791.552	2867.02
791.884	2818.43
792.217	2855.49
792.549	2819.11
792.882	2817.75
793.214	2776.62
793.546	2803.97
793.879	2792.21
794.211	2770.52
794.543	2774.59
794.875	2746.11
795.207	2751.76
795.539	2765.32
795.871	2769.39
796.203	2738.88
796.535	2730.07
796.867	2726.91
797.198	2723.74
797.53	2679
797.862	2679.9
798.193	2709.28
798.525	2647.36
798.856	2687.58
799.188	2646
799.519	2613.91
799.85	2595.61
800.182	2597.19
800.513	2620.69
800.844	2596.29
801.175	2634.7
801.506	2595.84
801.837	2618.66
802.168	2565.78
802.499	2574.59
802.83	2572.79
803.161	2572.33
803.491	2564.65
803.822	2542.28
804.153	2545.89
804.483	2538.44
804.814	2529.17
805.145	2540.47
805.475	2509.74
805.805	2486.23
806.136	2482.17
806.466	2479.45
806.796	2507.48
807.126	2474.26
807.457	2487.59
807.787	2472.68
808.117	2445.33
808.447	2474.03
808.777	2481.26
809.107	2469.29
809.436	2484.2
809.766	2453.24
810.096	2417.76
810.426	2450.3
810.755	2476.29
811.085	2436.74
811.414	2432.68
811.744	2423.41
812.073	2427.93
812.403	2447.37
812.732	2417.31
813.061	2383.64
813.39	2408.04
813.719	2387.25
814.049	2439.68
814.378	2414.6
814.707	2435.61
815.036	2375.95
815.365	2373.24
815.693	2353.36
816.022	2361.04
816.351	2367.37
816.68	2390.64
817.008	2338.44
817.337	2324.88
817.665	2363.75
817.994	2342.96
818.322	2342.06
818.651	2357.42
818.979	2334.37
819.307	2327.82
819.636	2276.75
819.964	2274.04
820.292	2329.85
820.62	2280.59
820.948	2284.43
821.276	2344.77
821.604	2306.13
821.932	2299.12
822.259	2263.42
822.587	2307.93
822.915	2304.09
823.243	2318.55
823.57	2309.97
823.898	2299.35
824.225	2256.64
824.553	2269.29
824.88	2294.37
825.207	2271.1
825.535	2259.8
825.862	2283.75
826.189	2281.95
826.516	2235.62
826.843	2295.73
827.17	2282.17
827.497	2266.8
827.824	2271.32
828.151	2263.42
828.478	2272.45
828.805	2262.29
829.131	2262.29
829.458	2277.88
829.785	2274.26
830.111	2235.39
830.438	2248.95
830.764	2273.58
831.09	2215.28
831.417	2210.99
831.743	2223.64
832.069	2231.78
832.395	2225
832.722	2220.48
833.048	2199.01
833.374	2248.05
833.7	2214.38
834.026	2205.34
834.351	2228.84
834.677	2182.97
835.003	2195.62
835.329	2206.69
835.654	2222.06
835.98	2210.08
836.306	2185
836.631	2190.2
836.956	2203.98
837.282	2199.91
837.607	2209.63
837.932	2197.2
838.258	2203.53
838.583	2197.88
838.908	2192.23
839.233	2182.74
839.558	2189.29
839.883	2179.8
840.208	2181.84
840.533	2198.33
840.858	2200.82
841.182	2192.46
841.507	2209.41
841.832	2202.17
842.156	2190.42
842.481	2154.94
842.805	2164.21
843.13	2189.29
843.454	2174.38
843.778	2227.48
844.103	2204.89
844.427	2196.52
844.751	2181.16
845.075	2187.94
845.399	2156.3
845.723	2170.76
846.047	2166.69
846.371	2159.46
846.695	2149.52
847.019	2138.45
847.343	2109.29
847.666	2126.92
847.99	2119.92
848.313	2120.82
848.637	2109.97
848.96	2079.01
849.284	2085.57
849.607	2080.6
849.931	2080.82
850.254	2060.26
850.577	2076.3
850.9	2059.13
851.223	2081.05
851.546	2034.72
851.869	2031.33
852.192	2017.32
852.515	2056.41
852.838	2037.43
853.161	2015.74
853.483	2002.63
853.806	1987.26
854.129	1989.3
854.451	1997.21
854.774	1981.39
855.096	1957.43
855.419	1947.27
855.741	1958.11
856.063	1977.55
856.385	1942.07
856.708	1968.28
857.03	1950.65
857.352	1934.84
857.674	1916.53
857.996	1911.33
858.318	1927.6
858.64	1905.91
858.961	1921.05
859.283	1898.23
859.605	1884.67
859.926	1860.04
860.248	1874.95
860.57	1851.67
860.891	1847.15
861.212	1876.76
861.534	1839.47
861.855	1818.23
862.176	1852.8
862.498	1835.18
862.819	1853.71
863.14	1847.83
863.461	1821.17
863.782	1816.2
864.103	1836.53
864.424	1785.69
864.745	1798.57
865.065	1774.39
865.386	1791.56
865.707	1751.56
866.027	1768.74
866.348	1753.6
866.668	1779.36
866.989	1761.73
867.309	1759.25
867.63	1771.22
867.95	1731.68
868.27	1750.89
868.59	1774.39
868.91	1740.94
869.23	1745.01
869.55	1743.43
869.87	1750.66
870.19	1742.75
870.51	1731.45
870.83	1736.88
871.15	1746.37
871.469	1727.61
871.789	1733.71
872.109	1707.27
872.428	1741.39
872.748	1747.27
873.067	1718.57
873.386	1736.88
873.706	1741.62
874.025	1708.18
874.344	1738.01
874.663	1709.31
874.982	1719.02
875.301	1733.03
875.62	1701.17
875.939	1731.68
876.258	1727.84
876.577	1725.35
876.896	1723.54
877.214	1707.5
877.533	1716.76
877.852	1725.8
878.17	1733.71
878.489	1712.24
878.807	1750.43
879.125	1719.47
879.444	1728.97
879.762	1705.69
880.08	1716.08
880.398	1728.29
880.716	1737.1
881.034	1705.24
881.352	1714.5
881.67	1727.16
881.988	1697.1
882.306	1717.89
882.624	1699.36
882.941	1706.59
883.259	1708.18
883.577	1720.38
883.894	1684
884.212	1692.58
884.529	1677.67
884.846	1701.17
885.164	1693.49
885.481	1657.33
885.798	1696.88
886.115	1686.03
886.432	1653.71
886.75	1671.79
887.067	1701.85
887.383	1674.73
887.7	1676.54
888.017	1665.46
888.334	1662.98
888.651	1660.49
888.967	1676.76
889.284	1658.01
889.6	1669.76
889.917	1670.89
890.233	1651.68
890.55	1633.15
890.866	1641.96
891.182	1622.75
891.498	1614.62
891.815	1613.49
892.131	1626.6
892.447	1605.35
892.763	1606.48
893.079	1571.68
893.395	1574.17
893.71	1596.54
894.026	1575.98
894.342	1568.52
894.657	1570.33
894.973	1582.53
895.289	1560.16
895.604	1562.64
895.92	1583.66
896.235	1542.98
896.55	1542.3
896.865	1530.78
897.181	1508.18
897.496	1514.06
897.811	1526.26
898.126	1505.02
898.441	1492.36
898.756	1502.31
899.071	1477.22
899.386	1486.26
899.7	1503.44
900.015	1498.92
900.33	1481.06
900.644	1459.37
900.959	1481.29
901.273	1441.97
901.588	1482.87
901.902	1460.05
902.216	1433.83
902.531	1438.58
902.845	1429.31
903.159	1435.41
903.473	1439.48
903.787	1404.23
904.101	1423.21
904.415	1410.78
904.729	1418.24
905.042	1418.69
905.356	1405.58
905.67	1392.03
905.984	1403.1
906.297	1403.55
906.611	1374.17
906.924	1387.96
907.237	1366.04
907.551	1398.58
907.864	1363.55
908.177	1360.61
908.491	1365.81
908.804	1364.91
909.117	1355.87
909.43	1327.85
909.743	1356.32
910.056	1371.91
910.368	1343.21
910.681	1324
910.994	1308.41
911.307	1347.51
911.619	1341.41
911.932	1320.16
912.244	1323.1
912.557	1311.12
912.869	1343.89
913.181	1284.68
913.494	1314.97
913.806	1319.49
914.118	1321.07
914.43	1288.07
914.742	1278.13
915.054	1280.84
915.366	1298.24
915.678	1266.83
915.99	1276.55
916.302	1292.59
916.613	1266.38
916.925	1265.7
917.236	1259.6
917.548	1281.97
917.859	1277
918.171	1248.07
918.482	1265.7
918.794	1249.2
919.105	1269.54
919.416	1250.56
919.727	1232.26
920.038	1222.99
920.349	1240.84
920.66	1250.56
920.971	1241.3
921.282	1217.34
921.593	1215.98
921.903	1194.06
922.214	1206.95
922.525	1198.13
922.835	1193.39
923.146	1181.18
923.456	1203.56
923.767	1199.49
924.077	1187.29
924.387	1193.39
924.697	1169.21
925.008	1168.08
925.318	1177.34
925.628	1192.48
925.938	1176.21
926.248	1140.05
926.558	1165.82
926.867	1159.26
927.177	1159.94
927.487	1169.88
927.796	1144.12
928.106	1144.8
928.416	1135.54
928.725	1117.46
929.034	1101.41
929.344	1135.54
929.653	1127.85
929.962	1108.64
930.271	1072.94
930.581	1112.48
930.89	1070.9
931.199	1112.94
931.508	1073.84
931.817	1090.34
932.125	1109.77
932.434	1086.72
932.743	1072.94
933.051	1062.32
933.36	1077.46
933.669	1072.26
933.977	1042.2
934.286	1056.22
934.594	1030.23
934.902	1046.95
935.21	1044.92
935.519	1061.64
935.827	1027.74
936.135	1029.55
936.443	1049.44
936.751	1028.19
937.059	1011.7
937.367	1027.74
937.674	1016.22
937.982	994.07
938.29	1023.45
938.597	1002.88
938.905	999.27
939.213	996.78
939.52	990.91
939.827	987.52
940.135	989.55
940.442	986.39
940.749	1005.82
941.056	1010.57
941.363	979.38
941.67	966.05
941.977	941.42
942.284	969.21
942.591	962.88
942.898	975.77
943.205	980.74
943.511	953.17
943.818	953.84
944.125	924.24
944.431	958.82
944.738	932.83
945.044	938.93
945.35	937.57
945.657	927.18
945.963	942.32
946.269	928.99
946.575	926.5
946.881	936.9
947.187	942.32
947.493	924.92
947.799	882.43
948.105	913.17
948.41	920.17
948.716	915.2
949.022	920.4
949.327	916.56
949.633	897.58
949.938	901.87
950.244	877.01
950.549	873.85
950.854	894.41
951.16	908.65
951.465	876.11
951.77	894.19
952.075	873.62
952.38	880.17
952.685	872.94
952.99	892.15
953.294	876.56
953.599	870.01
953.904	871.14
954.209	848.54
954.513	866.16
954.818	886.95
955.122	877.91
955.426	867.97
955.731	862.32
956.035	850.57
956.339	871.81
956.643	856.9
956.948	841.31
957.252	851.25
957.556	843.11
957.86	834.3
958.163	854.64
958.467	831.36
958.771	827.29
959.075	838.37
959.378	813.06
959.682	823.9
959.985	843.34
960.289	813.28
960.592	832.72
960.896	822.1
961.199	827.75
961.502	814.41
961.805	817.13
962.108	842.44
962.411	825.94
962.714	813.74
963.017	816.45
963.32	793.62
963.623	795.66
963.926	792.04
964.228	810.57
964.531	809.22
964.833	782.55
965.136	770.57
965.438	767.64
965.741	773.28
966.043	773.51
966.345	772.15
966.648	804.92
966.95	771.7
967.252	755.88
967.554	771.02
967.856	776.45
968.158	754.53
968.46	764.7
968.761	742.78
969.063	738.71
969.365	768.99
969.666	784.36
969.968	792.04
970.269	743
970.571	736.22
970.872	742.78
971.174	736.22
971.475	732.61
971.776	758.14
972.077	734.87
972.378	769.44
972.679	719.73
972.98	706.85
973.281	730.8
973.582	728.09
973.883	731.25
974.183	715.43
974.484	722.89
974.785	704.59
975.085	694.64
975.386	724.7
975.686	732.16
975.986	721.08
976.287	715.43
976.587	684.7
976.887	690.35
977.187	717.47
977.487	705.49
977.787	683.34
978.087	700.52
978.387	688.77
978.687	680.63
978.987	675.43
979.286	677.47
979.586	672.04
979.885	668.2
980.185	679.5
980.484	661.2
980.784	671.59
981.083	697.13
981.382	667.07
981.682	681.99
981.981	663.91
982.28	651.25
982.579	641.54
982.878	659.16
983.177	654.87
983.475	672.04
983.774	641.54
984.073	641.76
984.372	652.84
984.67	639.28
984.969	640.41
985.267	637.24
985.566	623.91
985.864	614.19
986.162	634.53
986.461	639.95
986.759	646.51
987.057	634.98
987.355	646.06
987.653	648.54
987.951	614.19
988.249	631.37
988.547	630.24
988.844	618.26
989.142	599.5
989.44	593.18
989.737	618.26
990.035	616.68
990.332	604.7
990.63	618.26
990.927	623.46
991.224	633.63
991.521	608.77
991.819	609.9
992.116	617.81
992.413	571.26
992.71	614.64
993.006	607.64
993.303	604.93
993.6	597.02
993.897	626.17
994.193	592.72
994.49	592.5
994.787	591.37
995.083	591.37
995.379	594.76
995.676	589.56
995.972	586.62
996.268	603.35
996.565	572.61
996.861	577.36
997.157	581.2
997.453	575.78
997.749	572.61
998.044	605.61
998.34	583.91
998.636	565.38
998.932	572.16
999.227	573.29
999.523	566.51
999.818	561.54
1000.114	584.36
1000.409	563.12
1000.704	551.82
1001	566.28
1001.295	553.63
1001.59	550.47
1001.885	542.78
1002.18	536.45
1002.475	561.54
1002.77	569.9
1003.065	557.02
1003.359	563.8
1003.654	549.11
1003.949	543.23
1004.243	550.24
1004.538	550.92
1004.832	544.59
1005.127	555.44
1005.421	529.68
1005.715	523.12
1006.009	573.29
1006.304	548.43
1006.598	539.39
1006.892	549.79
1007.186	563.8
1007.48	564.02
1007.773	531.48
1008.067	519.28
1008.361	540.07
1008.655	532.84
1008.948	516.34
1009.242	545.04
1009.535	531.26
1009.829	528.77
1010.122	529.22
1010.415	519.96
1010.708	529.22
1011.001	509.79
1011.295	523.35
1011.588	493.29
1011.881	516.57
1012.173	521.77
1012.466	512.27
1012.759	528.55
1013.052	501.2
1013.344	515.66
1013.637	508.88
1013.93	499.62
1014.222	495.1
1014.514	503.69
1014.807	518.38
1015.099	498.04
1015.391	494.2
1015.683	486.74
1015.976	512.27
1016.268	492.84
1016.56	486.29
1016.851	480.41
1017.143	488.55
1017.435	478.15
1017.727	465.27
1018.018	493.29
1018.31	476.8
1018.602	464.82
1018.893	477.7
1019.185	480.64
1019.476	482.9
1019.767	471.6
1020.058	467.08
1020.35	462.11
1020.641	494.2
1020.932	465.27
1021.223	467.98
1021.514	465.27
1021.804	460.98
1022.095	465.5
1022.386	487.42
1022.677	469.56
1022.967	441.54
1023.258	433.63
1023.548	456.68
1023.839	461.43
1024.129	471.15
1024.419	439.51
1024.709	479.06
1025	436.12
1025.29	419.17
1025.58	439.06
1025.87	433.41
1026.16	434.08
1026.449	446.97
1026.739	442.45
1027.029	442.45
1027.319	452.39
1027.608	434.31
1027.898	442.45
1028.187	437.25
1028.477	432.28
1028.766	451.49
1029.055	429.34
1029.344	434.76
1029.634	432.5
1029.923	436.8
1030.212	430.24
1030.501	437.47
1030.79	430.24
1031.078	436.57
1031.367	418.72
1031.656	430.24
1031.945	430.47
1032.233	426.18
1032.522	406.74
1032.81	442.22
1033.099	415.78
1033.387	435.44
1033.675	405.84
1033.963	408.1
1034.251	416.23
1034.54	407.42
1034.828	425.5
1035.116	408.55
1035.403	398.38
1035.691	416.01
1035.979	419.85
1036.267	416.01
1036.554	408.55
1036.842	416.23
1037.129	416.91
1037.417	390.92
1037.704	431.37
1037.992	413.07
1038.279	385.72
1038.566	399.74
1038.853	399.74
1039.14	399.74
