Data from foam_black_FLMS001491_00051.txt Node
Date: Wed Feb 08 10:44:07 GMT 2017
User: dcchb
Spectrometer: FLMS00149
Trigger mode: 0
Integration Time (sec): 2.000000E-2
Scans to average: 10
Electric dark correction enabled: true
Nonlinearity correction enabled: false
Boxcar width: 0
XAxis mode: Wavelengths
Number of Pixels in Spectrum: 2048
>>>>>Begin Spectral Data<<<<<
341.393	-6.62
341.776	-6.62
342.16	-6.62
342.543	-59.96
342.927	-60.63
343.31	-61.31
343.693	-78.03
344.077	-51.59
344.46	-76.9
344.843	-49.11
345.226	-48.43
345.61	-21.31
345.993	-22.22
346.376	-1.65
346.759	-16.57
347.142	38.35
347.525	37.44
347.908	60.94
348.291	82.87
348.674	94.62
349.057	112.92
349.44	117.21
349.823	135.75
350.206	158.57
350.588	185.46
350.971	187.5
351.354	205.8
351.737	235.86
352.119	242.18
352.502	238.57
352.884	258.23
353.267	278.79
353.65	278.34
354.032	276.53
354.414	266.36
354.797	285.8
355.179	301.62
355.562	299.13
355.944	282.63
356.326	313.82
356.709	314.72
357.091	298.9
357.473	337.55
357.855	317.66
358.238	314.95
358.62	313.14
359.002	323.99
359.384	318.79
359.766	310.2
360.148	321.05
360.53	327.6
360.912	324.21
361.294	344.1
361.676	300.94
362.057	319.92
362.439	328.73
362.821	328.28
363.203	302.52
363.584	304.78
363.966	312.92
364.348	333.93
364.729	307.27
365.111	300.26
365.493	307.72
365.874	313.82
366.256	317.44
366.637	299.81
367.019	299.58
367.4	312.69
367.781	279.47
368.163	277.21
368.544	274.95
368.925	293.03
369.306	308.17
369.688	307.27
370.069	309.98
370.45	285.8
370.831	302.29
371.212	305.23
371.593	304.78
371.974	311.33
372.355	294.16
372.736	303.88
373.117	299.81
373.498	295.51
373.879	294.16
374.26	298.45
374.641	295.97
375.021	295.74
375.402	314.27
375.783	292.58
376.163	299.58
376.544	298.45
376.925	312.46
377.305	330.32
377.686	304.33
378.066	307.94
378.447	311.11
378.827	312.01
379.208	327.15
379.588	337.32
379.968	334.84
380.349	315.4
380.729	313.82
381.109	327.15
381.489	305.23
381.87	332.58
382.25	322.41
382.63	318.11
383.01	308.17
383.39	336.42
383.77	322.63
384.15	338.68
384.53	324.21
384.91	326.7
385.29	338.45
385.67	329.41
386.049	318.11
386.429	323.08
386.809	324.21
387.189	302.29
387.568	361.28
387.948	329.41
388.328	342.75
388.707	324.89
389.087	338.9
389.466	359.69
389.846	344.1
390.225	327.38
390.605	345.46
390.984	355.85
391.363	336.19
391.743	367.38
392.122	354.27
392.501	334.16
392.881	367.38
393.26	348.39
393.639	349.07
394.018	360.82
394.397	370.99
394.776	361.95
395.155	372.12
395.534	358.79
395.913	364.89
396.292	364.89
396.671	392.46
397.05	377.09
397.429	382.29
397.808	387.49
398.186	367.6
398.565	370.77
398.944	372.12
399.323	383.65
399.701	388.39
400.08	374.83
400.458	383.42
400.837	381.16
401.215	399.47
401.594	382.74
401.972	372.35
402.351	393.82
402.729	394.5
403.107	381.61
403.486	399.47
403.864	391.33
404.242	405.57
404.62	411.67
404.999	381.16
405.377	400.82
405.755	406.47
406.133	385.91
406.511	368.73
406.889	412.35
407.267	404.89
407.645	379.35
408.023	417.09
408.401	418.45
408.779	420.94
409.156	418.45
409.534	406.02
409.912	407.38
410.29	433.14
410.667	423.2
411.045	425.23
411.422	434.04
411.8	440.37
412.178	439.69
412.555	450.54
412.933	420.71
413.31	440.37
413.687	472.91
414.065	443.08
414.442	423.65
414.819	432.46
415.197	442.4
415.574	448.73
415.951	458.9
416.328	441.73
416.705	453.25
417.082	475.4
417.46	460.93
417.837	478.33
418.214	488.96
418.591	481.5
418.967	485.34
419.344	460.26
419.721	496.19
420.098	474.04
420.475	485.79
420.852	494.15
421.228	478.79
421.605	479.24
421.982	486.02
422.358	494.15
422.735	501.61
423.111	516.75
423.488	503.19
423.864	498.67
424.241	514.94
424.617	511.33
424.994	507.94
425.37	509.07
425.746	513.14
426.123	522.18
426.499	523.31
426.875	502.74
427.251	510.42
427.627	527.15
428.003	539.8
428.379	539.12
428.756	545.23
429.132	523.53
429.507	561.04
429.883	577.32
430.259	535.96
430.635	533.25
431.011	552.46
431.387	578.45
431.763	554.04
432.138	574.15
432.514	582.96
432.89	558.56
433.265	594.04
433.641	592.46
434.016	610.99
434.392	587.26
434.767	589.97
435.143	619.57
435.518	623.19
435.894	606.24
436.269	644.43
436.644	613.47
437.02	629.07
437.395	625
437.77	607.6
438.145	641.27
438.52	639.23
438.895	649.18
439.271	614.6
439.646	652.12
440.021	647.14
440.395	639.01
440.77	637.65
441.145	647.14
441.52	673.81
441.895	658.44
442.27	667.03
442.645	683.75
443.019	669.97
443.394	667.93
443.769	694.37
444.143	677.88
444.518	667.93
444.892	718.78
445.267	691.21
445.641	682.85
446.016	675.17
446.39	688.72
446.764	687.14
447.139	700.02
447.513	690.98
447.887	714.71
448.262	721.04
448.636	749.74
449.01	733.47
449.384	740.7
449.758	732.57
450.132	746.12
450.506	750.19
450.88	750.64
451.254	748.61
451.628	742.51
452.002	768.04
452.376	758.1
452.75	754.71
453.123	770.98
453.497	765.33
453.871	784.54
454.244	797.42
454.618	771.21
454.992	801.94
455.365	790.87
455.739	800.81
456.112	789.97
456.486	812.79
456.859	813.92
457.232	833.58
457.606	852.11
457.979	838.33
458.352	854.6
458.725	857.31
459.099	857.76
459.472	859.79
459.845	894.37
460.218	893.69
460.591	888.04
460.964	890.3
461.337	914.48
461.71	944.99
462.083	915.16
462.456	951.99
462.829	935.5
463.201	937.53
463.574	925.33
463.947	961.49
464.32	969.17
464.692	981.37
465.065	972.56
465.438	973.24
465.81	991.99
466.183	988.38
466.555	1027.02
466.928	1010.75
467.3	1027.25
467.672	1042.39
468.045	1048.94
468.417	1064.08
468.789	1046.91
469.161	1058.43
469.534	1077.87
469.906	1122.16
470.278	1096.4
470.65	1125.78
471.022	1124.87
471.394	1167.13
471.766	1166.45
472.138	1182.5
472.51	1167.36
472.882	1204.87
473.253	1211.87
473.625	1234.25
473.997	1203.29
474.369	1249.16
474.74	1262.27
475.112	1261.59
475.484	1255.04
475.855	1318.76
476.227	1295.04
476.598	1349.72
476.97	1342.27
477.341	1373.9
477.713	1366.9
478.084	1391.31
478.455	1440.34
478.827	1433.11
479.198	1477.86
479.569	1475.37
479.94	1506.33
480.311	1511.98
480.682	1532.77
481.053	1543.84
481.424	1587.23
481.795	1601.7
482.166	1637.63
482.537	1608.7
482.908	1660.9
483.279	1664.07
483.65	1682.15
484.021	1709.26
484.391	1730.51
484.762	1715.36
485.133	1768.02
485.503	1795.81
485.874	1801.46
486.244	1859.99
486.615	1840.33
486.985	1850.05
487.356	1916.49
487.726	1911.97
488.097	1966.88
488.467	1948.13
488.837	1977.28
489.207	1992.19
489.578	2032.19
489.948	2045.3
490.318	2081
490.688	2090.04
491.058	2085.75
491.428	2108.12
491.798	2136.14
492.168	2140.89
492.538	2154
492.908	2189.93
493.278	2201.91
493.648	2215.69
494.017	2267.21
494.387	2280.77
494.757	2283.03
495.126	2308.8
495.496	2337.04
495.866	2315.12
496.235	2325.52
496.605	2352.41
496.974	2358.06
497.344	2388.12
497.713	2394.89
498.082	2437.61
498.452	2420.43
498.821	2434.67
499.19	2436.25
499.559	2474.44
499.928	2500.2
500.298	2539.52
500.667	2548.79
501.036	2524.61
501.405	2582.01
501.774	2529.81
502.143	2593.31
502.512	2579.07
502.88	2644.83
503.249	2627.66
503.618	2663.14
503.987	2644.38
504.356	2657.49
504.724	2689.58
505.093	2695.9
505.462	2708.78
505.83	2730.71
506.199	2768.22
506.567	2777.94
506.936	2801.66
507.304	2777.26
507.672	2827.65
508.041	2798.05
508.409	2842.57
508.777	2861.55
509.145	2884.37
509.514	2896.12
509.882	2898.38
510.25	2923.24
510.618	2985.84
510.986	2967.76
511.354	2962.11
511.722	3049.34
512.09	3035.78
512.458	3005.05
512.826	3062.22
513.193	3066.52
513.561	3109.68
513.929	3096.35
514.297	3145.61
514.664	3179.05
515.032	3193.97
515.4	3196.23
515.767	3214.76
516.135	3231.93
516.502	3219.05
516.869	3229.22
517.237	3291.59
517.604	3299.5
517.972	3335.21
518.339	3334.08
518.706	3346.96
519.073	3361.42
519.44	3359.39
519.808	3470.8
520.175	3405.72
520.542	3439.84
520.909	3473.96
521.276	3470.12
521.643	3498.82
522.009	3508.31
522.376	3519.84
522.743	3565.26
523.11	3576.78
523.477	3641.42
523.843	3639.16
524.21	3656.33
524.577	3711.7
524.943	3723.67
525.31	3754.86
525.676	3805.93
526.043	3811.58
526.409	3814.52
526.776	3878.25
527.142	3894.52
527.508	3938.36
527.874	3979.49
528.241	3949.66
528.607	3973.61
528.973	3993.04
529.339	4009.54
529.705	4047.96
530.071	4097.45
530.437	4129.54
530.803	4099.71
531.169	4181.74
531.535	4158.01
531.901	4178.12
532.267	4185.58
532.632	4222.42
532.998	4229.42
533.364	4250.21
533.73	4246.37
534.095	4307.39
534.461	4287.73
534.826	4302.64
535.192	4309.19
535.557	4353.26
535.923	4318.91
536.288	4359.14
536.653	4385.8
537.019	4362.3
537.384	4420.38
537.749	4413.15
538.114	4434.16
538.479	4418.57
538.845	4505.35
539.21	4439.36
539.575	4495.63
539.94	4523.43
540.305	4557.78
540.67	4587.61
541.034	4522.52
541.399	4599.13
541.764	4612.69
542.129	4632.8
542.494	4620.37
542.858	4630.54
543.223	4670.99
543.587	4691.33
543.952	4676.42
544.316	4706.47
544.681	4739.24
545.045	4763.65
545.41	4796.41
545.774	4767.04
546.138	4852.68
546.503	4775.4
546.867	4799.35
547.231	4869.63
547.595	4838.45
547.959	4933.58
548.324	4927.26
548.688	4974.04
549.052	4928.16
549.416	4909.86
549.779	4966.35
550.143	5009.06
550.507	5017.2
550.871	5011.55
551.235	5036.86
551.599	5045.67
551.962	5021.94
552.326	5063.07
552.689	5113.92
553.053	5123.86
553.417	5098.55
553.78	5113.24
554.143	5102.62
554.507	5147.14
554.87	5134.03
555.234	5230.75
555.597	5192.79
555.96	5204.76
556.323	5262.39
556.686	5284.76
557.05	5277.08
557.413	5313.91
557.776	5340.81
558.139	5376.96
558.502	5370.86
558.865	5404.08
559.228	5418.77
559.59	5467.36
559.953	5438.43
560.316	5524.3
560.679	5487.24
561.041	5515.49
561.404	5588.26
561.767	5644.75
562.129	5632.78
562.492	5705.77
562.854	5692.44
563.217	5703.06
563.579	5700.12
563.941	5813.34
564.304	5805.88
564.666	5859.89
565.028	5904.41
565.39	5922.49
565.753	5903.5
566.115	5938.76
566.477	5976.27
566.839	6006.55
567.201	6046.1
567.563	6011.3
567.925	6021.92
568.287	6057.4
568.648	6047.23
569.01	6115.7
569.372	6158.64
569.734	6144.17
570.095	6222.36
570.457	6177.39
570.819	6187.11
571.18	6244.06
571.542	6244.51
571.903	6236.83
572.265	6240.9
572.626	6291.97
572.987	6320.89
573.349	6339.65
573.71	6296.49
574.071	6351.4
574.432	6356.37
574.794	6425.98
575.155	6408.12
575.516	6387.33
575.877	6422.81
576.238	6414.22
576.599	6496.71
576.96	6443.83
577.32	6477.95
577.681	6484.05
578.042	6514.11
578.403	6490.38
578.763	6512.3
579.124	6558.4
579.485	6549.14
579.845	6598.63
580.206	6585.07
580.566	6583.26
580.927	6609.93
581.287	6669.36
581.648	6621.68
582.008	6633.65
582.368	6624.84
582.728	6634.56
583.089	6591.17
583.449	6630.94
583.809	6698.96
584.169	6662.58
584.529	6700.77
584.889	6711.39
585.249	6679.53
585.609	6653.77
585.969	6718.62
586.329	6663.03
586.688	6672.07
587.048	6633.88
587.408	6639.3
587.768	6684.5
588.127	6639.75
588.487	6670.26
588.846	6706.65
589.206	6611.96
589.565	6645.18
589.925	6714.56
590.284	6709.13
590.643	6637.27
591.003	6656.93
591.362	6722.24
591.721	6655.35
592.08	6670.04
592.44	6707.32
592.799	6736.25
593.158	6643.6
593.517	6642.47
593.876	6702.13
594.235	6664.84
594.593	6733.54
594.952	6684.27
595.311	6640.43
595.67	6738.96
596.029	6697.61
596.387	6707.78
596.746	6757.72
597.104	6746.19
597.463	6698.74
597.822	6733.54
598.18	6693.54
598.538	6729.47
598.897	6749.36
599.255	6675.01
599.613	6769.02
599.972	6771.73
600.33	6794.33
600.688	6748.68
601.046	6842.91
601.404	6797.72
601.762	6818.51
602.12	6872.52
602.478	6852.4
602.836	6818.51
603.194	6830.48
603.552	6875.68
603.91	6879.52
604.268	6882.01
604.625	6822.12
604.983	6878.17
605.341	6915.91
605.698	6850.14
606.056	6903.02
606.413	6912.74
606.771	6901.44
607.128	6948.9
607.485	6918.39
607.843	6933.31
608.2	6982.34
608.557	6966.53
608.914	6918.84
609.272	6956.36
609.629	6957.26
609.986	7021.89
610.343	6954.77
610.7	6991.84
611.057	6991.84
611.414	6953.19
611.771	6983.7
612.127	6986.41
612.484	6969.92
612.841	7024.83
613.198	6915
613.554	6983.25
613.911	6982.34
614.267	7023.02
614.624	7022.34
614.98	6965.4
615.337	7016.92
615.693	7056.24
616.05	6993.64
616.406	7020.08
616.762	7004.04
617.118	6984.83
617.475	7031.83
617.831	7090.82
618.187	7020.54
618.543	7073.87
618.899	7081.55
619.255	7088.33
619.611	7093.53
619.967	7076.35
620.323	7157.71
620.678	7147.31
621.034	7081.78
621.39	7136.24
621.746	7059.18
622.101	7151.83
622.457	7166.97
622.812	7200.87
623.168	7124.94
623.523	7242.68
623.879	7108.67
624.234	7126.07
624.589	7209.91
624.945	7201.77
625.3	7145.5
625.655	7226.86
626.01	7201.55
626.365	7172.62
626.72	7187.31
627.075	7158.16
627.43	7153.87
627.785	7187.31
628.14	7184.6
628.495	7224.15
628.85	7143.7
629.205	7165.62
629.559	7257.59
629.914	7204.26
630.269	7200.64
630.623	7105.96
630.978	7118.61
631.332	7146.63
631.687	7177.14
632.041	7139.4
632.396	7170.14
632.75	7109.8
633.104	7093.08
633.459	7017.82
633.813	7026.41
634.167	7057.82
634.521	6992.51
634.875	7070.93
635.229	6999.75
635.583	6972.4
635.937	6983.47
636.291	6970.82
636.645	6914.78
636.999	6905.51
637.352	6968.79
637.706	6890.14
638.06	6941.89
638.413	6869.58
638.767	6854.66
639.121	6805.4
639.474	6802.24
639.828	6838.17
640.181	6870.71
640.534	6868.9
640.888	6761.11
641.241	6785.74
641.594	6795.91
641.947	6827.77
642.301	6772.63
642.654	6785.06
643.007	6806.3
643.36	6722.24
643.713	6782.8
644.066	6794.78
644.419	6670.26
644.771	6659.87
645.124	6554.56
645.477	6600.21
645.83	6589.36
646.182	6595.69
646.535	6512.98
646.888	6598.63
647.24	6576.03
647.593	6575.35
647.945	6573.99
648.298	6611.05
648.65	6582.13
649.002	6494.67
649.355	6555.01
649.707	6524.28
650.059	6527.22
650.411	6618.96
650.763	6612.86
651.115	6707.78
651.467	6672.75
651.819	6705.52
652.171	6682.24
652.523	6657.83
652.875	6677.04
653.227	6643.37
653.578	6701.67
653.93	6704.84
654.282	6645.63
654.633	6624.61
654.985	6656.7
655.337	6599.53
655.688	6631.85
656.039	6607.44
656.391	6585.97
656.742	6621.9
657.094	6617.61
657.445	6642.01
657.796	6583.71
658.147	6567.21
658.498	6557.5
658.849	6599.3
659.2	6543.03
659.551	6555.24
659.902	6574.9
660.253	6496.03
660.604	6554.33
660.955	6465.3
661.306	6502.36
661.656	6512.98
662.007	6468.91
662.358	6502.13
662.708	6499.42
663.059	6419.65
663.409	6417.84
663.76	6455.8
664.11	6441.79
664.461	6489.7
664.811	6484.05
665.161	6482.47
665.511	6387.78
665.862	6413.09
666.212	6472.53
666.562	6432.08
666.912	6441.57
667.262	6441.34
667.612	6423.26
667.962	6428.23
668.312	6406.99
668.662	6426.2
669.011	6442.25
669.361	6425.75
669.711	6413.32
670.06	6417.16
670.41	6471.17
670.76	6417.84
671.109	6399.99
671.459	6421.23
671.808	6433.66
672.157	6369.48
672.507	6354.79
672.856	6371.29
673.205	6409.48
673.554	6430.95
673.904	6430.95
674.253	6387.56
674.602	6444.05
674.951	6317.96
675.3	6322.7
675.649	6412.19
675.998	6403.83
676.346	6406.31
676.695	6422.81
677.044	6339.42
677.393	6363.38
677.741	6373.77
678.09	6353.43
678.438	6323.83
678.787	6356.37
679.135	6390.95
679.484	6314.79
679.832	6347.56
680.181	6260.1
680.529	6323.83
680.877	6290.16
681.225	6317.73
681.573	6330.16
681.922	6248.13
682.27	6245.64
682.618	6274.57
682.966	6162.25
683.314	6240.9
683.661	6218.07
684.009	6201.8
684.357	6209.71
684.705	6208.81
685.053	6143.5
685.4	6148.24
685.748	6159.77
686.095	6129.26
686.443	6117.51
686.79	6114.12
687.138	6043.61
687.485	6098.53
687.832	6056.04
688.18	6087.45
688.527	6053.56
688.874	6014.46
689.221	5999.77
689.568	5964.97
689.915	5906.44
690.262	5965.42
690.609	5903.95
690.956	5919.1
691.303	5907.57
691.65	5911.41
691.997	5832.54
692.344	5859.44
692.69	5817.63
693.037	5842.04
693.383	5778.08
693.73	5825.99
694.077	5786.9
694.423	5773.79
694.769	5780.34
695.116	5712.32
695.462	5726.11
695.808	5729.04
696.155	5741.47
696.501	5679.33
696.847	5693.79
697.193	5628.71
697.539	5630.97
697.885	5601.14
698.231	5571.31
698.577	5658.99
698.923	5588.48
699.269	5552.1
699.614	5555.26
699.96	5586
700.306	5553.91
700.651	5531.54
700.997	5532.44
701.342	5498.77
701.688	5531.99
702.033	5454.02
702.379	5522.04
702.724	5529.73
703.069	5456.74
703.415	5394.36
703.76	5456.74
704.105	5486.11
704.45	5445.21
704.795	5382.61
705.14	5379.22
705.485	5391.88
705.83	5335.38
706.175	5405.44
706.52	5347.13
706.865	5353.69
707.209	5355.95
707.554	5267.81
707.899	5279.79
708.243	5285.89
708.588	5240.7
708.932	5247.25
709.277	5244.54
709.621	5248.83
709.966	5173.35
710.31	5202.5
710.654	5175.84
710.998	5142.17
711.342	5174.71
711.687	5128.38
712.031	5135.84
712.375	5116.63
712.719	5074.37
713.063	5081.83
713.407	5124.99
713.75	5084.99
714.094	5106.69
714.438	5072.11
714.782	5048.16
715.125	5068.95
715.469	5074.37
715.812	5000.93
716.156	4941.72
716.499	5005.9
716.843	4962.28
717.186	4962.06
717.53	4967.71
717.873	4983.75
718.216	4936.07
718.559	4936.75
718.902	4922.51
719.246	4888.39
719.589	4847.71
719.932	4915.73
720.275	4897.65
720.617	4922.51
720.96	4936.52
721.303	4901.27
721.646	4882.96
721.989	4825.11
722.331	4874.6
722.674	4833.47
723.016	4826.92
723.359	4799.58
723.701	4845.68
724.044	4746.7
724.386	4777.88
724.729	4755.06
725.071	4753.02
725.413	4778.33
725.755	4779.69
726.097	4760.26
726.439	4767.49
726.782	4729.07
727.124	4776.3
727.465	4731.56
727.807	4694.72
728.149	4733.14
728.491	4653.82
728.833	4669.19
729.175	4685.23
729.516	4643.2
729.858	4714.83
730.199	4655.4
730.541	4665.57
730.882	4630.77
731.224	4639.81
731.565	4630.99
731.906	4619.47
732.248	4646.81
732.589	4580.15
732.93	4614.95
733.271	4624.67
733.612	4635.29
733.953	4627.15
734.294	4590.54
734.635	4544.22
734.976	4576.76
735.317	4563.43
735.658	4516.65
735.999	4599.13
736.339	4542.86
736.68	4545.8
737.021	4563.2
737.361	4546.7
737.702	4569.3
738.042	4552.35
738.383	4524.1
738.723	4582.18
739.063	4500.83
739.404	4522.75
739.744	4492.69
740.084	4465.12
740.424	4457.21
740.764	4456.31
741.104	4435.52
741.444	4463.54
741.784	4423.99
742.124	4437.55
742.464	4435.29
742.804	4429.64
743.143	4358.23
743.483	4403.2
743.823	4448.4
744.162	4398.68
744.502	4419.02
744.841	4386.93
745.181	4401.62
745.52	4355.97
745.86	4385.8
746.199	4362.07
746.538	4382.64
746.877	4358.68
747.216	4353.26
747.556	4286.37
747.895	4261.51
748.234	4299.7
748.573	4280.72
748.911	4295.86
749.25	4272.59
749.589	4220.16
749.928	4235.98
750.267	4255.41
750.605	4231.91
750.944	4225.36
751.283	4194.85
751.621	4210.67
751.96	4175.19
752.298	4263.32
752.636	4167.28
752.975	4203.89
753.313	4160.5
753.651	4190.33
753.989	4148.97
754.327	4152.59
754.666	4158.69
755.004	4182.87
755.342	4128.63
755.679	4200.27
756.017	4106.71
756.355	4119.6
756.693	4138.13
757.031	4068.52
757.368	4103.55
757.706	4064.46
758.044	4041.86
758.381	4079.6
758.719	4094.74
759.056	4057.68
759.394	4050.9
759.731	4015.42
760.068	4014.29
760.405	4043.44
760.743	3980.62
761.08	3949.66
761.417	3985.14
761.754	3984.68
762.091	4014.29
762.428	3921.63
762.765	3909.88
763.102	3911.69
763.438	3917.34
763.775	3878.25
764.112	3897.91
764.449	3859.94
764.785	3857.23
765.122	3800.51
765.458	3836.66
765.795	3793.28
766.131	3803.67
766.467	3762.54
766.804	3781.3
767.14	3764.58
767.476	3751.7
767.812	3736.55
768.148	3789.21
768.485	3705.14
768.821	3712.37
769.157	3697.91
769.492	3683.45
769.828	3665.6
770.164	3672.83
770.5	3646.84
770.836	3659.27
771.171	3631.02
771.507	3615.43
771.842	3598.93
772.178	3652.94
772.513	3577.46
772.849	3544.02
773.184	3522.32
773.519	3544.24
773.855	3536.56
774.19	3534.53
774.525	3563.9
774.86	3533.4
775.195	3512.15
775.53	3508.76
775.865	3486.39
776.2	3449.56
776.535	3431.25
776.87	3445.71
777.205	3441.87
777.539	3402.1
777.874	3409.56
778.209	3374.3
778.543	3403.46
778.878	3335.66
779.212	3404.81
779.547	3388.54
779.881	3366.62
780.215	3358.26
780.55	3341.76
780.884	3356
781.218	3348.32
781.552	3341.76
781.886	3276.45
782.22	3261.76
782.554	3281.88
782.888	3227.42
783.222	3190.35
783.556	3252.5
783.889	3224.93
784.223	3219.73
784.557	3215.21
784.89	3214.99
785.224	3173.63
785.557	3179.73
785.891	3146.51
786.224	3135.89
786.558	3111.49
786.891	3136.12
787.224	3116.91
787.557	3133.41
787.891	3106.06
788.224	3120.98
788.557	3074.2
788.89	3085.95
789.223	3060.64
789.556	3040.98
789.888	3054.54
790.221	3046.85
790.554	3022.67
790.887	3023.13
791.219	2972.73
791.552	2987.42
791.884	2946.07
792.217	2986.97
792.549	2960.3
792.882	2966.86
793.214	2920.76
793.546	2972.73
793.879	2961.21
794.211	2912.4
794.543	2970.25
794.875	2901.32
795.207	2913.53
795.539	2906.07
795.871	2918.72
796.203	2851.61
796.535	2879.63
796.867	2856.13
797.198	2878.27
797.53	2862
797.862	2871.94
798.193	2845.28
798.525	2836.01
798.856	2837.82
799.188	2837.14
799.519	2814.54
799.85	2787.2
800.182	2827.88
800.513	2774.77
800.844	2765.73
801.175	2760.31
801.506	2810.93
801.837	2759.86
802.168	2750.37
802.499	2739.97
802.83	2760.08
803.161	2737.26
803.491	2734.32
803.822	2736.35
804.153	2682.12
804.483	2695.45
804.814	2735.68
805.145	2655.68
805.475	2649.8
805.805	2669.01
806.136	2678.5
806.466	2657.49
806.796	2671.72
807.126	2630.82
807.457	2634.66
807.787	2662.91
808.117	2621.1
808.447	2634.66
808.777	2605.51
809.107	2619.07
809.436	2575.23
809.766	2575.23
810.096	2597.15
810.426	2570.26
810.755	2575
811.085	2562.8
811.414	2563.48
811.744	2567.09
812.073	2533.42
812.403	2543.82
812.732	2519.19
813.061	2515.34
813.39	2502.24
813.719	2483.03
814.049	2511.5
814.378	2511.73
814.707	2490.03
815.036	2477.83
815.365	2520.32
815.693	2509.69
816.022	2483.93
816.351	2457.49
816.68	2435.35
817.008	2488
817.337	2429.47
817.665	2450.94
817.994	2463.37
818.322	2426.08
818.651	2437.38
818.979	2418.17
819.307	2442.35
819.636	2448
819.964	2459.07
820.292	2391.28
820.62	2431.05
820.948	2448.68
821.276	2413.2
821.604	2417.94
821.932	2415.91
822.259	2417.27
822.587	2422.92
822.915	2423.59
823.243	2418.62
823.57	2394.44
823.898	2414.56
824.225	2379.08
824.553	2405.29
824.88	2396.02
825.207	2411.39
825.535	2409.58
825.862	2439.64
826.189	2356.93
826.516	2401.67
826.843	2389.7
827.17	2383.37
827.497	2393.54
827.824	2395.12
828.151	2389.92
828.478	2391.05
828.805	2405.74
829.131	2390.6
829.458	2421.56
829.785	2377.27
830.111	2354.22
830.438	2362.81
830.764	2389.92
831.09	2381.79
831.417	2404.16
831.743	2361.45
832.069	2357.83
832.395	2391.96
832.722	2385.18
833.048	2349.47
833.374	2368.91
833.7	2370.26
834.026	2369.81
834.351	2386.53
834.677	2338.85
835.003	2353.31
835.329	2374.33
835.654	2365.29
835.98	2343.14
836.306	2325.97
836.631	2358.51
836.956	2337.95
837.282	2328.23
837.607	2323.03
837.932	2337.95
838.258	2343.37
838.583	2330.49
838.908	2331.62
839.233	2289.13
839.558	2285.07
839.883	2293.43
840.208	2288.91
840.533	2285.52
840.858	2276.48
841.182	2328.46
841.507	2287.78
841.832	2254.11
842.156	2250.94
842.481	2313.09
842.805	2281.23
843.13	2264.5
843.454	2271.96
843.778	2287.33
844.103	2246.88
844.427	2243.49
844.751	2242.81
845.075	2260.66
845.399	2238.29
845.723	2230.61
846.047	2260.66
846.371	2247.1
846.695	2250.94
847.019	2199.42
847.343	2224.73
847.666	2169.36
847.99	2197.61
848.313	2184.96
848.637	2175.69
848.96	2170.95
849.284	2177.73
849.607	2148.12
849.931	2119.65
850.254	2147.67
850.577	2127.33
850.9	2117.61
851.223	2128.69
851.546	2113.32
851.869	2094.11
852.192	2130.27
852.515	2114.9
852.838	2069.48
853.161	2098.86
853.483	2118.07
853.806	2081.23
854.129	2054.34
854.451	2048.01
854.774	2034.9
855.096	2027.45
855.419	2042.36
855.741	2021.12
856.063	2023.38
856.385	2009.82
856.708	2019.76
857.03	2009.59
857.352	1996.04
857.674	2000.78
857.996	1974.34
858.318	1979.09
858.64	1979.09
858.961	1998.07
859.283	1959.88
859.605	1981.12
859.926	1961.69
860.248	1939.54
860.57	1954.23
860.891	1970.05
861.212	1918.75
861.534	1947.9
861.855	1937.73
862.176	1956.26
862.498	1948.58
862.819	1949.03
863.14	1927.56
863.461	1939.31
863.782	1918.52
864.103	1922.36
864.424	1925.08
864.745	1890.05
865.065	1907.68
865.386	1904.74
865.707	1936.6
866.027	1925.08
866.348	1903.38
866.668	1909.71
866.989	1899.31
867.309	1868.35
867.63	1891.63
867.95	1910.16
868.27	1857.06
868.59	1891.86
868.91	1867.22
869.23	1863.38
869.55	1855.47
869.87	1881.01
870.19	1892.08
870.51	1864.51
870.83	1855.93
871.15	1851.41
871.469	1861.8
871.789	1866.1
872.109	1840.56
872.428	1871.07
872.748	1833.1
873.067	1825.64
873.386	1846.21
873.706	1865.87
874.025	1842.14
874.344	1859.99
874.663	1859.32
874.982	1840.78
875.301	1833.1
875.62	1820.22
875.939	1798.75
876.258	1800.56
876.577	1809.37
876.896	1803.05
877.214	1822.48
877.533	1812.31
877.852	1818.41
878.17	1828.58
878.489	1826.32
878.807	1824.29
879.125	1790.16
879.444	1785.87
879.762	1776.15
880.08	1792.42
880.398	1784.29
880.716	1801.69
881.034	1775.93
881.352	1771.86
881.67	1781.8
881.988	1810.05
882.306	1772.31
882.624	1781.35
882.941	1752.65
883.259	1760.79
883.577	1729.6
883.894	1714.91
884.212	1732.99
884.529	1787.23
884.846	1753.56
885.164	1755.14
885.481	1740
885.798	1752.65
886.115	1697.51
886.432	1716.27
886.75	1733.9
887.067	1681.69
887.383	1679.66
887.7	1723.5
888.017	1693.67
888.334	1687.34
888.651	1658.19
888.967	1733.9
889.284	1702.94
889.6	1675.82
889.917	1682.15
890.233	1655.71
890.55	1685.08
890.866	1696.83
891.182	1680.56
891.498	1680.56
891.815	1662.94
892.131	1660.45
892.447	1666.1
892.763	1631.52
893.079	1671.07
893.395	1648.02
893.71	1620
894.026	1649.6
894.342	1627.01
894.657	1620.68
894.973	1622.26
895.289	1636.04
895.604	1637.17
895.92	1587.68
896.235	1618.64
896.55	1585.42
896.865	1596.05
897.181	1591.07
897.496	1586.1
897.811	1591.53
898.126	1607.12
898.441	1583.62
898.756	1572.32
899.071	1589.27
899.386	1563.73
899.7	1568.02
900.015	1537.29
900.33	1545.65
900.644	1531.41
900.959	1536.84
901.273	1571.19
901.588	1539.1
901.902	1530.06
902.216	1527.12
902.531	1515.6
902.845	1504.3
903.159	1518.76
903.473	1482.6
903.787	1517.4
904.101	1529.83
904.415	1497.52
904.729	1490.51
905.042	1498.87
905.356	1504.3
905.67	1490.74
905.984	1476.27
906.297	1481.92
906.611	1470.85
906.924	1492.32
907.237	1491.87
907.551	1470.63
907.864	1431.76
908.177	1496.16
908.491	1449.38
908.804	1428.14
909.117	1436.05
909.43	1441.7
909.743	1402.38
910.056	1395.82
910.368	1405.54
910.681	1422.72
910.994	1408.93
911.307	1396.5
911.619	1366
911.932	1436.95
912.244	1386.11
912.557	1411.19
912.869	1392.89
913.181	1347.46
913.494	1358.09
913.806	1400.34
914.118	1347.24
914.43	1359.22
914.742	1376.62
915.054	1353.34
915.366	1363.06
915.678	1316.96
915.99	1315.15
916.302	1299.78
916.613	1324.64
916.925	1301.14
917.236	1290.29
917.548	1316.05
917.859	1315.6
918.171	1308.37
918.482	1304.08
918.794	1287.58
919.105	1289.84
919.416	1256.39
919.727	1262.95
920.038	1249.39
920.349	1237.64
920.66	1221.82
920.971	1253
921.282	1245.32
921.593	1237.18
921.903	1222.72
922.214	1229.95
922.525	1230.18
922.835	1230.86
923.146	1194.93
923.456	1200.35
923.767	1218.88
924.077	1200.35
924.387	1194.47
924.697	1204.42
925.008	1184.08
925.318	1200.58
925.628	1177.3
925.938	1156.51
926.248	1164.87
926.558	1169.39
926.867	1159.9
927.177	1151.31
927.487	1152.44
927.796	1135.72
928.106	1114.48
928.416	1145.21
928.725	1161.93
929.034	1149.28
929.344	1145.44
929.653	1133.01
929.962	1110.18
930.271	1148.37
930.581	1120.58
930.89	1117.19
931.199	1106.34
931.508	1123.52
931.817	1094.14
932.125	1107.02
932.434	1108.6
932.743	1110.86
933.051	1114.93
933.36	1098.88
933.669	1100.24
933.977	1072.9
934.286	1073.57
934.594	1060.92
934.902	1054.59
935.21	1066.57
935.519	1063.4
935.827	1068.83
936.135	1081.26
936.443	1051.65
936.751	1069.51
937.059	1025.21
937.367	1047.36
937.674	1030.64
937.982	1065.21
938.29	1068.6
938.597	1052.56
938.905	1041.94
939.213	1043.07
939.52	980.24
939.827	1019.79
940.135	1025.21
940.442	1016.17
940.749	996.97
941.056	1006
941.363	1011.43
941.67	1030.18
941.977	992.67
942.284	982.73
942.591	987.7
942.898	1008.94
943.205	985.67
943.511	989.06
943.818	977.98
944.125	962.84
944.431	950.41
944.738	953.35
945.044	959.45
945.35	947.02
945.657	963.29
945.963	948.83
946.269	959.9
946.575	954.48
946.881	965.55
947.187	940.24
947.493	932.56
947.799	904.54
948.105	933.92
948.41	945.67
948.716	914.93
949.022	943.86
949.327	935.5
949.633	933.69
949.938	930.3
950.244	918.78
950.549	921.71
950.854	917.19
951.16	906.8
951.465	908.61
951.77	886.91
952.075	913.58
952.38	901.6
952.685	874.71
952.99	906.35
953.294	866.57
953.599	897.98
953.904	886.91
954.209	881.49
954.513	874.93
954.818	888.04
955.122	861.38
955.426	880.36
955.731	866.8
956.035	870.64
956.339	875.61
956.643	877.19
956.948	866.8
957.252	848.49
957.556	871.32
957.86	855.27
958.163	847.36
958.467	855.5
958.771	853.69
959.075	862.51
959.378	836.07
959.682	832.9
959.985	829.51
960.289	850.3
960.592	833.35
960.896	839.23
961.199	843.3
961.502	822.73
961.805	826.8
962.108	814.82
962.411	838.78
962.714	809.63
963.017	829.51
963.32	809.4
963.623	811.43
963.926	808.04
964.228	813.47
964.531	802.85
964.833	790.64
965.136	781.83
965.438	779.8
965.741	768.95
966.043	778.21
966.345	786.35
966.648	797.2
966.95	766.24
967.252	776.41
967.554	766.69
967.856	770.76
968.158	755.39
968.46	764.43
968.761	782.28
969.063	780.7
969.365	756.07
969.666	759.91
969.968	754.26
970.269	731.66
970.571	744.99
970.872	766.46
971.174	756.52
971.475	744.54
971.776	748.38
972.077	732.57
972.378	749.29
972.679	765.56
972.98	738.67
973.281	754.94
973.582	730.98
973.883	728.05
974.183	755.84
974.484	740.25
974.785	716.07
975.085	711.32
975.386	738.22
975.686	711.32
975.986	721.49
976.287	708.39
976.587	721.94
976.887	719.91
977.187	705
977.487	705.45
977.787	721.27
978.087	709.97
978.387	696.41
978.687	689.63
978.987	686.24
979.286	693.24
979.586	681.27
979.885	688.5
980.185	700.7
980.484	663.19
980.784	698.22
981.083	683.98
981.382	702.51
981.682	669.06
981.981	670.42
982.28	689.85
982.579	671.78
982.878	683.3
983.177	672.68
983.475	680.82
983.774	677.2
984.073	663.64
984.372	660.7
984.67	660.7
984.969	652.12
985.267	645.34
985.566	651.44
985.864	651.66
986.162	655.05
986.461	643.98
986.759	636.07
987.057	648.95
987.355	635.62
987.653	643.08
987.951	627.26
988.249	659.12
988.547	639.46
988.844	638.1
989.142	619.12
989.44	617.09
989.737	628.61
990.035	607.82
990.332	644.66
990.63	643.98
990.927	643.3
991.224	617.99
991.521	619.8
991.819	606.02
992.116	599.46
992.413	615.96
992.71	599.91
993.006	613.02
993.303	612.57
993.6	609.86
993.897	616.64
994.193	603.08
994.49	594.72
994.787	578.45
995.083	598.78
995.379	587.94
995.676	610.31
995.972	597.65
996.268	607.82
996.565	578.9
996.861	577.09
997.157	613.7
997.453	610.76
997.749	602.4
998.044	590.42
998.34	591.78
998.636	554.04
998.932	568.28
999.227	552.46
999.523	571.21
999.818	566.47
1000.114	569.41
1000.409	557.65
1000.704	581.16
1001	565.11
1001.295	573.7
1001.59	567.82
1001.885	562.17
1002.18	568.73
1002.475	554.27
1002.77	561.72
1003.065	570.99
1003.359	562.85
1003.654	549.07
1003.949	556.52
1004.243	554.49
1004.538	551.55
1004.832	546.81
1005.127	564.89
1005.421	526.92
1005.715	541.84
1006.009	533.7
1006.304	555.85
1006.598	554.27
1006.892	530.99
1007.186	547.03
1007.48	533.93
1007.773	529.41
1008.067	538.45
1008.361	533.93
1008.655	528.73
1008.948	527.83
1009.242	527.37
1009.535	549.97
1009.829	524.66
1010.122	528.73
1010.415	531.44
1010.708	497.77
1011.001	523.98
1011.295	507.26
1011.588	516.07
1011.881	503.64
1012.173	513.81
1012.466	489.41
1012.759	511.55
1013.052	490.09
1013.344	490.76
1013.637	501.84
1013.93	503.87
1014.222	483.31
1014.514	521.95
1014.807	514.72
1015.099	496.41
1015.391	483.31
1015.683	506.36
1015.976	490.76
1016.268	487.15
1016.56	484.44
1016.851	508.39
1017.143	465.23
1017.435	471.56
1017.727	490.99
1018.018	458
1018.31	489.86
1018.602	490.09
1018.893	483.53
1019.185	477.88
1019.476	472.91
1019.767	487.6
1020.058	482.85
1020.35	456.19
1020.641	462.97
1020.932	458
1021.223	480.37
1021.514	465.91
1021.804	476.08
1022.095	459.35
1022.386	467.94
1022.677	457.54
1022.967	451.22
1023.258	477.66
1023.548	474.72
1023.839	453.93
1024.129	474.27
1024.419	441.95
1024.709	463.42
1025	442.86
1025.29	464.32
1025.58	456.19
1025.87	449.64
1026.16	431.1
1026.449	450.09
1026.739	440.14
1027.029	439.01
1027.319	430.2
1027.608	449.41
1027.898	451.67
1028.187	421.61
1028.477	432.23
1028.766	428.62
1029.055	449.18
1029.344	449.18
1029.634	443.99
1029.923	450.99
1030.212	428.84
1030.501	427.26
1030.79	440.37
1031.078	422.52
1031.367	440.82
1031.656	419.58
1031.945	425.23
1032.233	419.81
1032.522	417.32
1032.81	420.48
1033.099	426.13
1033.387	402.86
1033.675	423.87
1033.963	402.86
1034.251	430.2
1034.54	414.83
1034.828	422.07
1035.116	423.42
1035.403	417.09
1035.691	427.71
1035.979	423.87
1036.267	399.01
1036.554	389.52
1036.842	413.03
1037.129	397.89
1037.417	390.43
1037.704	404.44
1037.992	419.81
1038.279	426.13
1038.566	409.64
1038.853	409.64
1039.14	409.64
