Data from foam1_polythene_foam_FLMS001491_00018.txt Node
Date: Wed Feb 08 10:54:28 GMT 2017
User: dcchb
Spectrometer: FLMS00149
Trigger mode: 0
Integration Time (sec): 2.000000E-2
Scans to average: 10
Electric dark correction enabled: true
Nonlinearity correction enabled: false
Boxcar width: 0
XAxis mode: Wavelengths
Number of Pixels in Spectrum: 2048
>>>>>Begin Spectral Data<<<<<
341.393	-15.75
341.776	-15.75
342.16	-15.75
342.543	-54.39
342.927	-63.43
343.31	-66.59
343.693	-69.53
344.077	-76.31
344.46	-72.47
344.843	-34.5
345.226	-39.02
345.61	-18.91
345.993	-19.82
346.376	9.79
346.759	2.56
347.142	12.5
347.525	52.72
347.908	55.44
348.291	70.35
348.674	76.45
349.057	117.36
349.44	136.79
349.823	149.67
350.206	145.6
350.588	177.02
350.971	185.38
351.354	214.3
351.737	203.68
352.119	238.71
352.502	256.79
352.884	271.48
353.267	271.7
353.65	270.35
354.032	268.09
354.414	298.82
354.797	288.2
355.179	302.44
355.562	331.36
355.944	314.41
356.326	315.77
356.709	314.86
357.091	325.94
357.473	335.66
357.855	337.91
358.238	317.58
358.62	320.06
359.002	321.19
359.384	306.73
359.766	318.93
360.148	316.22
360.53	320.74
360.912	326.62
361.294	321.64
361.676	313.96
362.057	322.55
362.439	328.2
362.821	318.93
363.203	301.08
363.584	308.99
363.966	305.83
364.348	305.83
364.729	302.44
365.111	312.38
365.493	303.34
365.874	308.99
366.256	301.76
366.637	326.84
367.019	287.97
367.4	296.79
367.781	298.59
368.163	289.78
368.544	308.09
368.925	316.67
369.306	330.23
369.688	276
370.069	298.14
370.45	307.63
370.831	301.98
371.212	305.37
371.593	292.94
371.974	319.16
372.355	303.11
372.736	309.22
373.117	313.73
373.498	301.98
373.879	295.66
374.26	271.7
374.641	304.7
375.021	304.02
375.402	309.22
375.783	334.75
376.163	331.81
376.544	300.4
376.925	320.74
377.305	320.74
377.686	321.87
378.066	301.31
378.447	308.54
378.827	313.96
379.208	303.34
379.588	315.77
379.968	311.02
380.349	313.06
380.729	318.93
381.109	320.74
381.489	314.86
381.87	330.91
382.25	327.52
382.63	318.93
383.01	332.94
383.39	334.98
383.77	347.86
384.15	344.02
384.53	336.78
384.91	349.89
385.29	332.04
385.67	357.12
386.049	347.63
386.429	336.11
386.809	325.26
387.189	338.59
387.568	328.2
387.948	347.41
388.328	364.81
388.707	353.06
389.087	347.86
389.466	348.99
389.846	336.56
390.225	350.34
390.605	345.15
390.984	346.05
391.363	353.51
391.743	343.56
392.122	360.06
392.501	356.22
392.881	355.99
393.26	344.02
393.639	374.3
394.018	369.1
394.397	347.41
394.776	374.52
395.155	358.03
395.534	367.74
395.913	379.72
396.292	354.19
396.671	349.21
397.05	355.99
397.429	392.6
397.808	374.98
398.186	348.54
398.565	377.46
398.944	363
399.323	358.71
399.701	371.36
400.08	375.65
400.458	371.81
400.837	380.85
401.215	373.85
401.594	373.39
401.972	391.7
402.351	395.31
402.729	383.79
403.107	404.13
403.486	383.79
403.864	369.1
404.242	396.44
404.62	417.23
404.999	384.02
405.377	393.28
405.755	394.41
406.133	396.67
406.511	410.46
406.889	408.65
407.267	398.7
407.645	410.91
408.023	420.85
408.401	412.04
408.779	409.33
409.156	425.6
409.534	434.64
409.912	424.47
410.29	432.38
410.667	426.27
411.045	409.33
411.422	426.27
411.8	447.06
412.178	418.59
412.555	423.34
412.933	443.67
413.31	435.09
413.687	450.91
414.065	430.79
414.442	440.96
414.819	454.07
415.197	440.29
415.574	465.14
415.951	459.04
416.328	476.22
416.705	464.24
417.082	451.13
417.46	475.99
417.837	471.7
418.214	461.98
418.591	484.35
418.967	493.62
419.344	471.02
419.721	459.72
420.098	474.86
420.475	467.4
420.852	459.72
421.228	473.73
421.605	468.76
421.982	486.16
422.358	498.59
422.735	476.67
423.111	506.5
423.488	478.02
423.864	494.07
424.241	497.46
424.617	497.23
424.994	498.36
425.37	517.57
425.746	526.16
426.123	510.79
426.499	539.49
426.875	522.99
427.251	500.85
427.627	538.59
428.003	543.79
428.379	548.76
428.756	543.56
429.132	536.78
429.507	553.73
429.883	566.16
430.259	563.67
430.635	550.79
431.011	573.61
431.387	570.23
431.763	574.52
432.138	581.75
432.514	581.98
432.89	576.78
433.265	585.37
433.641	586.72
434.016	600.05
434.392	614.74
434.767	603.44
435.143	597.8
435.518	611.81
435.894	620.85
436.269	615.42
436.644	613.61
437.02	626.72
437.395	635.99
437.77	646.16
438.145	653.39
438.52	659.94
438.895	648.64
439.271	657.23
439.646	654.52
440.021	653.61
440.395	657.91
440.77	666.49
441.145	675.99
441.52	692.26
441.895	684.35
442.27	698.81
442.645	682.76
443.019	700.39
443.394	709.88
443.769	700.62
444.143	725.02
444.518	711.24
444.892	715.31
445.267	749.66
445.641	740.39
446.016	748.75
446.39	759.15
446.764	739.71
447.139	744.01
447.513	764.8
447.887	755.08
448.262	786.72
448.636	770.22
449.01	779.26
449.384	766.6
449.758	766.38
450.132	792.37
450.506	795.53
450.88	784.46
451.254	780.62
451.628	838.92
452.002	801.86
452.376	817.68
452.75	814.29
453.123	839.37
453.497	826.72
453.871	834.4
454.244	825.13
454.618	867.17
454.992	865.58
455.365	856.55
455.739	829.88
456.112	883.89
456.486	870.1
456.859	861.29
457.232	870.1
457.606	875.08
457.979	890.89
458.352	877.56
458.725	902.42
459.099	887.5
459.472	905.13
459.845	897.9
460.218	909.88
460.591	919.14
460.964	918.01
461.337	920.5
461.71	915.53
462.083	933.38
462.456	943.32
462.829	939.71
463.201	939.48
463.574	962.31
463.947	940.61
464.32	948.29
464.692	991.46
465.065	976.32
465.438	998.01
465.81	976.54
466.183	999.37
466.555	1019.7
466.928	1026.48
467.3	1008.41
467.672	1014.96
468.045	1034.85
468.417	1038.69
468.789	1042.53
469.161	1061.74
469.534	1103.32
469.906	1082.3
470.278	1120.27
470.65	1096.54
471.022	1107.84
471.394	1101.96
471.766	1121.62
472.138	1124.79
472.51	1161.17
472.882	1164.79
473.253	1170.89
473.625	1197.1
473.997	1183.09
474.369	1190.77
474.74	1198.01
475.112	1204.56
475.484	1217.89
475.855	1256.99
476.227	1253.82
476.598	1275.29
476.97	1281.62
477.341	1311.67
477.713	1336.76
478.084	1350.32
478.455	1355.52
478.827	1336.31
479.198	1378.11
479.569	1382.63
479.94	1402.97
480.311	1428.28
480.682	1456.08
481.053	1499.24
481.424	1494.04
481.795	1520.93
482.166	1516.87
482.537	1529.75
482.908	1551.89
483.279	1588.73
483.65	1570.42
484.021	1601.84
484.391	1581.72
484.762	1620.59
485.133	1656.07
485.503	1656.3
485.874	1683.87
486.244	1720.48
486.615	1720.48
486.985	1753.02
487.356	1785.79
487.726	1805.9
488.097	1812.9
488.467	1824.88
488.837	1856.74
489.207	1853.81
489.578	1855.39
489.948	1873.47
490.318	1909.4
490.688	1955.5
491.058	1975.16
491.428	1952.34
491.798	1991.2
492.168	2015.84
492.538	2034.37
492.908	2044.99
493.278	2099.22
493.648	2034.59
494.017	2130.86
494.387	2109.85
494.757	2119.56
495.126	2155.72
495.496	2148.26
495.866	2175.61
496.235	2191.65
496.605	2197.53
496.974	2232.33
497.344	2248.15
497.713	2269.84
498.082	2214.48
498.452	2267.36
498.821	2284.3
499.19	2304.87
499.559	2312.55
499.928	2315.26
500.298	2352.78
500.667	2329.95
501.036	2351.42
501.405	2377.41
501.774	2376.05
502.143	2387.13
502.512	2425.77
502.88	2438.2
503.249	2421.02
503.618	2448.59
503.987	2468.03
504.356	2488.14
504.724	2485.65
505.093	2499.44
505.462	2543.05
505.83	2550.74
506.199	2552.77
506.567	2598.87
506.936	2595.03
507.304	2590.06
507.672	2632.09
508.041	2644.97
508.409	2667.8
508.777	2691.98
509.145	2679.1
509.514	2736.27
509.882	2730.62
510.25	2678.19
510.618	2697.63
510.986	2742.15
511.354	2752.77
511.722	2804.06
512.09	2812.88
512.458	2861.46
512.826	2863.05
513.193	2846.1
513.561	2863.27
513.929	2862.14
514.297	2910.5
514.664	2910.73
515.032	2969.71
515.4	2984.85
515.767	2974.91
516.135	2983.95
516.502	2998.64
516.869	3002.48
517.237	3067.56
517.604	3046.32
517.972	3088.8
518.339	3152.76
518.706	3115.02
519.073	3117.28
519.44	3115.69
519.808	3137.62
520.175	3148.91
520.542	3222.13
520.909	3235.24
521.276	3217.16
521.643	3243.15
522.009	3330.38
522.376	3331.51
522.743	3295.13
523.11	3369.25
523.477	3366.31
523.843	3398.63
524.21	3447.66
524.577	3475.69
524.943	3499.87
525.31	3526.98
525.676	3510.94
526.043	3553.2
526.409	3571.5
526.776	3605.17
527.142	3607.89
527.508	3611.95
527.874	3661.22
528.241	3691.05
528.607	3688.11
528.973	3696.02
529.339	3701.89
529.705	3728.79
530.071	3755.45
530.437	3752.51
530.803	3818.5
531.169	3798.16
531.535	3882.23
531.901	3859.63
532.267	3891.04
532.632	3898.05
532.998	3942.34
533.364	3902.34
533.73	3963.13
534.095	3981.66
534.461	3984.6
534.826	4056.01
535.192	4040.87
535.557	4072.73
535.923	4013.75
536.288	4078.83
536.653	4080.87
537.019	4087.87
537.384	4063.92
537.749	4139.4
538.114	4137.36
538.479	4167.87
538.845	4207.42
539.21	4166.29
539.575	4209.9
539.94	4241.09
540.305	4215.1
540.67	4229.34
541.034	4312.05
541.399	4249.68
541.764	4280.86
542.129	4326.96
542.494	4349.56
542.858	4394.08
543.223	4343.69
543.587	4375.32
543.952	4400.86
544.316	4400.63
544.681	4386.62
545.045	4426.85
545.41	4437.24
545.774	4446.96
546.138	4461.42
546.503	4508.2
546.867	4479.5
547.231	4557.01
547.595	4539.39
547.959	4513.4
548.324	4542.1
548.688	4553.4
549.052	4622.1
549.416	4625.03
549.779	4575.54
550.143	4656.45
550.507	4640.17
550.871	4654.86
551.235	4664.58
551.599	4721.53
551.962	4642.43
552.326	4737.8
552.689	4781.64
553.053	4750.23
553.417	4790.68
553.78	4844.24
554.143	4874.07
554.507	4854.86
554.87	4893.73
555.234	4857.34
555.597	4881.98
555.96	4890.56
556.323	4947.51
556.686	4978.24
557.05	4959.04
557.413	5023.67
557.776	5013.5
558.139	5038.36
558.502	5095.98
558.865	5053.5
559.228	5130.11
559.59	5119.71
559.953	5126.72
560.316	5233.61
560.679	5247.16
561.041	5254.17
561.404	5285.13
561.767	5351.34
562.129	5319.03
562.492	5384.11
562.854	5345.92
563.217	5357.9
563.579	5407.16
563.941	5433.37
564.304	5439.02
564.666	5505.24
565.028	5514.95
565.39	5555.18
565.753	5578.91
566.115	5612.13
566.477	5604.22
566.839	5630.66
567.201	5726.25
567.563	5676.31
567.925	5681.96
568.287	5683.76
568.648	5764.21
569.01	5783.65
569.372	5810.31
569.734	5740.03
570.095	5846.7
570.457	5825.68
570.819	5861.84
571.18	5859.13
571.542	5858.67
571.903	5874.27
572.265	5929.41
572.626	5962.17
572.987	6005.79
573.349	6045.34
573.71	6035.39
574.071	6029.97
574.432	6088.5
574.794	6083.07
575.155	6091.21
575.516	6071.78
575.877	6102.51
576.238	6100.48
576.599	6192
576.96	6178.21
577.32	6230.64
577.681	6222.73
578.042	6209.17
578.403	6227.03
578.763	6194.71
579.124	6212.79
579.485	6210.75
579.845	6225.44
580.206	6241.26
580.566	6255.5
580.927	6207.59
581.287	6290.98
581.648	6265.89
582.008	6297.76
582.368	6257.08
582.728	6210.53
583.089	6283.3
583.449	6248.72
583.809	6288.49
584.169	6368.72
584.529	6297.08
584.889	6357.87
585.249	6376.63
585.609	6290.3
585.969	6340.24
586.329	6290.3
586.688	6331.88
587.048	6277.65
587.408	6309.28
587.768	6326.91
588.127	6348.6
588.487	6301.6
588.846	6345.67
589.206	6329.62
589.565	6366.23
589.925	6355.61
590.284	6344.54
590.643	6310.87
591.003	6330.53
591.362	6362.84
591.721	6317.64
592.08	6356.74
592.44	6383.41
592.799	6389.51
593.158	6375.04
593.517	6353.58
593.876	6364.42
594.235	6348.15
594.593	6391.99
594.952	6380.92
595.311	6367.13
595.67	6375.27
596.029	6374.82
596.387	6425.44
596.746	6408.49
597.104	6366.23
597.463	6387.93
597.822	6435.83
598.18	6393.35
598.538	6428.83
598.897	6449.62
599.255	6394.48
599.613	6436.29
599.972	6475.61
600.33	6437.87
600.688	6418.21
601.046	6430.18
601.404	6479.22
601.762	6434.25
602.12	6522.38
602.478	6447.13
602.836	6479.9
603.194	6431.31
603.552	6467.47
603.91	6447.36
604.268	6458.88
604.625	6492.1
604.983	6513.57
605.341	6500.92
605.698	6492.56
606.056	6516.28
606.413	6521.93
606.771	6516.51
607.128	6527.81
607.485	6497.53
607.843	6536.85
608.2	6560.12
608.557	6554.7
608.914	6535.49
609.272	6540.92
609.629	6599.22
609.986	6552.89
610.343	6581.37
610.7	6624.3
611.057	6602.83
611.414	6556.51
611.771	6617.07
612.127	6623.4
612.484	6557.19
612.841	6646.68
613.198	6595.83
613.554	6595.38
613.911	6661.36
614.267	6655.71
614.624	6665.43
614.98	6680.12
615.337	6670.4
615.693	6672.66
616.05	6607.35
616.406	6625.43
616.762	6674.92
617.118	6668.37
617.475	6665.21
617.831	6671.53
618.187	6665.66
618.543	6697.75
618.899	6703.62
619.255	6644.19
619.611	6642.83
619.967	6733
620.323	6731.19
620.678	6698.2
621.034	6689.39
621.39	6691.42
621.746	6627.69
622.101	6699.56
622.457	6689.84
622.812	6704.98
623.168	6756.96
623.523	6707.01
623.879	6731.42
624.234	6669.27
624.589	6673.57
624.945	6716.05
625.3	6664.53
625.655	6709.05
626.01	6665.43
626.365	6695.71
626.72	6611.65
627.075	6684.19
627.43	6662.95
627.785	6716.05
628.14	6690.52
628.495	6660.69
628.85	6672.44
629.205	6581.37
629.559	6656.84
629.914	6604.19
630.269	6620.46
630.623	6650.97
630.978	6540.24
631.332	6607.58
631.687	6653
632.041	6622.04
632.396	6607.58
632.75	6588.15
633.104	6584.76
633.459	6546.79
633.813	6561.03
634.167	6547.92
634.521	6541.37
634.875	6570.75
635.229	6528.71
635.583	6471.99
635.937	6495.95
636.291	6458.43
636.645	6496.17
636.999	6508.83
637.352	6534.59
637.706	6476.51
638.06	6453.23
638.413	6441.71
638.767	6423.86
639.121	6434.25
639.474	6345.21
639.828	6410.98
640.181	6426.79
640.534	6433.35
640.888	6365.1
641.241	6359.68
641.594	6344.54
641.947	6405.78
642.301	6315.61
642.654	6375.95
643.007	6312.22
643.36	6337.98
643.713	6349.28
644.066	6368.72
644.419	6309.96
644.771	6255.27
645.124	6113.81
645.477	6095.28
645.83	6060.25
646.182	6050.08
646.535	6086.69
646.888	6195.39
647.24	6113.81
647.593	6229.06
647.945	6147.25
648.298	6067.03
648.65	6144.54
649.002	6125.11
649.355	6107.93
649.707	6068.39
650.059	6061.83
650.411	6103.86
650.763	6069.74
651.115	6178.44
651.467	6114.03
651.819	6123.53
652.171	6192.22
652.523	6121.72
652.875	6092.79
653.227	6074.71
653.578	6136.86
653.93	6095.05
654.282	6095.96
654.633	6104.99
654.985	6071.1
655.337	6101.83
655.688	6116.07
656.039	6103.86
656.391	6013.25
656.742	6060.7
657.094	6059.57
657.445	6085.79
657.796	6080.14
658.147	6106.8
658.498	6065.67
658.849	6025.9
659.2	6064.54
659.551	6020.03
659.902	6027.48
660.253	6067.03
660.604	6068.39
660.955	5959.46
661.306	6008.5
661.656	6004.21
662.007	6012.79
662.358	5995.39
662.708	5992.46
663.059	5975.28
663.409	5909.07
663.76	5994.04
664.11	5985.22
664.461	6030.65
664.811	5985.22
665.161	6007.14
665.511	5949.97
665.862	5971.89
666.212	5947.94
666.562	5907.94
666.912	5932.57
667.262	5940.93
667.612	5980.03
667.962	5933.93
668.312	5915.62
668.662	5975.96
669.011	5952.46
669.361	5906.58
669.711	5921.5
670.06	5946.35
670.41	5936.86
670.76	5920.59
671.109	5976.18
671.459	5938.9
671.808	5866.36
672.157	5924.21
672.507	5878.79
672.856	5854.38
673.205	5874.72
673.554	5857.09
673.904	5818.45
674.253	5859.58
674.602	5801.27
674.951	5810.54
675.3	5716.08
675.649	5815.28
675.998	5810.31
676.346	5864.1
676.695	5868.62
677.044	5808.96
677.393	5778.45
677.741	5837.66
678.09	5802.63
678.438	5803.53
678.787	5861.39
679.135	5780.26
679.484	5770.09
679.832	5819.35
680.181	5748.39
680.529	5759.02
680.877	5769.41
681.225	5768.73
681.573	5761.73
681.922	5686.7
682.27	5733.25
682.618	5716.53
682.966	5690.32
683.314	5728.51
683.661	5700.71
684.009	5693.93
684.357	5663.88
684.705	5621.39
685.053	5632.92
685.4	5639.7
685.748	5570.77
686.095	5590.88
686.443	5526.7
686.79	5564.67
687.138	5615.06
687.485	5647.61
687.832	5572.81
688.18	5527.16
688.527	5485.12
688.874	5555.4
689.221	5542.3
689.568	5494.39
689.915	5546.59
690.262	5488.97
690.609	5485.8
690.956	5495.97
691.303	5427.05
691.65	5389.53
691.997	5399.02
692.344	5394.73
692.69	5352.92
693.037	5398.35
693.383	5348.86
693.73	5383.66
694.077	5327.61
694.423	5332.36
694.769	5330.1
695.116	5300.72
695.462	5330.78
695.808	5267.73
696.155	5256.88
696.501	5284
696.847	5221.63
697.193	5237
697.539	5221.18
697.885	5182.08
698.231	5140.05
698.577	5226.37
698.923	5197
699.269	5136.88
699.614	5157.9
699.96	5155.19
700.306	5119.71
700.651	5110.44
700.997	5093.27
701.342	5100.28
701.688	5082.87
702.033	5081.97
702.379	5046.72
702.724	5011.92
703.069	5029.09
703.415	4980.96
703.76	5003.1
704.105	5006.94
704.45	4923.11
704.795	4966.49
705.14	4981.41
705.485	4950.45
705.83	4890.79
706.175	4963.56
706.52	4920.85
706.865	4951.58
707.209	4907.96
707.554	4860.51
707.899	4939.38
708.243	4877.91
708.588	4860.73
708.932	4848.08
709.277	4743.67
709.621	4839.04
709.966	4778.25
710.31	4724.24
710.654	4783.45
710.998	4781.87
711.342	4742.54
711.687	4768.08
712.031	4738.7
712.375	4740.96
712.719	4733.96
713.063	4748.87
713.407	4793.62
713.75	4742.54
714.094	4705.94
714.438	4665.26
714.782	4646.95
715.125	4611.02
715.469	4625.26
715.812	4630.46
716.156	4576.22
716.499	4640.17
716.843	4660.51
717.186	4595.88
717.53	4570.35
717.873	4641.08
718.216	4624.36
718.559	4606.73
718.902	4575.32
719.246	4629.78
719.589	4539.61
719.932	4560.4
720.275	4515.66
720.617	4547.3
720.96	4490.35
721.303	4514.53
721.646	4490.12
721.989	4455.77
722.331	4479.05
722.674	4445.83
723.016	4481.31
723.359	4438.82
723.701	4484.7
724.044	4456.22
724.386	4412.61
724.729	4448.32
725.071	4432.04
725.413	4451.25
725.755	4458.03
726.097	4430.24
726.439	4445.6
726.782	4451.25
727.124	4420.29
727.465	4387.53
727.807	4403.12
728.149	4364.48
728.491	4346.85
728.833	4346.62
729.175	4318.15
729.516	4316.34
729.858	4325.83
730.199	4359.96
730.541	4347.53
730.882	4301.2
731.224	4337.36
731.565	4306.85
731.906	4323.35
732.248	4325.83
732.589	4310.01
732.93	4291.03
733.271	4305.04
733.612	4268.66
733.953	4286.96
734.294	4248.32
734.635	4260.98
734.976	4257.59
735.317	4210.13
735.658	4198.83
735.999	4218.94
736.339	4204.03
736.68	4199.28
737.021	4202.45
737.361	4258.72
737.702	4222.33
738.042	4213.52
738.383	4169
738.723	4215.78
739.063	4186.85
739.404	4239.73
739.744	4202.45
740.084	4132.17
740.424	4175.33
740.764	4184.14
741.104	4170.81
741.444	4143.01
741.784	4102.56
742.124	4133.97
742.464	4122.67
742.804	4121.54
743.143	4132.39
743.483	4067.76
743.823	4087.65
744.162	4062.11
744.502	4051.04
744.841	4046.74
745.181	4074.77
745.52	4103.92
745.86	4084.48
746.199	4093.97
746.538	4058.04
746.877	4070.47
747.216	4068.21
747.556	4078.38
747.895	4034.31
748.234	4032.96
748.573	4023.02
748.911	4021.21
749.25	4046.52
749.589	4010.36
749.928	3999.74
750.267	3985.28
750.605	3954.32
750.944	3982.34
751.283	3941.89
751.621	3963.81
751.96	3939.63
752.298	3987.31
752.636	3973.07
752.975	3965.39
753.313	3970.59
753.651	3921.78
753.989	3886.97
754.327	3914.32
754.666	3907.54
755.004	3884.49
755.342	3907.99
755.679	3872.74
756.017	3839.07
756.355	3822.12
756.693	3785.06
757.031	3778.28
757.368	3837.26
757.706	3802
758.044	3789.12
758.381	3841.33
758.719	3799.07
759.056	3819.86
759.394	3789.8
759.731	3793.87
760.068	3778.05
760.405	3759.29
760.743	3762.46
761.08	3777.15
761.417	3758.16
761.754	3677.71
762.091	3726.98
762.428	3696.7
762.765	3682.01
763.102	3651.27
763.438	3633.42
763.775	3674.32
764.112	3648.56
764.449	3679.97
764.785	3612.18
765.122	3622.12
765.458	3614.21
765.795	3590.71
766.131	3628.9
766.467	3600.2
766.804	3578.51
767.14	3596.36
767.476	3573.31
767.812	3544.84
768.148	3545.29
768.485	3541.9
768.821	3524.95
769.157	3535.34
769.492	3486.31
769.828	3489.02
770.164	3459.41
770.5	3442.24
770.836	3389.13
771.171	3436.14
771.507	3456.48
771.842	3398.17
772.178	3380.77
772.513	3420.09
772.849	3373.54
773.184	3368.12
773.519	3425.29
773.855	3361.56
774.19	3395.01
774.525	3335.8
774.86	3366.31
775.195	3341.45
775.53	3305.97
775.865	3355.01
776.2	3321.34
776.535	3307.33
776.87	3254.9
777.205	3242.92
777.539	3216.94
777.874	3223.94
778.209	3167.22
778.543	3178.74
778.878	3204.05
779.212	3151.4
779.547	3170.61
779.881	3142.59
780.215	3141.23
780.55	3130.61
780.884	3143.04
781.218	3131.74
781.552	3126.32
781.886	3106.2
782.22	3127.22
782.554	3100.55
782.888	3076.37
783.222	3092.19
783.556	3089.71
783.889	3077.73
784.223	3016.94
784.557	3011.52
784.89	3052.87
785.224	3016.94
785.557	3006.09
785.891	2990.73
786.224	2985.98
786.558	2936.72
786.891	2932.65
787.224	2944.4
787.557	2943.27
787.891	2964.51
788.224	2938.98
788.557	2914.12
788.89	2965.42
789.223	2951.86
789.556	2919.54
789.888	2951.63
790.221	2905.08
790.554	2868.24
790.887	2873.44
791.219	2883.84
791.552	2884.51
791.884	2870.28
792.217	2851.3
792.549	2820.56
792.882	2800.67
793.214	2771.07
793.546	2809.04
793.879	2769.26
794.211	2762.94
794.543	2777.17
794.875	2762.48
795.207	2762.48
795.539	2734.24
795.871	2738.98
796.203	2755.93
796.535	2757.51
796.867	2732.43
797.198	2729.04
797.53	2727.23
797.862	2706.44
798.193	2720.23
798.525	2715.71
798.856	2736.04
799.188	2672.32
799.519	2667.35
799.85	2637.29
800.182	2619.44
800.513	2641.36
800.844	2602.04
801.175	2628.7
801.506	2624.86
801.837	2627.35
802.168	2590.06
802.499	2587.35
802.83	2573.34
803.161	2575.14
803.491	2581.7
803.822	2555.48
804.153	2564.97
804.483	2534.69
804.814	2580.12
805.145	2555.03
805.475	2574.47
805.805	2568.59
806.136	2581.7
806.466	2564.3
806.796	2549.83
807.126	2522.49
807.457	2487.91
807.787	2493.11
808.117	2454.47
808.447	2463.73
808.777	2501.7
809.107	2487.91
809.436	2465.09
809.766	2463.06
810.096	2457.41
810.426	2427.8
810.755	2475.94
811.085	2433.9
811.414	2443.4
811.744	2434.58
812.073	2423.06
812.403	2438.65
812.732	2434.58
813.061	2434.81
813.39	2435.49
813.719	2400.46
814.049	2451.98
814.378	2413.79
814.707	2398.88
815.036	2422.61
815.365	2396.39
815.693	2362.04
816.022	2407.01
816.351	2354.58
816.68	2360.01
817.008	2337.64
817.337	2350.74
817.665	2325.43
817.994	2324.53
818.322	2328.82
818.651	2328.6
818.979	2293.34
819.307	2294.47
819.636	2305.09
819.964	2293.12
820.292	2294.47
820.62	2320.69
820.948	2342.61
821.276	2330.63
821.604	2315.72
821.932	2320.46
822.259	2325.21
822.587	2315.04
822.915	2319.56
823.243	2328.14
823.57	2334.92
823.898	2262.16
824.225	2269.84
824.553	2265.32
824.88	2313.23
825.207	2270.07
825.535	2277.98
825.862	2275.94
826.189	2271.42
826.516	2270.97
826.843	2274.59
827.17	2287.02
827.497	2290.86
827.824	2276.17
828.151	2300.12
828.478	2308.94
828.805	2322.04
829.131	2289.5
829.458	2311.2
829.785	2287.92
830.111	2285.89
830.438	2305.55
830.764	2307.13
831.09	2275.04
831.417	2294.02
831.743	2286.34
832.069	2299.9
832.395	2267.13
832.722	2243.85
833.048	2272.55
833.374	2265.1
833.7	2278.43
834.026	2271.88
834.351	2283.4
834.677	2253.34
835.003	2279.78
835.329	2250.63
835.654	2280.01
835.98	2248.15
836.306	2233.23
836.631	2240.24
836.956	2265.32
837.282	2287.24
837.607	2209.28
837.932	2237.3
838.258	2242.5
838.583	2251.31
838.908	2281.82
839.233	2290.41
839.558	2269.39
839.883	2223.51
840.208	2257.19
840.533	2226
840.858	2223.74
841.182	2223.29
841.507	2220.58
841.832	2212.44
842.156	2191.2
842.481	2181.26
842.805	2165.66
843.13	2167.02
843.454	2142.39
843.778	2146.23
844.103	2169.28
844.427	2143.29
844.751	2215.15
845.075	2170.18
845.399	2148.94
845.723	2168.83
846.047	2127.02
846.371	2148.94
846.695	2150.3
847.019	2166.57
847.343	2151.43
847.666	2142.16
847.99	2127.02
848.313	2110.07
848.637	2130.41
848.96	2090.19
849.284	2088.83
849.607	2042.28
849.931	2049.73
850.254	2104.42
850.577	2076.63
850.9	2016.97
851.223	2012
851.546	2038.21
851.869	2022.16
852.192	1998.44
852.515	2001.83
852.838	1980.58
853.161	2006.35
853.483	1981.71
853.806	1987.59
854.129	2010.87
854.451	1975.61
854.774	1956.4
855.096	1976.06
855.419	1946.23
855.741	1993.46
856.063	1968.38
856.385	1970.87
856.708	1972.22
857.03	1978.32
857.352	1949.4
857.674	1977.19
857.996	1937.65
858.318	1932.68
858.64	1922.05
858.961	1924.99
859.283	1891.77
859.605	1929.96
859.926	1930.19
860.248	1886.12
860.57	1876.63
860.891	1880.25
861.212	1899
861.534	1911.43
861.855	1894.03
862.176	1861.49
862.498	1857.87
862.819	1867.82
863.14	1889.06
863.461	1862.17
863.782	1856.97
864.103	1874.15
864.424	1866.69
864.745	1879.57
865.065	1851.1
865.386	1882.28
865.707	1841.6
866.027	1837.99
866.348	1871.21
866.668	1870.3
866.989	1838.21
867.309	1797.09
867.63	1848.84
867.95	1821.04
868.27	1816.07
868.59	1828.05
868.91	1785.33
869.23	1784.66
869.55	1794.83
869.87	1815.39
870.19	1812.68
870.51	1782.62
870.83	1797.31
871.15	1788.72
871.469	1816.29
871.789	1767.93
872.109	1777.88
872.428	1803.86
872.748	1781.49
873.067	1773.36
873.386	1812.45
873.706	1788.05
874.025	1769.06
874.344	1804.09
874.663	1804.32
874.982	1776.07
875.301	1752.11
875.62	1786.46
875.939	1794.6
876.258	1741.95
876.577	1788.05
876.896	1785.79
877.214	1767.93
877.533	1771.55
877.852	1725.45
878.17	1753.47
878.489	1731.55
878.807	1755.73
879.125	1734.49
879.444	1766.8
879.762	1726.8
880.08	1734.49
880.398	1734.49
880.716	1720.25
881.034	1702.17
881.352	1728.84
881.67	1733.58
881.988	1718.44
882.306	1739.91
882.624	1727.93
882.941	1745.34
883.259	1715.28
883.577	1707.14
883.894	1713.47
884.212	1724.77
884.529	1703.08
884.846	1696.3
885.164	1726.8
885.481	1697.65
885.798	1694.72
886.115	1701.49
886.432	1665.79
886.75	1699.23
887.067	1655.85
887.383	1669.63
887.7	1670.99
888.017	1661.04
888.334	1677.31
888.651	1636.19
888.967	1659.01
889.284	1611.33
889.6	1582.85
889.917	1627.6
890.233	1636.19
890.55	1580.37
890.866	1618.11
891.182	1613.36
891.498	1629.18
891.815	1625.56
892.131	1599.12
892.447	1604.32
892.763	1614.04
893.079	1618.79
893.395	1626.24
893.71	1638.22
894.026	1605.23
894.342	1620.82
894.657	1609.52
894.973	1598.67
895.289	1583.08
895.604	1607.49
895.92	1620.37
896.235	1599.35
896.55	1574.94
896.865	1583.31
897.181	1529.3
897.496	1583.31
897.811	1557.32
898.126	1548.96
898.441	1532.46
898.756	1532.23
899.071	1508.28
899.386	1498.11
899.7	1499.69
900.015	1504.21
900.33	1479.35
900.644	1503.31
900.959	1486.81
901.273	1483.2
901.588	1473.48
901.902	1473.48
902.216	1459.47
902.531	1476.19
902.845	1462.86
903.159	1502.18
903.473	1484.1
903.787	1446.59
904.101	1491.78
904.415	1461.73
904.729	1443.65
905.042	1442.74
905.356	1445
905.67	1460.37
905.984	1489.07
906.297	1435.74
906.611	1423.99
906.924	1429.41
907.237	1402.07
907.551	1399.13
907.864	1422.86
908.177	1385.34
908.491	1390.54
908.804	1373.14
909.117	1386.25
909.43	1380.15
909.743	1351.45
910.056	1363.2
910.368	1373.59
910.681	1359.36
910.994	1370.66
911.307	1363.2
911.619	1372.24
911.932	1354.16
912.244	1318.68
912.557	1343.54
912.869	1355.52
913.181	1347.83
913.494	1325.69
913.806	1339.92
914.118	1359.13
914.43	1353.03
914.742	1365.01
915.054	1351.67
915.366	1307.83
915.678	1333.59
915.99	1335.4
916.302	1298.34
916.613	1299.7
916.925	1312.35
917.236	1280.49
917.548	1271.45
917.859	1276.42
918.171	1281.17
918.482	1271
918.794	1254.27
919.105	1271.9
919.416	1233.94
919.727	1225.58
920.038	1236.65
920.349	1235.29
920.66	1240.26
920.971	1233.26
921.282	1212.24
921.593	1218.12
921.903	1207.27
922.214	1214.28
922.525	1210.89
922.835	1196.65
923.146	1199.36
923.456	1214.73
923.767	1195.75
924.077	1210.89
924.387	1198.68
924.697	1202.3
925.008	1196.42
925.318	1171.79
925.628	1198.01
925.938	1173.37
926.248	1187.16
926.558	1142.64
926.867	1179.47
927.177	1164.11
927.487	1180.6
927.796	1125.46
928.106	1130.66
928.416	1135.63
928.725	1145.35
929.034	1118.23
929.344	1117.1
929.653	1120.95
929.962	1118.01
930.271	1104.67
930.581	1113.04
930.89	1096.09
931.199	1102.41
931.508	1103.32
931.817	1082.75
932.125	1081.62
932.434	1096.09
932.743	1101.74
933.051	1075.07
933.36	1073.94
933.669	1058.57
933.977	1089.53
934.286	1098.12
934.594	1041.85
934.902	1051.57
935.21	1062.64
935.519	1061.51
935.827	1067.16
936.135	1042.53
936.443	1058.35
936.751	1043.66
937.059	1018.35
937.367	1020.61
937.674	1027.39
937.982	1043.43
938.29	1030.1
938.597	1040.04
938.905	1004.56
939.213	1014.96
939.52	1005.92
939.827	1004.79
940.135	1003.21
940.442	998.46
940.749	998.24
941.056	1011.12
941.363	1011.8
941.67	983.32
941.977	985.36
942.284	951.91
942.591	951.01
942.898	988.52
943.205	975.19
943.511	958.01
943.818	979.48
944.125	955.53
944.431	972.93
944.738	978.12
945.044	962.53
945.35	958.01
945.657	957.56
945.963	950.1
946.269	969.54
946.575	937.9
946.881	945.36
947.187	962.76
947.493	934.74
947.799	926.6
948.105	937.9
948.41	939.93
948.716	956.66
949.022	913.49
949.327	915.3
949.633	916.88
949.938	917.56
950.244	894.51
950.549	902.42
950.854	921.63
951.16	910.1
951.465	917.33
951.77	889.09
952.075	882.53
952.38	876.43
952.685	887.73
952.99	891.35
953.294	890.89
953.599	866.04
953.904	847.73
954.209	876.66
954.513	875.53
954.818	878.47
955.122	855.19
955.426	858.81
955.731	854.96
956.035	844.34
956.339	861.74
956.643	848.64
956.948	857.22
957.252	877.11
957.556	855.42
957.86	853.83
958.163	842.31
958.467	876.21
958.771	841.86
959.075	842.99
959.378	835.98
959.682	836.66
959.985	820.16
960.289	818.81
960.592	823.1
960.896	842.53
961.199	817.9
961.502	803.44
961.805	811.35
962.108	802.99
962.411	779.94
962.714	780.84
963.017	768.86
963.32	802.08
963.623	798.69
963.926	807.96
964.228	774.06
964.531	769.77
964.833	815.19
965.136	773.16
965.438	776.1
965.741	779.71
966.043	744.68
966.345	777.45
966.648	766.6
966.95	797.11
967.252	764.12
967.554	778.81
967.856	750.11
968.158	772.48
968.46	759.15
968.761	781.29
969.063	756.89
969.365	760.73
969.666	760.73
969.968	745.59
970.269	758.02
970.571	737.23
970.872	742.88
971.174	732.48
971.475	751.46
971.776	728.41
972.077	741.07
972.378	739.94
972.679	743.78
972.98	744.68
973.281	768.19
973.582	753.72
973.883	715.98
974.183	705.36
974.484	740.16
974.785	724.57
975.085	706.04
975.386	713.95
975.686	702.88
975.986	725.48
976.287	717.79
976.587	680.96
976.887	722.09
977.187	683.67
977.487	690.9
977.787	684.8
978.087	684.35
978.387	677.34
978.687	661.07
978.987	687.06
979.286	697.23
979.586	674.63
979.885	685.25
980.185	703.55
980.484	671.24
980.784	689.09
981.083	675.99
981.382	672.82
981.682	699.71
981.981	670.11
982.28	677.79
982.579	682.76
982.878	683.89
983.177	668.53
983.475	687.06
983.774	682.54
984.073	657
984.372	677.57
984.67	674.4
984.969	672.37
985.267	647.29
985.566	656.55
985.864	655.65
986.162	648.87
986.461	640.28
986.759	635.31
987.057	620.62
987.355	647.29
987.653	620.39
987.951	653.16
988.249	644.12
988.547	622.65
988.844	620.85
989.142	621.52
989.44	622.43
989.737	618.36
990.035	602.54
990.332	622.65
990.63	627.4
990.927	623.56
991.224	624.91
991.521	600.05
991.819	626.72
992.116	615.2
992.413	595.99
992.71	633.73
993.006	609.55
993.303	614.52
993.6	617.91
993.897	604.35
994.193	586.04
994.49	584.24
994.787	609.55
995.083	595.54
995.379	604.35
995.676	578.36
995.972	606.16
996.268	600.73
996.565	601.86
996.861	601.64
997.157	602.77
997.453	585.37
997.749	580.62
998.044	602.99
998.34	588.76
998.636	590.34
998.932	572.94
999.227	584.01
999.523	574.07
999.818	575.2
1000.114	580.17
1000.409	534.75
1000.704	556.21
1001	558.25
1001.295	546.04
1001.59	576.55
1001.885	560.51
1002.18	558.93
1002.475	565.93
1002.77	548.98
1003.065	553.05
1003.359	558.02
1003.654	527.06
1003.949	575.42
1004.243	564.12
1004.538	549.66
1004.832	536.1
1005.127	547.4
1005.421	518.02
1005.715	526.61
1006.009	541.75
1006.304	547.17
1006.598	529.32
1006.892	525.93
1007.186	541.3
1007.48	535.2
1007.773	541.75
1008.067	536.33
1008.361	526.84
1008.655	513.05
1008.948	521.64
1009.242	528.87
1009.535	522.32
1009.829	513.96
1010.122	543.79
1010.415	537.01
1010.708	535.65
1011.001	496.1
1011.295	512.83
1011.588	517.8
1011.881	515.09
1012.173	499.72
1012.466	510.79
1012.759	519.38
1013.052	519.6
1013.344	496.1
1013.637	487.52
1013.93	503.33
1014.222	506.95
1014.514	486.61
1014.807	501.3
1015.099	505.82
1015.391	491.36
1015.683	490
1015.976	479.61
1016.268	457.23
1016.56	494.29
1016.851	483.67
1017.143	472.15
1017.435	485.93
1017.727	491.81
1018.018	496.33
1018.31	492.94
1018.602	468.08
1018.893	472.83
1019.185	470.57
1019.476	482.09
1019.767	482.32
1020.058	477.35
1020.35	473.05
1020.641	470.79
1020.932	492.04
1021.223	468.76
1021.514	465.6
1021.804	470.57
1022.095	468.08
1022.386	454.07
1022.677	445.26
1022.967	451.13
1023.258	435.09
1023.548	467.63
1023.839	446.16
1024.129	469.44
1024.419	473.28
1024.709	443.45
1025	452.94
1025.29	450.91
1025.58	439.83
1025.87	423.34
1026.16	454.07
1026.449	443.22
1026.739	437.8
1027.029	443
1027.319	442.09
1027.608	435.77
1027.898	425.82
1028.187	433.51
1028.477	427.18
1028.766	428.53
1029.055	431.47
1029.344	427.18
1029.634	405.71
1029.923	422.66
1030.212	450
1030.501	428.76
1030.79	434.41
1031.078	415.2
1031.367	428.08
1031.656	394.18
1031.945	434.64
1032.233	414.97
1032.522	405.71
1032.81	433.05
1033.099	434.64
1033.387	425.82
1033.675	419.95
1033.963	423.56
1034.251	408.42
1034.54	429.21
1034.828	417.01
1035.116	414.75
1035.403	405.03
1035.691	405.26
1035.979	396.44
1036.267	416.33
1036.554	401.87
1036.842	401.64
1037.129	409.33
1037.417	396.67
1037.704	394.18
1037.992	406.61
1038.279	409.33
1038.566	419.27
1038.853	419.27
1039.14	419.27
