Data from foam_black_FLMS001491_00047.txt Node
Date: Wed Feb 08 10:43:57 GMT 2017
User: dcchb
Spectrometer: FLMS00149
Trigger mode: 0
Integration Time (sec): 2.000000E-2
Scans to average: 10
Electric dark correction enabled: true
Nonlinearity correction enabled: false
Boxcar width: 0
XAxis mode: Wavelengths
Number of Pixels in Spectrum: 2048
>>>>>Begin Spectral Data<<<<<
341.393	-24.6
341.776	-24.6
342.16	-24.6
342.543	-70.48
342.927	-61.44
343.31	-62.57
343.693	-91.04
344.077	-77.94
344.46	-39.74
344.843	-52.63
345.226	-51.95
345.61	-34.1
345.993	-10.37
346.376	-7.66
346.759	30.99
347.142	31.89
347.525	38.9
347.908	62.4
348.291	76.18
348.674	94.94
349.057	92.68
349.44	125.45
349.823	143.53
350.206	149.85
350.588	177.88
350.971	209.51
351.354	219.23
351.737	214.71
352.119	237.08
352.502	244.32
352.884	261.94
353.267	287.48
353.65	284.54
354.032	282.28
354.414	280.02
354.797	303.75
355.179	295.16
355.562	303.07
355.944	306.46
356.326	318.44
356.709	327.25
357.091	309.17
357.473	348.95
357.855	310.53
358.238	331.54
358.62	347.36
359.002	325.44
359.384	320.92
359.766	340.58
360.148	336.52
360.53	318.66
360.912	319.34
361.294	316.63
361.676	340.13
362.057	329.96
362.439	330.87
362.821	331.54
363.203	331.54
363.584	324.77
363.966	309.17
364.348	318.66
364.729	326.57
365.111	304.43
365.493	308.27
365.874	316.18
366.256	324.09
366.637	309.85
367.019	306.69
367.4	314.14
367.781	307.14
368.163	308.72
368.544	295.39
368.925	319.57
369.306	313.69
369.688	306.01
370.069	309.4
370.45	317.53
370.831	324.77
371.212	290.19
371.593	318.89
371.974	314.82
372.355	315.73
372.736	322.96
373.117	306.46
373.498	318.89
373.879	332.22
374.26	312.79
374.641	311.66
375.021	332
375.402	331.77
375.783	313.24
376.163	334.93
376.544	337.87
376.925	323.41
377.305	341.49
377.686	330.42
378.066	326.12
378.447	335.61
378.827	341.04
379.208	326.12
379.588	321.6
379.968	342.62
380.349	345.33
380.729	346.91
381.109	353.92
381.489	353.24
381.87	347.14
382.25	351.43
382.63	349.4
383.01	363.41
383.39	339.68
383.77	358.44
384.15	357.31
384.53	330.64
384.91	370.41
385.29	375.39
385.67	350.98
386.049	367.7
386.429	377.87
386.809	361.6
387.189	360.02
387.568	368.83
387.948	384.65
388.328	380.36
388.707	390.3
389.087	357.98
389.466	362.05
389.846	365.44
390.225	384.88
390.605	378.1
390.984	391.66
391.363	373.8
391.743	370.19
392.122	371.09
392.501	387.14
392.881	386.46
393.26	399.79
393.639	416.74
394.018	400.92
394.397	411.32
394.776	407.93
395.155	416.97
395.534	406.8
395.913	409.06
396.292	411.77
396.671	416.29
397.05	413.35
397.429	404.09
397.808	408.83
398.186	400.92
398.565	434.14
398.944	439.56
399.323	428.94
399.701	441.82
400.08	424.65
400.458	437.3
400.837	424.65
401.215	428.49
401.594	454.48
401.972	453.12
402.351	444.76
402.729	427.81
403.107	443.63
403.486	459.45
403.864	456.06
404.242	450.86
404.62	448.15
404.999	473.24
405.377	443.63
405.755	467.81
406.133	473.46
406.511	463.52
406.889	488.38
407.267	475.5
407.645	489.05
408.023	480.92
408.401	496.74
408.779	502.39
409.156	527.02
409.534	512.78
409.912	508.94
410.29	516.17
410.667	518.88
411.045	499.9
411.422	533.35
411.8	523.18
412.178	537.19
412.555	536.51
412.933	531.09
413.31	542.39
413.687	551.43
414.065	541.26
414.442	551.2
414.819	575.83
415.197	557.53
415.574	575.61
415.951	576.06
416.328	562.5
416.705	558.66
417.082	572.44
417.46	576.28
417.837	600.01
418.214	594.14
418.591	591.65
418.967	581.03
419.344	626
419.721	619.67
420.098	613.12
420.475	615.83
420.852	605.21
421.228	628.94
421.605	639.33
421.982	634.14
422.358	642.95
422.735	635.27
423.111	634.14
423.488	661.25
423.864	651.76
424.241	655.15
424.617	645.89
424.994	661.93
425.37	667.13
425.746	676.85
426.123	685.43
426.499	676.62
426.875	685.66
427.251	691.54
427.627	711.65
428.003	719.11
428.379	708.71
428.756	706.22
429.132	722.27
429.507	753.45
429.883	728.6
430.259	755.71
430.635	752.55
431.011	734.02
431.387	786.9
431.763	767.69
432.138	810.63
432.514	802.04
432.89	795.49
433.265	795.26
433.641	801.59
434.016	804.75
434.392	804.07
434.767	847.92
435.143	822.38
435.518	826.45
435.894	838.2
436.269	867.35
436.644	882.26
437.02	875.49
437.395	895.82
437.77	896.28
438.145	898.31
438.52	880.91
438.895	921.59
439.271	887.24
439.646	914.35
440.021	947.57
440.395	924.07
440.77	909.61
441.145	914.13
441.52	936.5
441.895	978.53
442.27	943.51
442.645	945.31
443.019	967.91
443.394	995.71
443.769	976.05
444.143	973.79
444.518	1000.91
444.892	986.89
445.267	986.44
445.641	1004.3
446.016	989.38
446.39	1019.44
446.764	994.35
447.139	1019.66
447.513	1038.87
447.887	1027.35
448.262	1026.67
448.636	1030.28
449.01	1041.13
449.384	1049.04
449.758	1047.46
450.132	1078.19
450.506	1075.71
450.88	1097.63
451.254	1075.03
451.628	1070.96
452.002	1132.2
452.376	1107.8
452.75	1130.62
453.123	1132.2
453.497	1131.3
453.871	1168.59
454.244	1167.23
454.618	1189.15
454.992	1197.74
455.365	1207.68
455.739	1202.71
456.112	1259.66
456.486	1263.95
456.859	1233.44
457.232	1239.09
457.606	1263.5
457.979	1284.51
458.352	1342.82
458.725	1309.37
459.099	1316.6
459.472	1327
459.845	1329.03
460.218	1374.68
460.591	1361.57
460.964	1378.52
461.337	1405.64
461.71	1422.36
462.083	1407
462.456	1447.45
462.829	1442.7
463.201	1452.42
463.574	1457.39
463.947	1499.65
464.32	1521.8
464.692	1504.85
465.065	1518.18
465.438	1556.37
465.81	1563.38
466.183	1578.74
466.555	1589.82
466.928	1626.43
467.3	1599.53
467.672	1620.78
468.045	1663.94
468.417	1655.8
468.789	1680.21
469.161	1705.52
469.534	1726.31
469.906	1735.8
470.278	1786.2
470.65	1835.23
471.022	1813.77
471.394	1841.11
471.766	1864.84
472.138	1866.65
472.51	1938.28
472.882	1937.15
473.253	1983.25
473.625	1970.37
473.997	2034.55
474.369	2042.46
474.74	2039.75
475.112	2119.97
475.484	2103.48
475.855	2194.55
476.227	2165.85
476.598	2201.33
476.97	2232.06
477.341	2287.43
477.713	2315.9
478.084	2320.87
478.455	2378.5
478.827	2358.38
479.198	2441.77
479.569	2476.12
479.94	2494.2
480.311	2542.79
480.682	2568.55
481.053	2625.5
481.424	2680.18
481.795	2662.11
482.166	2755.44
482.537	2769.67
482.908	2816.9
483.279	2848.77
483.65	2896.68
484.021	2943
484.391	2966.05
484.762	2973.74
485.133	3068.42
485.503	3095.99
485.874	3121.98
486.244	3134.18
486.615	3228.19
486.985	3241.98
487.356	3265.71
487.726	3315.65
488.097	3408.07
488.467	3389.09
488.837	3434.29
489.207	3423.44
489.578	3525.36
489.948	3552.93
490.318	3608.29
490.688	3629.31
491.058	3639.48
491.428	3679.71
491.798	3737.78
492.168	3768.97
492.538	3788.63
492.908	3860.94
493.278	3908.85
493.648	3933.71
494.017	3930.77
494.387	4011
494.757	4056.64
495.126	4062.97
495.496	4069.98
495.866	4072.92
496.235	4182.29
496.605	4204.21
496.974	4243.31
497.344	4289.63
497.713	4267.26
498.082	4314.27
498.452	4374.6
498.821	4355.17
499.19	4435.84
499.559	4444.66
499.928	4456.86
500.298	4493.24
500.667	4547.25
501.036	4547.48
501.405	4566.46
501.774	4600.59
502.143	4656.85
502.512	4693.24
502.88	4691.43
503.249	4721.94
503.618	4744.99
503.987	4784.08
504.356	4751.09
504.724	4800.35
505.093	4850.07
505.462	4889.62
505.83	4900.92
506.199	4916.51
506.567	4996.96
506.936	4978.2
507.304	4999.67
507.672	5048.48
508.041	5030.4
508.409	5135.26
508.777	5112.21
509.145	5204.19
509.514	5212.09
509.882	5268.14
510.25	5255.94
510.618	5310.4
510.986	5341.36
511.354	5362.6
511.722	5417.51
512.09	5440.34
512.458	5489.38
512.826	5548.13
513.193	5592.2
513.561	5589.71
513.929	5702.25
514.297	5728.69
514.664	5730.27
515.032	5764.85
515.4	5833.55
515.767	5878.74
516.135	5891.17
516.502	5871.06
516.869	6004.84
517.237	6008.23
517.604	6013.88
517.972	6090.72
518.339	6177.27
518.706	6155.12
519.073	6196.93
519.44	6235.8
519.808	6285.96
520.175	6303.14
520.542	6361.67
520.909	6385.4
521.276	6398.05
521.643	6512.4
522.009	6551.72
522.376	6598.27
522.743	6600.08
523.11	6667.2
523.477	6707.65
523.843	6818.61
524.21	6861.54
524.577	6928.21
524.943	6962.56
525.31	7020.86
525.676	6989.22
526.043	7073.29
526.409	7081.88
526.776	7241.65
527.142	7303.79
527.508	7326.16
527.874	7334.75
528.241	7379.72
528.607	7396.67
528.973	7457.91
529.339	7472.37
529.705	7525.03
530.071	7613.39
530.437	7641.41
530.803	7756.21
531.169	7751.01
531.535	7774.74
531.901	7772.71
532.267	7837.11
532.632	7885.92
532.998	7975.64
533.364	7951.23
533.73	7956.88
534.095	8082.08
534.461	8001.63
534.826	8165.46
535.192	8108.29
535.557	8202.98
535.923	8202.3
536.288	8237.55
536.653	8268.74
537.019	8274.84
537.384	8290.88
537.749	8429.64
538.114	8391.22
538.479	8496.98
538.845	8505.34
539.21	8480.94
539.575	8589.18
539.94	8574.49
540.305	8673.92
540.67	8694.49
541.034	8717.09
541.399	8708.73
541.764	8776.75
542.129	8848.84
542.494	8846.12
542.858	8920.7
543.223	8894.26
543.587	9011.54
543.952	8996.63
544.316	9026.23
544.681	9070.75
545.045	9113.23
545.41	9162.27
545.774	9160.92
546.138	9186.45
546.503	9271.2
546.867	9226.68
547.231	9298.09
547.595	9358.88
547.959	9423.06
548.324	9444.75
548.688	9344.87
549.052	9484.75
549.416	9440.23
549.779	9409.5
550.143	9520
550.507	9551.42
550.871	9664.63
551.235	9615.37
551.599	9688.36
551.962	9693.33
552.326	9765.2
552.689	9853.78
553.053	9724.97
553.417	9852.42
553.78	10012.19
554.143	9940.11
554.507	10078.86
554.87	10067.79
555.234	10150.27
555.597	10122.25
555.96	10117.5
556.323	10271.17
556.686	10308.91
557.05	10343.94
557.413	10340.55
557.776	10384.39
558.139	10492.86
558.502	10472.07
558.865	10547.77
559.228	10638.39
559.59	10627.55
559.953	10647.21
560.316	10762.46
560.679	10753.19
561.041	10731.5
561.404	10853.53
561.767	10945.96
562.129	10912.74
562.492	11048.78
562.854	11016.69
563.217	11127.87
563.579	11172.16
563.941	11250.81
564.304	11340.52
564.666	11351.59
565.028	11412.61
565.39	11499.16
565.753	11503.45
566.115	11551.14
566.477	11669.33
566.839	11707.07
567.201	11830.68
567.563	11852.37
567.925	11943.22
568.287	11905.03
568.648	11988.41
569.01	12106.6
569.372	12159.48
569.734	12124.23
570.095	12203.1
570.457	12339.14
570.819	12259.82
571.18	12345.47
571.542	12462.53
571.903	12472.47
572.265	12413.04
572.626	12536.2
572.987	12589.53
573.349	12522.64
573.71	12666.81
574.071	12759.69
574.432	12662.52
574.794	12788.17
575.155	12856.87
575.516	12766.25
575.877	12886.7
576.238	12836.53
576.599	12891.44
576.96	12871.33
577.32	13022.06
577.681	12945.45
578.042	12975.73
578.403	13000.14
578.763	13032.45
579.124	13028.84
579.485	13095.28
579.845	13126.69
580.206	13105.9
580.566	13136.86
580.927	13123.3
581.287	13153.81
581.648	13182.96
582.008	13187.7
582.368	13165.56
582.728	13189.51
583.089	13182.51
583.449	13141.15
583.809	13202.84
584.169	13285.55
584.529	13253.01
584.889	13337.53
585.249	13166.91
585.609	13220.7
585.969	13287.36
586.329	13247.82
586.688	13271.32
587.048	13278.1
587.408	13306.12
587.768	13304.76
588.127	13302.5
588.487	13334.82
588.846	13386.12
589.206	13382.73
589.565	13379.11
589.925	13440.8
590.284	13439.22
590.643	13473.8
591.003	13580.91
591.362	13530.07
591.721	13546.56
592.08	13546.34
592.44	13565.55
592.799	13559.9
593.158	13513.57
593.517	13527.13
593.876	13633.57
594.235	13528.71
594.593	13536.85
594.952	13540.69
595.311	13577.07
595.67	13611.42
596.029	13693.68
596.387	13697.52
596.746	13727.58
597.104	13652.32
597.463	13622.72
597.822	13675.6
598.18	13726.22
598.538	13725.09
598.897	13763.73
599.255	13702.27
599.613	13844.18
599.972	13802.38
600.33	13758.54
600.688	13708.82
601.046	13801.93
601.404	13831.08
601.762	13829.27
602.12	13889.61
602.478	13831.75
602.836	13829.5
603.194	13695.49
603.552	13795.82
603.91	13803.73
604.268	13826.78
604.625	13791.3
604.983	13916.72
605.341	13766.67
605.698	13800.8
606.056	13933.45
606.413	13792.89
606.771	13892.54
607.128	13994.24
607.485	13910.85
607.843	13892.77
608.2	14002.6
608.557	14071.75
608.914	13959.89
609.272	14054.57
609.629	14078.98
609.986	14204.85
610.343	14095.25
610.7	14167.11
611.057	14103.39
611.414	14150.84
611.771	14148.81
612.127	14308.58
612.484	14201.24
612.841	14225.19
613.198	14243.72
613.554	14253.21
613.911	14352.19
614.267	14298.86
614.624	14244.63
614.98	14361.01
615.337	14489.14
615.693	14472.19
616.05	14365.07
616.406	14469.7
616.762	14464.51
617.118	14440.33
617.475	14415.47
617.831	14522.13
618.187	14595.35
618.543	14551.51
618.899	14666.99
619.255	14539.31
619.611	14551.74
619.967	14659.08
620.323	14699.98
620.678	14695.24
621.034	14553.09
621.39	14650.04
621.746	14521.68
622.101	14715.12
622.457	14602.58
622.812	14688.68
623.168	14747.21
623.523	14711.28
623.879	14724.16
624.234	14561
624.589	14708.79
624.945	14740.66
625.3	14732.75
625.655	14717.16
626.01	14657.27
626.365	14751.28
626.72	14748.79
627.075	14670.83
627.43	14718.96
627.785	14640.32
628.14	14713.54
628.495	14707.66
628.85	14763.26
629.205	14661.11
629.559	14683.48
629.914	14616.37
630.269	14560.1
630.623	14587.44
630.978	14527.56
631.332	14643.03
631.687	14565.29
632.041	14548.35
632.396	14549.02
632.75	14557.61
633.104	14598.97
633.459	14435.58
633.813	14473.09
634.167	14376.6
634.521	14390.61
634.875	14354
635.229	14426.09
635.583	14366.2
635.937	14433.77
636.291	14375.7
636.645	14368.01
636.999	14412.3
637.352	14330.27
637.706	14376.15
638.06	14291.86
638.413	14307.67
638.767	14186.1
639.121	14243.5
639.474	14227
639.828	14159.2
640.181	14241.46
640.534	14240.11
640.888	14181.8
641.241	14255.02
641.594	14175.02
641.947	14228.81
642.301	14197.4
642.654	14191.52
643.007	14251.63
643.36	14214.34
643.713	14198.75
644.066	14189.71
644.419	14118.98
644.771	13978.19
645.124	13808.7
645.477	13822.49
645.83	13770.29
646.182	13650.29
646.535	13663.62
646.888	13759.67
647.24	13693.45
647.593	13751.76
647.945	13653.68
648.298	13628.6
648.65	13580.24
649.002	13607.35
649.355	13651.19
649.707	13528.71
650.059	13612.1
650.411	13808.25
650.763	13795.6
651.115	13967.8
651.467	13915.14
651.819	13835.14
652.171	13855.03
652.523	13761.02
652.875	13769.16
653.227	13782.26
653.578	13826.56
653.93	13835.37
654.282	13674.92
654.633	13728.25
654.985	13757.63
655.337	13770.06
655.688	13698.88
656.039	13702.04
656.391	13635.15
656.742	13726
657.094	13702.72
657.445	13685.54
657.796	13551.08
658.147	13692.1
658.498	13628.37
658.849	13635.38
659.2	13638.31
659.551	13547.02
659.902	13565.1
660.253	13637.18
660.604	13588.82
660.955	13629.05
661.306	13619.11
661.656	13644.19
662.007	13603.06
662.358	13589.05
662.708	13544.53
663.059	13520.8
663.409	13545.89
663.76	13672.44
664.11	13612.1
664.461	13576.17
664.811	13609.84
665.161	13604.42
665.511	13531.88
665.862	13635.15
666.212	13637.86
666.562	13633.34
666.912	13646.22
667.262	13643.51
667.612	13581.82
667.962	13593.57
668.312	13477.41
668.662	13673.12
669.011	13640.8
669.361	13510.41
669.711	13532.55
670.06	13482.84
670.41	13420.01
670.76	13558.99
671.109	13553.8
671.459	13495.72
671.808	13587.02
672.157	13461.37
672.507	13426.34
672.856	13400.35
673.205	13379.11
673.554	13419.79
673.904	13433.35
674.253	13414.59
674.602	13445.32
674.951	13231.54
675.3	13088.05
675.649	13310.19
675.998	13396.51
676.346	13302.73
676.695	13365.78
677.044	13277.87
677.393	13224.99
677.741	13250.08
678.09	13287.81
678.438	13313.8
678.787	13224.54
679.135	13187.25
679.484	13188.83
679.832	13232.45
680.181	13195.84
680.529	13168.04
680.877	13202.39
681.225	13156.52
681.573	13158.55
681.922	13058.89
682.27	13110.42
682.618	13123.07
682.966	13020.93
683.314	13097.09
683.661	13047.37
684.009	12977.31
684.357	13043.3
684.705	12925.11
685.053	12923.08
685.4	12943.42
685.748	12835.85
686.095	12839.69
686.443	12932.8
686.79	12792.23
687.138	12843.31
687.485	12850.09
687.832	12783.87
688.18	12781.16
688.527	12768.28
688.874	12735.06
689.221	12702.07
689.568	12587.49
689.915	12574.16
690.262	12588.85
690.609	12550.66
690.956	12536.42
691.303	12463.66
691.65	12364.22
691.997	12414.62
692.344	12364.67
692.69	12323.32
693.037	12336.88
693.383	12237.67
693.73	12201.52
694.077	12213.72
694.423	12223.21
694.769	12121.29
695.116	12164.68
695.462	12131.01
695.808	12021.63
696.155	12026.38
696.501	11947.28
696.847	11886.72
697.193	11837.01
697.539	11916.1
697.885	11835.42
698.231	11834.52
698.577	11901.86
698.923	11812.6
699.269	11738.25
699.614	11635.65
699.96	11646.73
700.306	11720.62
700.651	11608.76
700.997	11570.35
701.342	11586.39
701.688	11623
702.033	11582.1
702.379	11623.9
702.724	11520.86
703.069	11623.23
703.415	11363.57
703.76	11399.95
704.105	11542.1
704.45	11477.01
704.795	11369.67
705.14	11334.87
705.485	11451.25
705.83	11336.91
706.175	11383.46
706.52	11321.54
706.865	11271.6
707.209	11330.8
707.554	11280.18
707.899	11368.77
708.243	11244.7
708.588	11215.55
708.932	11152.28
709.277	11219.39
709.621	11198.38
709.966	11096.23
710.31	11120.64
710.654	10987.76
710.998	11029.34
711.342	11178.27
711.687	11022.34
712.031	11001.32
712.375	10959.74
712.719	10978.95
713.063	10947.09
713.407	10956.35
713.75	10853.75
714.094	10840.87
714.438	10814.89
714.782	10848.33
715.125	10791.83
715.469	10772.17
715.812	10734.89
716.156	10624.83
716.499	10682.69
716.843	10664.15
717.186	10539.41
717.53	10528.56
717.873	10572.63
718.216	10527.21
718.559	10486.08
718.902	10400.88
719.246	10401.79
719.589	10494.67
719.932	10410.83
720.275	10354.56
720.617	10359.98
720.96	10300.55
721.303	10248.8
721.646	10230.72
721.989	10176.03
722.331	10192.75
722.674	10155.92
723.016	10124.28
723.359	10170.16
723.701	10084.51
724.044	10106.43
724.386	10047
724.729	10072.53
725.071	10076.6
725.413	10028.92
725.755	9981.69
726.097	9959.99
726.439	9947.79
726.782	9895.59
727.124	9971.29
727.465	9932.87
727.807	9891.07
728.149	9879.54
728.491	9850.16
728.833	9885.87
729.175	9835.7
729.516	9849.94
729.858	9847.9
730.199	9870.73
730.541	9811.07
730.882	9791.86
731.224	9820.34
731.565	9786.66
731.906	9735.59
732.248	9886.1
732.589	9745.31
732.93	9771.52
733.271	9715.03
733.612	9837.96
733.953	9801.13
734.294	9750.96
734.635	9765.2
734.976	9767.46
735.317	9708.25
735.658	9724.52
735.999	9776.95
736.339	9699.89
736.68	9761.58
737.021	9715.25
737.361	9708.25
737.702	9735.59
738.042	9776.95
738.383	9656.72
738.723	9703.5
739.063	9669.83
739.404	9659.21
739.744	9704.41
740.084	9626.22
740.424	9620.79
740.764	9615.37
741.104	9545.54
741.444	9581.02
741.784	9465.77
742.124	9541.47
742.464	9524.98
742.804	9559.32
743.143	9486.33
743.483	9564.52
743.823	9473
744.162	9386.45
744.502	9458.08
744.841	9408.37
745.181	9370.4
745.52	9403.4
745.86	9395.94
746.199	9343.51
746.538	9330.4
746.877	9377.63
747.216	9329.5
747.556	9254.25
747.895	9390.52
748.234	9241.82
748.573	9225.77
748.911	9205.21
749.25	9234.59
749.589	9173.12
749.928	9223.29
750.267	9216.51
750.605	9120.24
750.944	9086.57
751.283	9021.26
751.621	9139.67
751.96	9062.61
752.298	9046.57
752.636	9054.03
752.975	9034.37
753.313	8950.53
753.651	8953.69
753.989	8939.68
754.327	8917.99
754.666	8869.85
755.004	8877.31
755.342	8919.34
755.679	8819.23
756.017	8857.65
756.355	8805.22
756.693	8771.32
757.031	8773.36
757.368	8699.91
757.706	8764.54
758.044	8688.16
758.381	8660.82
758.719	8710.31
759.056	8718.44
759.394	8656.07
759.731	8584.66
760.068	8550.99
760.405	8602.06
760.743	8528.39
761.08	8508.28
761.417	8474.16
761.754	8487.04
762.091	8455.17
762.428	8393.93
762.765	8415.17
763.102	8354.61
763.438	8343.09
763.775	8317.32
764.112	8309.41
764.449	8313.26
764.785	8313.03
765.122	8229.42
765.458	8243.2
765.795	8199.81
766.131	8195.97
766.467	8222.18
766.804	8221.06
767.14	8106.93
767.476	8079.59
767.812	8049.31
768.148	8085.92
768.485	8067.84
768.821	7982.19
769.157	8015.86
769.492	7977.45
769.828	7922.76
770.164	7822.2
770.5	7802.08
770.836	7869.43
771.171	7796.21
771.507	7722.76
771.842	7686.61
772.178	7719.83
772.513	7702.42
772.849	7682.09
773.184	7692.26
773.519	7615.65
773.855	7588.3
774.19	7560.06
774.525	7512.6
774.86	7501.98
775.195	7481.87
775.53	7510.11
775.865	7437.12
776.2	7381.3
776.535	7330.46
776.87	7320.06
777.205	7263.79
777.539	7215.88
777.874	7287.97
778.209	7113.06
778.543	7170.69
778.878	7154.87
779.212	7129.56
779.547	7092.27
779.881	7034.87
780.215	7020.86
780.55	7031.26
780.884	6949.9
781.218	6994.87
781.552	6987.64
781.886	6917.36
782.22	6961.2
782.554	6894.76
782.888	6857.48
783.222	6815.89
783.556	6805.95
783.889	6778.83
784.223	6691.83
784.557	6723.02
784.89	6709.23
785.224	6741.55
785.557	6637.82
785.891	6651.15
786.224	6667.2
786.558	6726.41
786.891	6560.53
787.224	6600.31
787.557	6602.57
787.891	6526.86
788.224	6548.1
788.557	6524.38
788.89	6529.8
789.223	6507.88
789.556	6534.77
789.888	6464.27
790.221	6423.59
790.554	6392.4
790.887	6396.47
791.219	6408.45
791.552	6382.91
791.884	6352.18
792.217	6338.84
792.549	6328
792.882	6309.69
793.214	6306.98
793.546	6311.5
793.879	6308.56
794.211	6259.07
794.543	6230.37
794.875	6255.68
795.207	6252.29
795.539	6166.42
795.871	6232.18
796.203	6175.01
796.535	6131.84
796.867	6078.96
797.198	6043.71
797.53	6098.17
797.862	6025.18
798.193	6072.18
798.525	5973.43
798.856	6082.13
799.188	5986.76
799.519	5938.86
799.85	5915.13
800.182	5965.07
800.513	5963.04
800.844	5916.48
801.175	5949.93
801.506	5920.32
801.837	5869.03
802.168	5887.78
802.499	5851.63
802.83	5798.97
803.161	5805.53
803.491	5824.96
803.822	5849.14
804.153	5745.41
804.483	5708.58
804.814	5755.13
805.145	5706.09
805.475	5730.95
805.805	5713.78
806.136	5675.36
806.466	5688.47
806.796	5693.66
807.126	5599.2
807.457	5541.58
807.787	5576.15
808.117	5539.77
808.447	5545.87
808.777	5554.01
809.107	5455.7
809.436	5461.81
809.766	5485.53
810.096	5452.09
810.426	5487.34
810.755	5459.32
811.085	5449.83
811.414	5410.06
811.744	5387.23
812.073	5340.9
812.403	5330.51
812.732	5350.62
813.061	5288.7
813.39	5223.85
813.719	5273.56
814.049	5266.1
814.378	5277.4
814.707	5231.53
815.036	5221.13
815.365	5161.25
815.693	5131.42
816.022	5135.26
816.351	5104.98
816.68	5136.16
817.008	5148.14
817.337	5044.87
817.665	5102.04
817.994	5065.21
818.322	5072.44
818.651	5006
818.979	5052.32
819.307	5035.38
819.636	4991.99
819.964	5030.4
820.292	5007.13
820.62	5021.82
820.948	4973.68
821.276	4993.8
821.604	4977.3
821.932	4956.73
822.259	4955.6
822.587	4962.61
822.915	4931.2
823.243	4966.68
823.57	4964.19
823.898	4937.07
824.225	4909.96
824.553	4976.62
824.88	4928.03
825.207	4911.76
825.535	4943.63
825.862	4933.01
826.189	4971.42
826.516	4984.3
826.843	4935.49
827.17	4978.2
827.497	4930.29
827.824	4949.5
828.151	4967.81
828.478	4945.21
828.805	4976.85
829.131	4953.8
829.458	4949.73
829.785	4937.98
830.111	4933.46
830.438	4975.49
830.764	4974.59
831.09	4972.55
831.417	4926.23
831.743	4992.67
832.069	4971.65
832.395	4932.33
832.722	4948.15
833.048	4971.2
833.374	4969.84
833.7	4920.12
834.026	4919.45
834.351	4990.18
834.677	4971.87
835.003	4927.81
835.329	4950.41
835.654	4941.37
835.98	4900.46
836.306	4956.73
836.631	4926.45
836.956	4930.07
837.282	4917.41
837.607	4909.73
837.932	4907.47
838.258	4904.98
838.583	4889.39
838.908	4866.79
839.233	4868.15
839.558	4880.13
839.883	4860.69
840.208	4841.93
840.533	4868.6
840.858	4851.43
841.182	4816.4
841.507	4869.05
841.832	4799.68
842.156	4809.62
842.481	4793.12
842.805	4773.01
843.13	4806
843.454	4776.85
843.778	4741.15
844.103	4755.38
844.427	4788.6
844.751	4785.44
845.075	4760.58
845.399	4708.38
845.723	4700.47
846.047	4735.27
846.371	4743.63
846.695	4662.73
847.019	4640.58
847.343	4629.96
847.666	4603.52
847.99	4603.52
848.313	4618.44
848.637	4552.68
848.96	4571.43
849.284	4545.45
849.607	4514.71
849.931	4531.89
850.254	4470.87
850.577	4486.24
850.9	4474.26
851.223	4470.42
851.546	4442.85
851.869	4425.67
852.192	4384.77
852.515	4401.95
852.838	4387.26
853.161	4372.34
853.483	4336.19
853.806	4344.09
854.129	4348.61
854.451	4322.85
854.774	4290.99
855.096	4296.86
855.419	4274.04
855.741	4249.63
856.063	4285.11
856.385	4259.58
856.708	4222.74
857.03	4252.35
857.352	4225.91
857.674	4198.34
857.996	4196.75
858.318	4164.44
858.64	4174.38
858.961	4155.17
859.283	4115.4
859.605	4147.94
859.926	4122.86
860.248	4100.03
860.57	4118.56
860.891	4135.29
861.212	4066.14
861.534	4084.21
861.855	4086.47
862.176	4066.14
862.498	4142.29
862.819	4109.52
863.14	4038.34
863.461	4022.07
863.782	4027.72
864.103	4006.48
864.424	4009.19
864.745	3971.9
865.065	3950.21
865.386	3938.91
865.707	3984.56
866.027	3976.87
866.348	3968.06
866.668	3968.96
866.989	3957.66
867.309	3909.53
867.63	3974.16
867.95	3876.31
868.27	3914.95
868.59	3935.29
868.91	3923.99
869.23	3896.42
869.55	3899.81
869.87	3876.08
870.19	3900.72
870.51	3860.27
870.83	3840.38
871.15	3869.98
871.469	3834.28
871.789	3837.89
872.109	3824.33
872.428	3839.7
872.748	3807.84
873.067	3796.54
873.386	3852.81
873.706	3790.44
874.025	3780.95
874.344	3773.26
874.663	3791.34
874.982	3743.66
875.301	3754.96
875.62	3801.51
875.939	3740.72
876.258	3711.57
876.577	3760.61
876.896	3716.99
877.214	3689.2
877.533	3671.12
877.852	3696.2
878.17	3693.94
878.489	3677.9
878.807	3622.31
879.125	3683.1
879.444	3658.69
879.762	3611.01
880.08	3645.36
880.398	3620.72
880.716	3614.62
881.034	3606.94
881.352	3554.74
881.67	3573.72
881.988	3586.6
882.306	3573.95
882.624	3561.74
882.941	3568.52
883.259	3572.82
883.577	3498.47
883.894	3505.25
884.212	3516.09
884.529	3533.49
884.846	3491.01
885.164	3494.4
885.481	3480.61
885.798	3485.81
886.115	3499.15
886.432	3516.55
886.75	3454.4
887.067	3445.14
887.383	3442.2
887.7	3465.7
888.017	3423.67
888.334	3456.66
888.651	3466.38
888.967	3425.02
889.284	3390.45
889.6	3395.87
889.917	3354.52
890.233	3387.28
890.55	3354.06
890.866	3374.4
891.182	3387.28
891.498	3361.97
891.815	3355.65
892.131	3369.88
892.447	3289.89
892.763	3324.91
893.079	3292.37
893.395	3308.64
893.71	3303.22
894.026	3297.79
894.342	3305.48
894.657	3262.32
894.973	3268.42
895.289	3305.25
895.604	3259.83
895.92	3266.38
896.235	3228.19
896.55	3223.45
896.865	3239.72
897.181	3244.69
897.496	3248.53
897.811	3222.54
898.126	3183.67
898.441	3223.22
898.756	3165.82
899.071	3218.7
899.386	3187.97
899.7	3189.55
900.015	3146.84
900.33	3131.47
900.644	3130.34
900.959	3150.68
901.273	3136.22
901.588	3113.84
901.902	3107.29
902.216	3098.03
902.531	3093.51
902.845	3065.48
903.159	3086.73
903.473	3079.5
903.787	3079.72
904.101	3026.62
904.415	3056.45
904.729	3005.15
905.042	3034.98
905.356	3044.02
905.67	3021.64
905.984	3008.08
906.297	2974.41
906.611	3002.66
906.924	3015.09
907.237	2968.09
907.551	2969.44
907.864	2958.82
908.177	2973.74
908.491	2962.44
908.804	2961.76
909.117	2914.53
909.43	2907.52
909.743	2893.29
910.056	2902.1
910.368	2890.35
910.681	2893.29
910.994	2864.59
911.307	2806.73
911.619	2804.93
911.932	2831.37
912.244	2822.78
912.557	2821.42
912.869	2820.97
913.181	2820.75
913.494	2790.46
913.806	2785.27
914.118	2779.62
914.43	2784.81
914.742	2723.8
915.054	2751.82
915.366	2724.7
915.678	2747.3
915.99	2707.3
916.302	2717.47
916.613	2679.05
916.925	2679.51
917.236	2700.07
917.548	2651.71
917.859	2671.6
918.171	2627.76
918.482	2632.95
918.794	2599.06
919.105	2639.28
919.416	2604.93
919.727	2589.79
920.038	2583.69
920.349	2534.88
920.66	2543.69
920.971	2561.77
921.282	2575.1
921.593	2520.64
921.903	2545.27
922.214	2507.53
922.525	2461.88
922.835	2466.18
923.146	2446.07
923.456	2456.91
923.767	2481.09
924.077	2415.56
924.387	2463.92
924.697	2396.12
925.008	2421.21
925.318	2394.32
925.628	2362.23
925.938	2386.63
926.248	2362.9
926.558	2345.5
926.867	2372.85
927.177	2336.24
927.487	2347.99
927.796	2278.16
928.106	2317.26
928.416	2315.9
928.725	2293.53
929.034	2270.03
929.344	2274.32
929.653	2303.7
929.962	2258.5
930.271	2239.52
930.581	2234.55
930.89	2199.52
931.199	2195
931.508	2189.8
931.817	2184.6
932.125	2175.79
932.434	2164.04
932.743	2151.16
933.051	2164.27
933.36	2151.38
933.669	2108.22
933.977	2096.7
934.286	2109.58
934.594	2108.22
934.902	2095.79
935.21	2096.24
935.519	2084.95
935.827	2044.95
936.135	2049.24
936.443	2058.96
936.751	2041.33
937.059	2044.72
937.367	1999.98
937.674	2006.08
937.982	1971.28
938.29	1975.57
938.597	2003.59
938.905	1964.95
939.213	1983.7
939.52	1958.85
939.827	1952.29
940.135	1936.25
940.442	1932.18
940.749	1950.03
941.056	1926.98
941.363	1901.9
941.67	1888.34
941.977	1850.15
942.284	1857.38
942.591	1869.13
942.898	1832.75
943.205	1855.57
943.511	1857.15
943.818	1809.7
944.125	1837.04
944.431	1826.42
944.738	1813.09
945.044	1805.18
945.35	1818.51
945.657	1792.52
945.963	1820.09
946.269	1789.81
946.575	1778.51
946.881	1763.6
947.187	1779.42
947.493	1759.08
947.799	1756.59
948.105	1739.19
948.41	1752.52
948.716	1744.62
949.022	1728.57
949.327	1753.88
949.633	1729.93
949.938	1733.32
950.244	1738.06
950.549	1742.36
950.854	1705.75
951.16	1683.6
951.465	1678.4
951.77	1677.95
952.075	1671.17
952.38	1670.27
952.685	1675.01
952.99	1639.53
953.294	1638.86
953.599	1648.35
953.904	1642.92
954.209	1625.75
954.513	1649.48
954.818	1629.36
955.122	1619.65
955.426	1606.09
955.731	1601.12
956.035	1603.15
956.339	1593.88
956.643	1595.69
956.948	1602.7
957.252	1557.73
957.556	1571.96
957.86	1583.04
958.163	1571.74
958.467	1562.25
958.771	1551.4
959.075	1538.07
959.378	1545.98
959.682	1554.79
959.985	1540.55
960.289	1542.13
960.592	1528.8
960.896	1524.96
961.199	1528.35
961.502	1495.13
961.805	1516.15
962.108	1508.24
962.411	1506.66
962.714	1470.95
963.017	1463.94
963.32	1514.56
963.623	1498.29
963.926	1486.99
964.228	1457.39
964.531	1478.63
964.833	1454.45
965.136	1450.61
965.438	1447.67
965.741	1435.7
966.043	1424.62
966.345	1447.45
966.648	1449.26
966.95	1412.65
967.252	1396.38
967.554	1397.73
967.856	1442.93
968.158	1419.88
968.46	1411.29
968.761	1389.14
969.063	1395.47
969.365	1403.38
969.666	1358.64
969.968	1378.75
970.269	1410.84
970.571	1385.3
970.872	1395.02
971.174	1367
971.475	1375.81
971.776	1338.75
972.077	1346.21
972.378	1341.69
972.679	1355.25
972.98	1357.96
973.281	1346.89
973.582	1328.58
973.883	1321.12
974.183	1336.49
974.484	1317.96
974.785	1331.52
975.085	1288.13
975.386	1300.33
975.686	1287.68
975.986	1322.25
976.287	1290.16
976.587	1289.03
976.887	1257.62
977.187	1288.13
977.487	1285.87
977.787	1274.57
978.087	1256.04
978.387	1264.4
978.687	1273.22
978.987	1249.94
979.286	1254.01
979.586	1226.21
979.885	1212.43
980.185	1214.91
980.484	1235.48
980.784	1228.92
981.083	1208.36
981.382	1193.67
981.682	1207.23
981.981	1223.95
982.28	1209.49
982.579	1214.69
982.878	1193.44
983.177	1194.12
983.475	1195.48
983.774	1158.19
984.073	1180.11
984.372	1173.1
984.67	1171.97
984.969	1160
985.267	1170.62
985.566	1163.61
985.864	1143.5
986.162	1142.15
986.461	1135.37
986.759	1148.25
987.057	1171.3
987.355	1124.29
987.653	1127.46
987.951	1121.58
988.249	1129.49
988.547	1100.79
988.844	1105.99
989.142	1094.46
989.44	1084.97
989.737	1138.98
990.035	1106.67
990.332	1082.03
990.63	1068.02
990.927	1070.51
991.224	1080.9
991.521	1090.4
991.819	1051.98
992.116	1071.86
992.413	1050.17
992.71	1064.86
993.006	1062.83
993.303	1088.59
993.6	1040.68
993.897	1055.14
994.193	1033.67
994.49	1020.57
994.787	1026.67
995.083	1021.47
995.379	1020.34
995.676	1006.33
995.972	1003.84
996.268	1008.36
996.565	1007.91
996.861	996.84
997.157	993.45
997.453	1002.04
997.749	979.66
998.044	973.79
998.34	989.83
998.636	974.01
998.932	959.55
999.227	976.5
999.523	939.21
999.818	979.44
1000.114	947.57
1000.409	955.48
1000.704	941.25
1001	920.46
1001.295	926.11
1001.59	904.41
1001.885	920.91
1002.18	924.75
1002.475	895.37
1002.77	919.55
1003.065	911.87
1003.359	891.08
1003.654	896.73
1003.949	900.8
1004.243	899.44
1004.538	902.38
1004.832	893.11
1005.127	895.6
1005.421	878.42
1005.715	869.38
1006.009	869.16
1006.304	848.82
1006.598	861.02
1006.892	843.4
1007.186	841.81
1007.48	858.76
1007.773	841.14
1008.067	821.93
1008.361	823.06
1008.655	837.52
1008.948	815.83
1009.242	826.22
1009.535	817.41
1009.829	816.5
1010.122	803.4
1010.415	806.11
1010.708	800.23
1011.001	797.97
1011.295	772.89
1011.588	782.61
1011.881	801.36
1012.173	788.93
1012.466	772.66
1012.759	783.51
1013.052	766.34
1013.344	771.08
1013.637	790.29
1013.93	756.62
1014.222	766.56
1014.514	771.99
1014.807	768.82
1015.099	749.84
1015.391	756.39
1015.683	743.51
1015.976	760.91
1016.268	726.11
1016.56	733.79
1016.851	731.31
1017.143	730.86
1017.435	722.72
1017.727	727.47
1018.018	742.16
1018.31	707.58
1018.602	715.72
1018.893	703.29
1019.185	708.03
1019.476	702.38
1019.767	680.46
1020.058	720.01
1020.35	682.72
1020.641	680.69
1020.932	669.62
1021.223	681.59
1021.514	662.16
1021.804	677.75
1022.095	684.3
1022.386	681.82
1022.677	666.68
1022.967	671.87
1023.258	674.13
1023.548	681.37
1023.839	660.12
1024.129	672.33
1024.419	663.06
1024.709	651.08
1025	655.38
1025.29	636.4
1025.58	662.16
1025.87	661.03
1026.16	639.79
1026.449	651.54
1026.739	636.17
1027.029	634.81
1027.319	634.36
1027.608	622.16
1027.898	608.37
1028.187	620.58
1028.477	606.11
1028.766	617.64
1029.055	591.43
1029.344	598.66
1029.634	598.43
1029.923	613.57
1030.212	583.97
1030.501	606.57
1030.79	590.07
1031.078	597.53
1031.367	601.37
1031.656	584.87
1031.945	567.02
1032.233	610.41
1032.522	570.63
1032.81	580.58
1033.099	588.49
1033.387	585.32
1033.675	550.07
1033.963	579
1034.251	558.43
1034.54	541.71
1034.828	561.6
1035.116	538.09
1035.403	554.36
1035.691	543.06
1035.979	546.23
1036.267	558.21
1036.554	560.24
1036.842	526.12
1037.129	559.11
1037.417	542.84
1037.704	513.24
1037.992	537.19
1038.279	531.77
1038.566	538.32
1038.853	538.32
1039.14	538.32
