Data from foam_black_FLMS001491_00089.txt Node
Date: Wed Feb 08 10:44:51 GMT 2017
User: dcchb
Spectrometer: FLMS00149
Trigger mode: 0
Integration Time (sec): 2.000000E-2
Scans to average: 10
Electric dark correction enabled: true
Nonlinearity correction enabled: false
Boxcar width: 0
XAxis mode: Wavelengths
Number of Pixels in Spectrum: 2048
>>>>>Begin Spectral Data<<<<<
341.393	-9.11
341.776	-9.11
342.16	-9.11
342.543	-71.03
342.927	-65.38
343.31	-74.19
343.693	-61.31
344.077	-66.06
344.46	-58.6
344.843	-57.24
345.226	-34.19
345.61	-49.11
345.993	-21.09
346.376	-0.97
346.759	7.84
347.142	35.18
347.525	51.91
347.908	67.72
348.291	70.66
348.674	77.44
349.057	112.02
349.44	91
349.823	122.64
350.206	175.29
350.588	167.61
350.971	216.87
351.354	220.04
351.737	227.72
352.119	260.94
352.502	251.9
352.884	248.74
353.267	260.71
353.65	294.84
354.032	291.45
354.414	319.02
354.797	311.11
355.179	315.4
355.562	298
355.944	328.51
356.326	321.5
356.709	327.38
357.091	312.92
357.473	352.46
357.855	334.38
358.238	330.32
358.62	319.02
359.002	323.31
359.384	335.06
359.766	328.96
360.148	318.11
360.53	310.2
360.912	341.84
361.294	320.6
361.676	321.95
362.057	324.44
362.439	323.31
362.821	343.42
363.203	329.86
363.584	342.07
363.966	318.34
364.348	330.99
364.729	316.08
365.111	341.16
365.493	327.38
365.874	311.56
366.256	321.5
366.637	312.01
367.019	309.07
367.4	321.95
367.781	327.83
368.163	316.31
368.544	297.55
368.925	329.86
369.306	315.18
369.688	295.74
370.069	315.4
370.45	313.37
370.831	308.17
371.212	316.08
371.593	310.88
371.974	324.67
372.355	346.81
372.736	315.18
373.117	332.35
373.498	296.64
373.879	313.14
374.26	312.69
374.641	307.49
375.021	337.1
375.402	330.09
375.783	345.23
376.163	336.64
376.544	305.91
376.925	319.47
377.305	330.09
377.686	337.32
378.066	330.32
378.447	362.41
378.827	363.76
379.208	335.06
379.588	332.8
379.968	344.55
380.349	344.55
380.729	347.49
381.109	349.07
381.489	328.06
381.87	329.86
382.25	350.43
382.63	368.96
383.01	366.47
383.39	362.86
383.77	361.28
384.15	347.26
384.53	359.24
384.91	375.74
385.29	373.7
385.67	349.07
386.049	394.27
386.429	355.63
386.809	398.34
387.189	390.2
387.568	361.73
387.948	377.09
388.328	384.78
388.707	381.84
389.087	392.91
389.466	404.44
389.846	378
390.225	379.58
390.605	383.2
390.984	403.31
391.363	396.3
391.743	387.04
392.122	417.09
392.501	419.13
392.881	412.12
393.26	429.3
393.639	399.69
394.018	402.4
394.397	418.9
394.776	419.35
395.155	427.94
395.534	426.13
395.913	409.18
396.292	434.72
396.671	442.4
397.05	454.38
397.429	435.17
397.808	456.19
398.186	445.79
398.565	460.71
398.944	449.18
399.323	456.87
399.701	442.4
400.08	460.71
400.458	467.04
400.837	437.21
401.215	460.26
401.594	474.04
401.972	456.41
402.351	462.97
402.729	463.19
403.107	477.43
403.486	462.52
403.864	493.02
404.242	466.13
404.62	502.97
404.999	484.44
405.377	489.86
405.755	506.58
406.133	515.85
406.511	503.42
406.889	513.59
407.267	519.01
407.645	516.3
408.023	523.98
408.401	521.27
408.779	529.41
409.156	528.96
409.534	516.98
409.912	542.06
410.29	557.43
410.667	530.08
411.045	528.28
411.422	565.56
411.8	548.16
412.178	565.34
412.555	575.28
412.933	581.38
413.31	573.02
413.687	596.75
414.065	582.96
414.442	613.47
414.819	594.26
415.197	599.01
415.574	593.81
415.951	611.66
416.328	616.86
416.705	614.15
417.082	603.3
417.46	622.29
417.837	605.79
418.214	631.33
418.591	625
418.967	620.03
419.344	626.58
419.721	653.02
420.098	634.94
420.475	664.32
420.852	651.89
421.228	665
421.605	663.41
421.982	680.82
422.358	666.8
422.735	693.92
423.111	695.73
423.488	693.47
423.864	707.93
424.241	679.91
424.617	713.81
424.994	716.29
425.37	709.74
425.746	733.02
426.123	731.89
426.499	751.55
426.875	731.66
427.251	740.93
427.627	774.82
428.003	774.6
428.379	767.37
428.756	782.06
429.132	764.88
429.507	792
429.883	796.29
430.259	824.77
430.635	826.57
431.011	806.91
431.387	820.7
431.763	838.78
432.138	848.72
432.514	889.85
432.89	863.64
433.265	844.43
433.641	888.95
434.016	877.87
434.392	887.36
434.767	937.08
435.143	942.73
435.518	916.97
435.894	938.89
436.269	922.39
436.644	957.87
437.02	949.51
437.395	956.97
437.77	967.81
438.145	1004.42
438.52	977.76
438.895	966.01
439.271	1001.71
439.646	998.32
440.021	1019.11
440.395	1016.63
440.77	1022.73
441.145	1036.74
441.52	1011.65
441.895	1047.13
442.27	1058.66
442.645	1040.35
443.019	1086.23
443.394	1067.25
443.769	1072.67
444.143	1080.58
444.518	1097.75
444.892	1093.46
445.267	1107.92
445.641	1108.83
446.016	1110.41
446.39	1107.02
446.764	1129.84
447.139	1112.67
447.513	1135.27
447.887	1156.28
448.262	1174.81
448.636	1166
449.01	1178.2
449.384	1170.07
449.758	1185.43
450.132	1196.73
450.506	1196.51
450.88	1197.41
451.254	1186.11
451.628	1223.85
452.002	1240.35
452.376	1267.92
452.75	1265.66
453.123	1250.97
453.497	1256.17
453.871	1292.32
454.244	1293.68
454.618	1333.68
454.992	1329.39
455.365	1323.28
455.739	1355.6
456.112	1373.68
456.486	1389.5
456.859	1391.53
457.232	1396.28
457.606	1424.75
457.979	1424.98
458.352	1444.86
458.725	1463.62
459.099	1476.27
459.472	1479.44
459.845	1545.88
460.218	1536.16
460.591	1564.63
460.964	1558.08
461.337	1584.75
461.71	1593.56
462.083	1612.99
462.456	1615.93
462.829	1612.32
463.201	1634.24
463.574	1655.71
463.947	1672.88
464.32	1698.87
464.692	1712.65
465.065	1746.55
465.438	1757.17
465.81	1771.63
466.183	1777.06
466.555	1809.83
466.928	1829.49
467.3	1803.95
467.672	1866.77
468.045	1892.76
468.417	1887.56
468.789	1903.38
469.161	1939.31
469.534	1988.8
469.906	2022.93
470.278	2027.67
470.65	2053.21
471.022	2081
471.394	2106.99
471.766	2105.64
472.138	2140.89
472.51	2177.5
472.882	2175.24
473.253	2252.98
473.625	2257.05
473.997	2274.9
474.369	2311.96
474.74	2351.28
475.112	2391.28
475.484	2410.04
475.855	2447.77
476.227	2487.55
476.598	2530.03
476.97	2564.83
477.341	2589.24
477.713	2637.15
478.084	2645.06
478.455	2727.32
478.827	2725.51
479.198	2787.88
479.569	2780.65
479.94	2884.83
480.311	2911.72
480.682	2948.55
481.053	3053.41
481.424	3078.72
481.795	3120.75
482.166	3103.35
482.537	3165.27
482.908	3234.87
483.279	3256.11
483.65	3294.76
484.021	3354.19
484.391	3398.26
484.762	3414.3
485.133	3453.85
485.503	3457.47
485.874	3586.73
486.244	3643
486.615	3644.35
486.985	3665.14
487.356	3727.74
487.726	3758.93
488.097	3844.12
488.467	3831.24
488.837	3930.9
489.207	3974.06
489.578	4020.84
489.948	4052.7
490.318	4096.32
490.688	4127.5
491.058	4155.07
491.428	4199.14
491.798	4262.19
492.168	4349.19
492.538	4370.21
492.908	4429.87
493.278	4409.98
493.648	4417.89
494.017	4504.44
494.387	4555.06
494.757	4528.85
495.126	4624.67
495.496	4626.47
495.866	4667.15
496.235	4743.31
496.605	4755.06
496.974	4772.46
497.344	4768.39
497.713	4859.69
498.082	4894.94
498.452	4897.2
498.821	4928.61
499.19	5032.34
499.559	5005.67
499.928	5048.38
500.298	5115.05
500.667	5089.74
501.036	5079.57
501.405	5180.58
501.774	5176.06
502.143	5241.83
502.512	5302.39
502.88	5292.67
503.249	5301.48
503.618	5327.25
503.987	5343.52
504.356	5369.05
504.724	5446.34
505.093	5446.11
505.462	5466.23
505.83	5548.94
506.199	5579.9
506.567	5613.79
506.936	5583.29
507.304	5716.39
507.672	5748.03
508.041	5721.81
508.409	5751.19
508.777	5798.2
509.145	5884.52
509.514	5858.76
509.882	5925.65
510.25	5956.38
510.618	6004.52
510.986	6087
511.354	6065.31
511.722	6133.55
512.09	6172.2
512.458	6206.09
512.826	6269.82
513.193	6262.82
513.561	6306.2
513.929	6277.73
514.297	6389.37
514.664	6450.61
515.032	6466.65
515.4	6510.04
515.767	6527.22
516.135	6657.61
516.502	6590.04
516.869	6734.67
517.237	6717.49
517.604	6763.59
517.972	6798.39
518.339	6844.5
518.706	6876.81
519.073	6890.14
519.44	6937.6
519.808	7050.37
520.175	7069.8
520.542	7161.55
520.909	7180.98
521.276	7199.06
521.643	7285.39
522.009	7304.82
522.376	7387.31
522.743	7422.79
523.11	7478.15
523.477	7564.93
523.843	7600.41
524.21	7690.8
524.577	7782.78
524.943	7761.08
525.31	7844.92
525.676	7935.99
526.043	7948.19
526.409	7998.82
526.776	8110.22
527.142	8099.6
527.508	8137.57
527.874	8256.89
528.241	8256.21
528.607	8354.74
528.973	8379.82
529.339	8454.85
529.705	8515.41
530.071	8484.68
530.437	8570.78
530.803	8644.22
531.169	8719.47
531.535	8670.44
531.901	8698.91
532.267	8769.64
532.632	8876.53
532.998	8928.28
533.364	8955.63
533.73	8979.13
534.095	9010.31
534.461	9081.5
534.826	9152.91
535.192	9144.1
535.557	9229.52
535.923	9221.61
536.288	9292.11
536.653	9316.07
537.019	9255.28
537.384	9344.09
537.749	9439
538.114	9430.19
538.479	9484.65
538.845	9578.89
539.21	9511.77
539.575	9579.11
539.94	9627.7
540.305	9681.48
540.67	9676.06
541.034	9719.22
541.399	9833.57
541.764	9793.12
542.129	9814.13
542.494	9836.73
542.858	9877.41
543.223	9930.97
543.587	10030.17
543.952	9895.71
544.316	10035.15
544.681	10125.99
545.045	10118.31
545.41	10168.7
545.774	10193.11
546.138	10223.39
546.503	10203.5
546.867	10216.38
547.231	10310.39
547.595	10316.95
547.959	10365.31
548.324	10445.53
548.688	10483.5
549.052	10457.73
549.416	10465.42
549.779	10616.15
550.143	10542.03
550.507	10659.54
550.871	10705.41
551.235	10737.5
551.599	10802.81
551.962	10828.35
552.326	10871.73
552.689	10924.39
553.053	10915.12
553.417	10972.52
553.78	11089.58
554.143	11094.55
554.507	11143.59
554.87	11216.13
555.234	11303.81
555.597	11246.64
555.96	11367.54
556.323	11455.9
556.686	11469.23
557.05	11531.15
557.413	11611.38
557.776	11697.02
558.139	11741.32
558.502	11730.92
558.865	11830.35
559.228	11902.22
559.59	11957.13
559.953	12056.56
560.316	12047.52
560.679	12161.87
561.041	12236.9
561.404	12288.42
561.767	12349.66
562.129	12306.05
562.492	12467.17
562.854	12498.13
563.217	12499.04
563.579	12563.21
563.941	12688.86
564.304	12789.88
564.666	12816.54
565.028	12902.19
565.39	12874.17
565.753	13047.27
566.115	13067.16
566.477	13094.05
566.839	13183.76
567.201	13238.45
567.563	13271.67
567.925	13276.19
568.287	13345.79
568.648	13460.82
569.01	13480.25
569.372	13572.91
569.734	13506.69
570.095	13624.88
570.457	13775.61
570.819	13788.72
571.18	13790.75
571.542	13879.56
571.903	13923.63
572.265	14024.19
572.626	14010.18
572.987	14060.58
573.349	14084.76
573.71	14166.11
574.071	14166.34
574.432	14236.17
574.794	14263.51
575.155	14381.47
575.516	14245.88
575.877	14368.14
576.238	14439.55
576.599	14525.42
576.96	14517.74
577.32	14475.25
577.681	14607.23
578.042	14565.42
578.403	14693.55
578.763	14714.57
579.124	14771.07
579.485	14734.91
579.845	14780.78
580.206	14713.44
580.566	14711.86
580.927	14873.21
581.287	14852.87
581.648	14930.61
582.008	14919.76
582.368	14869.14
582.728	14996.37
583.089	14868.24
583.449	14933.1
583.809	14976.03
584.169	14934
584.529	14929.03
584.889	14985.3
585.249	14912.53
585.609	14958.63
585.969	15009.48
586.329	15017.84
586.688	15120.66
587.048	15058.97
587.408	15075.01
587.768	14974.68
588.127	15061
588.487	15052.19
588.846	15167.21
589.206	15047.44
589.565	15035.92
589.925	15095.58
590.284	15056.71
590.643	15197.04
591.003	15148.01
591.362	15200.21
591.721	15138.51
592.08	15154.56
592.44	15192.75
592.799	15239.08
593.158	15179.87
593.517	15236.82
593.876	15166.76
594.235	15292.63
594.593	15259.87
594.952	15225.07
595.311	15258.06
595.67	15233.43
596.029	15353.42
596.387	15352.07
596.746	15423.7
597.104	15268.68
597.463	15296.25
597.822	15358.85
598.18	15403.59
598.538	15301
598.897	15432.29
599.255	15210.15
599.613	15429.81
599.972	15415.8
600.33	15505.28
600.688	15491.73
601.046	15406.98
601.404	15537.37
601.762	15526.75
602.12	15616.02
602.478	15470.26
602.836	15581.89
603.194	15466.42
603.552	15502.57
603.91	15406.98
604.268	15662.34
604.625	15519.97
604.983	15693.3
605.341	15572.63
605.698	15649.01
606.056	15760.64
606.413	15617.82
606.771	15620.54
607.128	15748.22
607.485	15711.15
607.843	15620.99
608.2	15754.54
608.557	15868.89
608.914	15715.9
609.272	15759.06
609.629	15929.68
609.986	15987.53
610.343	15830.7
610.7	15991.83
611.057	15953.41
611.414	15899.4
611.771	15933.97
612.127	16015.1
612.484	16000.19
612.841	15947.31
613.198	15898.49
613.554	15988.89
613.911	16102.1
614.267	15987.31
614.624	15990.02
614.98	16015.55
615.337	16096.91
615.693	16117.02
616.05	16077.7
616.406	16199.73
616.762	16232.27
617.118	16161.31
617.475	16262.78
617.831	16197.47
618.187	16237.47
618.543	16286.73
618.899	16266.39
619.255	16203.8
619.611	16184.81
619.967	16260.52
620.323	16280.63
620.678	16167.41
621.034	16196.11
621.39	16242.21
621.746	16185.04
622.101	16382.55
622.457	16219.39
622.812	16332.38
623.168	16286.73
623.523	16338.03
623.879	16331.03
624.234	16201.31
624.589	16239.05
624.945	16286.51
625.3	16293.51
625.655	16305.04
626.01	16306.17
626.365	16316.79
626.72	16309.78
627.075	16314.75
627.43	16289.9
627.785	16295.55
628.14	16302.33
628.495	16302.1
628.85	16284.02
629.205	16290.12
629.559	16281.99
629.914	16244.7
630.269	16237.02
630.623	16190.24
630.978	16198.83
631.332	16208.54
631.687	16295.09
632.041	16126.96
632.396	16167.64
632.75	16121.77
633.104	16208.32
633.459	16118.83
633.813	16024.14
634.167	16061.65
634.521	16081.99
634.875	16120.18
635.229	16057.13
635.583	15992.5
635.937	15950.47
636.291	16031.15
636.645	16048.09
636.999	15954.31
637.352	16023.24
637.706	15893.3
638.06	15933.3
638.413	15872.05
638.767	15911.15
639.121	15900.98
639.474	15930.36
639.828	15825.5
640.181	15815.33
640.534	15948.66
640.888	15805.16
641.241	15739.18
641.594	15724.26
641.947	15707.76
642.301	15697.37
642.654	15738.05
643.007	15619.86
643.36	15631.16
643.713	15691.04
644.066	15799.06
644.419	15502.35
644.771	15425.74
645.124	15254.44
645.477	15276.14
645.83	15123.83
646.182	15223.26
646.535	15203.82
646.888	15191.17
647.24	15048.12
647.593	15216.48
647.945	15211.05
648.298	15047.9
648.65	15041.34
649.002	15033.43
649.355	14960.67
649.707	14866.66
650.059	14983.72
650.411	15135.58
650.763	15098.52
651.115	15328.57
651.467	15264.61
651.819	15194.78
652.171	15198.63
652.523	15172.86
652.875	15105.52
653.227	15056.48
653.578	15213.54
653.93	15100.1
654.282	15158.4
654.633	15090.61
654.985	15101.23
655.337	15134.9
655.688	15097.39
656.039	15096.71
656.391	14996.37
656.742	15137.61
657.094	15069.36
657.445	15145.52
657.796	15055.8
658.147	15104.17
658.498	14989.37
658.849	15047.67
659.2	15085.41
659.551	15029.14
659.902	15053.77
660.253	14947.33
660.604	14962.47
660.955	14942.14
661.306	14986.65
661.656	14923.83
662.007	14953.43
662.358	15002.02
662.708	14879.31
663.059	14949.59
663.409	14820.78
663.76	14865.53
664.11	14854
664.461	14847.45
664.811	14849.48
665.161	14925.64
665.511	14879.54
665.862	14954.56
666.212	14904.62
666.562	14909.82
666.912	14887.9
667.262	14824.4
667.612	14888.35
667.962	14844.06
668.312	14867.56
668.662	14887.22
669.011	14797.28
669.361	14745.08
669.711	14815.36
670.06	14743.5
670.41	14808.35
670.76	14730.16
671.109	14814
671.459	14808.81
671.808	14727.45
672.157	14834.34
672.507	14691.29
672.856	14691.75
673.205	14753.89
673.554	14739.65
673.904	14764.96
674.253	14865.53
674.602	14621.24
674.951	14518.19
675.3	14388.93
675.649	14661.69
675.998	14635.25
676.346	14592.31
676.695	14699.88
677.044	14555.03
677.393	14581.69
677.741	14665.31
678.09	14523.84
678.438	14548.02
678.787	14598.42
679.135	14534.24
679.484	14450.17
679.832	14510.28
680.181	14385.99
680.529	14419.44
680.877	14386.44
681.225	14362.04
681.573	14433
681.922	14296.95
682.27	14245.88
682.618	14294.69
682.966	14247.46
683.314	14422.38
683.661	14260.35
684.009	14079.56
684.357	14128.15
684.705	14151.65
685.053	14104.19
685.4	14064.42
685.748	14070.97
686.095	13998.88
686.443	14043.85
686.79	13976.96
687.138	13932.44
687.485	13973.8
687.832	13933.57
688.18	14054.7
688.527	13861.26
688.874	13783.07
689.221	13810.64
689.568	13732
689.915	13670.53
690.262	13761.83
690.609	13781.04
690.956	13681.15
691.303	13629.85
691.65	13502.17
691.997	13505.11
692.344	13442.51
692.69	13452.01
693.037	13513.7
693.383	13286.59
693.73	13369.52
694.077	13279.35
694.423	13289.98
694.769	13191.9
695.116	13194.16
695.462	13111
695.808	13105.35
696.155	13118.23
696.501	13026.03
696.847	12955.07
697.193	12956.88
697.539	12994.84
697.885	12802.76
698.231	12787.62
698.577	12775.41
698.923	12777.45
699.269	12722.76
699.614	12591.01
699.96	12640.73
700.306	12593.04
700.651	12686.6
700.997	12488.64
701.342	12483.89
701.688	12464.91
702.033	12465.36
702.379	12401.86
702.724	12420.17
703.069	12389.21
703.415	12289.55
703.76	12180.85
704.105	12255.43
704.45	12229.44
704.795	12143.34
705.14	12091.36
705.485	12128.42
705.83	12040.52
706.175	12086.17
706.52	12038.48
706.865	12028.31
707.209	11887.98
707.554	11919.84
707.899	11947.64
708.243	11855.21
708.588	11846.62
708.932	11686.18
709.277	11698.38
709.621	11686.63
709.966	11656.8
710.31	11708.55
710.654	11580.87
710.998	11571.38
711.342	11565.95
711.687	11551.72
712.031	11479.85
712.375	11419.74
712.719	11494.77
713.063	11414.54
713.407	11447.54
713.75	11424.49
714.094	11360.99
714.438	11309.01
714.782	11322.34
715.125	11228.79
715.469	11267.2
715.812	11247.77
716.156	11104.72
716.499	11134.33
716.843	11079.41
717.186	11072.63
717.53	11134.55
717.873	11140.2
718.216	11099.75
718.559	11049.58
718.902	10939.08
719.246	10986.53
719.589	10981.11
719.932	10914.67
720.275	10886.42
720.617	10932.75
720.96	10902.47
721.303	10947.21
721.646	10900.66
721.989	10791.74
722.331	10838.06
722.674	10756.48
723.016	10764.62
723.359	10796.48
723.701	10833.77
724.044	10736.37
724.386	10590.16
724.729	10625.19
725.071	10611.4
725.413	10633.1
725.755	10685.75
726.097	10537.05
726.439	10615.7
726.782	10596.94
727.124	10588.8
727.465	10523.49
727.807	10486.21
728.149	10537.96
728.491	10449.37
728.833	10493.89
729.175	10424.97
729.516	10406.44
729.858	10441.91
730.199	10355.36
730.541	10405.98
730.882	10463.38
731.224	10375.7
731.565	10345.65
731.906	10267
732.248	10296.38
732.589	10229.94
732.93	10233.78
733.271	10216.16
733.612	10245.76
733.953	10197.85
734.294	10188.81
734.635	10218.64
734.976	10190.85
735.317	10160.11
735.658	10229.04
735.999	10168.25
736.339	10101.36
736.68	10103.17
737.021	9996.95
737.361	10001.93
737.702	10015.49
738.042	9979.33
738.383	9955.6
738.723	9991.53
739.063	10025.2
739.404	9895.94
739.744	9933.45
740.084	9848.71
740.424	9882.83
740.764	9860.69
741.104	9900.69
741.444	9860.24
741.784	9773.46
742.124	9837.86
742.464	9795.6
742.804	9794.25
743.143	9783.63
743.483	9788.6
743.823	9677.42
744.162	9697.98
744.502	9685.1
744.841	9646.68
745.181	9706.34
745.52	9656.17
745.86	9639.22
746.199	9616.4
746.538	9579.56
746.877	9579.79
747.216	9560.13
747.556	9563.75
747.895	9535.5
748.234	9583.41
748.573	9496.18
748.911	9439.68
749.25	9512
749.589	9488.95
749.928	9516.97
750.267	9526.91
750.605	9394.48
750.944	9400.59
751.283	9358.55
751.621	9367.14
751.96	9315.84
752.298	9370.53
752.636	9289.85
752.975	9290.98
753.313	9274.49
753.651	9213.25
753.989	9219.35
754.327	9192.68
754.666	9189.52
755.004	9094.83
755.342	9171.21
755.679	9158.33
756.017	9108.62
756.355	9143.64
756.693	9021.61
757.031	9091.67
757.368	9013.03
757.706	9060.48
758.044	8985.91
758.381	8964.44
758.719	8937.32
759.056	8931.9
759.394	8863.2
759.731	8823.43
760.068	8752.24
760.405	8829.98
760.743	8742.98
761.08	8794.95
761.417	8689.19
761.754	8757.67
762.091	8702.75
762.428	8560.83
762.765	8606.03
763.102	8631.11
763.438	8556.77
763.775	8532.59
764.112	8539.14
764.449	8508.86
764.785	8464.34
765.122	8438.58
765.458	8356.77
765.795	8389.09
766.131	8389.09
766.467	8370.1
766.804	8299.82
767.14	8299.82
767.476	8303.21
767.812	8281.97
768.148	8257.79
768.485	8150.9
768.821	8119.72
769.157	8141.86
769.492	8109.09
769.828	8079.26
770.164	8000.4
770.5	8018.93
770.836	8001.07
771.171	7967.4
771.507	7944.81
771.842	7888.54
772.178	7958.14
772.513	7865.26
772.849	7885.6
773.184	7809.22
773.519	7857.58
773.855	7798.37
774.19	7757.69
774.525	7775.32
774.86	7723.57
775.195	7722.44
775.53	7691.03
775.865	7687.41
776.2	7597.92
776.535	7576
776.87	7524.93
777.205	7493.74
777.539	7446.06
777.874	7530.35
778.209	7477.7
778.543	7428.89
778.878	7418.04
779.212	7382.33
779.547	7282.68
779.881	7357.02
780.215	7256.46
780.55	7335.1
780.884	7245.39
781.218	7219.63
781.552	7208.78
781.886	7220.08
782.22	7186.86
782.554	7079.97
782.888	7052.63
783.222	7075.9
783.556	7016.02
783.889	7009.69
784.223	6961.33
784.557	6959.97
784.89	6932.4
785.224	6897.38
785.557	6831.61
785.891	6870.26
786.224	6834.33
786.558	6798.85
786.891	6740.77
787.224	6764.05
787.557	6719.98
787.891	6703.48
788.224	6659.19
788.557	6741.67
788.89	6720.88
789.223	6680.43
789.556	6636.37
789.888	6560.66
790.221	6570.38
790.554	6477.27
790.887	6516.59
791.219	6460.32
791.552	6479.98
791.884	6454
792.217	6454
792.549	6432.53
792.882	6418.74
793.214	6389.59
793.546	6400.44
793.879	6296.94
794.211	6301.91
794.543	6312.31
794.875	6254
795.207	6294.68
795.539	6253.32
795.871	6219.88
796.203	6204.74
796.535	6181.91
796.867	6260.1
797.198	6148.24
797.53	6145.98
797.862	6094.68
798.193	6128.81
798.525	6062.37
798.856	6068.92
799.188	6000.9
799.519	6005.65
799.85	6032.31
800.182	5995.7
800.513	6002.26
800.844	5943.28
801.175	6001.81
801.506	5960
801.837	5899.89
802.168	5819.44
802.499	5870.96
802.83	5847.69
803.161	5800.23
803.491	5844.3
803.822	5802.71
804.153	5764.75
804.483	5771.53
804.814	5695.37
805.145	5777.86
805.475	5755.26
805.805	5700.12
806.136	5692.89
806.466	5656.73
806.796	5704.86
807.126	5654.02
807.457	5643.4
807.787	5652.89
808.117	5644.98
808.447	5585.09
808.777	5640.23
809.107	5580.35
809.436	5543.96
809.766	5575.38
810.096	5522.72
810.426	5503.29
810.755	5516.17
811.085	5537.64
811.414	5530.41
811.744	5477.75
812.073	5459.45
812.403	5442.5
812.732	5467.81
813.061	5465.32
813.39	5418.54
813.719	5443.4
814.049	5418.77
814.378	5401.37
814.707	5404.31
815.036	5425.78
815.365	5384.19
815.693	5301.48
816.022	5304.65
816.351	5285.21
816.68	5282.5
817.008	5276.85
817.337	5208.61
817.665	5235.95
817.994	5190.3
818.322	5233.24
818.651	5178.1
818.979	5160.02
819.307	5204.31
819.636	5190.98
819.964	5108.04
820.292	5142.39
820.62	5146.01
820.948	5137.42
821.276	5127.03
821.604	5156.4
821.932	5207.7
822.259	5119.57
822.587	5115.28
822.915	5098.33
823.243	5148.72
823.57	5123.41
823.898	5142.39
824.225	5086.12
824.553	5116.41
824.88	5090.42
825.207	5111.89
825.535	5071.21
825.862	5112.56
826.189	5078.67
826.516	5146.01
826.843	5102.39
827.17	5087.25
827.497	5116.63
827.824	5158.89
828.151	5060.14
828.478	5113.02
828.805	5166.8
829.131	5106.01
829.458	5130.42
829.785	5017.65
830.111	5080.02
830.438	5090.64
830.764	5099
831.09	5181.94
831.417	5096.52
831.743	5084.32
832.069	5148.72
832.395	5067.82
832.722	5074.15
833.048	5074.15
833.374	5058.1
833.7	5022.85
834.026	5104.65
834.351	5044.77
834.677	5047.03
835.003	5099.46
835.329	5086.35
835.654	5039.8
835.98	4989.4
836.306	5038.67
836.631	5017.42
836.956	5057.42
837.282	5032.79
837.607	4968.84
837.932	4930.42
838.258	4932.91
838.583	4960.7
838.908	4944.66
839.233	4929.74
839.558	5007.93
839.883	4980.36
840.208	4889.74
840.533	4947.37
840.858	4902.17
841.182	4946.92
841.507	4922.06
841.832	4910.76
842.156	4917.99
842.481	4887.03
842.805	4892.46
843.13	4880.93
843.454	4877.77
843.778	4843.42
844.103	4785.11
844.427	4807.94
844.751	4819.92
845.075	4825.11
845.399	4816.53
845.723	4812.91
846.047	4765.68
846.371	4732.91
846.695	4731.33
847.019	4696.3
847.343	4672.12
847.666	4641.16
847.99	4652.46
848.313	4627.83
848.637	4603.65
848.96	4638
849.284	4581.05
849.607	4565.01
849.931	4525.23
850.254	4565.69
850.577	4476.87
850.9	4493.6
851.223	4503.77
851.546	4477.33
851.869	4416.99
852.192	4494.95
852.515	4415.18
852.838	4428.51
853.161	4351.68
853.483	4415.18
853.806	4377.44
854.129	4322.3
854.451	4298.8
854.774	4349.87
855.096	4266.03
855.419	4337.44
855.741	4299.93
856.063	4310.78
856.385	4261.29
856.708	4240.04
857.03	4241.85
857.352	4246.6
857.674	4244.34
857.996	4169.76
858.318	4144.91
858.64	4173.38
858.961	4160.5
859.283	4152.81
859.605	4154.17
859.926	4157.33
860.248	4106.49
860.57	4085.7
860.891	4106.04
861.212	4097.9
861.534	4100.39
861.855	4101.52
862.176	4099.48
862.498	4083.21
862.819	4083.66
863.14	4048.18
863.461	4046.15
863.782	4068.75
864.103	4050.22
864.424	4019.03
864.745	4011.35
865.065	3976.55
865.386	3964.57
865.707	3995.3
866.027	3981.07
866.348	4016.32
866.668	3979.26
866.989	3943.78
867.309	3981.07
867.63	3979.71
867.95	3968.41
868.27	3940.16
868.59	3962.09
868.91	3978.58
869.23	3925.02
869.55	3903.56
869.87	3907.4
870.19	3915.53
870.51	3905.82
870.83	3916.66
871.15	3872.6
871.469	3929.32
871.789	3874.18
872.109	3908.08
872.428	3892.93
872.748	3890.67
873.067	3849.77
873.386	3902.43
873.706	3846.83
874.025	3847.74
874.344	3847.51
874.663	3826.72
874.982	3844.57
875.301	3791.69
875.62	3819.04
875.939	3769.1
876.258	3819.72
876.577	3784.01
876.896	3767.29
877.214	3787.4
877.533	3785.14
877.852	3766.38
878.17	3792.82
878.489	3753.95
878.807	3772.94
879.125	3770
879.444	3793.05
879.762	3732.94
880.08	3717.8
880.398	3719.61
880.716	3730.9
881.034	3720.74
881.352	3717.12
881.67	3707.63
881.988	3742.66
882.306	3714.41
882.624	3663.11
882.941	3660.4
883.259	3647.74
883.577	3621.3
883.894	3584.02
884.212	3664.69
884.529	3647.97
884.846	3631.02
885.164	3593.96
885.481	3606.16
885.798	3630.34
886.115	3600.51
886.432	3600.96
886.75	3579.72
887.067	3587.41
887.383	3542.21
887.7	3606.39
888.017	3553.51
888.334	3567.52
888.651	3548.08
888.967	3546.28
889.284	3525.71
889.6	3496.11
889.917	3472.83
890.233	3476.22
890.55	3482.1
890.866	3508.99
891.182	3494.3
891.498	3461.08
891.815	3462.89
892.131	3466.28
892.447	3411.14
892.763	3442.32
893.079	3428.31
893.395	3398.03
893.71	3402.78
894.026	3379.73
894.342	3393.29
894.657	3364.81
894.973	3350.8
895.289	3365.72
895.604	3332.72
895.92	3291.59
896.235	3337.02
896.55	3306.96
896.865	3276.91
897.181	3306.74
897.496	3301.99
897.811	3231.93
898.126	3255.89
898.441	3251.6
898.756	3242.78
899.071	3224.25
899.386	3253.4
899.7	3219.05
900.015	3186.29
900.33	3160.07
900.644	3197.36
900.959	3166.17
901.273	3145.84
901.588	3127.53
901.902	3100.86
902.216	3125.72
902.531	3109.45
902.845	3136.12
903.159	3092.5
903.473	3094.54
903.787	3078.94
904.101	3005.5
904.415	3040.3
904.729	3068.1
905.042	3023.35
905.356	3007.99
905.67	3005.05
905.984	2997.82
906.297	2976.12
906.611	2952.85
906.924	2947.65
907.237	2948.78
907.551	2927.31
907.864	2912.62
908.177	2929.8
908.491	2951.94
908.804	2929.8
909.117	2889.12
909.43	2878.5
909.743	2856.8
910.056	2879.18
910.368	2844.15
910.681	2856.58
910.994	2809.57
911.307	2815.67
911.619	2785.39
911.932	2812.28
912.244	2785.17
912.557	2785.17
912.869	2753.53
913.181	2755.34
913.494	2789.69
913.806	2782.23
914.118	2750.82
914.43	2758.95
914.742	2762.57
915.054	2701.78
915.366	2711.04
915.678	2673.31
915.99	2676.47
916.302	2683.02
916.613	2647.77
916.925	2659.75
917.236	2651.61
917.548	2635.57
917.859	2616.36
918.171	2628.56
918.482	2592.63
918.794	2558.05
919.105	2607.54
919.416	2597.6
919.727	2552.18
920.038	2555.34
920.349	2553.99
920.66	2521.67
920.971	2559.41
921.282	2511.5
921.593	2504.5
921.903	2509.02
922.214	2464.05
922.525	2476.02
922.835	2476.7
923.146	2446.87
923.456	2494.1
923.767	2446.87
924.077	2447.1
924.387	2407.55
924.697	2444.16
925.008	2400.32
925.318	2378.62
925.628	2394.89
925.938	2358.06
926.248	2346.08
926.558	2348.79
926.867	2347.21
927.177	2374.33
927.487	2344.95
927.796	2316.25
928.106	2308.57
928.416	2291.85
928.725	2308.8
929.034	2258.85
929.344	2323.48
929.653	2296.14
929.962	2263.37
930.271	2207.33
930.581	2215.01
930.89	2194.9
931.199	2265.86
931.508	2210.04
931.817	2218.85
932.125	2245.75
932.434	2185.63
932.743	2169.59
933.051	2174.79
933.36	2210.04
933.669	2139.99
933.977	2165.97
934.286	2153.32
934.594	2134.79
934.902	2128.91
935.21	2132.53
935.519	2136.6
935.827	2155.35
936.135	2101.12
936.443	2063.15
936.751	2103.83
937.059	2054.11
937.367	2099.54
937.674	2079.65
937.982	2048.92
938.29	2044.62
938.597	2016.15
938.905	2025.41
939.213	2031.51
939.52	2025.19
939.827	1991.29
940.135	1989.93
940.442	1967.56
940.749	1973.44
941.056	1949.48
941.363	1961.23
941.67	1976.83
941.977	1952.87
942.284	1944.74
942.591	1954.45
942.898	1937.28
943.205	1936.83
943.511	1918.97
943.818	1913.55
944.125	1883.95
944.431	1916.04
944.738	1854.12
945.044	1873.55
945.35	1886.66
945.657	1868.81
945.963	1876.04
946.269	1871.52
946.575	1874.46
946.881	1819.54
947.187	1822.48
947.493	1840.56
947.799	1804.4
948.105	1771.18
948.41	1787.23
948.716	1790.84
949.022	1776.38
949.327	1803.5
949.633	1775.93
949.938	1798.53
950.244	1749.26
950.549	1785.87
950.854	1777.06
951.16	1784.97
951.465	1772.76
951.77	1734.12
952.075	1735.93
952.38	1701.81
952.685	1732.54
952.99	1707.23
953.294	1684.63
953.599	1693.9
953.904	1667.46
954.209	1682.6
954.513	1655.71
954.818	1679.21
955.122	1657.29
955.426	1654.12
955.731	1622.71
956.035	1644.18
956.339	1617.97
956.643	1641.47
956.948	1637.85
957.252	1624.75
957.556	1617.74
957.86	1622.94
958.163	1605.31
958.467	1617.06
958.771	1610.96
959.075	1577.29
959.378	1564.86
959.682	1599.66
959.985	1566.89
960.289	1570.28
960.592	1563.73
960.896	1576.16
961.199	1560.34
961.502	1532.09
961.805	1506.78
962.108	1501.13
962.411	1535.71
962.714	1511.3
963.017	1527.12
963.32	1571.64
963.623	1502.26
963.926	1499.55
964.228	1489.38
964.531	1489.16
964.833	1462.49
965.136	1460
965.438	1469.5
965.741	1461.59
966.043	1469.95
966.345	1452.55
966.648	1458.42
966.95	1460.23
967.252	1431.98
967.554	1436.5
967.856	1429.5
968.158	1434.02
968.46	1411.19
968.761	1396.95
969.063	1423.17
969.365	1400.57
969.666	1411.64
969.968	1378.2
970.269	1377.52
970.571	1374.36
970.872	1422.26
971.174	1390.18
971.475	1346.79
971.776	1369.38
972.077	1387.24
972.378	1332.32
972.679	1347.69
972.98	1341.59
973.281	1311.99
973.582	1326.67
973.883	1327.13
974.183	1308.14
974.484	1293
974.785	1283.29
975.085	1311.53
975.386	1321.48
975.686	1324.19
975.986	1287.35
976.287	1302.72
976.587	1270.63
976.887	1277.18
977.187	1279.22
977.487	1265.21
977.787	1265.88
978.087	1265.43
978.387	1246.45
978.687	1233.12
978.987	1237.86
979.286	1243.29
979.586	1250.07
979.885	1228.37
980.185	1229.05
980.484	1205.77
980.784	1223.63
981.083	1196.51
981.382	1213.46
981.682	1228.15
981.981	1187.24
982.28	1213.68
982.579	1193.8
982.878	1173.01
983.177	1195.6
983.475	1177.98
983.774	1184.53
984.073	1144.76
984.372	1170.07
984.67	1167.13
984.969	1170.29
985.267	1157.19
985.566	1138.43
985.864	1158.77
986.162	1153.57
986.461	1140.24
986.759	1120.58
987.057	1114.02
987.355	1121.93
987.653	1109.96
987.951	1104.53
988.249	1089.62
988.547	1116.06
988.844	1116.06
989.142	1090.07
989.44	1084.87
989.737	1091.88
990.035	1078.32
990.332	1068.15
990.63	1072.22
990.927	1080.35
991.224	1071.31
991.521	1086.23
991.819	1066.79
992.116	1068.15
992.413	1041.48
992.71	1035.38
993.006	1035.38
993.303	1031.54
993.6	1031.09
993.897	1009.39
994.193	1016.63
994.49	1020.47
994.787	1033.8
995.083	1011.65
995.379	1016.63
995.676	1018.21
995.972	991.09
996.268	1000.81
996.565	997.87
996.861	999.23
997.157	967.36
997.453	986.34
997.749	980.24
998.044	978.89
998.34	965.33
998.636	955.84
998.932	972.56
999.227	946.12
999.523	945.67
999.818	965.33
1000.114	946.12
1000.409	961.49
1000.704	935.95
1001	940.24
1001.295	917.87
1001.59	930.07
1001.885	930.75
1002.18	896.85
1002.475	914.93
1002.77	930.53
1003.065	912.45
1003.359	913.35
1003.654	891.66
1003.949	872.9
1004.243	913.8
1004.538	893.69
1004.832	853.92
1005.127	898.44
1005.421	864.54
1005.715	904.09
1006.009	882.84
1006.304	877.19
1006.598	876.29
1006.892	865.44
1007.186	865.44
1007.48	868.61
1007.773	823.18
1008.067	879
1008.361	836.97
1008.655	834.48
1008.948	849.4
1009.242	835.84
1009.535	818.66
1009.829	798.33
1010.122	819.79
1010.415	833.13
1010.708	807.14
1011.001	818.21
1011.295	822.51
1011.588	805.33
1011.881	805.56
1012.173	801.26
1012.466	805.11
1012.759	803.07
1013.052	771.21
1013.344	780.7
1013.637	784.09
1013.93	763.3
1014.222	765.78
1014.514	773.69
1014.807	780.93
1015.099	762.85
1015.391	767.59
1015.683	750.87
1015.976	722.17
1016.268	763.3
1016.56	740.47
1016.851	736.18
1017.143	737.31
1017.435	750.87
1017.727	728.72
1018.018	717.2
1018.31	749.74
1018.602	715.39
1018.893	736.86
1019.185	736.41
1019.476	705.67
1019.767	715.39
1020.058	694.15
1020.35	713.36
1020.641	693.24
1020.932	714.94
1021.223	687.37
1021.514	704.77
1021.804	683.98
1022.095	695.28
1022.386	696.86
1022.677	681.72
1022.967	674.71
1023.258	671.1
1023.548	650.99
1023.839	667.03
1024.129	668.61
1024.419	663.19
1024.709	658.22
1025	636.97
1025.29	643.75
1025.58	637.88
1025.87	644.66
1026.16	649.18
1026.449	633.81
1026.739	642.17
1027.029	640.82
1027.319	643.98
1027.608	649.18
1027.898	632.46
1028.187	625.22
1028.477	598.11
1028.766	593.59
1029.055	604.21
1029.344	584.55
1029.634	596.07
1029.923	612.79
1030.212	613.7
1030.501	609.4
1030.79	599.69
1031.078	606.24
1031.367	565.79
1031.656	599.69
1031.945	586.13
1032.233	585.22
1032.522	571.21
1032.81	579.8
1033.099	571.44
1033.387	566.02
1033.675	596.75
1033.963	557.43
1034.251	580.93
1034.54	550.65
1034.828	581.16
1035.116	539.58
1035.403	547.03
1035.691	557.65
1035.979	557.88
1036.267	556.3
1036.554	533.02
1036.842	542.97
1037.129	554.49
1037.417	539.35
1037.704	528.96
1037.992	535.06
1038.279	532.12
1038.566	516.98
1038.853	516.98
1039.14	516.98
