Data from foam2_polystyrene_foam_FLMS001491_00084.txt Node
Date: Wed Feb 08 10:58:37 GMT 2017
User: dcchb
Spectrometer: FLMS00149
Trigger mode: 0
Integration Time (sec): 2.000000E-2
Scans to average: 10
Electric dark correction enabled: true
Nonlinearity correction enabled: false
Boxcar width: 0
XAxis mode: Wavelengths
Number of Pixels in Spectrum: 2048
>>>>>Begin Spectral Data<<<<<
341.393	-16.78
341.776	-16.78
342.16	-16.78
342.543	-60.17
342.927	-72.6
343.31	-50.45
343.693	-73.95
344.077	-69.21
344.46	-64.69
344.843	-61.52
345.226	-52.94
345.61	-27.4
345.993	-26.04
346.376	-19.49
346.759	18.7
347.142	33.61
347.525	57.57
347.908	52.6
348.291	70.22
348.674	96.21
349.057	116.78
349.44	129.21
349.823	153.39
350.206	169.66
350.588	214.18
350.971	228.19
351.354	220.95
351.737	253.95
352.119	247.39
352.502	297.56
352.884	294.4
353.267	296.21
353.65	318.13
354.032	317
354.414	342.76
354.797	338.92
355.179	328.97
355.562	354.74
355.944	351.8
356.326	357.9
356.709	341.63
357.091	363.1
357.473	354.28
357.855	345.92
358.238	379.37
358.62	371.46
359.002	359.71
359.384	363.1
359.766	356.32
360.148	341.18
360.53	365.36
360.912	364.45
361.294	345.47
361.676	351.57
362.057	359.03
362.439	341.63
362.821	360.61
363.203	367.84
363.584	364
363.966	346.38
364.348	360.39
364.729	365.58
365.111	342.08
365.493	357
365.874	344.34
366.256	350.44
366.637	360.16
367.019	348.86
367.4	349.99
367.781	357.45
368.163	334.62
368.544	365.13
368.925	335.75
369.306	335.3
369.688	346.83
370.069	353.61
370.45	351.57
370.831	341.86
371.212	365.58
371.593	346.83
371.974	379.37
372.355	348.18
372.736	354.96
373.117	357.22
373.498	361.74
373.879	369.43
374.26	366.94
374.641	355.41
375.021	363.32
375.402	362.87
375.783	357.9
376.163	408.52
376.544	407.84
376.925	400.16
377.305	399.93
377.686	401.06
378.066	399.26
378.447	419.14
378.827	423.89
379.208	413.49
379.588	421.85
379.968	415.07
380.349	432.47
380.729	419.14
381.109	431.12
381.489	421.18
381.87	432.47
382.25	431.57
382.63	438.12
383.01	432.02
383.39	429.54
383.77	420.72
384.15	433.15
384.53	438.8
384.91	460.72
385.29	425.47
385.67	443.32
386.049	484.9
386.429	451.46
386.809	490.55
387.189	462.08
387.568	489.2
387.948	479.93
388.328	479.25
388.707	490.78
389.087	492.59
389.466	483.77
389.846	497.56
390.225	509.99
390.605	529.65
390.984	525.35
391.363	541.4
391.743	509.99
392.122	521.74
392.501	524.9
392.881	553.83
393.26	547.5
393.639	532.81
394.018	537.33
394.397	561.06
394.776	549.76
395.155	571
395.534	540.27
395.913	575.52
396.292	594.05
396.671	593.83
397.05	583.21
397.429	579.82
397.808	599.25
398.186	594.28
398.565	604.9
398.944	622.07
399.323	608.97
399.701	619.81
400.08	617.1
400.458	635.86
400.837	646.48
401.215	654.39
401.594	644.45
401.972	640.15
402.351	631.11
402.729	660.27
403.107	663.65
403.486	668.63
403.864	675.63
404.242	700.49
404.62	697.78
404.999	686.25
405.377	719.92
405.755	698.46
406.133	737.1
406.511	734.16
406.889	726.48
407.267	758.57
407.645	744.56
408.023	740.71
408.401	763.31
408.779	768.51
409.156	792.24
409.534	790.21
409.912	809.41
410.29	804.44
410.667	811.9
411.045	815.29
411.422	834.27
411.8	841.96
412.178	833.37
412.555	881.5
412.933	874.72
413.31	862.07
413.687	901.61
414.065	897.77
414.442	892.8
414.819	945.23
415.197	929.64
415.574	936.64
415.951	950.43
416.328	964.21
416.705	952.46
417.082	982.06
417.46	992.91
417.837	1020.71
418.214	1010.31
418.591	1010.09
418.967	1017.32
419.344	1038.56
419.721	1034.04
420.098	1076.3
420.475	1050.76
420.852	1065.9
421.228	1072.68
421.605	1086.24
421.982	1070.88
422.358	1115.39
422.735	1137.99
423.111	1128.73
423.488	1146.35
423.864	1138.44
424.241	1141.38
424.617	1198.78
424.994	1193.13
425.37	1194.49
425.746	1193.36
426.123	1218.44
426.499	1215.5
426.875	1255.96
427.251	1256.18
427.627	1302.28
428.003	1290.76
428.379	1299.12
428.756	1352.68
429.132	1359.23
429.507	1372.56
429.883	1366.91
430.259	1398.78
430.635	1429.28
431.011	1417.53
431.387	1425.89
431.763	1468.61
432.138	1511.32
432.514	1492.79
432.89	1514.48
433.265	1553.35
433.641	1565.78
434.016	1583.18
434.392	1585.89
434.767	1631.77
435.143	1610.07
435.518	1650.75
435.894	1631.09
436.269	1668.6
436.644	1713.34
437.02	1710.41
437.395	1738.43
437.77	1761.93
438.145	1792.21
438.52	1789.95
438.895	1820.69
439.271	1834.47
439.646	1846.67
440.021	1859.33
440.395	1885.77
440.77	1888.71
441.145	1924.19
441.52	1939.78
441.895	1948.59
442.27	1931.64
442.645	1945.2
443.019	1995.37
443.394	1978.42
443.769	2018.2
444.143	2004.18
444.518	2029.95
444.892	2047.57
445.267	2065.65
445.641	2118.98
446.016	2094.58
446.39	2122.37
446.764	2131.86
447.139	2136.38
447.513	2194.46
447.887	2156.95
448.262	2153.79
448.636	2200.79
449.01	2228.13
449.384	2271.3
449.758	2293.44
450.132	2302.48
450.506	2293.89
450.88	2328.47
451.254	2325.98
451.628	2374.34
452.002	2402.82
452.376	2436.72
452.75	2441.46
453.123	2438.3
453.497	2499.31
453.871	2490.73
454.244	2558.97
454.618	2553.32
454.992	2641.46
455.365	2609.37
455.739	2667.67
456.112	2674.9
456.486	2746.76
456.859	2750.61
457.232	2787.89
457.606	2806.65
457.979	2824.73
458.352	2859.3
458.725	2908.34
459.099	2926.19
459.472	3000.54
459.845	3015.46
460.218	3043.71
460.591	3077.83
460.964	3076.25
461.337	3093.87
461.71	3172.52
462.083	3223.81
462.456	3222.46
462.829	3272.4
463.201	3317.6
463.574	3309.46
463.947	3388.33
464.32	3463.81
464.692	3412.74
465.065	3478.95
465.438	3552.84
465.81	3570.7
466.183	3612.05
466.555	3708.32
466.928	3746.74
467.3	3722.56
467.672	3785.83
468.045	3880.97
468.417	3901.31
468.789	3903.57
469.161	3939.5
469.534	4046.39
469.906	4099.95
470.278	4149.21
470.65	4183.11
471.022	4239.83
471.394	4335.42
471.766	4415.87
472.138	4394.18
472.51	4532.48
472.882	4562.76
473.253	4635.98
473.625	4686.83
473.997	4781.51
474.369	4842.53
474.74	4919.14
475.112	4981.28
475.484	5024.67
475.855	5133.59
476.227	5168.62
476.598	5238.9
476.97	5368.16
477.341	5484.77
477.713	5553.24
478.084	5585.56
478.455	5772.45
478.827	5757.31
479.198	5959.33
479.569	5969.05
479.94	6139.44
480.311	6175.37
480.682	6343.28
481.053	6504.63
481.424	6542.6
481.795	6643.16
482.166	6739.2
482.537	6806.09
482.908	6929.03
483.279	6985.07
483.65	7126.99
484.021	7279.98
484.391	7363.14
484.762	7453.31
485.133	7507.09
485.503	7613.98
485.874	7739.18
486.244	7817.14
486.615	8033.86
486.985	8091.26
487.356	8267.75
487.726	8346.39
488.097	8511.13
488.467	8528.98
488.837	8707.06
489.207	8889.65
489.578	8916.55
489.948	9008.75
490.318	9174.39
490.688	9176.65
491.058	9315.63
491.428	9456.87
491.798	9578.45
492.168	9734.15
492.538	9797.43
492.908	9867.71
493.278	10044.65
493.648	10022.28
494.017	10246.23
494.387	10361.7
494.757	10378.88
495.126	10491.87
495.496	10494.58
495.866	10578.42
496.235	10746.78
496.605	10823.16
496.974	10825.42
497.344	11038.07
497.713	11082.82
498.082	11149.71
498.452	11237.16
498.821	11274.45
499.19	11408.91
499.559	11431.06
499.928	11626.3
500.298	11652.07
500.667	11841.21
501.036	11740.2
501.405	11921.89
501.774	11941.55
502.143	12036.92
502.512	12031.94
502.88	12205.72
503.249	12311.26
503.618	12371.6
503.987	12442.33
504.356	12502.21
504.724	12561.87
505.093	12628.09
505.462	12768.65
505.83	12801.19
506.199	12946.72
506.567	13120.28
506.936	13100.16
507.304	13318.69
507.672	13320.72
508.041	13338.58
508.409	13553.03
508.777	13614.73
509.145	13599.59
509.514	13739.7
509.882	13925.45
510.25	13879.58
510.618	14029.18
510.986	14115.5
511.354	14227.82
511.722	14352.79
512.09	14473.01
512.458	14458.09
512.826	14634.13
513.193	14745.32
513.561	14801.59
513.929	14973.34
514.297	15085.2
514.664	15155.25
515.032	15202.03
515.4	15373.55
515.767	15458.29
516.135	15536.94
516.502	15502.59
516.869	15808.12
517.237	15822.58
517.604	15863.93
517.972	16067.54
518.339	16106.41
518.706	16192.74
519.073	16218.5
519.44	16488.32
519.808	16675.21
520.175	16670.69
520.542	16909.1
520.909	17008.99
521.276	16985.49
521.643	17276.33
522.009	17384.12
522.376	17439.94
522.743	17601.51
523.11	17786.14
523.477	17924.44
523.843	18052.58
524.21	18230.42
524.577	18418.22
524.943	18591.09
525.31	18620.02
525.676	18754.03
526.043	18907.92
526.409	19072.44
526.776	19303.62
527.142	19273.11
527.508	19377.97
527.874	19511.07
528.241	19720.78
528.607	19746.32
528.973	20013.65
529.339	19970.72
529.705	20226.53
530.071	20433.76
530.437	20461.1
530.803	20503.13
531.169	20661.77
531.535	20629.46
531.901	20814.76
532.267	20981.99
532.632	21112.38
532.998	21177.92
533.364	21330.46
533.73	21329.55
534.095	21583.56
534.461	21648.64
534.826	21701.07
535.192	21893.61
535.557	22035.52
535.923	22005.69
536.288	22080.04
536.653	22132.69
537.019	22149.42
537.384	22280.94
537.749	22362.97
538.114	22465.57
538.479	22510.09
538.845	22759.12
539.21	22629.63
539.575	22713.7
539.94	22923.41
540.305	23104.19
540.67	23164.31
541.034	23232.55
541.399	23275.26
541.764	23360.01
542.129	23442.26
542.494	23584.41
542.858	23614.24
543.223	23670.28
543.587	23869.15
543.952	23775.14
544.316	24073.21
544.681	23983.95
545.045	24118.63
545.41	24299.19
545.774	24347.1
546.138	24434.78
546.503	24511.84
546.867	24464.16
547.231	24680.88
547.595	24662.57
547.959	24825.73
548.324	24719.29
548.688	24886.07
549.052	24989.12
549.416	25004.26
549.779	25095.78
550.143	25293.74
550.507	25409.44
550.871	25426.85
551.235	25478.37
551.599	25728.53
551.962	25732.6
552.326	25797.91
552.689	25947.28
553.053	25868.64
553.417	26039.94
553.78	26314.05
554.143	26328.06
554.507	26504.33
554.87	26530.32
555.234	26841.5
555.597	26572.13
555.96	26778.45
556.323	26942.06
556.686	26988.84
557.05	27218.89
557.413	27286.68
557.776	27215.95
558.139	27605.09
558.502	27629.73
558.865	27709.27
559.228	27911.75
559.59	27921.92
559.953	27989.04
560.316	28305.64
560.679	28261.35
561.041	28378.86
561.404	28728
561.767	28765.51
562.129	28763.71
562.492	29050.71
562.854	29023.59
563.217	29127.77
563.579	29251.6
563.941	29439.17
564.304	29579.96
564.666	29733.4
565.028	29790.12
565.39	29907.63
565.753	30161.64
566.115	30185.59
566.477	30272.14
566.839	30366.83
567.201	30594.62
567.563	30604.11
567.925	30855.18
568.287	30863.99
568.648	30887.27
569.01	31117.09
569.372	31343.98
569.734	31221.5
570.095	31414.03
570.457	31496.97
570.819	31617.64
571.18	31647.25
571.542	31711.88
571.903	31829.39
572.265	31947.8
572.626	32026.22
572.987	32020.12
573.349	32227.8
573.71	32404.29
574.071	32353.44
574.432	32342.37
574.794	32608.35
575.155	32585.75
575.516	32636.6
575.877	32675.02
576.238	32825.75
576.599	33022.13
576.96	33074.1
577.32	33014.22
577.681	33132.86
578.042	33127.66
578.403	33211.95
578.763	33178.96
579.124	33274.55
579.485	33446.07
579.845	33465.5
580.206	33530.81
580.566	33468.22
580.927	33527.65
581.287	33686.97
581.648	33542.79
582.008	33630.92
582.368	33569.91
582.728	33665.27
583.089	33646.06
583.449	33559.74
583.809	33680.19
584.169	33730.13
584.529	33597.25
584.889	33916.79
585.249	33630.25
585.609	33594.54
585.969	33814.87
586.329	33832.5
586.688	33671.83
587.048	33711.15
587.408	33642.9
587.768	33816.91
588.127	33658.27
588.487	33562.9
588.846	33864.59
589.206	33546.41
589.565	33636.57
589.925	33847.42
590.284	33832.27
590.643	33732.39
591.003	33874.99
591.362	33977.13
591.721	33885.15
592.08	33818.72
592.44	33947.07
592.799	33884.93
593.158	33821.43
593.517	33903.68
593.876	34027.3
594.235	33999.73
594.593	33936.23
594.952	33927.41
595.311	33908.88
595.67	33946.17
596.029	34176.67
596.387	34142.32
596.746	34018.26
597.104	33897.13
597.463	33950.69
597.822	34049.67
598.18	33975.32
598.538	33925.38
598.897	34101.65
599.255	33895.78
599.613	34421.19
599.972	34276.33
600.33	34370.79
600.688	34259.61
601.046	34385.93
601.404	34565.81
601.762	34408.08
602.12	34684.91
602.478	34701.86
602.836	34689.2
603.194	34607.4
603.552	34578.92
603.91	34418.7
604.268	34679.48
604.625	34474.74
604.983	34770.33
605.341	34618.69
605.698	34815.53
606.056	34797.67
606.413	34774.62
606.771	34792.7
607.128	34890.78
607.485	34701.86
607.843	34862.08
608.2	34933.71
608.557	35013.49
608.914	34883.32
609.272	35010.77
609.629	35108.85
609.986	35314.95
610.343	35038.12
610.7	35290.32
611.057	35201.05
611.414	35228.85
611.771	35233.59
612.127	35376.41
612.484	35375.96
612.841	35461.61
613.198	35515.17
613.554	35446.24
613.911	35668.84
614.267	35543.87
614.624	35536.41
614.98	35675.39
615.337	35881.49
615.693	35688.27
616.05	35741.38
616.406	35962.16
616.762	35788.38
617.118	35894.37
617.475	35815.5
617.831	35930.3
618.187	35912.9
618.543	36027.7
618.899	36286.9
619.255	36139.11
619.611	35997.42
619.967	36179.78
620.323	36332.32
620.678	36268.59
621.034	35960.13
621.39	36075.15
621.746	36114.02
622.101	36517.18
622.457	36287.58
622.812	36256.39
623.168	36407.57
623.523	36355.6
623.879	36549.49
624.234	36256.39
624.589	36244.64
624.945	36406.44
625.3	36436.73
625.655	36366.9
626.01	36426.1
626.365	36286.67
626.72	36400.79
627.075	36221.14
627.43	36422.04
627.785	36259.78
628.14	36273.11
628.495	36442.38
628.85	36330.74
629.205	36144.98
629.559	36435.6
629.914	36193.57
630.269	36158.99
630.623	36083.06
630.978	36087.81
631.332	36130.74
631.687	36095.04
632.041	35876.74
632.396	36135.72
632.75	35849.62
633.104	35867.02
633.459	35805.33
633.813	35676.52
634.167	35692.11
634.521	35695.28
634.875	35741.15
635.229	35663.86
635.583	35567.82
635.937	35591.32
636.291	35426.36
636.645	35504.55
636.999	35304.55
637.352	35480.59
637.706	35272.46
638.06	35384.78
638.413	35340.94
638.767	35340.03
639.121	35165.8
639.474	35049.64
639.828	35090.09
640.181	35127.61
640.534	35096.87
640.888	35001.28
641.241	34835.19
641.594	34971.68
641.947	34943.21
642.301	34801.06
642.654	34921.96
643.007	34707.51
643.36	34669.31
643.713	34610.33
644.066	34858.91
644.419	34592.03
644.771	34316.56
645.124	33999.5
645.477	33963.12
645.83	33663.92
646.182	33568.33
646.535	33480.87
646.888	33380.08
647.24	33355.68
647.593	33390.25
647.945	33411.27
648.298	33264.38
648.65	33176.25
649.002	33047.66
649.355	33256.47
649.707	33139.64
650.059	33332.17
650.411	33578.27
650.763	33709.11
651.115	33911.59
651.467	33895.32
651.819	33865.72
652.171	33816.46
652.523	33675.89
652.875	33688.32
653.227	33539.17
653.578	33745.5
653.93	33794.76
654.282	33535.78
654.633	33464.83
654.985	33499.4
655.337	33484.03
655.688	33479.74
656.039	33550.7
656.391	33249.01
656.742	33470.48
657.094	33422.57
657.445	33444.94
657.796	33392.74
658.147	33227.09
658.498	33133.08
658.849	33251.5
659.2	33155
659.551	33238.17
659.902	33293.76
660.253	33178.51
660.604	33204.27
660.955	32953.88
661.306	33132.63
661.656	32945.29
662.007	33038.4
662.358	32947.78
662.708	33043.82
663.059	32961.11
663.409	32860.55
663.76	32991.84
664.11	32948.23
664.461	33044.27
664.811	32939.87
665.161	32887.44
665.511	32831.62
665.862	32803.37
666.212	32912.98
666.562	32801.11
666.912	32742.81
667.262	32722.47
667.612	32712.53
667.962	32666.2
668.312	32754.34
668.662	32782.36
669.011	32712.08
669.361	32572.19
669.711	32657.62
670.06	32663.04
670.41	32428.92
670.76	32410.39
671.109	32551.86
671.459	32457.4
671.808	32543.95
672.157	32475.25
672.507	32299.66
672.856	32295.82
673.205	32313.44
673.554	32406.78
673.904	32374.01
674.253	32462.59
674.602	32176.72
674.951	31813.57
675.3	31610.86
675.649	32261.92
675.998	31981.7
676.346	32052.21
676.695	32199.1
677.044	31730.18
677.393	31903.29
677.741	32000.23
678.09	31986.9
678.438	31785.77
678.787	31855.38
679.135	31811.08
679.484	31661.71
679.832	31729.96
680.181	31616.29
680.529	31645.67
680.877	31526.35
681.225	31495.61
681.573	31695.83
681.922	31328.84
682.27	31313.47
682.618	31287.26
682.966	31280.7
683.314	31394.6
683.661	31226.69
684.009	31058.34
684.357	30987.15
684.705	31052.46
685.053	31016.76
685.4	30933.37
685.748	30703.32
686.095	30692.92
686.443	30673.26
686.79	30618.35
687.138	30496.99
687.485	30504.68
687.832	30362.99
688.18	30414.29
688.527	30229.43
688.874	30221.97
689.221	30137.91
689.568	30089.55
689.915	29973.84
690.262	29892.04
690.609	29948.76
690.956	29913.96
691.303	29832.83
691.65	29756
691.997	29634.64
692.344	29434.42
692.69	29481.65
693.037	29462.67
693.383	29261.32
693.73	29300.19
694.077	29021.33
694.423	29021.55
694.769	28944.95
695.116	28911.27
695.462	29074.89
695.808	28797.83
696.155	28823.59
696.501	28492.75
696.847	28557.16
697.193	28412.53
697.539	28440.78
697.885	28327.33
698.231	28139.99
698.577	28154.91
698.923	28105.87
699.269	27998.08
699.614	27984.29
699.96	27864.3
700.306	27787.24
700.651	27647.8
700.997	27665.2
701.342	27624.75
701.688	27480.58
702.033	27372.56
702.379	27350.18
702.724	27523.97
703.069	27492.1
703.415	27142.96
703.76	27104.32
704.105	27127.82
704.45	27133.47
704.795	26961.27
705.14	26879.69
705.485	26769.64
705.83	26741.39
706.175	26833.81
706.52	26641.5
706.865	26602.63
707.209	26483.54
707.554	26485.8
707.899	26486.7
708.243	26276.54
708.588	26237.67
708.932	26150.44
709.277	26117.22
709.621	26105.7
709.966	25928.98
710.31	26062.54
710.654	25768.08
710.998	25867.96
711.342	25889.21
711.687	25746.16
712.031	25710.91
712.375	25521.76
712.719	25642.21
713.063	25494.41
713.407	25640.63
713.75	25452.61
714.094	25397.02
714.438	25377.81
714.782	25276.57
715.125	25193.18
715.469	25257.36
715.812	25065.5
716.156	24903.7
716.499	24916.8
716.843	24963.58
717.186	24753.64
717.53	25028.89
717.873	24938.04
718.216	24813.75
718.559	24700.31
718.902	24564.5
719.246	24613.76
719.589	24551.39
719.932	24388
720.275	24430.49
720.617	24388.45
720.96	24312.07
721.303	24359.75
721.646	24370.6
721.989	24183.49
722.331	24267.1
722.674	24130.83
723.016	24084.51
723.359	24107.33
723.701	24115.24
724.044	24030.72
724.386	23941.23
724.729	24038.18
725.071	23863.72
725.413	23888.35
725.755	23770.17
726.097	23837.06
726.439	23609.49
726.782	23628.02
727.124	23762.71
727.465	23586.44
727.807	23654.24
728.149	23548.48
728.491	23543.28
728.833	23521.36
729.175	23451.3
729.516	23447.24
729.858	23234.59
730.199	23330.18
730.541	23277.52
730.882	23302.16
731.224	23338.76
731.565	23224.19
731.906	23177.41
732.248	23157.53
732.589	23153.91
732.93	23000.92
733.271	23068.26
733.612	23067.81
733.953	22968.83
734.294	22824.88
734.635	22897.19
734.976	22850.87
735.317	22853.58
735.658	22733.81
735.999	22771.1
736.339	22775.84
736.68	22748.72
737.021	22633.25
737.361	22637.31
737.702	22765.9
738.042	22629.18
738.383	22492.23
738.723	22521.39
739.063	22528.62
739.404	22499.69
739.744	22422.86
740.084	22272.13
740.424	22429.41
740.764	22277.1
741.104	22397.77
741.444	22257.89
741.784	22129.76
742.124	22125.69
742.464	22081.17
742.804	22075.07
743.143	22012.25
743.483	22105.8
743.823	21965.92
744.162	21874.62
744.502	21928.86
744.841	21778.58
745.181	21887.28
745.52	21816.32
745.86	21878.24
746.199	21755.3
746.538	21697.68
746.877	21731.12
747.216	21785.13
747.556	21654.29
747.895	21635.31
748.234	21540.39
748.573	21427.18
748.911	21463.56
749.25	21430.34
749.589	21292.04
749.928	21391.47
750.267	21404.58
750.605	21237.8
750.944	21244.36
751.283	21253.4
751.621	21205.04
751.96	21191.48
752.298	21202.32
752.636	21172.27
752.975	20992.39
753.313	21044.14
753.651	21021.31
753.989	20948.32
754.327	20883.24
754.666	20829.23
755.004	20803.92
755.342	20706.29
755.679	20665.39
756.017	20643.69
756.355	20691.83
756.693	20554.66
757.031	20483.47
757.368	20436.24
757.706	20459.07
758.044	20317.6
758.381	20333.65
758.719	20290.71
759.056	20390.59
759.394	20265.63
759.731	20050.49
760.068	20134.33
760.405	19957.16
760.743	19897.27
761.08	19992.19
761.417	19764.17
761.754	19708.8
762.091	19761.23
762.428	19655.7
762.765	19536.38
763.102	19628.58
763.438	19395.37
763.775	19306.1
764.112	19413.67
764.449	19346.1
764.785	19309.49
765.122	19097.97
765.458	19053.91
765.795	19066.56
766.131	18949.28
766.467	18926.68
766.804	18867.02
767.14	18773.46
767.476	18787.25
767.812	18733.69
768.148	18684.2
768.485	18594.93
768.821	18542.28
769.157	18414.83
769.492	18447.82
769.828	18426.58
770.164	18301.61
770.5	18280.37
770.836	18175.28
771.171	18114.95
771.507	18009.64
771.842	17894.16
772.178	17909.3
772.513	17857.78
772.849	17791.79
773.184	17753.38
773.519	17660.95
773.855	17639.93
774.19	17447.39
774.525	17468.41
774.86	17469.54
775.195	17494.62
775.53	17328.53
775.865	17281.97
776.2	17151.36
776.535	16983.9
776.87	17037.91
777.205	16969.89
777.539	16920.4
777.874	16923.11
778.209	16747.07
778.543	16663.46
778.878	16667.98
779.212	16684.25
779.547	16576.68
779.881	16536.46
780.215	16373.52
780.55	16450.58
780.884	16329.23
781.218	16249.01
781.552	16308.67
781.886	16203.36
782.22	16058.73
782.554	15985.29
782.888	15850.15
783.222	15838.62
783.556	15878.17
783.889	15768.34
784.223	15698.97
784.557	15668.46
784.89	15692.86
785.224	15499.65
785.557	15476.15
785.891	15473.21
786.224	15414
786.558	15306.66
786.891	15253.78
787.224	15167.91
787.557	15102.6
787.891	15039.1
788.224	15066.44
788.557	15045.65
788.89	14943.73
789.223	14953.45
789.556	14770.63
789.888	14746.9
790.221	14691.31
790.554	14580.35
790.887	14569.5
791.219	14571.76
791.552	14513.91
791.884	14456.51
792.217	14423.52
792.549	14265.78
792.882	14247.93
793.214	14208.38
793.546	14231.66
793.879	14219.23
794.211	14091.55
794.543	14115.5
794.875	13999.35
795.207	14061.04
795.539	13980.37
795.871	13898.79
796.203	13812.46
796.535	13688.62
796.867	13728.62
797.198	13701.05
797.53	13647.95
797.862	13576.08
798.193	13619.7
798.525	13500.83
798.856	13515.07
799.188	13353.26
799.519	13283.66
799.85	13267.84
800.182	13273.94
800.513	13222.65
800.844	13153.27
801.175	13285.24
801.506	13125.25
801.837	13054.06
802.168	12991.47
802.499	12992.82
802.83	12892.26
803.161	12908.76
803.491	12970.45
803.822	12927.74
804.153	12832.83
804.483	12752.83
804.814	12650.91
805.145	12630.8
805.475	12672.6
805.805	12575.66
806.136	12540.18
806.466	12574.3
806.796	12530.91
807.126	12420.41
807.457	12416.57
807.787	12325.5
808.117	12352.84
808.447	12236.01
808.777	12308.09
809.107	12263.8
809.436	12174.54
809.766	12150.58
810.096	12109.91
810.426	12036.69
810.755	12128.21
811.085	12113.3
811.414	12006.41
811.744	11960.53
812.073	11905.85
812.403	11887.09
812.732	11896.81
813.061	11895.9
813.39	11800.09
813.719	11725.51
814.049	11773.65
814.378	11737.94
814.707	11633.54
815.036	11612.97
815.365	11615.23
815.693	11498.17
816.022	11545.18
816.351	11486.2
816.68	11400.32
817.008	11464.73
817.337	11395.58
817.665	11365.52
817.994	11345.41
818.322	11308.35
818.651	11205.52
818.979	11213.66
819.307	11304.05
819.636	11184.73
819.964	11161.68
820.292	11239.87
820.62	11118.07
820.948	11121.46
821.276	11150.16
821.604	11108.13
821.932	11149.71
822.259	11090.95
822.587	11067.45
822.915	11078.75
823.243	11037.85
823.57	11039.88
823.898	11163.72
824.225	11090.73
824.553	11120.33
824.88	11091.63
825.207	11142.7
825.535	11140.44
825.862	11189.71
826.189	11057.96
826.516	11117.17
826.843	11111.52
827.17	11111.52
827.497	11167.56
827.824	11104.06
828.151	11130.5
828.478	11101.35
828.805	11254.34
829.131	11216.15
829.458	11134.57
829.785	11052.76
830.111	11078.97
830.438	11114
830.764	11150.84
831.09	11110.61
831.417	10975.93
831.743	11091.63
832.069	11078.3
832.395	11011.63
832.722	11078.75
833.048	11035.59
833.374	11027.22
833.7	11017.73
834.026	10925.76
834.351	11007.34
834.677	10989.26
835.003	10970.28
835.329	10936.61
835.654	10932.76
835.98	10822.94
836.306	10946.32
836.631	10925.08
836.956	10892.31
837.282	10812.09
837.607	10840.56
837.932	10857.06
838.258	10772.99
838.583	10799.43
838.908	10700.23
839.233	10747.46
839.558	10703.39
839.883	10616.39
840.208	10622.72
840.533	10627.69
840.858	10708.36
841.182	10598.53
841.507	10602.15
841.832	10598.53
842.156	10535.49
842.481	10523.28
842.805	10484.19
843.13	10456.62
843.454	10407.13
843.778	10396.05
844.103	10403.96
844.427	10352.21
844.751	10300.24
845.075	10235.15
845.399	10307.7
845.723	10229.73
846.047	10163.29
846.371	10033.35
846.695	10121.94
847.019	10081.26
847.343	10004.2
847.666	9984.09
847.99	9890.08
848.313	9815.5
848.637	9813.7
848.96	9872.68
849.284	9844.88
849.607	9717.88
849.931	9679.69
850.254	9651.44
850.577	9606.92
850.9	9484.44
851.223	9434.5
851.546	9490.54
851.869	9415.29
852.192	9432.69
852.515	9406.48
852.838	9320.38
853.161	9380.49
853.483	9297.78
853.806	9305.69
854.129	9293.94
854.451	9232.47
854.774	9201.96
855.096	9118.8
855.419	9174.62
855.741	9120.16
856.063	9062.53
856.385	9140.95
856.708	9028.41
857.03	8985.02
857.352	9073.6
857.674	8992.48
857.996	8895.53
858.318	8938.47
858.64	8957.67
858.961	8875.19
859.283	8831.35
859.605	8841.74
859.926	8868.86
860.248	8710.9
860.57	8739.37
860.891	8741.63
861.212	8648.08
861.534	8737.57
861.855	8673.39
862.176	8621.86
862.498	8647.85
862.819	8712.48
863.14	8605.14
863.461	8622.77
863.782	8544.8
864.103	8558.59
864.424	8563.33
864.745	8469.1
865.065	8480.62
865.386	8506.84
865.707	8479.72
866.027	8453.05
866.348	8411.47
866.668	8386.39
866.989	8436.33
867.309	8319.95
867.63	8401.3
867.95	8439.27
868.27	8341.42
868.59	8303.45
868.91	8293.96
869.23	8333.74
869.55	8264.36
869.87	8317.69
870.19	8269.1
870.51	8242.66
870.83	8189.11
871.15	8186.85
871.469	8260.74
871.789	8261.65
872.109	8245.83
872.428	8149.79
872.748	8199.28
873.067	8144.36
873.386	8111.82
873.706	8103.91
874.025	8130.35
874.344	8131.48
874.663	8115.44
874.982	7978.72
875.301	8026.17
875.62	8070.92
875.939	8019.85
876.258	8032.73
876.577	7988.21
876.896	8005.38
877.214	7941.88
877.533	8010.58
877.852	7938.04
878.17	7940.53
878.489	7917.93
878.807	7933.52
879.125	7886.97
879.444	7888.32
879.762	7882.22
880.08	7869.34
880.398	7760.64
880.716	7864.14
881.034	7814.88
881.352	7832.28
881.67	7781.21
881.988	7857.59
882.306	7796.35
882.624	7788.44
882.941	7715.45
883.259	7677.26
883.577	7692.4
883.894	7616.01
884.212	7628.22
884.529	7632.51
884.846	7683.36
885.164	7656.69
885.481	7579.41
885.798	7627.31
886.115	7552.51
886.432	7505.06
886.75	7492.4
887.067	7594.77
887.383	7524.49
887.7	7488.11
888.017	7488.79
888.334	7439.52
888.651	7396.59
888.967	7385.74
889.284	7386.19
889.6	7292.86
889.917	7257.83
890.233	7280.43
890.55	7257.38
890.866	7321.78
891.182	7232.07
891.498	7259.19
891.815	7255.35
892.131	7231.39
892.447	7205.4
892.763	7118.85
893.079	7154.33
893.395	7120.43
893.71	7129.02
894.026	7115.46
894.342	7100.32
894.657	7025.07
894.973	7078.4
895.289	6977.39
895.604	7013.32
895.92	6964.28
896.235	6951.17
896.55	6946.88
896.865	6929.03
897.181	6876.6
897.496	6842.02
897.811	6743.5
898.126	6769.93
898.441	6771.29
898.756	6809.71
899.071	6729.03
899.386	6736.49
899.7	6658.3
900.015	6660.79
900.33	6592.76
900.644	6637.74
900.959	6611.75
901.273	6577.17
901.588	6525.42
901.902	6480.23
902.216	6466.67
902.531	6500.56
902.845	6479.55
903.159	6428.25
903.473	6377.18
903.787	6354.58
904.101	6310.74
904.415	6336.95
904.729	6302.38
905.042	6284.98
905.356	6221.93
905.67	6236.84
905.984	6212.89
906.297	6219.89
906.611	6188.26
906.924	6115.49
907.237	6148.48
907.551	6097.18
907.864	6104.87
908.177	6056.06
908.491	6086.34
908.804	6016.51
909.117	6005.44
909.43	5983.97
909.743	5908.71
910.056	5922.5
910.368	5897.64
910.681	5886.57
910.994	5903.07
911.307	5839.79
911.619	5770.87
911.932	5790.07
912.244	5736.06
912.557	5764.76
912.869	5746.01
913.181	5729.74
913.494	5689.96
913.806	5662.39
914.118	5607.93
914.43	5637.99
914.742	5595.95
915.054	5529.52
915.366	5542.85
915.678	5515.5
915.99	5503.98
916.302	5506.01
916.613	5457.2
916.925	5464.88
917.236	5430.31
917.548	5414.49
917.859	5404.1
918.171	5339.92
918.482	5335.85
918.794	5274.38
919.105	5273.7
919.416	5243.42
919.727	5223.08
920.038	5192.12
920.349	5207.26
920.66	5161.39
920.971	5215.4
921.282	5132.46
921.593	5093.59
921.903	5083.88
922.214	5059.92
922.525	5066.02
922.835	5033.26
923.146	4965.91
923.456	4935.41
923.767	4923.43
924.077	4939.25
924.387	4923.43
924.697	4917.55
925.008	4890.66
925.318	4882.08
925.628	4861.28
925.938	4807.73
926.248	4788.74
926.558	4780.61
926.867	4754.39
927.177	4755.98
927.487	4718.24
927.796	4686.6
928.106	4712.81
928.416	4691.35
928.725	4637.56
929.034	4599.37
929.344	4636.66
929.653	4608.18
929.962	4572.93
930.271	4548.98
930.581	4567.06
930.89	4473.5
931.199	4493.61
931.508	4454.52
931.817	4452.48
932.125	4442.09
932.434	4434.4
932.743	4390.56
933.051	4453.84
933.36	4351.24
933.669	4328.42
933.977	4337.68
934.286	4295.88
934.594	4317.57
934.902	4267.18
935.21	4262.66
935.519	4207.06
935.827	4218.59
936.135	4170.68
936.443	4184.69
936.751	4188.99
937.059	4119.16
937.367	4117.35
937.674	4094.3
937.982	4108.99
938.29	4049.55
938.597	4099.95
938.905	4015.21
939.213	4006.39
939.52	4040.06
939.827	3970.01
940.135	3992.15
940.442	3972.49
940.749	3975.43
941.056	3944.92
941.363	3943.34
941.67	3935.66
941.977	3947.18
942.284	3893.4
942.591	3887.07
942.898	3901.08
943.205	3852.27
943.511	3832.39
943.818	3783.35
944.125	3761.65
944.431	3778.15
944.738	3776.79
945.044	3740.41
945.35	3742.9
945.657	3710.81
945.963	3700.41
946.269	3658.83
946.575	3660.86
946.881	3620.41
947.187	3650.69
947.493	3625.16
947.799	3579.74
948.105	3603.69
948.41	3586.29
948.716	3562.34
949.022	3537.7
949.327	3535.9
949.633	3485.5
949.938	3469.68
950.244	3462
950.549	3474.43
950.854	3459.51
951.16	3426.75
951.465	3413.41
951.77	3398.72
952.075	3410.02
952.38	3378.84
952.685	3369.57
952.99	3352.62
953.294	3322.57
953.599	3275.34
953.904	3281.21
954.209	3320.08
954.513	3302.46
954.818	3282.12
955.122	3248.67
955.426	3247.09
955.731	3214.77
956.035	3224.04
956.339	3202.57
956.643	3183.36
956.948	3179.75
957.252	3135.45
957.556	3136.81
957.86	3093.2
958.163	3108.56
958.467	3088.45
958.771	3109.92
959.075	3112.4
959.378	3051.84
959.682	3042.58
959.985	3059.52
960.289	2993.09
960.592	3024.5
960.896	3013.88
961.199	2999.19
961.502	3007.77
961.805	2954.44
962.108	2943.37
962.411	2910.15
962.714	2932.97
963.017	2912.18
963.32	2940.21
963.623	2852.75
963.926	2867.89
964.228	2856.37
964.531	2810.94
964.833	2875.57
965.136	2833.77
965.438	2790.83
965.741	2785.18
966.043	2769.14
966.345	2800.77
966.648	2742.47
966.95	2748.8
967.252	2723.94
967.554	2721.23
967.856	2702.02
968.158	2717.61
968.46	2712.41
968.761	2670.83
969.063	2672.42
969.365	2649.59
969.666	2625.86
969.968	2650.95
970.269	2619.31
970.571	2611.85
970.872	2614.34
971.174	2579.54
971.475	2603.72
971.776	2595.58
972.077	2563.27
972.378	2551.74
972.679	2562.14
972.98	2509.71
973.281	2494.57
973.582	2536.37
973.883	2521.46
974.183	2483.49
974.484	2494.57
974.785	2433.33
975.085	2490.5
975.386	2470.39
975.686	2421.57
975.986	2426.09
976.287	2474.23
976.587	2405.08
976.887	2432.42
977.187	2422.93
977.487	2422.03
977.787	2377.28
978.087	2358.75
978.387	2354.01
978.687	2369.15
978.987	2294.57
979.286	2298.19
979.586	2337.28
979.885	2278.53
980.185	2311.75
980.484	2270.62
980.784	2255.93
981.083	2274.01
981.382	2260.68
981.682	2274.01
981.981	2234.24
982.28	2220.9
982.579	2222.03
982.878	2198.08
983.177	2210.28
983.475	2202.37
983.774	2184.07
984.073	2176.84
984.372	2156.72
984.67	2143.16
984.969	2144.75
985.267	2150.85
985.566	2130.96
985.864	2132.09
986.162	2106.78
986.461	2055.26
986.759	2043.73
987.057	2041.25
987.355	2060.45
987.653	2041.25
987.951	2053.67
988.249	2032.88
988.547	2032.43
988.844	2008.48
989.142	1976.39
989.44	2014.35
989.737	2022.26
990.035	1978.87
990.332	1985.43
990.63	1956.95
990.927	1991.3
991.224	1953.11
991.521	1935.26
991.819	1928.03
992.116	1920.34
992.413	1910.85
992.71	1904.75
993.006	1885.77
993.303	1869.5
993.6	1876.5
993.897	1899.78
994.193	1854.13
994.49	1829.73
994.787	1839.44
995.083	1814.36
995.379	1828.14
995.676	1795.6
995.972	1818.65
996.268	1796.73
996.565	1798.54
996.861	1770.74
997.157	1795.83
997.453	1764.64
997.749	1753.8
998.044	1744.98
998.34	1748.6
998.636	1741.59
998.932	1721.93
999.227	1716.73
999.523	1729.84
999.818	1725.32
1000.114	1678.32
1000.409	1684.42
1000.704	1666.34
1001	1691.88
1001.295	1699.11
1001.59	1670.86
1001.885	1661.59
1002.18	1638.77
1002.475	1637.19
1002.77	1622.73
1003.065	1586.57
1003.359	1621.14
1003.654	1624.76
1003.949	1608.49
1004.243	1556.29
1004.538	1547.7
1004.832	1553.57
1005.127	1551.09
1005.421	1550.64
1005.715	1560.81
1006.009	1545.67
1006.304	1521.49
1006.598	1545.21
1006.892	1486.23
1007.186	1468.61
1007.48	1476.97
1007.773	1494.82
1008.067	1495.05
1008.361	1486.01
1008.655	1449.17
1008.948	1459.11
1009.242	1435.39
1009.535	1439.23
1009.829	1446.01
1010.122	1417.99
1010.415	1438.32
1010.708	1389.96
1011.001	1426.57
1011.295	1394.03
1011.588	1392.68
1011.881	1372.79
1012.173	1379.34
1012.466	1346.8
1012.759	1346.12
1013.052	1358.33
1013.344	1321.72
1013.637	1348.16
1013.93	1328.72
1014.222	1335.95
1014.514	1326.24
1014.807	1305.67
1015.099	1312
1015.391	1287.37
1015.683	1301.15
1015.976	1255.5
1016.268	1273.13
1016.56	1262.51
1016.851	1240.14
1017.143	1229.74
1017.435	1222.06
1017.727	1215.28
1018.018	1219.35
1018.31	1207.14
1018.602	1189.29
1018.893	1201.95
1019.185	1199.91
1019.476	1197.43
1019.767	1193.81
1020.058	1166.24
1020.35	1146.81
1020.641	1186.58
1020.932	1141.38
1021.223	1165.56
1021.514	1125.79
1021.804	1140.25
1022.095	1131.67
1022.386	1119.01
1022.677	1085.79
1022.967	1090.31
1023.258	1094.15
1023.548	1076.07
1023.839	1089.86
1024.129	1084.66
1024.419	1059.8
1024.709	1070.65
1025	1056.41
1025.29	1074.94
1025.58	1048.96
1025.87	1049.41
1026.16	1043.53
1026.449	1033.36
1026.739	1025.91
1027.029	1024.1
1027.319	1008.73
1027.608	991.33
1027.898	997.21
1028.187	992.69
1028.477	989.3
1028.766	998.34
1029.055	992.23
1029.344	966.47
1029.634	972.57
1029.923	959.69
1030.212	985.23
1030.501	981.16
1030.79	967.6
1031.078	943.42
1031.367	928.96
1031.656	918.56
1031.945	931.44
1032.233	928.51
1032.522	899.13
1032.81	914.04
1033.099	877.21
1033.387	896.19
1033.675	888.73
1033.963	887.83
1034.251	877.89
1034.54	874.27
1034.828	858
1035.116	861.16
1035.403	855.97
1035.691	829.53
1035.979	844.67
1036.267	836.53
1036.554	830.88
1036.842	830.2
1037.129	828.17
1037.417	816.42
1037.704	813.26
1037.992	804.22
1038.279	808.28
1038.566	817.1
1038.853	817.1
1039.14	817.1
