Data from foam2_polystyrene_foam_FLMS001491_00032.txt Node
Date: Wed Feb 08 10:57:52 GMT 2017
User: dcchb
Spectrometer: FLMS00149
Trigger mode: 0
Integration Time (sec): 2.000000E-2
Scans to average: 10
Electric dark correction enabled: true
Nonlinearity correction enabled: false
Boxcar width: 0
XAxis mode: Wavelengths
Number of Pixels in Spectrum: 2048
>>>>>Begin Spectral Data<<<<<
341.393	-5.14
341.776	-5.14
342.16	-5.14
342.543	-59.6
342.927	-62.77
343.31	-55.08
343.693	-78.13
344.077	-70.22
344.46	-74.52
344.843	-66.83
345.226	-31.58
345.61	-35.42
345.993	2.99
346.376	-19.6
346.759	11.36
347.142	21.3
347.525	28.3
347.908	47.96
348.291	95.65
348.674	95.42
349.057	128.41
349.44	107.4
349.823	148.53
350.206	169.54
350.588	211.35
350.971	216.55
351.354	232.82
351.737	234.63
352.119	245.25
352.502	279.82
352.884	247.96
353.267	299.94
353.65	304.23
354.032	290.22
354.414	300.16
354.797	320.95
355.179	300.61
355.562	333.61
355.944	330.67
356.326	325.25
356.709	342.19
357.091	360.27
357.473	329.31
357.855	330.67
358.238	338.13
358.62	326.6
359.002	335.19
359.384	350.78
359.766	346.04
360.148	346.71
360.53	346.71
360.912	355.53
361.294	332.7
361.676	342.87
362.057	340.16
362.439	345.36
362.821	344.91
363.203	325.25
363.584	329.77
363.966	336.54
364.348	332.25
364.729	325.02
365.111	320.27
365.493	308.3
365.874	324.34
366.256	329.09
366.637	337
367.019	315.75
367.4	346.04
367.781	343.32
368.163	331.57
368.544	312.36
368.925	334.28
369.306	338.8
369.688	329.77
370.069	325.92
370.45	328.86
370.831	321.63
371.212	332.7
371.593	341.06
371.974	344
372.355	350.78
372.736	339.03
373.117	357.11
373.498	340.61
373.879	337.45
374.26	338.13
374.641	338.58
375.021	325.02
375.402	346.04
375.783	348.07
376.163	356.43
376.544	347.39
376.925	358.47
377.305	374.06
377.686	345.58
378.066	358.92
378.447	359.82
378.827	358.24
379.208	351.46
379.588	373.15
379.968	373.15
380.349	367.5
380.729	385.36
381.109	381.97
381.489	406.6
381.87	395.53
382.25	389.65
382.63	373.61
383.01	393.27
383.39	389.65
383.77	387.84
384.15	394.4
384.53	414.06
384.91	402.98
385.29	420.16
385.67	419.25
386.049	422.42
386.429	424.68
386.809	423.1
387.189	422.42
387.568	423.1
387.948	438.46
388.328	441.4
388.707	446.15
389.087	435.53
389.466	435.3
389.846	452.02
390.225	438.92
390.605	437.33
390.984	455.41
391.363	441.4
391.743	445.47
392.122	457.9
392.501	459.25
392.881	479.82
393.26	472.36
393.639	480.27
394.018	469.65
394.397	479.82
394.776	468.07
395.155	470.1
395.534	474.39
395.913	495.86
396.292	483.43
396.671	498.8
397.05	518.69
397.429	518.46
397.808	508.97
398.186	489.31
398.565	512.59
398.944	520.27
399.323	513.04
399.701	550.55
400.08	530.44
400.458	528.86
400.837	529.76
401.215	534.96
401.594	559.82
401.972	560.95
402.351	544.67
402.729	561.85
403.107	554.84
403.486	576.54
403.864	575.63
404.242	578.12
404.62	567.27
404.999	598.68
405.377	596.2
405.755	588.97
406.133	592.13
406.511	609.53
406.889	605.46
407.267	604.56
407.645	635.97
408.023	626.25
408.401	644.56
408.779	649.3
409.156	680.04
409.534	677.78
409.912	666.71
410.29	678.23
410.667	692.47
411.045	683.43
411.422	702.86
411.8	710.55
412.178	707.83
412.555	711
412.933	726.37
413.31	729.3
413.687	775.4
414.065	752.81
414.442	752.13
414.819	752.13
415.197	800.94
415.574	772.92
415.951	784.22
416.328	791.67
416.705	790.54
417.082	814.05
417.46	797.1
417.837	838.9
418.214	827.15
418.591	831
418.967	858.34
419.344	850.88
419.721	844.78
420.098	865.8
420.475	878
420.852	856.76
421.228	870.32
421.605	889.07
421.982	899.47
422.358	890.88
422.735	914.83
423.111	909.41
423.488	924.78
423.864	926.36
424.241	990.54
424.617	955.06
424.994	983.31
425.37	979.69
425.746	980.14
426.123	976.53
426.499	969.3
426.875	1014.95
427.251	1041.61
427.627	1064.44
428.003	1028.73
428.379	1086.58
428.756	1088.16
429.132	1063.08
429.507	1107.6
429.883	1107.37
430.259	1150.31
430.635	1134.49
431.011	1167.71
431.387	1155.51
431.763	1180.36
432.138	1193.7
432.514	1238.44
432.89	1245
433.265	1232.34
433.641	1241.38
434.016	1249.74
434.392	1280.7
434.767	1292
435.143	1305.11
435.518	1329.97
435.894	1354.6
436.269	1371.77
436.644	1369.06
437.02	1386.23
437.395	1423.52
437.77	1435.95
438.145	1416.06
438.52	1449.74
438.895	1465.78
439.271	1508.72
439.646	1528.15
440.021	1484.76
440.395	1497.87
440.77	1519.11
441.145	1498.55
441.52	1581.03
441.895	1572.9
442.27	1610.41
442.645	1565.89
443.019	1608.83
443.394	1598.66
443.769	1621.93
444.143	1636.17
444.518	1654.7
444.892	1643.86
445.267	1680.69
445.641	1695.83
446.016	1689.28
446.39	1725.89
446.764	1753.46
447.139	1738.54
447.513	1778.77
447.887	1765.89
448.262	1786
448.636	1798.2
449.01	1811.31
449.384	1854.02
449.758	1844.75
450.132	1864.19
450.506	1878.88
450.88	1901.02
451.254	1902.38
451.628	1908.48
452.002	1944.64
452.376	1969.72
452.75	1968.14
453.123	2003.62
453.497	2014.47
453.871	1996.16
454.244	2070.96
454.618	2090.17
454.992	2115.71
455.365	2110.96
455.739	2122.71
456.112	2160.45
456.486	2224.4
456.859	2203.61
457.232	2269.38
457.606	2258.98
457.979	2307.57
458.352	2292.2
458.725	2348.7
459.099	2361.12
459.472	2385.08
459.845	2422.14
460.218	2465.53
460.591	2437.28
460.964	2482.93
461.337	2541.46
461.71	2546.66
462.083	2550.27
462.456	2589.14
462.829	2585.75
463.201	2625.07
463.574	2664.39
463.947	2727.44
464.32	2764.96
464.692	2824.16
465.065	2790.27
465.438	2837.27
465.81	2866.87
466.183	2896.03
466.555	2991.62
466.928	2973.09
467.3	2959.98
467.672	3045.85
468.045	3110.03
468.417	3106.19
468.789	3108.22
469.161	3166.53
469.534	3233.64
469.906	3261.67
470.278	3252.17
470.65	3348.22
471.022	3427.31
471.394	3431.38
471.766	3499.17
472.138	3492.85
472.51	3600.87
472.882	3664.59
473.253	3658.94
473.625	3736.23
473.997	3812.84
474.369	3851.93
474.74	3859.84
475.112	3943.68
475.484	4054.19
475.855	4075.66
476.227	4096.45
476.598	4208.31
476.97	4235.2
477.341	4357.68
477.713	4406.95
478.084	4420.28
478.455	4557.22
478.827	4570.33
479.198	4766.03
479.569	4719.03
479.94	4871.57
480.311	4929.87
480.682	5000.38
481.053	5147.27
481.424	5199.92
481.795	5232.91
482.166	5317.2
482.537	5355.62
482.908	5505.9
483.279	5529.85
483.65	5698.89
484.021	5716.52
484.391	5833.35
484.762	5912.44
485.133	5936.4
485.503	6005.55
485.874	6150.86
486.244	6181.59
486.615	6322.15
486.985	6358.31
487.356	6558.3
487.726	6506.78
488.097	6669.26
488.467	6677.85
488.837	6850.95
489.207	6937.5
489.578	7038.06
489.948	7146.54
490.318	7240.77
490.688	7239.64
491.058	7375.46
491.428	7437.15
491.798	7534.77
492.168	7656.13
492.538	7664.04
492.908	7808.66
493.278	7885.05
493.648	7949.45
494.017	8006.17
494.387	8085.27
494.757	8198.26
495.126	8262.66
495.496	8298.6
495.866	8355.09
496.235	8504.92
496.605	8515.54
496.974	8637.57
497.344	8659.72
497.713	8743.56
498.082	8860.16
498.452	8890.9
498.821	8950.1
499.19	9031.23
499.559	9064.68
499.928	9181.96
500.298	9189.19
500.667	9337.44
501.036	9340.6
501.405	9432.58
501.774	9386.93
502.143	9482.07
502.512	9608.62
502.88	9681.16
503.249	9686.13
503.618	9776.3
503.987	9816.07
504.356	9871.66
504.724	9914.6
505.093	9976.07
505.462	10073.01
505.83	10173.35
506.199	10283.63
506.567	10405.66
506.936	10348.48
507.304	10555.26
507.672	10554.81
508.041	10613.34
508.409	10735.59
508.777	10860.34
509.145	10917.06
509.514	10941.24
509.882	11057.84
510.25	11025.08
510.618	11183.04
510.986	11149.37
511.354	11310.04
511.722	11431.39
512.09	11479.53
512.458	11579.87
512.826	11681.78
513.193	11670.94
513.561	11717.71
513.929	11853.3
514.297	12005.62
514.664	12018.5
515.032	12133.07
515.4	12235.89
515.767	12315.89
516.135	12441.54
516.502	12316.79
516.869	12554.08
517.237	12667.07
517.604	12609.22
517.972	12790.91
518.339	12849.21
518.706	12956.78
519.073	13012.6
519.44	13151.35
519.808	13249.88
520.175	13287.39
520.542	13427.27
520.909	13575.07
521.276	13570.32
521.643	13728.28
522.009	13797.66
522.376	13896.64
522.743	13970.31
523.11	14126.01
523.477	14340.92
523.843	14290.53
524.21	14504.53
524.577	14602.84
524.943	14750.63
525.31	14829.27
525.676	14923.28
526.043	15007.35
526.409	15132.99
526.776	15247.34
527.142	15326.21
527.508	15491.17
527.874	15455.92
528.241	15646.42
528.607	15675.12
528.973	15882.12
529.339	15775.23
529.705	16056.81
530.071	16176.81
530.437	16250.7
530.803	16411.38
531.169	16429.46
531.535	16502.45
531.901	16601.65
532.267	16542.9
532.632	16724.59
532.998	16766.4
533.364	16918.93
533.73	16935.43
534.095	17075.54
534.461	17141.98
534.826	17344.46
535.192	17250.68
535.557	17402.54
535.923	17441.86
536.288	17481.63
536.653	17591.23
537.019	17625.13
537.384	17720.04
537.749	17756.43
538.114	17950.09
538.479	17914.39
538.845	18047.49
539.21	17992.58
539.575	18071.22
539.94	18159.8
540.305	18326.13
540.67	18282.97
541.034	18483.19
541.399	18515.05
541.764	18428.95
542.129	18640.24
542.494	18634.59
542.858	18735.16
543.223	18759.79
543.587	18972.66
543.952	18872.78
544.316	18988.71
544.681	19076.62
545.045	19185.99
545.41	19185.09
545.774	19271.87
546.138	19216.05
546.503	19400.9
546.867	19404.07
547.231	19620.11
547.595	19634.12
547.959	19612.65
548.324	19712.31
548.688	19815.13
549.052	19788.46
549.416	19837.05
549.779	19972.19
550.143	20080.88
550.507	20115.23
550.871	20267.09
551.235	20259.41
551.599	20320.65
551.962	20512.51
552.326	20503.47
552.689	20620.31
553.053	20543.47
553.417	20640.87
553.78	21036.11
554.143	20854.2
554.507	20893.52
554.87	21001.99
555.234	21274.3
555.597	21163.12
555.96	21269.1
556.323	21281.53
556.686	21469.32
557.05	21494.86
557.413	21614.63
557.776	21666.83
558.139	21766.49
558.502	21840.39
558.865	21965.13
559.228	22100.04
559.59	22113.83
559.953	22223.43
560.316	22460.71
560.679	22475.62
561.041	22518.79
561.404	22586.36
561.767	22871.55
562.129	22773.69
562.492	22965.55
562.854	23060.69
563.217	23053.01
563.579	23141.14
563.941	23384.98
564.304	23486.22
564.666	23575.93
565.028	23540.23
565.39	23657.97
565.753	23957.17
566.115	23963.49
566.477	24058.18
566.839	24035.36
567.201	24189.93
567.563	24281.23
567.925	24396.7
568.287	24492.29
568.648	24565.74
569.01	24820.19
569.372	24987.2
569.734	24869.69
570.095	24957.37
570.457	25173.41
570.819	25096.8
571.18	25131.37
571.542	25299.28
571.903	25293.4
572.265	25352.61
572.626	25365.04
572.987	25572.27
573.349	25572.04
573.71	25715.99
574.071	25764.8
574.432	25869.21
574.794	26065.13
575.155	25997.79
575.516	26050.9
575.877	26111.01
576.238	26177.67
576.599	26281.4
576.96	26373.37
577.32	26296.99
577.681	26479.36
578.042	26490.66
578.403	26402.3
578.763	26383.54
579.124	26592.13
579.485	26606.81
579.845	26640.94
580.206	26633.93
580.566	26647.04
580.927	26743.99
581.287	26727.04
581.648	26748.73
582.008	26840.25
582.368	26876.64
582.728	26959.35
583.089	26898.33
583.449	26932
583.809	26964.32
584.169	26953.7
584.529	26859.24
584.889	26965.68
585.249	26921.16
585.609	26858.33
585.969	27082.28
586.329	26822.18
586.688	27007.48
587.048	26990.08
587.408	26941.27
587.768	26947.14
588.127	27037.54
588.487	26808.62
588.846	27162.51
589.206	26921.61
589.565	26866.47
589.925	27106.01
590.284	27143.52
590.643	27035.05
591.003	27147.37
591.362	27174.03
591.721	27045.45
592.08	27017.65
592.44	27134.94
592.799	27167.93
593.158	27129.06
593.517	27166.12
593.876	27156.63
594.235	27103.3
594.593	27072.56
594.952	27202.73
595.311	27216.06
595.67	27217.42
596.029	27379.9
596.387	27372.9
596.746	27453.35
597.104	27208.38
597.463	27303.07
597.822	27399.79
598.18	27246.12
598.538	27247.48
598.897	27404.08
599.255	27266.68
599.613	27568.82
599.972	27411.54
600.33	27585.77
600.688	27400.24
601.046	27396.85
601.404	27559.78
601.762	27587.35
602.12	27635.71
602.478	27626.67
602.836	27688.59
603.194	27674.81
603.552	27627.8
603.91	27464.87
604.268	27745.99
604.625	27655.6
604.983	27709.61
605.341	27670.29
605.698	27888.14
606.056	27795.03
606.413	27895.59
606.771	27917.51
607.128	27969.94
607.485	27699.44
607.843	27878.19
608.2	28000
608.557	28001.81
608.914	27993.44
609.272	28128.13
609.629	28167.23
609.986	28300.33
610.343	28199.77
610.7	28334.45
611.057	28318.41
611.414	28307.11
611.771	28404.06
612.127	28465.3
612.484	28430.5
612.841	28585.07
613.198	28396.6
613.554	28535.35
613.911	28644.05
614.267	28550.72
614.624	28387.33
614.98	28512.08
615.337	28643.15
615.693	28505.75
616.05	28584.62
616.406	28809.92
616.762	28583.49
617.118	28622.13
617.475	28680.66
617.831	28703.26
618.187	28588.23
618.543	28713.2
618.899	28861.9
619.255	28817.83
619.611	28799.07
619.967	28907.54
620.323	29016.92
620.678	28911.39
621.034	28851.95
621.39	28834.78
621.746	28843.59
622.101	29260.53
622.457	28944.38
622.812	28930.14
623.168	28978.28
623.523	28976.24
623.879	29108.44
624.234	28921.1
624.589	28955.91
624.945	29042.23
625.3	28967.2
625.655	28795.01
626.01	28841.56
626.365	28964.94
626.72	28832.07
627.075	28788.68
627.43	28840.2
627.785	28824.84
628.14	28825.97
628.495	28854.89
628.85	28814.44
629.205	28768.34
629.559	28865.51
629.914	28762.46
630.269	28889.69
630.623	28592.3
630.978	28673.2
631.332	28697.16
631.687	28770.37
632.041	28572.41
632.396	28616.03
632.75	28427.78
633.104	28512.08
633.459	28263.49
633.813	28319.54
634.167	28379.65
634.521	28354.79
634.875	28541
635.229	28305.53
635.583	28258.07
635.937	28178.3
636.291	28197.28
636.645	28234.12
636.999	28099.66
637.352	28190.05
637.706	28081.8
638.06	28248.35
638.413	28087.45
638.767	28081.13
639.121	28095.36
639.474	27896.5
639.828	27892.88
640.181	27848.36
640.534	27903.28
640.888	27760.68
641.241	27678.2
641.594	27542.38
641.947	27815.6
642.301	27602.27
642.654	27592.33
643.007	27569.73
643.36	27599.1
643.713	27602.04
644.066	27658.99
644.419	27463.06
644.771	27166.12
645.124	27055.84
645.477	27082.51
645.83	26771.56
646.182	26692.46
646.535	26663.76
646.888	26768.62
647.24	26458.57
647.593	26479.81
647.945	26430.55
648.298	26426.71
648.65	26215.86
649.002	26293.15
649.355	26341.51
649.707	26349.65
650.059	26429.42
650.411	26743.76
650.763	26674.38
651.115	27055.84
651.467	26952.57
651.819	26908.28
652.171	26784.21
652.523	26807.94
652.875	26830.09
653.227	26602.97
653.578	27002.06
653.93	26837.54
654.282	26690.88
654.633	26528.62
654.985	26525.01
655.337	26666.7
655.688	26673.93
656.039	26637.1
656.391	26460.6
656.742	26480.04
657.094	26575.63
657.445	26416.76
657.796	26506.93
658.147	26446.59
658.498	26383.54
658.849	26471
659.2	26462.86
659.551	26324.79
659.902	26397.78
660.253	26367.95
660.604	26430.77
660.955	26217.45
661.306	26326.14
661.656	26236.2
662.007	26385.8
662.358	26252.93
662.708	26366.82
663.059	26303.55
663.409	26026.04
663.76	26232.81
664.11	26214.73
664.461	26254.06
664.811	26144.68
665.161	26337.22
665.511	26142.19
665.862	26181.97
666.212	26233.04
666.562	26266.03
666.912	26136.09
667.262	26035.3
667.612	26019.03
667.962	26032.14
668.312	25883.22
668.662	26011.35
669.011	26025.59
669.361	26034.63
669.711	25961.86
670.06	25950.33
670.41	25844.57
670.76	25926.83
671.109	26020.39
671.459	25941.07
671.808	25849.32
672.157	25971.35
672.507	25772.71
672.856	25819.26
673.205	25810
673.554	25854.29
673.904	25821.3
674.253	25899.71
674.602	25690.23
674.951	25381.99
675.3	25257.7
675.649	25654.3
675.998	25680.74
676.346	25616.78
676.695	25703.34
677.044	25483.45
677.393	25648.2
677.741	25631.92
678.09	25559.16
678.438	25370.24
678.787	25522.32
679.135	25458.37
679.484	25347.64
679.832	25393.74
680.181	25252.73
680.529	25305.61
680.877	25264.7
681.225	25249.11
681.573	25227.87
681.922	25042.11
682.27	25069.91
682.618	25129.11
682.966	24914.66
683.314	24954.88
683.661	24815.45
684.009	24694.1
684.357	24758.28
684.705	24742.46
685.053	24647.54
685.4	24689.35
685.748	24512.41
686.095	24604.83
686.443	24517.38
686.79	24383.37
687.138	24473.31
687.485	24389.92
687.832	24293.88
688.18	24365.29
688.527	24069.48
688.874	24176.82
689.221	24167.78
689.568	24049.59
689.915	23890.05
690.262	23964.62
690.609	23979.31
690.956	23834.01
691.303	23774.57
691.65	23693.22
691.997	23787.23
692.344	23422.72
692.69	23431.08
693.037	23479.21
693.383	23297.3
693.73	23393.79
694.077	23257.3
694.423	23245.55
694.769	23159.9
695.116	23157.64
695.462	23143.18
695.808	22980.02
696.155	23053.24
696.501	22904.09
696.847	22900.47
697.193	22651.89
697.539	22790.87
697.885	22559.92
698.231	22452.35
698.577	22596.3
698.923	22539.12
699.269	22379.81
699.614	22226.82
699.96	22262.07
700.306	22157.89
700.651	22121.51
700.997	22065.01
701.342	22004.9
701.688	21970.33
702.033	21968.29
702.379	21883.32
702.724	21853.95
703.069	21929.42
703.415	21644.46
703.76	21814.85
704.105	21655.76
704.45	21640.84
704.795	21585.7
705.14	21444.01
705.485	21475.65
705.83	21246.05
706.175	21464.35
706.52	21280.17
706.865	21217.13
707.209	21256.45
707.554	21069.56
707.899	21157.24
708.243	20975.55
708.588	20993.18
708.932	20774.65
709.277	20730.36
709.621	20749.12
709.966	20707.53
710.31	20649.01
710.654	20539.86
710.998	20515.22
711.342	20608.78
711.687	20490.82
712.031	20389.35
712.375	20369.01
712.719	20346.19
713.063	20305.06
713.407	20432.51
713.75	20383.48
714.094	20255.8
714.438	20166.08
714.782	20270.48
715.125	20167.89
715.469	20084.5
715.812	20048.34
716.156	19915.69
716.499	20053.31
716.843	20024.39
717.186	19863.26
717.53	19825.07
717.873	19858.74
718.216	19845.18
718.559	19747.33
718.902	19574.91
719.246	19582.37
719.589	19594.12
719.932	19455.82
720.275	19364.29
720.617	19382.6
720.96	19382.6
721.303	19397.06
721.646	19386.44
721.989	19261.47
722.331	19322.71
722.674	19173.34
723.016	19231.19
723.359	19181.93
723.701	19268.48
724.044	19167.69
724.386	19023.51
724.729	18990.97
725.071	18934.02
725.413	18854.25
725.755	18982.83
726.097	18924.98
726.439	18736.06
726.782	18889.05
727.124	18848.15
727.465	18846.57
727.807	18805.89
728.149	18724.76
728.491	18711.65
728.833	18686.12
729.175	18623.75
729.516	18532.68
729.858	18533.35
730.199	18416.75
730.541	18471.21
730.882	18390.53
731.224	18488.61
731.565	18271.67
731.906	18318.22
732.248	18416.97
732.589	18238
732.93	18163.65
733.271	18217.2
733.612	18257.43
733.953	18177.21
734.294	18119.35
734.635	18045.91
734.976	18053.37
735.317	17907.16
735.658	17890.43
735.999	18010.88
736.339	17899.92
736.68	17942.18
737.021	17906.25
737.361	17729.53
737.702	17914.84
738.042	17903.09
738.383	17776.09
738.723	17820.38
739.063	17697.67
739.404	17765.24
739.744	17743.32
740.084	17701.74
740.424	17712.36
740.764	17704.22
741.104	17739.93
741.444	17550.56
741.784	17501.07
742.124	17628.29
742.464	17433.95
742.804	17416.1
743.143	17327.28
743.483	17516.21
743.823	17326.83
744.162	17368.19
744.502	17329.32
744.841	17332.71
745.181	17344.23
745.52	17286.16
745.86	17182.2
746.199	17202.09
746.538	17094.3
746.877	17206.16
747.216	17163
747.556	17028.99
747.895	17031.25
748.234	16927.97
748.573	16907.63
748.911	16933.62
749.25	16903.11
749.589	16879.39
749.928	16842.33
750.267	16912.38
750.605	16790.35
750.944	16794.87
751.283	16678.04
751.621	16773.4
751.96	16656.34
752.298	16653.86
752.636	16579.73
752.975	16552.84
753.313	16594.2
753.651	16636
753.989	16438.95
754.327	16418.38
754.666	16443.47
755.004	16459.74
755.342	16254.32
755.679	16225.39
756.017	16254.54
756.355	16271.95
756.693	16055
757.031	16208.44
757.368	15978.17
757.706	16036.7
758.044	15959.18
758.381	15980.88
758.719	15929.13
759.056	15861.33
759.394	15876.25
759.731	15711.73
760.068	15668.35
760.405	15659.98
760.743	15586.31
761.08	15591.96
761.417	15619.76
761.754	15479.2
762.091	15505.41
762.428	15342.25
762.765	15287.56
763.102	15376.38
763.438	15312.87
763.775	15256.83
764.112	15197.17
764.449	15147.91
764.785	15089.6
765.122	15013.9
765.458	14921.7
765.795	14858.65
766.131	14928.7
766.467	14796.96
766.804	14867.46
767.14	14662.95
767.476	14763.28
767.812	14647.81
768.148	14629.73
768.485	14556.74
768.821	14454.14
769.157	14417.98
769.492	14364.42
769.828	14351.54
770.164	14261.15
770.5	14164.66
770.836	14278.33
771.171	14088.5
771.507	14137.99
771.842	14035.17
772.178	13946.13
772.513	14037.2
772.849	13893.02
773.184	13860.71
773.519	13919.69
773.855	13773.48
774.19	13737.55
774.525	13695.74
774.86	13652.58
775.195	13579.59
775.53	13543.2
775.865	13542.53
776.2	13459.14
776.535	13291.01
776.87	13330.33
777.205	13229.77
777.539	13196.32
777.874	13193.16
778.209	13108.64
778.543	13075.19
778.878	12996.55
779.212	12940.96
779.547	12914.29
779.881	12959.94
780.215	12900.06
780.55	12905.71
780.884	12844.69
781.218	12822.77
781.552	12796.56
781.886	12610.8
782.22	12585.94
782.554	12589.56
782.888	12473.85
783.222	12511.82
783.556	12396.57
783.889	12318.15
784.223	12262.33
784.557	12262.78
784.89	12336.91
785.224	12220.75
785.557	12038.38
785.891	12144.14
786.224	12095.33
786.558	12034.77
786.891	11952.06
787.224	11940.76
787.557	11841.55
787.891	11896.92
788.224	11803.81
788.557	11833.64
788.89	11757.04
789.223	11789.13
789.556	11593.65
789.888	11679.07
790.221	11626.64
790.554	11545.29
790.887	11541.22
791.219	11507.1
791.552	11455.8
791.884	11299.42
792.217	11352.07
792.549	11261.46
792.882	11180.33
793.214	11175.36
793.546	11183.49
793.879	11085.64
794.211	11090.61
794.543	11071.63
794.875	11011.29
795.207	11096.94
795.539	11011.07
795.871	10999.54
796.203	10893.78
796.535	10904.63
796.867	10759.32
797.198	10769.49
797.53	10784.41
797.862	10697.85
798.193	10751.64
798.525	10653.79
798.856	10679.78
799.188	10570.85
799.519	10533.34
799.85	10498.54
800.182	10459.89
800.513	10458.76
800.844	10404.3
801.175	10424.64
801.506	10415.15
801.837	10337.86
802.168	10278.66
802.499	10349.84
802.83	10246.34
803.161	10206.57
803.491	10179.68
803.822	10201.82
804.153	10139
804.483	10054.71
804.814	10060.58
805.145	9997.31
805.475	9986.69
805.805	9945.33
806.136	9980.13
806.466	9886.12
806.796	9886.8
807.126	9783.53
807.457	9800.48
807.787	9783.98
808.117	9666.24
808.447	9712.57
808.777	9781.95
809.107	9804.32
809.436	9697.2
809.766	9687.03
810.096	9621.95
810.426	9640.93
810.755	9658.56
811.085	9653.14
811.414	9553.7
811.744	9457.43
812.073	9508.51
812.403	9533.37
812.732	9455.63
813.061	9365.91
813.39	9369.08
813.719	9324.11
814.049	9370.21
814.378	9358.23
814.707	9300.15
815.036	9260.38
815.365	9206.14
815.693	9117.1
816.022	9098.12
816.351	9159.59
816.68	9135.41
817.008	9108.74
817.337	9017.67
817.665	9016.32
817.994	9044.56
818.322	8929.77
818.651	8961.85
818.979	8873.27
819.307	8927.96
819.636	8888.18
819.964	8887.73
820.292	8882.08
820.62	8855.42
820.948	8836.66
821.276	8804.8
821.604	8856.09
821.932	8848.86
822.259	8892.25
822.587	8905.59
822.915	8828.52
823.243	8912.59
823.57	8821.75
823.898	8880.27
824.225	8845.47
824.553	8831.69
824.88	8828.3
825.207	8889.99
825.535	8810.22
825.862	8808.86
826.189	8855.64
826.516	8916.66
826.843	8881.4
827.17	8946.04
827.497	8831.91
827.824	8896.09
828.151	8820.84
828.478	8842.99
828.805	8850.45
829.131	8747.17
829.458	8773.61
829.785	8753.72
830.111	8836.66
830.438	8833.04
830.764	8858.58
831.09	8784.91
831.417	8798.47
831.743	8829.43
832.069	8834.85
832.395	8752.82
832.722	8781.29
833.048	8738.58
833.374	8763.44
833.7	8717.12
834.026	8789.88
834.351	8739.49
834.677	8726.61
835.003	8769.54
835.329	8747.62
835.654	8756.89
835.98	8720.51
836.306	8711.92
836.631	8683.67
836.956	8717.34
837.282	8744.91
837.607	8674.63
837.932	8671.24
838.258	8688.64
838.583	8657.91
838.908	8608.19
839.233	8605.48
839.558	8607.51
839.883	8596.44
840.208	8504.47
840.533	8558.02
840.858	8505.82
841.182	8500.62
841.507	8463.79
841.832	8396.45
842.156	8441.64
842.481	8412.72
842.805	8341.31
843.13	8347.41
843.454	8358.93
843.778	8339.05
844.103	8305.15
844.427	8314.64
844.751	8286.17
845.075	8268.99
845.399	8250.69
845.723	8191.71
846.047	8231.7
846.371	8164.14
846.695	8100.63
847.019	8138.83
847.343	8054.08
847.666	8074.87
847.99	7979.51
848.313	7943.35
848.637	7961.43
848.96	7912.84
849.284	7884.14
849.607	7860.41
849.931	7813.86
850.254	7727.76
850.577	7696.8
850.9	7662.45
851.223	7700.19
851.546	7676.01
851.869	7576.13
852.192	7634.43
852.515	7536.13
852.838	7527.77
853.161	7490.93
853.483	7453.87
853.806	7424.95
854.129	7456.13
854.451	7396.92
854.774	7297.72
855.096	7327.32
855.419	7322.58
855.741	7257.94
856.063	7303.82
856.385	7238.06
856.708	7226.99
857.03	7186.08
857.352	7242.13
857.674	7125.52
857.996	7140.43
858.318	7084.39
858.64	7142.24
858.961	7110.6
859.283	7024.96
859.605	7070.15
859.926	7093.88
860.248	7005.52
860.57	7000.32
860.891	6996.03
861.212	6949.25
861.534	6928.46
861.855	6953.09
862.176	6909.48
862.498	6867.67
862.819	6857.5
863.14	6878.29
863.461	6809.59
863.782	6859.09
864.103	6861.35
864.424	6806.88
864.745	6838.29
865.065	6811.85
865.386	6799.65
865.707	6782.93
866.027	6747.68
866.348	6716.72
866.668	6661.58
866.989	6693.44
867.309	6655.02
867.63	6630.39
867.95	6682.37
868.27	6596.49
868.59	6668.58
868.91	6651.41
869.23	6626.55
869.55	6562.14
869.87	6625.87
870.19	6551.97
870.51	6590.62
870.83	6596.95
871.15	6555.36
871.469	6581.35
871.789	6570.05
872.109	6535.03
872.428	6541.58
872.748	6547.23
873.067	6497.74
873.386	6524.18
873.706	6493.9
874.025	6457.06
874.344	6426.1
874.663	6444.41
874.982	6419.32
875.301	6430.17
875.62	6413.45
875.939	6381.81
876.258	6375.93
876.577	6431.07
876.896	6346.56
877.214	6325.09
877.533	6310.63
877.852	6322.83
878.17	6351.08
878.489	6301.81
878.807	6277.86
879.125	6330.06
879.444	6311.53
879.762	6224.53
880.08	6323.96
880.398	6208.71
880.716	6280.8
881.034	6222.94
881.352	6248.71
881.67	6181.59
881.988	6194.7
882.306	6155.15
882.624	6174.81
882.941	6111.31
883.259	6128.93
883.577	6138.88
883.894	6127.13
884.212	6085.32
884.529	6111.53
884.846	6135.49
885.164	6091.2
885.481	6070.41
885.798	6054.59
886.115	5996.73
886.432	6044.64
886.75	5997.86
887.067	6060.91
887.383	6041.48
887.7	6077.18
888.017	5974.59
888.334	5957.41
888.651	5943.4
888.967	5973.23
889.284	5905.66
889.6	5909.28
889.917	5827.7
890.233	5872.22
890.55	5832.22
890.866	5805.78
891.182	5797.87
891.498	5793.8
891.815	5762.62
892.131	5745.22
892.447	5727.14
892.763	5709.51
893.079	5736.63
893.395	5688.27
893.71	5627.93
894.026	5639
894.342	5653.47
894.657	5617.54
894.973	5571.66
895.289	5541.83
895.604	5563.53
895.92	5544.09
896.235	5488.27
896.55	5501.38
896.865	5447.82
897.181	5449.18
897.496	5440.82
897.811	5420.93
898.126	5457.09
898.441	5355.17
898.756	5347.71
899.071	5353.59
899.386	5411.44
899.7	5321.5
900.015	5302.74
900.33	5299.13
900.644	5284.44
900.959	5287.38
901.273	5224.1
901.588	5215.06
901.902	5189.75
902.216	5136.87
902.531	5213.93
902.845	5178.9
903.159	5151.11
903.473	5144.33
903.787	5085.8
904.101	5128.06
904.415	5089.41
904.729	5055.29
905.042	5043.54
905.356	4982.52
905.67	5003.09
905.984	4971
906.297	4947.27
906.611	4919.93
906.924	4919.7
907.237	4903.88
907.551	4881.51
907.864	4892.36
908.177	4851.23
908.491	4828.86
908.804	4806.48
909.117	4773.94
909.43	4783.21
909.743	4780.27
910.056	4765.58
910.368	4722.42
910.681	4654.62
910.994	4634.74
911.307	4635.41
911.619	4623.66
911.932	4642.42
912.244	4619.6
912.557	4609.2
912.869	4581.18
913.181	4566.49
913.494	4567.85
913.806	4554.51
914.118	4547.51
914.43	4471.58
914.742	4505.7
915.054	4469.54
915.366	4441.07
915.678	4438.58
915.99	4383.44
916.302	4387.51
916.613	4357.68
916.925	4380.96
917.236	4346.16
917.548	4290.79
917.859	4351.13
918.171	4301.41
918.482	4290.57
918.794	4264.58
919.105	4232.94
919.416	4220.28
919.727	4183.9
920.038	4163.56
920.349	4175.31
920.66	4143.45
920.971	4190
921.282	4113.62
921.593	4111.81
921.903	4088.08
922.214	4084.47
922.525	4020.74
922.835	3998.14
923.146	3998.14
923.456	3985.26
923.767	3969.22
924.077	3943.46
924.387	3932.38
924.697	3895.77
925.008	3936
925.318	3840.86
925.628	3889.67
925.938	3870.69
926.248	3873.85
926.558	3811.03
926.867	3821.88
927.177	3821.42
927.487	3777.13
927.796	3751.37
928.106	3736.46
928.416	3739.85
928.725	3736.46
929.034	3681.77
929.344	3705.27
929.653	3714.99
929.962	3724.48
930.271	3649.68
930.581	3658.94
930.89	3628.66
931.199	3570.36
931.508	3566.52
931.817	3616.68
932.125	3589.11
932.434	3607.19
932.743	3521.77
933.051	3495.33
933.36	3499.4
933.669	3513.41
933.977	3453.75
934.286	3433.86
934.594	3441.1
934.902	3449.68
935.21	3414.66
935.519	3405.39
935.827	3408.55
936.135	3416.46
936.443	3379.4
936.751	3359.97
937.059	3358.84
937.367	3300.08
937.674	3346.18
937.982	3321.55
938.29	3328.78
938.597	3307.54
938.905	3234.32
939.213	3249.46
939.52	3203.81
939.827	3260.99
940.135	3172.85
940.442	3208.56
940.749	3221.89
941.056	3154.55
941.363	3153.65
941.67	3142.35
941.977	3146.64
942.284	3134.66
942.591	3103.93
942.898	3110.71
943.205	3125.85
943.511	3101.9
943.818	3109.13
944.125	3081.11
944.431	3055.8
944.738	3033.2
945.044	3034.55
945.35	2970.37
945.657	2956.14
945.963	2983.48
946.269	2993.42
946.575	2928.12
946.881	2972.18
947.187	2951.39
947.493	2888.12
947.799	2911.17
948.105	2914.33
948.41	2863.03
948.716	2855.57
949.022	2893.31
949.327	2856.7
949.633	2809.93
949.938	2836.59
950.244	2804.05
950.549	2813.09
950.854	2798.4
951.16	2819.19
951.465	2775.8
951.77	2758.18
952.075	2688.57
952.38	2712.3
952.685	2727.89
952.99	2670.49
953.294	2711.17
953.599	2711.17
953.904	2640.21
954.209	2669.82
954.513	2656.48
954.818	2646.09
955.122	2639.54
955.426	2630.27
955.731	2592.53
956.035	2594.11
956.339	2569.25
956.643	2579.88
956.948	2576.71
957.252	2599.08
957.556	2535.58
957.86	2528.35
958.163	2562.25
958.467	2528.58
958.771	2524.96
959.075	2539.2
959.378	2495.58
959.682	2472.53
959.985	2464.62
960.289	2461.23
960.592	2432.31
960.896	2433.44
961.199	2450.84
961.502	2408.81
961.805	2421.46
962.108	2396.15
962.411	2374.68
962.714	2349.83
963.017	2366.77
963.32	2349.15
963.623	2361.58
963.926	2376.72
964.228	2369.03
964.531	2336.04
964.833	2291.07
965.136	2315.48
965.438	2293.78
965.741	2297.62
966.043	2275.48
966.345	2260.11
966.648	2244.74
966.95	2250.17
967.252	2224.86
967.554	2232.54
967.856	2210.85
968.158	2227.57
968.46	2189.83
968.761	2196.83
969.063	2198.87
969.365	2171.3
969.666	2203.61
969.968	2156.84
970.269	2151.19
970.571	2163.84
970.872	2145.76
971.174	2138.76
971.475	2103.96
971.776	2114.35
972.077	2080.91
972.378	2090.4
972.679	2115.26
972.98	2065.54
973.281	2064.86
973.582	2048.59
973.883	2022.38
974.183	2045.43
974.484	2034.58
974.785	2046.33
975.085	2011.3
975.386	2016.5
975.686	1999.55
975.986	2001.59
976.287	1978.99
976.587	1980.8
976.887	1948.93
977.187	1955.03
977.487	1963.39
977.787	1941.7
978.087	1927.69
978.387	1930.85
978.687	1909.38
978.987	1901.7
979.286	1912.1
979.586	1892.66
979.885	1907.35
980.185	1897.41
980.484	1854.02
980.784	1866.45
981.083	1877.75
981.382	1867.35
981.682	1867.13
981.981	1808.6
982.28	1785.32
982.579	1788.48
982.878	1820.35
983.177	1823.74
983.475	1807.01
983.774	1787.35
984.073	1786.22
984.372	1745.32
984.67	1760.01
984.969	1738.09
985.267	1780.8
985.566	1786.22
985.864	1748.26
986.162	1734.02
986.461	1722.5
986.759	1719.33
987.057	1679.56
987.355	1699.45
987.653	1722.5
987.951	1709.39
988.249	1688.6
988.547	1667.58
988.844	1665.1
989.142	1666.68
989.44	1668.04
989.737	1626.91
990.035	1629.62
990.332	1631.43
990.63	1648.6
990.927	1633.91
991.224	1614.03
991.521	1599.11
991.819	1600.92
992.116	1589.85
992.413	1592.78
992.71	1557.98
993.006	1576.29
993.303	1569.51
993.6	1531.32
993.897	1569.96
994.193	1547.81
994.49	1570.41
994.787	1531.09
995.083	1516.85
995.379	1542.84
995.676	1522.28
995.972	1519.79
996.268	1492.9
996.565	1509.4
996.861	1460.58
997.157	1468.27
997.453	1463.07
997.749	1481.6
998.044	1477.98
998.34	1452
998.636	1450.41
998.932	1450.64
999.227	1412.67
999.523	1430.75
999.818	1413.8
1000.114	1395.5
1000.409	1400.47
1000.704	1416.29
1001	1398.44
1001.295	1401.38
1001.59	1367.25
1001.885	1387.36
1002.18	1373.58
1002.475	1346.46
1002.77	1374.94
1003.065	1332.9
1003.359	1351.66
1003.654	1355.05
1003.949	1329.29
1004.243	1298.55
1004.538	1313.47
1004.832	1307.59
1005.127	1294.71
1005.421	1304.88
1005.715	1285.67
1006.009	1275.5
1006.304	1276.41
1006.598	1267.14
1006.892	1272.57
1007.186	1270.08
1007.48	1277.76
1007.773	1241.38
1008.067	1224.88
1008.361	1228.05
1008.655	1197.77
1008.948	1216.52
1009.242	1229.85
1009.535	1207.03
1009.829	1205
1010.122	1187.14
1010.415	1207.48
1010.708	1191.44
1011.001	1163.64
1011.295	1192.57
1011.588	1150.76
1011.881	1158.67
1012.173	1151.66
1012.466	1154.38
1012.759	1135.17
1013.052	1143.76
1013.344	1131.78
1013.637	1125.68
1013.93	1124.55
1014.222	1128.39
1014.514	1106.69
1014.807	1130.65
1015.099	1087.94
1015.391	1074.83
1015.683	1085.9
1015.976	1068.5
1016.268	1071.67
1016.56	1073.02
1016.851	1056.53
1017.143	1061.05
1017.435	1057.88
1017.727	1017.2
1018.018	1032.12
1018.31	1023.53
1018.602	1052.23
1018.893	1019.01
1019.185	1016.75
1019.476	1021.5
1019.767	996.87
1020.058	1010.43
1020.35	996.64
1020.641	997.54
1020.932	1005
1021.223	980.82
1021.514	961.84
1021.804	955.06
1022.095	979.24
1022.386	950.31
1022.677	931.33
1022.967	955.96
1023.258	949.18
1023.548	950.09
1023.839	906.7
1024.129	937.66
1024.419	927.26
1024.709	913.25
1025	928.39
1025.29	906.02
1025.58	897.43
1025.87	885.68
1026.16	869.86
1026.449	892.46
1026.739	866.25
1027.029	906.7
1027.319	851.79
1027.608	859.92
1027.898	873.48
1028.187	887.26
1028.477	866.47
1028.766	861.05
1029.055	825.35
1029.344	846.14
1029.634	808.62
1029.923	852.01
1030.212	852.24
1030.501	805.46
1030.79	833.93
1031.078	800.49
1031.367	786.48
1031.656	800.71
1031.945	796.65
1032.233	781.96
1032.522	786.7
1032.81	793.03
1033.099	782.18
1033.387	775.63
1033.675	775.86
1033.963	777.66
1034.251	769.3
1034.54	749.87
1034.828	740.38
1035.116	758
1035.403	749.64
1035.691	724.33
1035.979	763.65
1036.267	725.24
1036.554	739.02
1036.842	727.95
1037.129	714.39
1037.417	700.6
1037.704	736.53
1037.992	725.91
1038.279	708.29
1038.566	726.59
1038.853	726.59
1039.14	726.59
