Data from foam_black_FLMS001491_00041.txt Node
Date: Wed Feb 08 10:43:56 GMT 2017
User: dcchb
Spectrometer: FLMS00149
Trigger mode: 0
Integration Time (sec): 2.000000E-2
Scans to average: 10
Electric dark correction enabled: true
Nonlinearity correction enabled: false
Boxcar width: 0
XAxis mode: Wavelengths
Number of Pixels in Spectrum: 2048
>>>>>Begin Spectral Data<<<<<
341.393	-17.78
341.776	-17.78
342.16	-17.78
342.543	-52.36
342.927	-45.8
343.31	-57.1
343.693	-81.51
344.077	-44.9
344.46	-38.8
344.843	-60.94
345.226	-33.6
345.61	-28.86
345.993	-29.76
346.376	7.08
346.759	0.3
347.142	32.16
347.525	33.52
347.908	41.43
348.291	66.96
348.674	84.14
349.057	109.9
349.44	125.94
349.823	157.58
350.206	170.24
350.588	205.49
350.971	212.95
351.354	224.47
351.737	217.01
352.119	235.09
352.502	239.39
352.884	246.39
353.267	266.28
353.65	277.8
354.032	292.72
354.414	284.58
354.797	308.54
355.179	296.56
355.562	318.48
355.944	321.42
356.326	334.3
356.709	331.59
357.091	332.04
357.473	344.92
357.855	324.13
358.238	351.7
358.62	335.88
359.002	318.93
359.384	302.44
359.766	314.41
360.148	343.56
360.53	324.36
360.912	340.63
361.294	334.3
361.676	336.11
362.057	311.25
362.439	308.76
362.821	338.59
363.203	318.03
363.584	335.43
363.966	316.67
364.348	336.33
364.729	329.55
365.111	310.8
365.493	338.14
365.874	301.53
366.256	322.32
366.637	316.9
367.019	339.27
367.4	303.79
367.781	304.92
368.163	319.16
368.544	324.58
368.925	313.73
369.306	322.1
369.688	305.6
370.069	312.15
370.45	304.47
370.831	308.31
371.212	309.22
371.593	309.44
371.974	324.36
372.355	330.91
372.736	339.04
373.117	313.96
373.498	327.52
373.879	314.86
374.26	318.93
374.641	316.9
375.021	304.47
375.402	312.38
375.783	304.02
376.163	321.42
376.544	327.29
376.925	307.18
377.305	329.55
377.686	335.88
378.066	334.3
378.447	342.21
378.827	336.11
379.208	347.86
379.588	355.32
379.968	356.9
380.349	351.25
380.729	335.2
381.109	355.77
381.489	341.08
381.87	356.22
382.25	346.28
382.63	381.76
383.01	342.66
383.39	355.54
383.77	363.45
384.15	349.89
384.53	364.35
384.91	349.67
385.29	357.8
385.67	372.72
386.049	392.6
386.429	375.43
386.809	361.42
387.189	379.72
387.568	376.78
387.948	360.06
388.328	370.46
388.707	369.78
389.087	369.33
389.466	381.08
389.846	386.05
390.225	372.04
390.605	373.62
390.984	390.79
391.363	386.28
391.743	384.24
392.122	379.27
392.501	422.43
392.881	411.36
393.26	393.73
393.639	404.13
394.018	415.43
394.397	395.77
394.776	438.7
395.155	420.17
395.534	403.68
395.913	407.97
396.292	434.18
396.671	406.84
397.05	415.88
397.429	431.7
397.808	425.82
398.186	417.91
398.565	429.66
398.944	439.83
399.323	438.03
399.701	428.08
400.08	438.93
400.458	437.57
400.837	449.55
401.215	442.77
401.594	441.41
401.972	455.2
402.351	455.43
402.729	463.34
403.107	448.87
403.486	451.58
403.864	453.84
404.242	458.14
404.62	487.97
404.999	459.49
405.377	466.95
405.755	462.43
406.133	477.12
406.511	489.1
406.889	476.44
407.267	488.42
407.645	492.26
408.023	501.75
408.401	485.71
408.779	506.5
409.156	503.56
409.534	499.94
409.912	499.94
410.29	520.73
410.667	501.98
411.045	537.91
411.422	509.66
411.8	537.01
412.178	534.07
412.555	526.61
412.933	557.34
413.31	553.73
413.687	525.25
414.065	555.08
414.442	565.71
414.819	583.33
415.197	568.42
415.574	577.91
415.951	583.33
416.328	583.78
416.705	592.82
417.082	578.13
417.46	581.98
417.837	587.17
418.214	601.18
418.591	600.51
418.967	620.62
419.344	610.45
419.721	610.22
420.098	621.52
420.475	602.54
420.852	623.78
421.228	617.23
421.605	627.4
421.982	638.92
422.358	646.16
422.735	632.82
423.111	639.6
423.488	671.24
423.864	651.13
424.241	661.52
424.617	663.33
424.994	679.15
425.37	701.52
425.746	673.27
426.123	701.07
426.499	706.72
426.875	687.28
427.251	704.91
427.627	711.92
428.003	716.89
428.379	722.54
428.756	713.27
429.132	753.27
429.507	741.29
429.883	716.66
430.259	749.88
430.635	766.83
431.011	744.68
431.387	761.18
431.763	796.89
432.138	804.12
432.514	785.13
432.89	795.53
433.265	814.29
433.641	798.24
434.016	853.16
434.392	811.35
434.767	832.59
435.143	847.73
435.518	851.57
435.894	845.7
436.269	884.12
436.644	876.66
437.02	878.01
437.395	874.17
437.77	894.51
438.145	908.52
438.52	887.73
438.895	906.26
439.271	945.81
439.646	933.61
440.021	930.67
440.395	951.46
440.77	910.56
441.145	947.62
441.52	956.43
441.895	952.59
442.27	938.8
442.645	974.06
443.019	980.61
443.394	972.02
443.769	958.92
444.143	965.24
444.518	990.78
444.892	990.33
445.267	993.04
445.641	996.88
446.016	1017.9
446.39	1018.8
446.764	1020.38
447.139	1020.83
447.513	1039.14
447.887	1034.17
448.262	1048.86
448.636	1062.19
449.01	1067.39
449.384	1083.43
449.758	1066.94
450.132	1082.3
450.506	1078.01
450.88	1075.52
451.254	1095.41
451.628	1112.81
452.002	1116.43
452.376	1138.8
452.75	1159.81
453.123	1148.51
453.497	1124.56
453.871	1181.96
454.244	1184.45
454.618	1204.33
454.992	1195.75
455.365	1192.81
455.739	1223.77
456.112	1235.74
456.486	1232.35
456.859	1250.89
457.232	1276.87
457.606	1280.49
457.979	1284.56
458.352	1308.28
458.725	1339.02
459.099	1317.32
459.472	1363.42
459.845	1377.89
460.218	1349.19
460.591	1383.31
460.964	1368.4
461.337	1399.13
461.71	1422.41
462.083	1417.66
462.456	1480.71
462.829	1472.57
463.201	1486.13
463.574	1473.93
463.947	1494.95
464.32	1527.71
464.692	1539.47
465.065	1524.78
465.438	1570.42
465.81	1552.57
466.183	1603.19
466.555	1625.79
466.928	1637.99
467.3	1644.77
467.672	1663.08
468.045	1686.58
468.417	1673.7
468.789	1682.96
469.161	1690.2
469.534	1777.2
469.906	1730.65
470.278	1791.44
470.65	1820.59
471.022	1824.88
471.394	1870.3
471.766	1888.61
472.138	1900.13
472.51	1939.68
472.882	1960.92
473.253	1983.97
473.625	2015.84
473.997	2025.1
474.369	2053.8
474.74	2061.03
475.112	2081.6
475.484	2110.52
475.855	2188.04
476.227	2173.57
476.598	2227.58
476.97	2245.21
477.341	2310.74
477.713	2337.86
478.084	2320.46
478.455	2381.25
478.827	2412.89
479.198	2452.44
479.569	2452.89
479.94	2552.32
480.311	2537.86
480.682	2577.63
481.053	2682.26
481.424	2721.81
481.795	2744.41
482.166	2783.05
482.537	2815.82
482.908	2837.74
483.279	2884.74
483.65	2922.48
484.021	2982.37
484.391	2966.77
484.762	3018.52
485.133	3073.89
485.503	3110.05
485.874	3110.27
486.244	3177.84
486.615	3233.66
486.985	3254.45
487.356	3300.1
487.726	3326.54
488.097	3392.98
488.467	3410.83
488.837	3467.78
489.207	3488.79
489.578	3498.96
489.948	3579.86
490.318	3610.6
490.688	3650.37
491.058	3633.87
491.428	3709.13
491.798	3776.92
492.168	3818.05
492.538	3852.17
492.908	3899.63
493.278	3944.83
493.648	3971.72
494.017	4016.91
494.387	4067.99
494.757	4082.22
495.126	4143.46
495.496	4122.9
495.866	4136.46
496.235	4194.76
496.605	4227.08
496.974	4227.76
497.344	4284.48
497.713	4311.6
498.082	4398.37
498.452	4396.34
498.821	4383.91
499.19	4441.54
499.559	4496.45
499.928	4563.34
500.298	4531.93
500.667	4595.2
501.036	4548.65
501.405	4614.19
501.774	4635.43
502.143	4674.3
502.512	4706.39
502.88	4786.84
503.249	4753.17
503.618	4819.38
503.987	4827.29
504.356	4818.93
504.724	4827.06
505.093	4913.61
505.462	4929.66
505.83	4890.11
506.199	4984.35
506.567	5064.8
506.936	5016.21
507.304	5091.91
507.672	5053.05
508.041	5131.91
508.409	5157.68
508.777	5185.92
509.145	5281.29
509.514	5223.66
509.882	5295.98
510.25	5277.45
510.618	5368.29
510.986	5371.45
511.354	5444.45
511.722	5485.35
512.09	5548.4
512.458	5574.16
512.826	5643.54
513.193	5657.1
513.561	5690.54
513.929	5711.56
514.297	5771.67
514.664	5824.32
515.032	5863.19
515.4	5939.12
515.767	5916.53
516.135	5977.09
516.502	5970.54
516.869	5991.55
517.237	6071.32
517.604	6099.57
517.972	6160.81
518.339	6220.92
518.706	6220.25
519.073	6247.36
519.44	6270.64
519.808	6322.84
520.175	6319
520.542	6435.38
520.909	6502.27
521.276	6495.72
521.643	6546.79
522.009	6619.11
522.376	6662.49
522.743	6699.33
523.11	6801.7
523.477	6797.18
523.843	6814.13
524.21	6928.93
524.577	6958.53
524.943	7033.33
525.31	7112.65
525.676	7083.27
526.043	7132.99
526.409	7222.25
526.776	7343.38
527.142	7314.68
527.508	7406.2
527.874	7407.56
528.241	7507.67
528.607	7476.03
528.973	7563.94
529.339	7655.24
529.705	7675.35
530.071	7742.24
530.437	7670.15
530.803	7738.17
531.169	7837.38
531.535	7855.01
531.901	7869.47
532.267	7901.33
532.632	7937.72
532.998	7947.21
533.364	8090.25
533.73	8049.35
534.095	8202.79
534.461	8122.79
534.826	8159.86
535.192	8182.23
535.557	8264.94
535.923	8261.77
536.288	8335.44
536.653	8353.75
537.019	8364.82
537.384	8398.95
537.749	8488.21
538.114	8525.95
538.479	8603.46
538.845	8693.4
539.21	8623.57
539.575	8669
539.94	8754.64
540.305	8744.7
540.67	8755.77
541.034	8801.42
541.399	8871.48
541.764	8877.8
542.129	8944.47
542.494	9001.64
542.858	9039.38
543.223	8987.4
543.587	9095.42
543.952	9057.91
544.316	9120.06
544.681	9129.32
545.045	9206.83
545.41	9239.6
545.774	9367.96
546.138	9276.66
546.503	9287.06
546.867	9322.99
547.231	9417.45
547.595	9419.71
547.959	9464.68
548.324	9430.56
548.688	9465.36
549.052	9567.28
549.416	9573.15
549.779	9597.33
550.143	9623.32
550.507	9650.21
550.871	9669.87
551.235	9698.12
551.599	9770.66
551.962	9826.93
552.326	9844.78
552.689	9978.79
553.053	9901.73
553.417	9958.23
553.78	10068.28
554.143	10108.28
554.507	10131.56
554.87	10184.21
555.234	10171.55
555.597	10273.25
555.96	10294.04
556.323	10376.52
556.686	10362.96
557.05	10432.11
557.413	10443.64
557.776	10563.18
558.139	10610.19
558.502	10555.27
558.865	10646.12
559.228	10777.64
559.59	10820.13
559.953	10796.17
560.316	10829.62
560.679	10923.17
561.041	10935.83
561.404	11009.27
561.767	11023.28
562.129	10956.39
562.492	11212.43
562.854	11220.57
563.217	11242.94
563.579	11254.92
563.941	11379.88
564.304	11481.35
564.666	11491.29
565.028	11583.95
565.39	11609.26
565.753	11653.32
566.115	11778.97
566.477	11793.43
566.839	11919.76
567.201	11941
567.563	11894.67
567.925	12101.67
568.287	12097.15
568.648	12145.06
569.01	12225.06
569.372	12346.41
569.734	12256.02
570.095	12413.76
570.457	12425.51
570.819	12424.15
571.18	12485.39
571.542	12563.58
571.903	12526.75
572.265	12599.97
572.626	12700.08
572.987	12615.78
573.349	12821.65
573.71	12865.27
574.071	12847.64
574.432	12809.68
574.794	12981.88
575.155	12913.63
575.516	12945.04
575.877	12995.89
576.238	13045.6
576.599	13049.9
576.96	13047.64
577.32	13012.16
577.681	13138.26
578.042	13099.84
578.403	13221.19
578.763	13141.19
579.124	13223.23
579.485	13273.85
579.845	13263.22
580.206	13252.15
580.566	13255.99
580.927	13292.15
581.287	13353.39
581.648	13244.47
582.008	13354.52
582.368	13302.77
582.728	13366.27
583.089	13288.53
583.449	13263.45
583.809	13328.31
584.169	13344.58
584.529	13338.7
584.889	13452.82
585.249	13398.81
585.609	13323.11
585.969	13486.72
586.329	13419.38
586.688	13456.44
587.048	13384.8
587.408	13342.54
587.768	13488.3
588.127	13509.09
588.487	13369.66
588.846	13605.81
589.206	13448.08
589.565	13539.6
589.925	13656.89
590.284	13566.49
590.643	13625.02
591.003	13618.92
591.362	13689.88
591.721	13656.89
592.08	13699.37
592.44	13739.82
592.799	13749.77
593.158	13734.62
593.517	13650.79
593.876	13757.22
594.235	13675.64
594.593	13711.12
594.952	13782.76
595.311	13725.59
595.67	13849.65
596.029	13824.57
596.387	13849.42
596.746	13865.24
597.104	13848.97
597.463	13795.19
597.822	13952.92
598.18	13785.24
598.538	13797
598.897	13950.66
599.255	13816.43
599.613	14048.06
599.972	13956.99
600.33	13937.33
600.688	13902.53
601.046	13915.41
601.404	13885.13
601.762	13954.51
602.12	13993.83
602.478	13948.18
602.836	13987.5
603.194	13863.21
603.552	13850.1
603.91	13950.89
604.268	14040.61
604.625	13946.82
604.983	14007.16
605.341	13994.96
605.698	14077.67
606.056	14083.54
606.413	14087.61
606.771	14074.95
607.128	14196.53
607.485	14122.19
607.843	14071.79
608.2	14160.15
608.557	14181.62
608.914	14133.26
609.272	14179.13
609.629	14238.11
609.986	14246.02
610.343	14175.97
610.7	14364.21
611.057	14358.34
611.414	14326.25
611.771	14364.21
612.127	14472.91
612.484	14422.97
612.841	14439.92
613.198	14377.77
613.554	14387.49
613.911	14533.7
614.267	14494.83
614.624	14521.04
614.98	14510.65
615.337	14527.6
615.693	14535.96
616.05	14611.66
616.406	14613.02
616.762	14644.88
617.118	14559.46
617.475	14701.83
617.831	14745.45
618.187	14731.66
618.543	14719.91
618.899	14779.79
619.255	14719.23
619.611	14733.47
619.967	14849.4
620.323	14833.35
620.678	14781.15
621.034	14793.81
621.39	14806.46
621.746	14721.49
622.101	14947.25
622.457	14818.66
622.812	14913.35
623.168	14937.08
623.523	14836.06
623.879	14927.59
624.234	14802.17
624.589	14867.25
624.945	14942.5
625.3	14932.56
625.655	14866.12
626.01	14896.18
626.365	14857.76
626.72	14882.17
627.075	14817.76
627.43	14876.74
627.785	14766.46
628.14	14800.59
628.495	14893.69
628.85	14836.97
629.205	14846.69
629.559	14879.91
629.914	14744.09
630.269	14770.53
630.623	14711.55
630.978	14754.03
631.332	14773.92
631.687	14853.92
632.041	14646.47
632.396	14693.7
632.75	14668.39
633.104	14661.38
633.459	14600.82
633.813	14621.61
634.167	14651.89
634.521	14609.4
634.875	14580.03
635.229	14609.18
635.583	14502.06
635.937	14549.97
636.291	14576.86
636.645	14531.44
636.999	14477.2
637.352	14579.12
637.706	14388.39
638.06	14481.95
638.413	14431.33
638.767	14307.27
639.121	14493.7
639.474	14347.04
639.828	14391.33
640.181	14385.23
640.534	14398.79
640.888	14394.95
641.241	14366.7
641.594	14368.05
641.947	14302.75
642.301	14320.37
642.654	14412.12
643.007	14458
643.36	14333.71
643.713	14335.51
644.066	14316.53
644.419	14230.88
644.771	14163.09
645.124	14000.83
645.477	13953.15
645.83	13921.96
646.182	13903.21
646.535	13895.3
646.888	14019.36
647.24	13954.96
647.593	13971
647.945	13910.89
648.298	13852.36
648.65	13892.36
649.002	13737.34
649.355	13726.04
649.707	13672.71
650.059	13761.52
650.411	13872.7
650.763	13964.9
651.115	14090.1
651.467	13973.04
651.819	14056.88
652.171	13978.46
652.523	13904.79
652.875	13938.24
653.227	13822.53
653.578	14006.93
653.93	14042.41
654.282	13905.02
654.633	13872.7
654.985	13870.44
655.337	13946.82
655.688	13842.64
656.039	13950.66
656.391	13758.58
656.742	13782.08
657.094	13818.01
657.445	13889.65
657.796	13719.48
658.147	13777.34
658.498	13766.04
658.849	13811.91
659.2	13744.12
659.551	13690.56
659.902	13757.22
660.253	13835.41
660.604	13747.05
660.955	13679.03
661.306	13840.84
661.656	13700.5
662.007	13716.32
662.358	13755.87
662.708	13743.89
663.059	13757.9
663.409	13724.46
663.76	13691.01
664.11	13756.09
664.461	13790.67
664.811	13803.55
665.161	13671.8
665.511	13709.09
665.862	13663.67
666.212	13745.25
666.562	13821.63
666.912	13713.61
667.262	13763.55
667.612	13725.59
667.962	13774.85
668.312	13718.81
668.662	13817.33
669.011	13718.81
669.361	13688.07
669.711	13660.73
670.06	13671.8
670.41	13712.93
670.76	13629.77
671.109	13723.55
671.459	13619.37
671.808	13733.72
672.157	13716.77
672.507	13547.51
672.856	13663.89
673.205	13593.84
673.554	13599.26
673.904	13554.06
674.253	13649.2
674.602	13600.62
674.951	13369.66
675.3	13283.34
675.649	13448.3
675.998	13484.24
676.346	13460.28
676.695	13458.93
677.044	13351.36
677.393	13438.81
677.741	13467.51
678.09	13418.25
678.438	13375.09
678.787	13442.88
679.135	13392.03
679.484	13293.05
679.832	13380.74
680.181	13416.44
680.529	13432.94
680.877	13264.58
681.225	13206.5
681.573	13370.34
681.922	13270.23
682.27	13212.15
682.618	13196.79
682.966	13191.59
683.314	13197.24
683.661	13202.89
684.009	13082.66
684.357	13060.97
684.705	13091.03
685.053	13149.1
685.4	13018.71
685.748	12992.5
686.095	13004.25
686.443	13000.41
686.79	12946.4
687.138	12901.88
687.485	12990.01
687.832	12921.54
688.18	12889.68
688.527	12845.16
688.874	12784.82
689.221	12836.8
689.568	12719.28
689.915	12763.58
690.262	12694.2
690.609	12670.25
690.956	12616.46
691.303	12577.37
691.65	12576.24
691.997	12506.86
692.344	12488.33
692.69	12460.08
693.037	12442.68
693.383	12393.64
693.73	12383.47
694.077	12280.43
694.423	12319.07
694.769	12332.4
695.116	12154.55
695.462	12213.31
695.808	12177.6
696.155	12221.67
696.501	12086.98
696.847	12065.97
697.193	11972.19
697.539	12029.36
697.885	11963.6
698.231	11907.55
698.577	11909.81
698.923	11967.21
699.269	11885.63
699.614	11819.42
699.96	11802.92
700.306	11830.49
700.651	11773.09
700.997	11758.41
701.342	11738.07
701.688	11736.94
702.033	11729.25
702.379	11791.62
702.724	11674.79
703.069	11690.84
703.415	11574
703.76	11540.56
704.105	11613.78
704.45	11592.31
704.795	11512.76
705.14	11505.3
705.485	11533.78
705.83	11553.44
706.175	11534.23
706.52	11491.97
706.865	11450.17
707.209	11446.32
707.554	11374.69
707.899	11391.18
708.243	11345.76
708.588	11362.94
708.932	11292.88
709.277	11295.37
709.621	11289.27
709.966	11230.96
710.31	11347.12
710.654	11207.69
710.998	11241.36
711.342	11218.53
711.687	11168.59
712.031	11122.04
712.375	11069.16
712.719	11050.85
713.063	11047.01
713.407	11062.6
713.75	10983.51
714.094	11028.03
714.438	10948.94
714.782	10938.99
715.125	10909.16
715.469	10930.86
715.812	10804.76
716.156	10796.85
716.499	10795.27
716.843	10843.63
717.186	10715.04
717.53	10727.7
717.873	10735.16
718.216	10629.4
718.559	10584.88
718.902	10537.19
719.246	10555.73
719.589	10470.98
719.932	10469.4
720.275	10412.45
720.617	10486.35
720.96	10429.63
721.303	10464.65
721.646	10380.14
721.989	10313.92
722.331	10360.02
722.674	10279.8
723.016	10276.18
723.359	10216.07
723.701	10279.12
724.044	10163.65
724.386	10184.44
724.729	10165.91
725.071	10119.58
725.413	10169.97
725.755	10135.4
726.097	10073.25
726.439	10018.11
726.782	10022.18
727.124	10098.11
727.465	10042.52
727.807	9941.28
728.149	9951.22
728.491	9928.62
728.833	9987.15
729.175	9934.05
729.516	9948.96
729.858	9950.54
730.199	10063.31
730.541	9981.73
730.882	9948.28
731.224	9915.74
731.565	9873.48
731.906	9935.4
732.248	9880.49
732.589	9875.97
732.93	9881.62
733.271	9845.69
733.612	9849.76
733.953	9919.58
734.294	9876.42
734.635	9889.3
734.976	9935.4
735.317	9884.78
735.658	9865.35
735.999	9818.34
736.339	9813.6
736.68	9849.53
737.021	9782.19
737.361	9801.62
737.702	9876.65
738.042	9831.22
738.383	9800.72
738.723	9872.81
739.063	9777.44
739.404	9776.54
739.744	9768.63
740.084	9711.45
740.424	9749.19
740.764	9665.58
741.104	9754.16
741.444	9708.06
741.784	9639.37
742.124	9684.34
742.464	9594.62
742.804	9634.17
743.143	9603.66
743.483	9629.87
743.823	9544.68
744.162	9520.05
744.502	9620.38
744.841	9557.79
745.181	9504.68
745.52	9442.08
745.86	9542.19
746.199	9523.89
746.538	9404.34
746.877	9478.69
747.216	9450.67
747.556	9418.81
747.895	9441.63
748.234	9342.42
748.573	9328.19
748.911	9286.38
749.25	9247.06
749.589	9261.3
749.928	9237.12
750.267	9292.48
750.605	9205.25
750.944	9208.19
751.283	9214.07
751.621	9180.62
751.96	9130.9
752.298	9113.28
752.636	9121.41
752.975	9104.46
753.313	9102.66
753.651	9118.93
753.989	9051.13
754.327	9055.65
754.666	8965.48
755.004	8958.71
755.342	8960.06
755.679	8922.77
756.017	8883
756.355	8877.58
756.693	8863.34
757.031	8843
757.368	8805.49
757.706	8818.82
758.044	8805.04
758.381	8860.18
758.719	8784.47
759.056	8733.4
759.394	8787.86
759.731	8675.32
760.068	8649.56
760.405	8703.57
760.743	8600.07
761.08	8652.5
761.417	8677.58
761.754	8528.43
762.091	8567.98
762.428	8502.9
762.765	8497.93
763.102	8501.54
763.438	8517.81
763.775	8411.6
764.112	8416.57
764.449	8389.91
764.785	8436.01
765.122	8361.43
765.458	8363.92
765.795	8288.44
766.131	8245.96
766.467	8336.12
766.804	8239.63
767.14	8193.3
767.476	8227.65
767.812	8155.34
768.148	8167.99
768.485	8113.76
768.821	8040.99
769.157	8070.82
769.492	8042.57
769.828	8008.45
770.164	7924.38
770.5	7941.33
770.836	7941.33
771.171	7846.87
771.507	7826.53
771.842	7828.34
772.178	7798.51
772.513	7803.03
772.849	7735.91
773.184	7706.53
773.519	7700.21
773.855	7657.72
774.19	7590.61
774.525	7640.1
774.86	7566.2
775.195	7587.67
775.53	7565.3
775.865	7523.71
776.2	7428.35
776.535	7379.99
776.87	7400.1
777.205	7416.15
777.539	7352.87
777.874	7406.2
778.209	7277.17
778.543	7300.22
778.878	7192.42
779.212	7177.51
779.547	7148.13
779.881	7153.1
780.215	7107.23
780.55	7128.02
780.884	7004.18
781.218	7035.14
781.552	7039.89
781.886	6970.06
782.22	7030.39
782.554	6959.89
782.888	6919.66
783.222	6921.7
783.556	6830.17
783.889	6828.14
784.223	6847.35
784.557	6775.26
784.89	6871.08
785.224	6740.23
785.557	6746.11
785.891	6758.76
786.224	6713.34
786.558	6708.59
786.891	6683.28
787.224	6615.72
787.557	6645.77
787.891	6602.38
788.224	6635.38
788.557	6662.49
788.89	6588.15
789.223	6608.26
789.556	6547.24
789.888	6510.86
790.221	6523.74
790.554	6493.91
790.887	6490.52
791.219	6506.11
791.552	6416.63
791.884	6396.74
792.217	6402.84
792.549	6427.25
792.882	6349.73
793.214	6366.46
793.546	6342.5
793.879	6366.23
794.211	6353.12
794.543	6329.62
794.875	6330.07
795.207	6306.57
795.539	6271.09
795.871	6289.4
796.203	6206.01
796.535	6229.74
796.867	6159.23
797.198	6147.03
797.53	6209.4
797.862	6105.9
798.193	6113.58
798.525	6109.06
798.856	6110.87
799.188	6067.26
799.519	5981.83
799.85	6019.35
800.182	6004.21
800.513	6028.84
800.844	5992.23
801.175	5987.26
801.506	6021.16
801.837	5890.99
802.168	5920.59
802.499	5921.5
802.83	5883.76
803.161	5872.68
803.491	5851.22
803.822	5853.93
804.153	5823.87
804.483	5789.3
804.814	5773.25
805.145	5755.63
805.475	5787.72
805.805	5727.6
806.136	5712.24
806.466	5688.06
806.796	5730.09
807.126	5657.32
807.457	5679.47
807.787	5643.99
808.117	5622.3
808.447	5570.09
808.777	5594.27
809.107	5552.24
809.436	5523.99
809.766	5533.94
810.096	5540.94
810.426	5472.24
810.755	5524.9
811.085	5462.75
811.414	5419.82
811.744	5422.07
812.073	5447.16
812.403	5391.79
812.732	5341.4
813.061	5349.76
813.39	5364.22
813.719	5269.54
814.049	5343.66
814.378	5300.27
814.707	5310.44
815.036	5261.85
815.365	5209.43
815.693	5211.91
816.022	5244.9
816.351	5163.1
816.68	5172.59
817.008	5153.83
817.337	5117.9
817.665	5162.87
817.994	5158.13
818.322	5156.32
818.651	5084
818.979	5045.36
819.307	5156.09
819.636	5052.37
819.964	5028.64
820.292	5100.95
820.62	5060.5
820.948	5045.59
821.276	5091.91
821.604	5034.06
821.932	5043.1
822.259	5077.23
822.587	4995.42
822.915	4999.94
823.243	5043.55
823.57	5024.12
823.898	4985.02
824.225	4964.01
824.553	5044.23
824.88	4995.19
825.207	5004.68
825.535	5027.51
825.862	4996.1
826.189	5004.23
826.516	5079.26
826.843	5091.69
827.17	5014.4
827.497	4999.04
827.824	5044.23
828.151	5039.03
828.478	5019.37
828.805	5033.16
829.131	5019.6
829.458	4987.06
829.785	4988.41
830.111	5004.23
830.438	5012.82
830.764	5015.98
831.09	5077.68
831.417	5034.29
831.743	5049.43
832.069	4987.96
832.395	5009.88
832.722	5032.03
833.048	5011.24
833.374	5028.41
833.7	5022.76
834.026	4973.95
834.351	4997
834.677	4971.24
835.003	4960.62
835.329	4976.66
835.654	5017.11
835.98	4976.66
836.306	4944.8
836.631	5028.64
836.956	4961.07
837.282	4985.02
837.607	4993.61
837.932	4968.3
838.258	4971.69
838.583	4958.13
838.908	4937.57
839.233	4920.17
839.558	4914.07
839.883	4932.37
840.208	4921.07
840.533	4913.16
840.858	4920.62
841.182	4887.17
841.507	4901.18
841.832	4839.49
842.156	4864.58
842.481	4830.45
842.805	4893.95
843.13	4832.49
843.454	4859.15
843.778	4819.38
844.103	4860.51
844.427	4772.15
844.751	4842.88
845.075	4767.63
845.399	4780.96
845.723	4811.7
846.047	4772.15
846.371	4731.47
846.695	4748.42
847.019	4705.03
847.343	4662.77
847.666	4660.97
847.99	4634.3
848.313	4638.37
848.637	4618.71
848.96	4622.32
849.284	4588.2
849.607	4586.62
849.931	4550.46
850.254	4548.88
850.577	4493.96
850.9	4510.91
851.223	4487.86
851.546	4451.93
851.869	4466.62
852.192	4518.37
852.515	4391.37
852.838	4406.51
853.161	4458.48
853.483	4410.35
853.806	4385.27
854.129	4368.32
854.451	4326.06
854.774	4333.97
855.096	4361.99
855.419	4359.96
855.741	4313.63
856.063	4296.45
856.385	4272.73
856.708	4316.12
857.03	4288.09
857.352	4284.03
857.674	4274.53
857.996	4249.45
858.318	4218.94
858.64	4197.25
858.961	4187.31
859.283	4232.73
859.605	4169.23
859.926	4187.31
860.248	4169
860.57	4164.71
860.891	4125.39
861.212	4129.23
861.534	4155.44
861.855	4113.41
862.176	4147.98
862.498	4141.2
862.819	4126.29
863.14	4089.68
863.461	4087.42
863.782	4077.7
864.103	4070.92
864.424	4076.57
864.745	4046.74
865.065	4022.56
865.386	3991.15
865.707	4019.63
866.027	4007.65
866.348	4011.72
866.668	3997.03
866.989	3957.25
867.309	3937.37
867.63	3948.22
867.95	3988.89
868.27	3951.83
868.59	3957.93
868.91	3963.36
869.23	3948.89
869.55	3955.67
869.87	3969.68
870.19	3939.18
870.51	3933.75
870.83	3911.83
871.15	3900.53
871.469	3864.6
871.789	3900.53
872.109	3873.19
872.428	3848.78
872.748	3878.16
873.067	3851.04
873.386	3873.87
873.706	3888.1
874.025	3799.29
874.344	3838.61
874.663	3797.26
874.982	3832.51
875.301	3788.67
875.62	3768.56
875.939	3773.53
876.258	3768.56
876.577	3767.88
876.896	3783.7
877.214	3765.85
877.533	3755.45
877.852	3725.4
878.17	3675.91
878.489	3722.23
878.807	3711.39
879.125	3673.19
879.444	3690.14
879.762	3667.77
880.08	3700.09
880.398	3682.69
880.716	3674.32
881.034	3618.96
881.352	3622.35
881.67	3650.37
881.988	3665.06
882.306	3655.57
882.624	3615.34
882.941	3561.11
883.259	3566.53
883.577	3571.05
883.894	3588.22
884.212	3555.46
884.529	3549.36
884.846	3538.73
885.164	3495.35
885.481	3498.28
885.798	3548.23
886.115	3482.24
886.432	3489.92
886.75	3552.07
887.067	3498.28
887.383	3491.05
887.7	3505.06
888.017	3487.89
888.334	3501
888.651	3452.41
888.967	3460.54
889.284	3437.72
889.6	3397.95
889.917	3406.31
890.233	3418.96
890.55	3395.01
890.866	3418.06
891.182	3466.19
891.498	3390.04
891.815	3405.63
892.131	3391.39
892.447	3389.13
892.763	3328.12
893.079	3342.58
893.395	3312.53
893.71	3327.89
894.026	3308.46
894.342	3317.5
894.657	3289.7
894.973	3292.41
895.289	3318.18
895.604	3317.05
895.92	3297.61
896.235	3264.39
896.55	3265.97
896.865	3297.39
897.181	3276.37
897.496	3269.14
897.811	3258.52
898.126	3253.32
898.441	3254.9
898.756	3254.22
899.071	3245.63
899.386	3238.63
899.7	3159.76
900.015	3202.47
900.33	3169.25
900.644	3131.74
900.959	3198.18
901.273	3140.55
901.588	3129.48
901.902	3157.05
902.216	3141.23
902.531	3148.01
902.845	3086.54
903.159	3081.8
903.473	3138.75
903.787	3080.67
904.101	3065.75
904.415	3070.95
904.729	3070.05
905.042	3076.37
905.356	3039.99
905.67	3044.51
905.984	3014.45
906.297	3031.18
906.611	3019.43
906.924	3039.99
907.237	3031.86
907.551	2990.95
907.864	2981.69
908.177	2969.48
908.491	2959.77
908.804	2939.43
909.117	2933.33
909.43	2942.14
909.743	2946.66
910.056	2915.7
910.368	2943.72
910.681	2892.88
910.994	2908.47
911.307	2838.64
911.619	2845.19
911.932	2872.31
912.244	2839.77
912.557	2853.78
912.869	2805.65
913.181	2797.29
913.494	2833.89
913.806	2791.41
914.118	2804.97
914.43	2788.92
914.742	2792.99
915.054	2757.29
915.366	2766.33
915.678	2775.59
915.99	2747.34
916.302	2751.41
916.613	2695.37
916.925	2681.81
917.236	2698.3
917.548	2658.76
917.859	2710.73
918.171	2689.72
918.482	2642.26
918.794	2635.26
919.105	2629.61
919.416	2639.32
919.727	2640.45
920.038	2609.49
920.349	2579.21
920.66	2601.58
920.971	2596.39
921.282	2576.73
921.593	2556.39
921.903	2568.59
922.214	2524.07
922.525	2508.03
922.835	2545.31
923.146	2503.73
923.456	2530.63
923.767	2506.9
924.077	2491.3
924.387	2494.24
924.697	2466.67
925.008	2485.2
925.318	2444.3
925.628	2399.33
925.938	2402.49
926.248	2374.25
926.558	2406.79
926.867	2380.12
927.177	2363.62
927.487	2359.56
927.796	2315.26
928.106	2338.99
928.416	2300.35
928.725	2310.52
929.034	2311.87
929.344	2290.86
929.653	2296.06
929.962	2274.59
930.271	2291.31
930.581	2232.1
930.89	2226
931.199	2203.85
931.508	2206.79
931.817	2235.04
932.125	2200.69
932.434	2222.61
932.743	2181.03
933.051	2158.88
933.36	2158.21
933.669	2119.79
933.977	2126.57
934.286	2134.7
934.594	2142.39
934.902	2118.43
935.21	2088.38
935.519	2108.04
935.827	2110.98
936.135	2082.5
936.443	2063.07
936.751	2054.25
937.059	2062.16
937.367	2036.63
937.674	2025.33
937.982	2040.69
938.29	2010.64
938.597	2034.59
938.905	2000.24
939.213	2011.54
939.52	1989.62
939.827	1986.46
940.135	1973.35
940.442	1955.73
940.749	1965.22
941.056	1947.82
941.363	1943.75
941.67	1922.05
941.977	1888.83
942.284	1906.24
942.591	1873.92
942.898	1847.03
943.205	1911.88
943.511	1868.04
943.818	1861.04
944.125	1859.91
944.431	1823.98
944.738	1867.14
945.044	1863.98
945.35	1863.07
945.657	1826.46
945.963	1827.59
946.269	1801.15
946.575	1807.48
946.881	1804.32
947.187	1819.91
947.493	1786.46
947.799	1740.59
948.105	1753.7
948.41	1770.42
948.716	1748.73
949.022	1763.41
949.327	1755.96
949.633	1749.18
949.938	1725.67
950.244	1734.49
950.549	1687.48
950.854	1685.22
951.16	1698.56
951.465	1708.5
951.77	1675.73
952.075	1683.64
952.38	1679.35
952.685	1660.59
952.99	1639.12
953.294	1657.65
953.599	1684.55
953.904	1661.04
954.209	1650.2
954.513	1648.16
954.818	1634.83
955.122	1661.04
955.426	1633.7
955.731	1613.14
956.035	1614.72
956.339	1586.24
956.643	1581.95
956.948	1595.96
957.252	1592.35
957.556	1607.71
957.86	1606.36
958.163	1599.12
958.467	1563.19
958.771	1588.96
959.075	1562.06
959.378	1548.5
959.682	1572.46
959.985	1535.62
960.289	1541.5
960.592	1568.84
960.896	1530.88
961.199	1526.36
961.502	1538.34
961.805	1513.93
962.108	1513.93
962.411	1517.54
962.714	1498.34
963.017	1518
963.32	1513.93
963.623	1501.05
963.926	1513.7
964.228	1457.43
964.531	1473.7
964.833	1498.11
965.136	1462.18
965.438	1464.89
965.741	1485
966.043	1453.14
966.345	1445
966.648	1429.64
966.95	1460.82
967.252	1450.2
967.554	1465.34
967.856	1448.17
968.158	1433.25
968.46	1426.02
968.761	1426.93
969.063	1452.91
969.365	1430.09
969.666	1403.2
969.968	1402.29
970.269	1401.39
970.571	1371.33
970.872	1355.74
971.174	1365.46
971.475	1351.9
971.776	1367.27
972.077	1371.79
972.378	1382.41
972.679	1354.39
972.98	1347.61
973.281	1335.63
973.582	1347.61
973.883	1345.57
974.183	1330.43
974.484	1343.99
974.785	1327.04
975.085	1356.65
975.386	1360.71
975.686	1302.18
975.986	1317.32
976.287	1288.17
976.587	1288.4
976.887	1289.98
977.187	1295.4
977.487	1281.17
977.787	1262.86
978.087	1298.34
978.387	1275.52
978.687	1268.51
978.987	1284.56
979.286	1266.03
979.586	1291.34
979.885	1237.55
980.185	1214.28
980.484	1253.82
980.784	1246.59
981.083	1240.04
981.382	1222.41
981.682	1216.54
981.981	1223.77
982.28	1231
982.579	1222.86
982.878	1209.98
983.177	1216.76
983.475	1201.39
983.774	1172.7
984.073	1184.45
984.372	1171.79
984.67	1196.88
984.969	1181.51
985.267	1179.25
985.566	1167.5
985.864	1162.3
986.162	1157.1
986.461	1166.82
986.759	1139.02
987.057	1155.52
987.355	1152.81
987.653	1155.52
987.951	1134.96
988.249	1136.31
988.547	1131.11
988.844	1141.51
989.142	1127.5
989.44	1134.96
989.737	1111.45
990.035	1099.7
990.332	1108.29
990.63	1100.61
990.927	1077.56
991.224	1063.09
991.521	1088.4
991.819	1083.88
992.116	1093.6
992.413	1082.08
992.71	1073.26
993.006	1037.78
993.303	1053.15
993.6	1057.67
993.897	1034.85
994.193	1029.65
994.49	1047.73
994.787	1045.47
995.083	1043.88
995.379	1028.29
995.676	1023.77
995.972	1041.4
996.268	1005.69
996.565	992.13
996.861	983.32
997.157	985.13
997.453	1015.41
997.749	990.1
998.044	997.33
998.34	972.47
998.636	970.89
998.932	977.45
999.227	960.5
999.523	965.92
999.818	961.18
1000.114	932.93
1000.409	949.65
1000.704	959.82
1001	957.56
1001.295	937
1001.59	951.91
1001.885	928.18
1002.18	948.97
1002.475	920.72
1002.77	928.63
1003.065	936.32
1003.359	915.75
1003.654	916.66
1003.949	915.75
1004.243	911.01
1004.538	888.41
1004.832	877.11
1005.127	880.05
1005.421	866.71
1005.715	901.29
1006.009	873.49
1006.304	883.89
1006.598	865.81
1006.892	887.5
1007.186	865.36
1007.48	872.36
1007.773	844.12
1008.067	853.38
1008.361	851.35
1008.655	840.27
1008.948	819.26
1009.242	816.09
1009.535	818.35
1009.829	828.75
1010.122	799.6
1010.415	819.03
1010.708	818.58
1011.001	823.55
1011.295	799.6
1011.588	814.51
1011.881	820.61
1012.173	796.89
1012.466	793.27
1012.759	819.71
1013.052	789.2
1013.344	775.87
1013.637	793.04
1013.93	772.03
1014.222	759.15
1014.514	778.81
1014.807	777.45
1015.099	754.4
1015.391	745.36
1015.683	761.41
1015.976	778.36
1016.268	741.07
1016.56	748.98
1016.851	746.27
1017.143	745.81
1017.435	741.52
1017.727	746.94
1018.018	729.77
1018.31	731.35
1018.602	696.78
1018.893	728.41
1019.185	717.57
1019.476	713.5
1019.767	698.81
1020.058	713.5
1020.35	684.57
1020.641	698.58
1020.932	707.4
1021.223	719.37
1021.514	691.58
1021.804	682.31
1022.095	672.14
1022.386	675.99
1022.677	673.95
1022.967	688.87
1023.258	645.7
1023.548	666.27
1023.839	645.03
1024.129	669.88
1024.419	665.36
1024.709	629.66
1025	662.43
1025.29	658.36
1025.58	643.67
1025.87	643.44
1026.16	629.21
1026.449	645.7
1026.739	640.28
1027.029	637.34
1027.319	637.34
1027.608	625.36
1027.898	628.3
1028.187	627.85
1028.477	621.07
1028.766	611.58
1029.055	620.17
1029.344	634.4
1029.634	601.86
1029.923	588.76
1030.212	599.6
1030.501	589.43
1030.79	600.51
1031.078	593.73
1031.367	600.28
1031.656	602.54
1031.945	590.11
1032.233	570.23
1032.522	588.08
1032.81	579.94
1033.099	594.18
1033.387	566.16
1033.675	590.34
1033.963	569.77
1034.251	579.26
1034.54	563.45
1034.828	549.66
1035.116	563.9
1035.403	580.62
1035.691	557.34
1035.979	574.52
1036.267	559.6
1036.554	563.45
1036.842	541.98
1037.129	558.93
1037.417	566.16
1037.704	548.08
1037.992	556.89
1038.279	538.14
1038.566	546.95
1038.853	546.95
1039.14	546.95
