Data from foam_black_FLMS001491_00079.txt Node
Date: Wed Feb 08 10:44:38 GMT 2017
User: dcchb
Spectrometer: FLMS00149
Trigger mode: 0
Integration Time (sec): 2.000000E-2
Scans to average: 10
Electric dark correction enabled: true
Nonlinearity correction enabled: false
Boxcar width: 0
XAxis mode: Wavelengths
Number of Pixels in Spectrum: 2048
>>>>>Begin Spectral Data<<<<<
341.393	-11.77
341.776	-11.77
342.16	-11.77
342.543	-54.93
342.927	-64.65
343.31	-66.23
343.693	-78.43
344.077	-47.7
344.46	-64.42
344.843	-61.03
345.226	-26.45
345.61	-22.84
345.993	-13.12
346.376	-6.57
346.759	12.19
347.142	27.78
347.525	31.17
347.908	61.23
348.291	76.82
348.674	74.11
349.057	103.49
349.44	112.3
349.823	145.52
350.206	153.43
350.588	171.96
350.971	183.94
351.354	205.63
351.737	196.82
352.119	227.1
352.502	240.88
352.884	252.86
353.267	261.22
353.65	264.61
354.032	275.91
354.414	290.37
354.797	302.12
355.179	285.63
355.562	303.25
355.944	324.5
356.326	296.02
356.709	322.24
357.091	303.03
357.473	329.47
357.855	323.14
358.238	304.38
358.62	323.14
359.002	322.01
359.384	318.4
359.766	317.27
360.148	310.26
360.53	319.07
360.912	319.75
361.294	304.38
361.676	313.65
362.057	300.54
362.439	297.61
362.821	297.83
363.203	305.74
363.584	301.9
363.966	285.18
364.348	305.97
364.729	302.12
365.111	303.93
365.493	288.34
365.874	303.48
366.256	291.28
366.637	303.48
367.019	297.61
367.4	309.13
367.781	291.73
368.163	279.98
368.544	291.73
368.925	271.17
369.306	299.64
369.688	287.66
370.069	306.19
370.45	302.8
370.831	304.38
371.212	298.96
371.593	284.27
371.974	295.57
372.355	290.83
372.736	292.41
373.117	297.38
373.498	292.41
373.879	282.69
374.26	298.96
374.641	277.27
375.021	285.63
375.402	303.03
375.783	305.97
376.163	290.37
376.544	303.03
376.925	304.61
377.305	300.99
377.686	316.36
378.066	309.81
378.447	310.03
378.827	300.77
379.208	307.1
379.588	286.76
379.968	295.35
380.349	306.87
380.729	312.97
381.109	317.04
381.489	316.14
381.87	316.36
382.25	310.03
382.63	319.53
383.01	328.56
383.39	317.72
383.77	329.24
384.15	317.72
384.53	350.26
384.91	326.08
385.29	326.98
385.67	336.7
386.049	323.14
386.429	329.02
386.809	315.68
387.189	335.34
387.568	312.07
387.948	336.7
388.328	337.83
388.707	334.89
389.087	355.46
389.466	352.29
389.846	354.78
390.225	344.38
390.605	339.86
390.984	335.8
391.363	330.15
391.743	337.38
392.122	348
392.501	358.62
392.881	368.11
393.26	372.63
393.639	352.07
394.018	328.79
394.397	362.01
394.776	362.01
395.155	351.62
395.534	379.86
395.913	371.95
396.292	357.49
396.671	373.76
397.05	362.01
397.429	377.83
397.808	369.47
398.186	375.34
398.565	380.99
398.944	368.79
399.323	379.41
399.701	374.21
400.08	382.8
400.458	368.11
400.837	389.81
401.215	377.15
401.594	385.51
401.972	380.09
402.351	383.03
402.729	390.94
403.107	393.42
403.486	404.95
403.864	415.34
404.242	402.91
404.62	381.22
404.999	394.55
405.377	397.49
405.755	393.87
406.133	417.15
406.511	434.32
406.889	434.55
407.267	399.07
407.645	416.47
408.023	413.31
408.401	411.95
408.779	441.78
409.156	434.78
409.534	404.04
409.912	423.48
410.29	439.3
410.667	452.18
411.045	430.48
411.422	441.56
411.8	442.91
412.178	450.37
412.555	441.33
412.933	442.01
413.31	472.97
413.687	432.29
414.065	457.6
414.442	469.35
414.819	463.7
415.197	454.89
415.574	486.98
415.951	486.75
416.328	488.79
416.705	519.75
417.082	482.46
417.46	476.81
417.837	479.07
418.214	497.6
418.591	477.04
418.967	478.17
419.344	490.82
419.721	498.28
420.098	499.41
420.475	510.48
420.852	489.92
421.228	524.49
421.605	504.15
421.982	520.42
422.358	529.24
422.735	536.69
423.111	515.23
423.488	542.57
423.864	515.45
424.241	522.68
424.617	548.45
424.994	544.15
425.37	521.55
425.746	551.84
426.123	558.39
426.499	568.56
426.875	547.32
427.251	542.57
427.627	585.06
428.003	580.54
428.379	582.8
428.756	573.08
429.132	571.72
429.507	589.35
429.883	586.86
430.259	605.62
430.635	593.42
431.011	595.9
431.387	617.37
431.763	639.52
432.138	622.57
432.514	623.7
432.89	630.25
433.265	635
433.641	630.93
434.016	645.39
434.392	654.43
434.767	660.99
435.143	664.6
435.518	654.21
435.894	663.47
436.269	711.38
436.644	683.58
437.02	658.95
437.395	673.87
437.77	682.91
438.145	705.05
438.52	700.76
438.895	716.13
439.271	697.59
439.646	710.25
440.021	722.45
440.395	724.71
440.77	698.95
441.145	732.62
441.52	728.55
441.895	742.34
442.27	719.06
442.645	727.42
443.019	751.6
443.394	740.76
443.769	743.02
444.143	749.8
444.518	755.22
444.892	744.6
445.267	748.67
445.641	756.8
446.016	791.83
446.39	770.36
446.764	770.14
447.139	794.99
447.513	766.52
447.887	791.15
448.262	797.03
448.636	813.75
449.01	796.58
449.384	814.43
449.758	809
450.132	825.95
450.506	803.35
450.88	826.63
451.254	822.11
451.628	833.18
452.002	860.98
452.376	852.62
452.75	864.37
453.123	856.91
453.497	871.83
453.871	886.29
454.244	892.17
454.618	897.36
454.992	931.94
455.365	910.47
455.739	939.17
456.112	962.22
456.486	925.16
456.859	947.31
457.232	958.38
457.606	945.05
457.979	975.78
458.352	997.7
458.725	992.5
459.099	1009
459.472	1027.3
459.845	1017.13
460.218	1017.13
460.591	1030.47
460.964	1050.58
461.337	1060.07
461.71	1074.31
462.083	1068.88
462.456	1095.32
462.829	1088.32
463.201	1111.6
463.574	1112.27
463.947	1125.38
464.32	1114.31
464.692	1157.02
465.065	1168.54
465.438	1168.32
465.81	1183.91
466.183	1168.99
466.555	1216.9
466.928	1188.43
467.3	1230.69
467.672	1243.79
468.045	1251.93
468.417	1263
468.789	1282.44
469.161	1263
469.534	1279.27
469.906	1302.32
470.278	1326.5
470.65	1338.93
471.022	1389.55
471.394	1391.14
471.766	1376.67
472.138	1394.53
472.51	1400.4
472.882	1454.18
473.253	1451.7
473.625	1471.13
473.997	1521.75
474.369	1479.95
474.74	1519.95
475.112	1539.61
475.484	1548.42
475.855	1595.42
476.227	1580.51
476.598	1616.21
476.97	1643.33
477.341	1684.01
477.713	1717.23
478.084	1710.45
478.455	1768.53
478.827	1771.92
479.198	1795.42
479.569	1780.05
479.94	1822.31
480.311	1843.33
480.682	1885.13
481.053	1926.26
481.424	1948.41
481.795	1981.85
482.166	2010.33
482.537	2024.34
482.908	2055.3
483.279	2058.69
483.65	2116.09
484.021	2139.36
484.391	2143.21
484.762	2181.4
485.133	2176.43
485.503	2228.85
485.874	2280.15
486.244	2282.41
486.615	2290.32
486.985	2347.72
487.356	2376.19
487.726	2391.79
488.097	2413.03
488.467	2462.97
488.837	2510.65
489.207	2496.42
489.578	2546.81
489.948	2545.23
490.318	2623.87
490.688	2627.49
491.058	2630.88
491.428	2660.03
491.798	2695.28
492.168	2754.49
492.538	2725.11
492.908	2745.68
493.278	2807.82
493.648	2763.76
494.017	2840.59
494.387	2901.6
494.757	2889.63
495.126	2921.49
495.496	2915.62
495.866	2926.46
496.235	2981.15
496.605	3022.96
496.974	3003.07
497.344	3049.4
497.713	3062.5
498.082	3086.01
498.452	3123.75
498.821	3156.97
499.19	3136.63
499.559	3156.74
499.928	3215.49
500.298	3220.24
500.667	3252.56
501.036	3246
501.405	3262.05
501.774	3280.35
502.143	3331.2
502.512	3344.08
502.88	3395.15
503.249	3422.49
503.618	3409.84
503.987	3434.02
504.356	3486.22
504.724	3502.27
505.093	3471.08
505.462	3501.59
505.83	3508.14
506.199	3578.65
506.567	3637.4
506.936	3584.3
507.304	3619.55
507.672	3629.49
508.041	3677.18
508.409	3704.07
508.777	3745.2
509.145	3770.73
509.514	3726.89
509.882	3806.89
510.25	3812.77
510.618	3809.6
510.986	3835.59
511.354	3878.98
511.722	3913.1
512.09	3964.4
512.458	3963.5
512.826	3928.92
513.193	4027.22
513.561	4020.45
513.929	4029.03
514.297	4048.47
514.664	4079.88
515.032	4105.64
515.4	4170.72
515.767	4162.59
516.135	4173.44
516.502	4173.66
516.869	4238.29
517.237	4255.02
517.604	4267.9
517.972	4323.49
518.339	4292.98
518.706	4367.55
519.073	4375.01
519.44	4445.97
519.808	4462.02
520.175	4474.67
520.542	4556.93
520.909	4542.92
521.276	4526.65
521.643	4617.04
522.009	4631.73
522.376	4694.78
522.743	4670.6
523.11	4780.88
523.477	4803.93
523.843	4806.87
524.21	4856.13
524.577	4901.1
524.943	4924.6
525.31	4953.53
525.676	5011.83
526.043	5017.71
526.409	5033.75
526.776	5071.94
527.142	5120.53
527.508	5186.74
527.874	5162.11
528.241	5181.77
528.607	5206.63
528.973	5280.07
529.339	5313.97
529.705	5333.4
530.071	5371.6
530.437	5404.36
530.803	5471.48
531.169	5513.74
531.535	5482.33
531.901	5502.21
532.267	5499.95
532.632	5556.68
532.998	5606.62
533.364	5637.35
533.73	5663.79
534.095	5709.44
534.461	5719.61
534.826	5767.74
535.192	5767.07
535.557	5753.05
535.923	5770.68
536.288	5814.97
536.653	5898.81
537.019	5863.11
537.384	5896.78
537.749	5944.69
538.114	5926.61
538.479	5933.16
538.845	5955.08
539.21	6034.18
539.575	5989.88
539.94	6000.96
540.305	6079.37
540.67	6042.76
541.034	6083.22
541.399	6151.01
541.764	6102.65
542.129	6172.93
542.494	6194.85
542.858	6179.94
543.223	6203.66
543.587	6226.49
543.952	6220.39
544.316	6256.32
544.681	6255.64
545.045	6303.1
545.41	6345.81
545.774	6307.16
546.138	6309.42
546.503	6356.43
546.867	6348.07
547.231	6391.46
547.595	6388.52
547.959	6450.44
548.324	6446.6
548.688	6485.92
549.052	6504.45
549.416	6474.39
549.779	6525.92
550.143	6536.76
550.507	6629.64
550.871	6622.41
551.235	6569.08
551.599	6695.18
551.962	6680.04
552.326	6664.67
552.689	6791.67
553.053	6725.46
553.417	6762.07
553.78	6834.38
554.143	6825.34
554.507	6902.86
554.87	6919.13
555.234	6970.2
555.597	6965
555.96	6954.38
556.323	7080.7
556.686	7057.88
557.05	7133.36
557.413	7140.59
557.776	7168.16
558.139	7249.06
558.502	7256.29
558.865	7250.42
559.228	7346.69
559.59	7315.73
559.953	7352.56
560.316	7450.19
560.679	7414.48
561.041	7475.5
561.404	7515.72
561.767	7645.89
562.129	7574.25
562.492	7629.16
562.854	7635.49
563.217	7633.23
563.579	7713.23
563.941	7720.69
564.304	7769.27
564.666	7840.23
565.028	7861.7
565.39	7871.87
565.753	7919.1
566.115	7912.32
566.477	7946.67
566.839	7938.99
567.201	7986.44
567.563	8087
567.925	8071.86
568.287	8099.89
568.648	8102.82
569.01	8183.5
569.372	8221.46
569.734	8199.77
570.095	8252.42
570.457	8261.69
570.819	8293.78
571.18	8308.92
571.542	8354.34
571.903	8387.11
572.265	8428.46
572.626	8461.91
572.987	8481.8
573.349	8456.94
573.71	8554.34
574.071	8537.84
574.432	8602.7
574.794	8652.64
575.155	8702.36
575.516	8715.24
575.877	8693.32
576.238	8796.82
576.599	8786.42
576.96	8758.85
577.32	8785.52
577.681	8792.07
578.042	8827.32
578.403	8882.24
578.763	8846.53
579.124	8884.95
579.485	8929.24
579.845	8966.53
580.206	8903.71
580.566	8983.93
580.927	8983.7
581.287	9054.89
581.648	8986.87
582.008	9021.9
582.368	9021.67
582.728	8971.95
583.089	9018.28
583.449	9031.84
583.809	9064.38
584.169	9006.53
584.529	9064.15
584.889	9078.39
585.249	8991.61
585.609	9060.09
585.969	9178.5
586.329	9079.75
586.688	9098.05
587.048	9051.05
587.408	8969.92
587.768	9045.62
588.127	8991.84
588.487	9031.84
588.846	9127.2
589.206	9072.29
589.565	8999.07
589.925	9040.65
590.284	9070.03
590.643	9051.27
591.003	9104.61
591.362	9128.33
591.721	9026.64
592.08	9101.44
592.44	9157.71
592.799	9073.42
593.158	9022.8
593.517	9088.79
593.876	9107.54
594.235	9041.33
594.593	9020.54
594.952	9045.4
595.311	9072.97
595.67	9047.21
596.029	9132.63
596.387	9152.97
596.746	9095.34
597.104	9077.49
597.463	9069.58
597.822	9133.31
598.18	9033.65
598.538	9139.18
598.897	9118.39
599.255	9108.67
599.613	9195.22
599.972	9152.51
600.33	9159.29
600.688	9107.09
601.046	9192.29
601.404	9168.11
601.762	9176.69
602.12	9199.07
602.478	9225.28
602.836	9222.34
603.194	9173.3
603.552	9258.27
603.91	9194.55
604.268	9209.91
604.625	9154.55
604.983	9317.03
605.341	9212.4
605.698	9190.03
606.056	9305.28
606.413	9356.8
606.771	9313.41
607.128	9326.97
607.485	9307.54
607.843	9255.79
608.2	9359.51
608.557	9364.03
608.914	9373.52
609.272	9347.99
609.629	9424.6
609.986	9446.29
610.343	9388.21
610.7	9361.77
611.057	9357.25
611.414	9417.37
611.771	9387.31
612.127	9359.51
612.484	9476.35
612.841	9463.47
613.198	9440.64
613.554	9395.9
613.911	9452.62
614.267	9462.34
614.624	9524.48
614.98	9483.35
615.337	9583.69
615.693	9503.92
616.05	9442.68
616.406	9575.1
616.762	9517.02
617.118	9504.37
617.475	9497.36
617.831	9517.25
618.187	9523.58
618.543	9588.66
618.899	9622.11
619.255	9578.04
619.611	9518.83
619.967	9602.22
620.323	9594.31
620.678	9570.36
621.034	9579.85
621.39	9543.92
621.746	9556.12
622.101	9722.89
622.457	9625.04
622.812	9584.14
623.168	9654.42
623.523	9610.13
623.879	9694.87
624.234	9588.21
624.589	9655.55
624.945	9625.95
625.3	9609
625.655	9656.23
626.01	9651.71
626.365	9618.49
626.72	9633.86
627.075	9658.94
627.43	9630.02
627.785	9668.66
628.14	9649.68
628.495	9684.93
628.85	9719.05
629.205	9682.9
629.559	9732.61
629.914	9688.32
630.269	9766.51
630.623	9637.02
630.978	9624.14
631.332	9832.72
631.687	9805.6
632.041	9716.79
632.396	9658.04
632.75	9706.85
633.104	9740.97
633.459	9635.89
633.813	9580.98
634.167	9576.46
634.521	9689.22
634.875	9665.04
635.229	9710.92
635.583	9641.99
635.937	9685.61
636.291	9631.37
636.645	9651.71
636.999	9590.24
637.352	9642.22
637.706	9542.11
638.06	9626.63
638.413	9590.24
638.767	9578.27
639.121	9524.71
639.474	9555.67
639.828	9544.82
640.181	9583.01
640.534	9553.63
640.888	9507.53
641.241	9501.43
641.594	9525.16
641.947	9546.63
642.301	9421.89
642.654	9387.99
643.007	9442
643.36	9404.94
643.713	9401.77
644.066	9458.04
644.419	9330.36
644.771	9281.32
645.124	9124.04
645.477	9183.93
645.83	9116.58
646.182	9056.7
646.535	9050.37
646.888	9122.46
647.24	9064.61
647.593	9029.13
647.945	9070.26
648.298	8967.43
648.65	8993.65
649.002	8937.6
649.355	8999.3
649.707	8953.87
650.059	8925.63
650.411	9061.89
650.763	9060.99
651.115	9159.52
651.467	9154.1
651.819	9087.2
652.171	9056.24
652.523	9089.92
652.875	9070.26
653.227	8988.9
653.578	9068.67
653.93	8967.66
654.282	8986.87
654.633	8988
654.985	9084.04
655.337	8976.7
655.688	9032.06
656.039	9054.44
656.391	9064.15
656.742	8996.81
657.094	8971.5
657.445	8997.49
657.796	8966.53
658.147	8920.88
658.498	8940.99
658.849	8976.02
659.2	9058.05
659.551	8929.69
659.902	8947.55
660.253	8999.75
660.604	9031.61
660.955	8981.22
661.306	8927.43
661.656	9011.5
662.007	8995
662.358	9002.69
662.708	8999.07
663.059	8946.64
663.409	8886.53
663.76	8985.51
664.11	9028.9
664.461	8958.62
664.811	9001.33
665.161	8961.56
665.511	8929.24
665.862	8951.39
666.212	9003.82
666.562	8908
666.912	8962.01
667.262	8889.47
667.612	8905.74
667.962	8876.36
668.312	8885.63
668.662	8850.83
669.011	8906.19
669.361	8860.32
669.711	8856.7
670.06	8850.37
670.41	8802.47
670.76	8808.57
671.109	8798.17
671.459	8820.32
671.808	8899.86
672.157	8783.48
672.507	8761.56
672.856	8762.02
673.205	8785.07
673.554	8752.75
673.904	8731.06
674.253	8842.92
674.602	8767.21
674.951	8660.32
675.3	8611.96
675.649	8719.3
675.998	8688.12
676.346	8707.1
676.695	8661.23
677.044	8621
677.393	8616.48
677.741	8595.47
678.09	8667.1
678.438	8580.55
678.787	8613.54
679.135	8603.15
679.484	8563.6
679.832	8604.05
680.181	8537.39
680.529	8514.34
680.877	8500.55
681.225	8483.83
681.573	8503.72
681.922	8461.01
682.27	8403.15
682.618	8505.07
682.966	8441.57
683.314	8450.16
683.661	8439.99
684.009	8400.67
684.357	8398.41
684.705	8386.21
685.053	8421.46
685.4	8374.91
685.748	8370.16
686.095	8270.5
686.443	8274.8
686.79	8299.43
687.138	8285.42
687.485	8212.88
687.832	8302.14
688.18	8249.49
688.527	8287.45
688.874	8289.03
689.221	8228.02
689.568	8258.75
689.915	8176.04
690.262	8158.19
690.609	8171.3
690.956	8207
691.303	8160.45
691.65	8129.49
691.997	8162.03
692.344	8092.2
692.69	8128.36
693.037	8154.57
693.383	8063.95
693.73	8076.38
694.077	8055.82
694.423	7971.3
694.769	7991.41
695.116	7971.08
695.462	7953
695.808	7897.18
696.155	7974.69
696.501	7894.69
696.847	7892.66
697.193	7813.11
697.539	7813.79
697.885	7732.66
698.231	7808.59
698.577	7816.28
698.923	7760.46
699.269	7670.29
699.614	7658.09
699.96	7688.6
700.306	7677.07
700.651	7658.99
700.997	7636.4
701.342	7619.9
701.688	7616.51
702.033	7545.78
702.379	7671.87
702.724	7546.91
703.069	7622.84
703.415	7429.85
703.76	7456.74
704.105	7534.03
704.45	7458.09
704.795	7446.12
705.14	7385.33
705.485	7370.87
705.83	7368.61
706.175	7390.53
706.52	7314.14
706.865	7272.34
707.209	7332
707.554	7228.04
707.899	7275.5
708.243	7174.71
708.588	7223.75
708.932	7122.51
709.277	7119.57
709.621	7110.31
709.966	7070.31
710.31	7132.23
710.654	7021.27
710.998	7042.51
711.342	7095.39
711.687	7048.84
712.031	7010.87
712.375	7001.84
712.719	6958.22
713.063	6978.56
713.407	6943.98
713.75	6971.1
714.094	6953.48
714.438	6882.29
714.782	6853.59
715.125	6909.18
715.469	6830.31
715.812	6809.52
716.156	6841.39
716.499	6810.2
716.843	6809.07
717.186	6780.6
717.53	6755.06
717.873	6809.07
718.216	6819.47
718.559	6762.75
718.902	6645.23
719.246	6700.15
719.589	6676.19
719.932	6654.5
720.275	6667.83
720.617	6671.45
720.96	6664.44
721.303	6688.17
721.646	6660.15
721.989	6553.49
722.331	6579.93
722.674	6569.53
723.016	6606.14
723.359	6621.28
723.701	6616.54
724.044	6530.44
724.386	6546.48
724.729	6567.5
725.071	6585.35
725.413	6562.75
725.755	6570.89
726.097	6517.55
726.439	6520.49
726.782	6535.63
727.124	6574.28
727.465	6512.36
727.807	6518.68
728.149	6438.23
728.491	6476.43
728.833	6462.87
729.175	6499.93
729.516	6481.62
729.858	6470.32
730.199	6493.83
730.541	6523.2
730.882	6471.23
731.224	6440.27
731.565	6446.82
731.906	6456.31
732.248	6485.24
732.589	6445.47
732.93	6430.78
733.271	6407.95
733.612	6447.5
733.953	6512.81
734.294	6387.84
734.635	6401.17
734.976	6402.76
735.317	6396.65
735.658	6456.09
735.999	6386.71
736.339	6412.47
736.68	6392.13
737.021	6383.09
737.361	6364.56
737.702	6375.86
738.042	6364.79
738.383	6297.45
738.723	6394.39
739.063	6363.43
739.404	6317.33
739.744	6310.33
740.084	6286.15
740.424	6301.74
740.764	6244.12
741.104	6275.53
741.444	6278.24
741.784	6219.48
742.124	6275.98
742.464	6222.2
742.804	6165.7
743.143	6194.17
743.483	6175.19
743.823	6226.04
744.162	6159.37
744.502	6200.27
744.841	6146.04
745.181	6170.9
745.52	6112.37
745.86	6167.51
746.199	6116.21
746.538	6139.71
746.877	6151.91
747.216	6071.92
747.556	6084.12
747.895	6073.95
748.234	6084.35
748.573	6001.64
748.911	6026.27
749.25	6045.02
749.589	5970.68
749.928	6015.42
750.267	5959.83
750.605	5954.41
750.944	5950.79
751.283	5918.02
751.621	5921.86
751.96	5878.7
752.298	5849.1
752.636	5908.53
752.975	5847.52
753.313	5842.09
753.651	5851.36
753.989	5861.98
754.327	5802.77
754.666	5760.96
755.004	5818.82
755.342	5763.45
755.679	5777.46
756.017	5741.76
756.355	5790.57
756.693	5734.75
757.031	5691.14
757.368	5663.79
757.706	5648.2
758.044	5665.15
758.381	5600.97
758.719	5665.37
759.056	5601.87
759.394	5582.21
759.731	5578.6
760.068	5579.5
760.405	5581.99
760.743	5537.92
761.08	5549.22
761.417	5493.85
761.754	5484.36
762.091	5503.34
762.428	5454.31
762.765	5446.4
763.102	5448.43
763.438	5410.01
763.775	5329.79
764.112	5399.17
764.449	5417.47
764.785	5335.89
765.122	5334.99
765.458	5334.53
765.795	5323.91
766.131	5288.21
766.467	5280.98
766.804	5250.02
767.14	5265.16
767.476	5212.5
767.812	5242.33
768.148	5182.45
768.485	5190.58
768.821	5186.52
769.157	5144.71
769.492	5175.89
769.828	5178.61
770.164	5117.82
770.5	5107.65
770.836	5167.08
771.171	5095.22
771.507	5061.77
771.842	5001.89
772.178	5000.98
772.513	5039.63
772.849	5036.69
773.184	4958.95
773.519	4988.78
773.855	4929.12
774.19	4915.56
774.525	4909.01
774.86	4911.5
775.195	4958.27
775.53	4918.05
775.865	4897.48
776.2	4851.84
776.535	4839.18
776.87	4823.81
777.205	4758.73
777.539	4783.14
777.874	4765.28
778.209	4722.12
778.543	4716.02
778.878	4699.07
779.212	4721.67
779.547	4690.94
779.881	4695.68
780.215	4696.13
780.55	4629.69
780.884	4659.75
781.218	4643.71
781.552	4643.71
781.886	4558.96
782.22	4547.44
782.554	4569.36
782.888	4511.28
783.222	4513.54
783.556	4459.53
783.889	4475.35
784.223	4375.24
784.557	4415.01
784.89	4422.69
785.224	4382.24
785.557	4391.96
785.891	4337.05
786.224	4345.63
786.558	4371.62
786.891	4280.55
787.224	4298.63
787.557	4244.85
787.891	4242.59
788.224	4229.48
788.557	4203.94
788.89	4228.8
789.223	4174.57
789.556	4145.19
789.888	4172.98
790.221	4115.58
790.554	4126.66
790.887	4122.14
791.219	4063.61
791.552	4094.57
791.884	4063.61
792.217	4064.96
792.549	4029.26
792.882	3982.03
793.214	3980.9
793.546	3984.29
793.879	3967.57
794.211	3912.88
794.543	3924.18
794.875	3941.13
795.207	3902.48
795.539	3915.59
795.871	3936.15
796.203	3810.96
796.535	3856.61
796.867	3823.84
797.198	3813.67
797.53	3862.03
797.862	3741.13
798.193	3802.37
798.525	3764.18
798.856	3794.01
799.188	3761.69
799.519	3754.69
799.85	3707.46
800.182	3687.12
800.513	3757.4
800.844	3650.51
801.175	3681.92
801.506	3700.68
801.837	3669.72
802.168	3656.84
802.499	3661.58
802.83	3630.85
803.161	3615.94
803.491	3616.16
803.822	3637.86
804.153	3596.73
804.483	3603.73
804.814	3538.65
805.145	3576.16
805.475	3556.28
805.805	3563.28
806.136	3569.38
806.466	3525.09
806.796	3569.84
807.126	3535.26
807.457	3475.83
807.787	3523.74
808.117	3495.71
808.447	3481.02
808.777	3488.71
809.107	3469.27
809.436	3494.58
809.766	3448.93
810.096	3486.67
810.426	3472.44
810.755	3473.34
811.085	3481.93
811.414	3464.75
811.744	3439.44
812.073	3440.8
812.403	3432.66
812.732	3408.94
813.061	3455.71
813.39	3406.22
813.719	3408.48
814.049	3416.39
814.378	3404.64
814.707	3392.21
815.036	3401.25
815.365	3387.92
815.693	3336.85
816.022	3399.67
816.351	3340.46
816.68	3349.28
817.008	3348.82
817.337	3345.43
817.665	3323.97
817.994	3295.94
818.322	3341.37
818.651	3315.38
818.979	3300.46
819.307	3343.85
819.636	3274.7
819.964	3260.47
820.292	3295.94
820.62	3266.34
820.948	3255.72
821.276	3276.51
821.604	3278.09
821.932	3315.83
822.259	3269.96
822.587	3304.08
822.915	3255.49
823.243	3288.94
823.57	3246.23
823.898	3286.68
824.225	3261.37
824.553	3301.37
824.88	3279.22
825.207	3286.91
825.535	3281.48
825.862	3266.57
826.189	3256.17
826.516	3284.42
826.843	3227.25
827.17	3306.11
827.497	3267.02
827.824	3282.61
828.151	3333.23
828.478	3289.62
828.805	3301.37
829.131	3242.16
829.458	3288.49
829.785	3281.26
830.111	3276.74
830.438	3302.27
830.764	3294.59
831.09	3263.85
831.417	3281.48
831.743	3298.66
832.069	3265.44
832.395	3228.38
832.722	3249.84
833.048	3247.13
833.374	3255.27
833.7	3204.87
834.026	3239.9
834.351	3201.26
834.677	3192.67
835.003	3215.27
835.329	3261.14
835.654	3233.12
835.98	3235.16
836.306	3209.39
836.631	3225.21
836.956	3216.62
837.282	3235.61
837.607	3194.48
837.932	3180.47
838.258	3179.56
838.583	3179.79
838.908	3134.59
839.233	3170.07
839.558	3182.28
839.883	3130.07
840.208	3148.38
840.533	3163.29
840.858	3134.37
841.182	3207.81
841.507	3151.99
841.832	3135.5
842.156	3117.64
842.481	3157.42
842.805	3143.86
843.13	3096.18
843.454	3137.53
843.778	3092.79
844.103	3084.88
844.427	3126.01
844.751	3088.49
845.075	3064.99
845.399	3097.08
845.723	3055.27
846.047	3097.31
846.371	3018.89
846.695	3039
847.019	3019.34
847.343	3012.56
847.666	2994.03
847.99	2958.55
848.313	2968.95
848.637	2964.65
848.96	2937.31
849.284	2962.17
849.607	2924.43
849.931	2907.03
850.254	2931.89
850.577	2881.94
850.9	2917.2
851.223	2914.03
851.546	2883.98
851.869	2872.68
852.192	2884.66
852.515	2839.01
852.838	2869.51
853.161	2822.96
853.483	2840.36
853.806	2822.74
854.129	2836.52
854.451	2811.89
854.774	2786.81
855.096	2788.61
855.419	2780.48
855.741	2778.9
856.063	2788.39
856.385	2781.16
856.708	2750.42
857.03	2771.66
857.352	2783.42
857.674	2777.99
857.996	2787.71
858.318	2777.77
858.64	2776.86
858.961	2731.67
859.283	2728.28
859.605	2691.44
859.926	2707.49
860.248	2707.26
860.57	2702.51
860.891	2698.67
861.212	2693.47
861.534	2675.4
861.855	2700.03
862.176	2681.72
862.498	2669.75
862.819	2700.48
863.14	2639.01
863.461	2603.31
863.782	2650.99
864.103	2650.54
864.424	2650.54
864.745	2632.91
865.065	2651.22
865.386	2626.36
865.707	2634.49
866.027	2630.65
866.348	2618.67
866.668	2655.96
866.989	2613.7
867.309	2613.25
867.63	2650.31
867.95	2578.9
868.27	2600.6
868.59	2600.82
868.91	2589.07
869.23	2581.84
869.55	2593.36
869.87	2573.7
870.19	2564.89
870.51	2567.38
870.83	2605.57
871.15	2561.27
871.469	2516.98
871.789	2579.13
872.109	2563.08
872.428	2524.67
872.748	2540.48
873.067	2562.63
873.386	2527.6
873.706	2571.22
874.025	2526.47
874.344	2520.37
874.663	2535.96
874.982	2526.25
875.301	2516.76
875.62	2527.83
875.939	2475.4
876.258	2487.15
876.577	2502.52
876.896	2512.24
877.214	2498.9
877.533	2501.62
877.852	2487.6
878.17	2491.9
878.489	2494.84
878.807	2479.92
879.125	2442.63
879.444	2481.5
879.762	2459.58
880.08	2448.51
880.398	2432.01
880.716	2437.66
881.034	2439.02
881.352	2395.63
881.67	2400.15
881.988	2413.48
882.306	2393.82
882.624	2406.02
882.941	2413.48
883.259	2375.97
883.577	2379.81
883.894	2346.59
884.212	2331
884.529	2368.06
884.846	2313.6
885.164	2353.37
885.481	2303.43
885.798	2322.41
886.115	2331
886.432	2335.29
886.75	2309.76
887.067	2294.84
887.383	2307.27
887.7	2286.48
888.017	2283.09
888.334	2287.84
888.651	2294.39
888.967	2226.37
889.284	2265.01
889.6	2250.1
889.917	2246.48
890.233	2266.14
890.55	2237.89
890.866	2255.52
891.182	2219.14
891.498	2232.47
891.815	2219.36
892.131	2223.66
892.447	2205.35
892.763	2218.23
893.079	2203.32
893.395	2165.35
893.71	2180.95
894.026	2181.4
894.342	2151.57
894.657	2150.44
894.973	2146.6
895.289	2155.64
895.604	2178.46
895.92	2102.08
896.235	2156.31
896.55	2142.98
896.865	2105.69
897.181	2075.86
897.496	2071.57
897.811	2109.99
898.126	2083.32
898.441	2087.84
898.756	2087.84
899.071	2068.41
899.386	2072.93
899.7	2033.38
900.015	2026.83
900.33	2019.37
900.644	2013.04
900.959	2013.04
901.273	2013.04
901.588	2014.4
901.902	1989.31
902.216	1990.22
902.531	2003.77
902.845	2003.55
903.159	1982.31
903.473	1993.61
903.787	1976.66
904.101	1940.5
904.415	1947.28
904.729	1961.97
905.042	1936.21
905.356	1938.69
905.67	1943.21
905.984	1940.05
906.297	1933.27
906.611	1921.29
906.924	1914.29
907.237	1933.95
907.551	1908.41
907.864	1917.68
908.177	1888.98
908.491	1888.52
908.804	1899.14
909.117	1849.43
909.43	1829.54
909.743	1847.62
910.056	1858.02
910.368	1820.95
910.681	1822.76
910.994	1820.95
911.307	1828.19
911.619	1807.4
911.932	1847.17
912.244	1819.83
912.557	1833.61
912.869	1811.46
913.181	1788.19
913.494	1784.35
913.806	1803.55
914.118	1736.44
914.43	1776.66
914.742	1750.9
915.054	1748.19
915.366	1744.35
915.678	1723.1
915.99	1740.05
916.302	1717
916.613	1742.09
916.925	1736.66
917.236	1707.74
917.548	1725.82
917.859	1718.58
918.171	1710
918.482	1733.05
918.794	1701.86
919.105	1722.43
919.416	1698.7
919.727	1699.6
920.038	1716.78
920.349	1689.66
920.66	1659.6
920.971	1655.54
921.282	1666.16
921.593	1628.87
921.903	1639.49
922.214	1622.09
922.525	1652.37
922.835	1622.77
923.146	1594.07
923.456	1607.85
923.767	1598.14
924.077	1618.47
924.387	1620.96
924.697	1599.72
925.008	1567.18
925.318	1592.49
925.628	1587.06
925.938	1556.56
926.248	1556.78
926.558	1543.22
926.867	1550.23
927.177	1562.2
927.487	1554.75
927.796	1561.07
928.106	1544.13
928.416	1573.05
928.725	1538.02
929.034	1534.86
929.344	1549.55
929.653	1520.17
929.962	1512.94
930.271	1486.95
930.581	1496.44
930.89	1470
931.199	1492.15
931.508	1498.7
931.817	1497.35
932.125	1488.08
932.434	1511.58
932.743	1452.15
933.051	1455.54
933.36	1466.84
933.669	1462.32
933.977	1441.98
934.286	1443.11
934.594	1444.24
934.902	1426.16
935.21	1413.73
935.519	1419.38
935.827	1401.08
936.135	1404.47
936.443	1392.04
936.751	1388.42
937.059	1382.1
937.367	1388.42
937.674	1361.53
937.982	1391.59
938.29	1368.31
938.597	1362.66
938.905	1365.15
939.213	1332.83
939.52	1329.89
939.827	1316.79
940.135	1355.66
940.442	1329.67
940.749	1344.81
941.056	1331.02
941.363	1357.92
941.67	1309.1
941.977	1325.37
942.284	1284.7
942.591	1300.74
942.898	1284.02
943.205	1282.66
943.511	1273.4
943.818	1288.99
944.125	1280.63
944.431	1293.96
944.738	1291.93
945.044	1265.94
945.35	1260.07
945.657	1254.19
945.963	1274.53
946.269	1247.41
946.575	1247.64
946.881	1245.6
947.187	1213.51
947.493	1216.9
947.799	1253.29
948.105	1214.87
948.41	1255.77
948.716	1211.71
949.022	1189.33
949.327	1200.41
949.633	1194.53
949.938	1199.5
950.244	1207.64
950.549	1206.96
950.854	1230.69
951.16	1180.52
951.465	1172.84
951.77	1177.81
952.075	1197.02
952.38	1149.79
952.685	1153.18
952.99	1154.08
953.294	1158.83
953.599	1141.88
953.904	1166.28
954.209	1138.71
954.513	1165.38
954.818	1150.01
955.122	1152.27
955.426	1134.65
955.731	1122.22
956.035	1137.58
956.339	1135.1
956.643	1126.74
956.948	1137.36
957.252	1094.65
957.556	1108.43
957.86	1115.21
958.163	1098.26
958.467	1113.85
958.771	1086.51
959.075	1081.31
959.378	1086.96
959.682	1084.03
959.985	1076.79
960.289	1093.06
960.592	1059.17
960.896	1060.75
961.199	1054.2
961.502	1056
961.805	1034.76
962.108	1035.66
962.411	1039.05
962.714	1048.09
963.017	1046.51
963.32	1032.05
963.623	1050.81
963.926	1039.05
964.228	1024.14
964.531	1020.3
964.833	1023.46
965.136	1011.71
965.438	1005.16
965.741	1000.64
966.043	1009.22
966.345	1007.42
966.648	1013.07
966.95	1005.16
967.252	1011.26
967.554	987.08
967.856	973.75
968.158	994.99
968.46	988.43
968.761	998.15
969.063	967.64
969.365	967.19
969.666	968.32
969.968	950.02
970.269	961.54
970.571	945.95
970.872	950.92
971.174	944.59
971.475	955.89
971.776	948.21
972.077	940.53
972.378	952.28
972.679	944.59
972.98	937.59
973.281	930.13
973.582	924.03
973.883	940.98
974.183	927.87
974.484	936.46
974.785	908.66
975.085	902.79
975.386	917.7
975.686	923.35
975.986	913.63
976.287	897.82
976.587	933.52
976.887	916.57
977.187	899.4
977.487	873.41
977.787	887.19
978.087	924.03
978.387	909.57
978.687	871.6
978.987	882.9
979.286	883.8
979.586	888.1
979.885	891.94
980.185	862.79
980.484	901.21
980.784	875.22
981.083	880.41
981.382	867.76
981.682	881.77
981.981	852.84
982.28	857.36
982.579	850.81
982.878	870.25
983.177	868.66
983.475	853.3
983.774	841.55
984.073	850.81
984.372	826.86
984.67	818.04
984.969	832.73
985.267	834.31
985.566	811.49
985.864	843.58
986.162	837.48
986.461	839.96
986.759	841.55
987.057	809.68
987.355	836.8
987.653	819.17
987.951	825.05
988.249	803.58
988.547	811.04
988.844	812.39
989.142	799.06
989.44	792.28
989.737	805.61
990.035	786.41
990.332	796.35
990.63	795.9
990.927	775.11
991.224	799.29
991.521	800.64
991.819	780.53
992.116	779.63
992.413	779.85
992.71	746.41
993.006	761.77
993.303	776.01
993.6	780.98
993.897	766.29
994.193	766.07
994.49	722.45
994.787	730.81
995.083	764.03
995.379	763.13
995.676	749.57
995.972	726.29
996.268	768.55
996.565	750.47
996.861	736.46
997.157	743.47
997.453	722.9
997.749	732.17
998.044	745.28
998.34	732.4
998.636	736.24
998.932	710.25
999.227	709.12
999.523	699.18
999.818	697.37
1000.114	715.9
1000.409	693.53
1000.704	689.01
1001	679.74
1001.295	703.7
1001.59	697.82
1001.885	677.71
1002.18	713.19
1002.475	675.22
1002.77	679.06
1003.065	683.58
1003.359	675.67
1003.654	672.06
1003.949	669.12
1004.243	671.15
1004.538	670.93
1004.832	648.33
1005.127	660.99
1005.421	695.56
1005.715	664.83
1006.009	642.45
1006.304	629.57
1006.598	653.3
1006.892	632.29
1007.186	633.64
1007.48	646.52
1007.773	647.65
1008.067	667.99
1008.361	631.83
1008.655	662.79
1008.948	611.27
1009.242	629.8
1009.535	622.34
1009.829	627.99
1010.122	616.92
1010.415	614.43
1010.708	607.65
1011.001	631.83
1011.295	611.72
1011.588	616.92
1011.881	583.93
1012.173	642.23
1012.466	605.39
1012.759	599.97
1013.052	610.14
1013.344	587.99
1013.637	579.63
1013.93	584.6
1014.222	573.76
1014.514	591.38
1014.807	601.1
1015.099	582.57
1015.391	581.21
1015.683	587.99
1015.976	580.76
1016.268	578.73
1016.56	573.53
1016.851	570.37
1017.143	585.06
1017.435	535.34
1017.727	574.66
1018.018	566.3
1018.31	582.34
1018.602	563.13
1018.893	550.03
1019.185	554.1
1019.476	552.06
1019.767	528.33
1020.058	521.78
1020.35	562.68
1020.641	553.64
1020.932	533.08
1021.223	503.02
1021.514	527.88
1021.804	545.51
1022.095	530.37
1022.386	534.44
1022.677	543.25
1022.967	531.72
1023.258	547.09
1023.548	516.81
1023.839	499.86
1024.129	526.07
1024.419	517.94
1024.709	517.26
1025	517.49
1025.29	517.26
1025.58	503.02
1025.87	495.79
1026.16	512.29
1026.449	527.43
1026.739	510.25
1027.029	488.79
1027.319	508.67
1027.608	500.54
1027.898	500.54
1028.187	489.46
1028.477	509.8
1028.766	496.24
1029.055	479.3
1029.344	478.84
1029.634	491.5
1029.923	485.85
1030.212	477.71
1030.501	485.85
1030.79	479.07
1031.078	472.29
1031.367	459.41
1031.656	482.69
1031.945	470.93
1032.233	471.61
1032.522	466.64
1032.81	496.02
1033.099	472.97
1033.387	476.58
1033.675	467.77
1033.963	451.05
1034.251	466.19
1034.54	466.41
1034.828	445.62
1035.116	451.95
1035.403	468.67
1035.691	449.69
1035.979	453.31
1036.267	438.84
1036.554	429.35
1036.842	432.97
1037.129	482.91
1037.417	430.48
1037.704	470.03
1037.992	413.76
1038.279	444.49
1038.566	454.89
1038.853	454.89
1039.14	454.89
