Data from foam_black_FLMS001491_00094.txt Node
Date: Wed Feb 08 10:45:05 GMT 2017
User: dcchb
Spectrometer: FLMS00149
Trigger mode: 0
Integration Time (sec): 2.000000E-2
Scans to average: 10
Electric dark correction enabled: true
Nonlinearity correction enabled: false
Boxcar width: 0
XAxis mode: Wavelengths
Number of Pixels in Spectrum: 2048
>>>>>Begin Spectral Data<<<<<
341.393	-16.02
341.776	-16.02
342.16	-16.02
342.543	-53.98
342.927	-58.95
343.31	-72.29
343.693	-64.6
344.077	-80.42
344.46	-68.67
344.843	-63.47
345.226	-23.7
345.61	-22.12
345.993	-17.82
346.376	3.64
346.759	21.95
347.142	13.14
347.525	35.28
347.908	47.71
348.291	96.3
348.674	90.65
349.057	104.43
349.44	138.1
349.823	165
350.206	147.14
350.588	172.45
350.971	216.97
351.354	194.37
351.737	238.67
352.119	242.51
352.502	253.35
352.884	244.54
353.267	263.75
353.65	293.13
354.032	276.63
354.414	278.89
354.797	296.74
355.179	296.74
355.562	303.98
355.944	298.33
356.326	300.13
356.709	322.73
357.091	298.1
357.473	331.09
357.855	318.89
358.238	314.82
358.62	317.99
359.002	307.82
359.384	323.64
359.766	318.44
360.148	343.3
360.53	313.47
360.912	319.79
361.294	310.98
361.676	311.88
362.057	304.2
362.439	320.02
362.821	305.78
363.203	294.26
363.584	313.92
363.966	292.22
364.348	277.31
364.729	302.17
365.111	295.39
365.493	302.17
365.874	289.96
366.256	303.52
366.637	306.91
367.019	297.42
367.4	275.5
367.781	301.72
368.163	284.31
368.544	289.06
368.925	284.99
369.306	295.16
369.688	295.39
370.069	284.54
370.45	292.68
370.831	295.16
371.212	307.14
371.593	309.62
371.974	313.92
372.355	289.29
372.736	283.18
373.117	289.74
373.498	301.49
373.879	292.45
374.26	310.98
374.641	304.2
375.021	284.54
375.402	303.52
375.783	284.77
376.163	294.94
376.544	287.48
376.925	285.22
377.305	300.59
377.686	282.51
378.066	301.94
378.447	284.77
378.827	290.87
379.208	301.72
379.588	298.33
379.968	314.37
380.349	299
380.729	307.59
381.109	303.52
381.489	297.2
381.87	294.26
382.25	299.46
382.63	282.51
383.01	302.39
383.39	294.48
383.77	318.89
384.15	322.28
384.53	328.61
384.91	320.25
385.29	295.61
385.67	283.18
386.049	321.38
386.429	306.91
386.809	325.44
387.189	302.62
387.568	323.41
387.948	324.99
388.328	301.94
388.707	302.85
389.087	308.04
389.466	333.13
389.846	304.2
390.225	315.73
390.605	291.55
390.984	323.41
391.363	315.5
391.743	316.4
392.122	340.58
392.501	324.99
392.881	326.12
393.26	310.98
393.639	331.77
394.018	305.78
394.397	309.4
394.776	311.88
395.155	320.25
395.534	326.57
395.913	325.22
396.292	328.61
396.671	332
397.05	308.49
397.429	327.03
397.808	308.27
398.186	320.02
398.565	339.91
398.944	317.31
399.323	339.68
399.701	322.51
400.08	334.48
400.458	344.43
400.837	333.13
401.215	332.9
401.594	335.16
401.972	332.22
402.351	329.51
402.729	313.01
403.107	332.67
403.486	339
403.864	314.14
404.242	318.89
404.62	319.79
404.999	345.33
405.377	330.42
405.755	339.23
406.133	337.87
406.511	357.76
406.889	350.53
407.267	338.55
407.645	352.79
408.023	348.27
408.401	354.82
408.779	355.95
409.156	328.83
409.534	350.08
409.912	323.86
410.29	350.3
410.667	349.62
411.045	368.83
411.422	358.44
411.8	363.86
412.178	357.76
412.555	358.66
412.933	364.54
413.31	362.5
413.687	358.21
414.065	367.02
414.442	366.8
414.819	359.11
415.197	350.75
415.574	346.46
415.951	364.76
416.328	357.98
416.705	377.42
417.082	386.01
417.46	344.43
417.837	361.83
418.214	379.23
418.591	360.92
418.967	369.28
419.344	371.32
419.721	365.22
420.098	388.94
420.475	383.07
420.852	383.07
421.228	369.96
421.605	358.21
421.982	397.31
422.358	361.83
422.735	378.1
423.111	395.5
423.488	400.02
423.864	401.83
424.241	364.99
424.617	389.62
424.994	392.56
425.37	386.91
425.746	385.1
426.123	368.61
426.499	397.76
426.875	394.37
427.251	384.88
427.627	388.94
428.003	384.42
428.379	392.11
428.756	398.66
429.132	386.23
429.507	391.43
429.883	416.74
430.259	415.61
430.635	402.73
431.011	420.36
431.387	410.41
431.763	402.5
432.138	417.42
432.514	405.22
432.89	404.54
433.265	408.38
433.641	403.41
434.016	422.16
434.392	411.32
434.767	422.62
435.143	418.32
435.518	420.36
435.894	411.54
436.269	419.45
436.644	435.27
437.02	439.56
437.395	436.63
437.77	419.23
438.145	448.38
438.52	428.49
438.895	443.41
439.271	439.79
439.646	451.77
440.021	452.22
440.395	459
440.77	439.56
441.145	462.16
441.52	457.87
441.895	440.69
442.27	453.8
442.645	486.12
443.019	449.96
443.394	450.86
443.769	449.28
444.143	463.97
444.518	450.86
444.892	461.94
445.267	470.98
445.641	467.81
446.016	459
446.39	443.18
446.764	444.31
447.139	462.61
447.513	460.58
447.887	460.36
448.262	460.36
448.636	456.29
449.01	487.25
449.384	482.73
449.758	477.08
450.132	475.27
450.506	482.5
450.88	469.39
451.254	495.16
451.628	480.69
452.002	485.21
452.376	494.48
452.75	501.71
453.123	471.88
453.497	477.53
453.871	501.48
454.244	498.32
454.618	511.88
454.992	512.11
455.365	517.53
455.739	506.46
456.112	515.95
456.486	517.98
456.859	531.31
457.232	522.27
457.606	507.81
457.979	526.57
458.352	544.42
458.725	545.32
459.099	521.6
459.472	528.38
459.845	532.9
460.218	542.84
460.591	517.75
460.964	520.47
461.337	531.77
461.71	553.01
462.083	523.18
462.456	555.72
462.829	552.78
463.201	557.53
463.574	556.17
463.947	562.73
464.32	561.14
464.692	573.57
465.065	581.26
465.438	593.01
465.81	574.25
466.183	573.8
466.555	586.68
466.928	589.39
467.3	572.67
467.672	595.49
468.045	595.49
468.417	614.25
468.789	607.24
469.161	612.67
469.534	616.74
469.906	631.42
470.278	613.8
470.65	633.23
471.022	639.33
471.394	629.62
471.766	641.37
472.138	627.81
472.51	644.08
472.882	675.94
473.253	665.32
473.625	642.5
473.997	657.86
474.369	677.75
474.74	666.23
475.112	722.5
475.484	694.02
475.855	717.98
476.227	699.44
476.598	736.73
476.97	727.69
477.341	710.52
477.713	712.1
478.084	725.66
478.455	725.66
478.827	747.35
479.198	743.74
479.569	763.85
479.94	756.62
480.311	761.36
480.682	768.82
481.053	809.72
481.424	821.25
481.795	799.78
482.166	797.75
482.537	812.44
482.908	840.01
483.279	847.46
483.65	858.31
484.021	866.22
484.391	868.25
484.762	863.06
485.133	869.84
485.503	881.59
485.874	878.88
486.244	898.76
486.615	888.82
486.985	914.81
487.356	922.04
487.726	927.69
488.097	937.63
488.467	945.54
488.837	974.47
489.207	973.79
489.578	973.34
489.948	974.69
490.318	994.13
490.688	994.58
491.058	1030.96
491.428	993
491.798	1018.98
492.168	1037.74
492.538	1013.79
492.908	1026.67
493.278	1070.73
493.648	1048.36
494.017	1082.03
494.387	1054.01
494.757	1113.67
495.126	1078.64
495.496	1084.52
495.866	1109.15
496.235	1097.63
496.605	1091.07
496.974	1127.46
497.344	1122.71
497.713	1128.36
498.082	1140.56
498.452	1143.05
498.821	1142.15
499.19	1132.88
499.559	1153.67
499.928	1133.11
500.298	1164.29
500.667	1185.08
501.036	1166.1
501.405	1187.79
501.774	1173.1
502.143	1140.11
502.512	1171.52
502.88	1171.75
503.249	1192.54
503.618	1186.21
503.987	1201.8
504.356	1213.56
504.724	1218.75
505.093	1204.29
505.462	1244.06
505.83	1213.33
506.199	1230.28
506.567	1246.1
506.936	1256.72
507.304	1270.5
507.672	1254.01
508.041	1250.16
508.409	1276.6
508.777	1270.28
509.145	1304.85
509.514	1298.98
509.882	1285.64
510.25	1322.25
510.618	1324.29
510.986	1323.84
511.354	1344.17
511.722	1324.97
512.09	1326.77
512.458	1339.88
512.826	1387.11
513.193	1369.26
513.561	1374.68
513.929	1400.22
514.297	1413.1
514.664	1401.8
515.032	1434.11
515.4	1438.18
515.767	1457.39
516.135	1446.09
516.502	1437.5
516.869	1473.89
517.237	1472.53
517.604	1464.17
517.972	1486.99
518.339	1494.9
518.706	1523.6
519.073	1528.8
519.44	1501.68
519.808	1531.97
520.175	1526.54
520.542	1570.83
520.909	1563.6
521.276	1552.08
521.643	1551.17
522.009	1586.88
522.376	1581.46
522.743	1601.34
523.11	1632.53
523.477	1607.44
523.843	1608.12
524.21	1649.48
524.577	1639.53
524.943	1684.28
525.31	1636.37
525.676	1678.18
526.043	1643.83
526.409	1650.83
526.776	1639.08
527.142	1659.87
527.508	1639.76
527.874	1666.2
528.241	1697.61
528.607	1695.8
528.973	1699.42
529.339	1682.92
529.705	1715.01
530.071	1733.99
530.437	1743.26
530.803	1735.58
531.169	1749.59
531.535	1776.03
531.901	1785.74
532.267	1756.14
532.632	1785.29
532.998	1761.11
533.364	1792.52
533.73	1766.54
534.095	1809.47
534.461	1797.95
534.826	1813.09
535.192	1850.15
535.557	1866.87
535.923	1847.66
536.288	1862.8
536.653	1860.32
537.019	1889.47
537.384	1857.83
537.749	1884.5
538.114	1894.89
538.479	1909.81
538.845	1904.38
539.21	1914.78
539.575	1908
539.94	1913.65
540.305	1947.32
540.67	1958.62
541.034	1967.66
541.399	1969.02
541.764	1976.7
542.129	1997.26
542.494	1991.39
542.858	1990.48
543.223	2030.26
543.587	2045.4
543.952	2039.97
544.316	2058.28
544.681	2045.4
545.045	2048.11
545.41	2079.07
545.774	2075.68
546.138	2089.01
546.503	2107.54
546.867	2084.95
547.231	2101.67
547.595	2114.32
547.959	2097.37
548.324	2127.88
548.688	2115.68
549.052	2133.53
549.416	2100.76
549.779	2146.41
550.143	2127.2
550.507	2138.96
550.871	2145.28
551.235	2163.59
551.599	2150.71
551.962	2177.37
552.326	2168.56
552.689	2173.08
553.053	2166.3
553.417	2199.29
553.78	2174.89
554.143	2168.78
554.507	2195.68
554.87	2180.54
555.234	2197.48
555.597	2192.06
555.96	2202.68
556.323	2196.13
556.686	2215.11
557.05	2206.98
557.413	2230.03
557.776	2210.59
558.139	2197.94
558.502	2229.35
558.865	2215.79
559.228	2242.91
559.59	2237.26
559.953	2257.14
560.316	2291.95
560.679	2301.21
561.041	2285.84
561.404	2306.86
561.767	2316.35
562.129	2334.66
562.492	2353.86
562.854	2323.36
563.217	2349.57
563.579	2362.45
563.941	2392.28
564.304	2388.21
564.666	2417.14
565.028	2434.99
565.39	2442.9
565.753	2428.44
566.115	2455.56
566.477	2463.47
566.839	2497.36
567.201	2491.04
567.563	2518.15
567.925	2492.84
568.287	2522.67
568.648	2534.42
569.01	2546.63
569.372	2572.16
569.734	2569.23
570.095	2585.27
570.457	2623.69
570.819	2588.21
571.18	2622.33
571.542	2634.54
571.903	2625.72
572.265	2669.11
572.626	2663.01
572.987	2680.86
573.349	2690.13
573.71	2682.44
574.071	2721.54
574.432	2721.09
574.794	2756.79
575.155	2710.69
575.516	2760.63
575.877	2748.43
576.238	2781.88
576.599	2735.78
576.96	2748.43
577.32	2775.77
577.681	2764.7
578.042	2772.61
578.403	2772.38
578.763	2798.6
579.124	2794.53
579.485	2782.33
579.845	2787.75
580.206	2812.84
580.566	2825.26
580.927	2806.28
581.287	2793.4
581.648	2845.15
582.008	2823
582.368	2792.05
582.728	2816
583.089	2798.6
583.449	2785.72
583.809	2800.63
584.169	2819.62
584.529	2776
584.889	2794.08
585.249	2789.79
585.609	2807.64
585.969	2772.16
586.329	2773.06
586.688	2780.97
587.048	2805.15
587.408	2757.47
587.768	2727.64
588.127	2744.59
588.487	2717.7
588.846	2743.46
589.206	2738.49
589.565	2726.74
589.925	2723.57
590.284	2747.98
590.643	2735.55
591.003	2759.28
591.362	2785.94
591.721	2762.44
592.08	2718.83
592.44	2753.63
592.799	2729.22
593.158	2719.96
593.517	2719.05
593.876	2760.86
594.235	2723.12
594.593	2753.4
594.952	2758.37
595.311	2756.79
595.67	2774.19
596.029	2747.98
596.387	2760.63
596.746	2790.92
597.104	2748.2
597.463	2766.51
597.822	2779.62
598.18	2762.89
598.538	2778.49
598.897	2807.64
599.255	2769.22
599.613	2802.44
599.972	2833.17
600.33	2826.39
600.688	2790.69
601.046	2795.21
601.404	2839.95
601.762	2800.41
602.12	2821.65
602.478	2809.45
602.836	2850.35
603.194	2819.16
603.552	2847.41
603.91	2872.72
604.268	2875.21
604.625	2892.61
604.983	2863.91
605.341	2899.84
605.698	2881.76
606.056	2882.44
606.413	2904.58
606.771	2857.35
607.128	2864.13
607.485	2912.04
607.843	2912.72
608.2	2936.22
608.557	2928.31
608.914	2924.25
609.272	2914.3
609.629	2937.58
609.986	2982.32
610.343	2938.93
610.7	2948.88
611.057	2986.39
611.414	2963.57
611.771	2914.08
612.127	2992.49
612.484	2950.91
612.841	2941.19
613.198	2955.2
613.554	2978.93
613.911	2979.84
614.267	2955.66
614.624	3009.67
614.98	3003.11
615.337	2970.57
615.693	2966.5
616.05	2984.13
616.406	2965.37
616.762	3008.99
617.118	2993.17
617.475	2992.27
617.831	3020.74
618.187	2985.49
618.543	2996.11
618.899	3029.1
619.255	2999.95
619.611	2963.11
619.967	3024.36
620.323	3038.59
620.678	2978.93
621.034	2963.79
621.39	3035.43
621.746	2957.92
622.101	2973.51
622.457	2953.17
622.812	2957.01
623.168	2961.76
623.523	2951.59
623.879	2963.11
624.234	2952.94
624.589	2981.19
624.945	2927.41
625.3	2937.13
625.655	2962.66
626.01	2960.85
626.365	2958.37
626.72	2943.91
627.075	2955.88
627.43	2936
627.785	2940.74
628.14	2952.94
628.495	2978.48
628.85	2923.34
629.205	2940.52
629.559	2909.1
629.914	2954.75
630.269	2937.35
630.623	2893.96
630.978	2950.91
631.332	2945.71
631.687	2961.98
632.041	2909.56
632.396	2930.35
632.75	2890.35
633.104	2884.92
633.459	2890.35
633.813	2892.16
634.167	2893.51
634.521	2898.71
634.875	2897.13
635.229	2888.31
635.583	2913.4
635.937	2884.7
636.291	2884.02
636.645	2910.91
636.999	2839.5
637.352	2892.38
637.706	2913.17
638.06	2870.01
638.413	2867.98
638.767	2817.81
639.121	2848.99
639.474	2856.22
639.828	2866.62
640.181	2852.83
640.534	2880.63
640.888	2861.2
641.241	2880.63
641.594	2851.93
641.947	2878.14
642.301	2850.35
642.654	2880.86
643.007	2872.95
643.36	2890.57
643.713	2857.58
644.066	2880.18
644.419	2804.7
644.771	2800.41
645.124	2834.98
645.477	2834.76
645.83	2792.95
646.182	2760.63
646.535	2825.72
646.888	2794.76
647.24	2784.14
647.593	2821.65
647.945	2794.31
648.298	2770.58
648.65	2795.89
649.002	2740.52
649.355	2799.73
649.707	2784.81
650.059	2755.21
650.411	2826.17
650.763	2809.67
651.115	2832.5
651.467	2867.98
651.819	2826.62
652.171	2831.59
652.523	2800.63
652.875	2852.83
653.227	2856.68
653.578	2822.33
653.93	2826.39
654.282	2811.25
654.633	2832.04
654.985	2835.21
655.337	2829.33
655.688	2827.98
656.039	2800.41
656.391	2801.76
656.742	2825.26
657.094	2799.28
657.445	2823.23
657.796	2797.92
658.147	2781.2
658.498	2826.62
658.849	2797.24
659.2	2792.95
659.551	2826.85
659.902	2794.98
660.253	2785.49
660.604	2751.14
660.955	2787.98
661.306	2815.32
661.656	2762.22
662.007	2766.74
662.358	2787.53
662.708	2786.62
663.059	2770.12
663.409	2746.17
663.76	2747.98
664.11	2726.74
664.461	2819.39
664.811	2787.53
665.161	2757.24
665.511	2764.48
665.862	2752.95
666.212	2794.31
666.562	2750.01
666.912	2746.17
667.262	2762.22
667.612	2726.74
667.962	2746.4
668.312	2724.25
668.662	2736
669.011	2708.21
669.361	2711.6
669.711	2741.65
670.06	2722.89
670.41	2735.32
670.76	2694.42
671.109	2735.55
671.459	2742.33
671.808	2717.24
672.157	2718.6
672.507	2651.03
672.856	2710.24
673.205	2701.2
673.554	2766.74
673.904	2689.22
674.253	2716.34
674.602	2694.65
674.951	2656.68
675.3	2645.16
675.649	2693.97
675.998	2668.43
676.346	2704.82
676.695	2709.79
677.044	2660.75
677.393	2684.93
677.741	2675.44
678.09	2666.4
678.438	2685.38
678.787	2651.26
679.135	2683.12
679.484	2660.52
679.832	2681.77
680.181	2646.29
680.529	2638.83
680.877	2651.48
681.225	2661.2
681.573	2650.13
681.922	2691.71
682.27	2654.2
682.618	2656.68
682.966	2678.15
683.314	2618.94
683.661	2646.74
684.009	2625.5
684.357	2626.4
684.705	2648.55
685.053	2604.25
685.4	2628.21
685.748	2596.34
686.095	2621.88
686.443	2640.64
686.79	2587.98
687.138	2611.49
687.485	2587.76
687.832	2570.13
688.18	2579.85
688.527	2595.67
688.874	2594.76
689.221	2564.48
689.568	2592.05
689.915	2553.41
690.262	2586.4
690.609	2551.83
690.956	2542.79
691.303	2580.3
691.65	2560.64
691.997	2543.92
692.344	2531.04
692.69	2532.84
693.037	2532.84
693.383	2538.94
693.73	2545.5
694.077	2534.88
694.423	2518.61
694.769	2472.28
695.116	2527.42
695.462	2473.41
695.808	2511.6
696.155	2478.83
696.501	2464.37
696.847	2482.22
697.193	2424.37
697.539	2490.13
697.885	2436.8
698.231	2448.33
698.577	2453.07
698.923	2440.87
699.269	2434.99
699.614	2419.63
699.96	2417.59
700.306	2411.04
700.651	2394.32
700.997	2425.05
701.342	2412.62
701.688	2425.95
702.033	2375.56
702.379	2380.98
702.724	2366.75
703.069	2367.88
703.415	2366.07
703.76	2361.32
704.105	2346.63
704.45	2331.27
704.795	2326.07
705.14	2351.15
705.485	2366.29
705.83	2334.88
706.175	2329.01
706.52	2348.44
706.865	2297.14
707.209	2298.72
707.554	2326.52
707.899	2308.22
708.243	2321.32
708.588	2284.04
708.932	2306.63
709.277	2294.66
709.621	2262.34
709.966	2280.19
710.31	2257.14
710.654	2255.79
710.998	2279.74
711.342	2258.5
711.687	2230.48
712.031	2237.71
712.375	2262.12
712.719	2245.39
713.063	2247.43
713.407	2261.44
713.75	2230.93
714.094	2239.74
714.438	2210.37
714.782	2226.86
715.125	2199.52
715.469	2227.99
715.812	2211.5
716.156	2225.51
716.499	2164.27
716.843	2173.98
717.186	2177.6
717.53	2179.63
717.873	2198.39
718.216	2186.41
718.559	2168.11
718.902	2191.61
719.246	2156.81
719.589	2187.99
719.932	2193.42
720.275	2173.98
720.617	2144.38
720.96	2180.08
721.303	2160.42
721.646	2148.22
721.989	2164.49
722.331	2107.09
722.674	2122.91
723.016	2150.93
723.359	2145.96
723.701	2144.83
724.044	2136.92
724.386	2121.55
724.729	2127.88
725.071	2144.15
725.413	2125.62
725.755	2117.71
726.097	2111.84
726.439	2112.52
726.782	2101.44
727.124	2112.52
727.465	2113.42
727.807	2118.84
728.149	2118.16
728.491	2107.77
728.833	2089.92
729.175	2094.21
729.516	2109.58
729.858	2076.36
730.199	2070.48
730.541	2098.5
730.882	2078.62
731.224	2100.54
731.565	2056.47
731.906	2053.76
732.248	2086.98
732.589	2067.77
732.93	2064.15
733.271	2063.02
733.612	2051.27
733.953	2053.76
734.294	2083.59
734.635	2039.52
734.976	2063.25
735.317	2039.07
735.658	2030.03
735.999	2038.17
736.339	2020.77
736.68	2030.71
737.021	2036.13
737.361	2037.04
737.702	2011.95
738.042	2027.77
738.383	2000.43
738.723	2009.69
739.063	2020.31
739.404	2038.39
739.744	2036.13
740.084	2003.14
740.424	2013.99
740.764	2021.22
741.104	2003.82
741.444	1995.46
741.784	1992.97
742.124	1985.96
742.464	1968.34
742.804	1975.8
743.143	1977.83
743.483	2004.72
743.823	1980.77
744.162	1961.78
744.502	1947.32
744.841	1986.42
745.181	1993.87
745.52	1955.46
745.86	1974.67
746.199	1985.51
746.538	1972.18
746.877	1964.72
747.216	1959.98
747.556	1941.67
747.895	1956.14
748.234	1935.8
748.573	1974.89
748.911	1922.24
749.25	1962.24
749.589	1931.05
749.928	1930.37
750.267	1939.86
750.605	1910.49
750.944	1922.46
751.283	1929.02
751.621	1917.94
751.96	1907.77
752.298	1929.24
752.636	1915.01
752.975	1901.9
753.313	1890.6
753.651	1897.15
753.989	1897.38
754.327	1899.64
754.666	1889.02
755.004	1865.06
755.342	1861.22
755.679	1899.87
756.017	1839.75
756.355	1851.28
756.693	1869.13
757.031	1862.13
757.368	1846.76
757.706	1868.23
758.044	1845.63
758.381	1841.56
758.719	1871.17
759.056	1825.29
759.394	1827.55
759.731	1815.8
760.068	1793.65
760.405	1834.56
760.743	1829.36
761.08	1810.83
761.417	1797.95
761.754	1808.79
762.091	1841.79
762.428	1804.5
762.765	1803.82
763.102	1792.98
763.438	1781.68
763.775	1783.94
764.112	1756.37
764.449	1779.19
764.785	1778.06
765.122	1755.01
765.458	1768.8
765.795	1744.84
766.131	1762.47
766.467	1713.43
766.804	1723.37
767.14	1722.24
767.476	1720.66
767.812	1736.25
768.148	1731.96
768.485	1696.71
768.821	1724.28
769.157	1690.61
769.492	1712.3
769.828	1698.74
770.164	1694.45
770.5	1679.53
770.836	1659.87
771.171	1659.19
771.507	1673.2
771.842	1668.46
772.178	1649.7
772.513	1655.13
772.849	1650.61
773.184	1651.28
773.519	1677.95
773.855	1621
774.19	1621.45
774.525	1653.32
774.86	1651.51
775.195	1603.83
775.53	1602.92
775.865	1626.2
776.2	1622.36
776.535	1621
776.87	1605.64
777.205	1594.79
777.539	1578.52
777.874	1593.88
778.209	1586.88
778.543	1576.03
778.878	1562.02
779.212	1554.34
779.547	1572.87
779.881	1569.25
780.215	1551.85
780.55	1561.34
780.884	1560.44
781.218	1554.56
781.552	1556.6
781.886	1553.66
782.22	1535.13
782.554	1566.09
782.888	1494
783.222	1485.64
783.556	1507.79
783.889	1501.01
784.223	1513.43
784.557	1507.33
784.89	1530.84
785.224	1511.85
785.557	1465.53
785.891	1450.61
786.224	1499.42
786.558	1481.57
786.891	1451.74
787.224	1454
787.557	1461.91
787.891	1476.83
788.224	1485.41
788.557	1466.2
788.89	1461.91
789.223	1466.2
789.556	1450.84
789.888	1463.49
790.221	1430.05
790.554	1440.22
790.887	1455.36
791.219	1433.44
791.552	1448.35
791.884	1434.11
792.217	1409.26
792.549	1417.62
792.882	1428.92
793.214	1399.99
793.546	1399.54
793.879	1411.29
794.211	1423.04
794.543	1403.16
794.875	1386.43
795.207	1376.04
795.539	1392.76
795.871	1390.5
796.203	1369.48
796.535	1374.68
796.867	1413.78
797.198	1376.04
797.53	1378.07
797.862	1354.79
798.193	1418.3
798.525	1359.31
798.856	1374.91
799.188	1344.63
799.519	1356.15
799.85	1360.44
800.182	1342.59
800.513	1356.6
800.844	1340.11
801.175	1332.87
801.506	1338.3
801.837	1333.78
802.168	1339.2
802.499	1327.45
802.83	1313.44
803.161	1329.26
803.491	1320.9
803.822	1326.1
804.153	1329.94
804.483	1321.8
804.814	1309.15
805.145	1291.97
805.475	1315.02
805.805	1294.68
806.136	1313.21
806.466	1298.07
806.796	1298.53
807.126	1289.94
807.457	1295.59
807.787	1285.87
808.117	1281.35
808.447	1260.33
808.777	1272.99
809.107	1255.14
809.436	1284.97
809.766	1286.32
810.096	1278.64
810.426	1284.51
810.755	1254.46
811.085	1283.61
811.414	1290.16
811.744	1269.15
812.073	1251.29
812.403	1269.6
812.732	1252.42
813.061	1256.49
813.39	1257.4
813.719	1242.71
814.049	1263.95
814.378	1224.63
814.707	1242.71
815.036	1244.29
815.365	1240.22
815.693	1243.39
816.022	1222.37
816.351	1223.05
816.68	1211.52
817.008	1245.87
817.337	1218.53
817.665	1219.43
817.994	1211.97
818.322	1244.29
818.651	1193.9
818.979	1221.01
819.307	1198.87
819.636	1224.18
819.964	1204.06
820.292	1207.91
820.62	1213.1
820.948	1193.9
821.276	1192.09
821.604	1184.4
821.932	1207.68
822.259	1191.18
822.587	1192.99
822.915	1195.25
823.243	1189.38
823.57	1189.6
823.898	1198.41
824.225	1180.56
824.553	1190.96
824.88	1173.1
825.207	1191.41
825.535	1197.74
825.862	1171.75
826.189	1171.52
826.516	1213.78
826.843	1191.41
827.17	1193.9
827.497	1184.63
827.824	1178.08
828.151	1198.87
828.478	1176.95
828.805	1187.12
829.131	1181.24
829.458	1184.63
829.785	1170.17
830.111	1188.47
830.438	1171.52
830.764	1181.24
831.09	1164.74
831.417	1189.83
831.743	1172.88
832.069	1179.21
832.395	1166.55
832.722	1144.4
833.048	1149.38
833.374	1162.94
833.7	1165.87
834.026	1170.39
834.351	1136.04
834.677	1158.19
835.003	1147.34
835.329	1162.94
835.654	1160.68
835.98	1181.47
836.306	1171.07
836.631	1165.2
836.956	1125.65
837.282	1128.59
837.607	1142.15
837.932	1141.92
838.258	1133.33
838.583	1118.87
838.908	1153.22
839.233	1137.17
839.558	1106.21
839.883	1149.83
840.208	1115.48
840.533	1140.34
840.858	1114.35
841.182	1150.51
841.507	1139.21
841.832	1137.63
842.156	1115.93
842.481	1145.99
842.805	1089.94
843.13	1129.26
843.454	1118.64
843.778	1120.45
844.103	1122.03
844.427	1113.22
844.751	1133.56
845.075	1091.07
845.399	1110.73
845.723	1124.29
846.047	1119.09
846.371	1108.93
846.695	1119.09
847.019	1117.96
847.343	1080.68
847.666	1092.65
847.99	1097.63
848.313	1081.81
848.637	1091.3
848.96	1082.26
849.284	1083.16
849.607	1093.78
849.931	1048.81
850.254	1070.96
850.577	1102.15
850.9	1056.95
851.223	1063.5
851.546	1060.34
851.869	1062.6
852.192	1039.32
852.515	1047.01
852.838	1038.42
853.161	1052.66
853.483	1044.97
853.806	1023.96
854.129	1033.9
854.451	1032.09
854.774	1048.36
855.096	1015.14
855.419	1011.75
855.741	1024.63
856.063	1031.87
856.385	1040.45
856.708	1036.61
857.03	1009.27
857.352	1016.05
857.674	1022.6
857.996	1035.93
858.318	1020.79
858.64	1032.54
858.961	1018.98
859.283	1019.44
859.605	1045.65
859.926	1020.34
860.248	985.99
860.57	1011.3
860.891	993
861.212	1033.9
861.534	1017.18
861.855	996.16
862.176	1002.26
862.498	973.11
862.819	1018.08
863.14	1012.43
863.461	987.35
863.782	1001.81
864.103	1017.85
864.424	1008.36
864.745	1005.2
865.065	993
865.386	986.89
865.707	974.92
866.027	981.47
866.348	988.48
866.668	1000.23
866.989	1026.89
867.309	988.02
867.63	1009.72
867.95	1001.81
868.27	1017.4
868.59	1018.31
868.91	997.06
869.23	997.97
869.55	977.4
869.87	1004.07
870.19	1003.17
870.51	993.67
870.83	986.22
871.15	988.48
871.469	989.61
871.789	971.08
872.109	1000.68
872.428	976.05
872.748	994.8
873.067	993.67
873.386	981.02
873.706	995.26
874.025	986.89
874.344	978.08
874.663	987.57
874.982	981.02
875.301	984.41
875.62	986.22
875.939	983.28
876.258	964.07
876.577	978.31
876.896	948.93
877.214	981.47
877.533	978.53
877.852	977.4
878.17	981.02
878.489	979.44
878.807	975.6
879.125	950.96
879.444	966.78
879.762	960.68
880.08	941.7
880.398	940.12
880.716	956.84
881.034	960.91
881.352	973.79
881.67	960.45
881.988	948.7
882.306	962.26
882.624	940.12
882.941	943.28
883.259	957.74
883.577	945.77
883.894	964.07
884.212	961.58
884.529	949.38
884.846	946.9
885.164	945.99
885.481	953.68
885.798	929.27
886.115	926.78
886.432	913.9
886.75	923.39
887.067	949.83
887.383	907.58
887.7	935.82
888.017	905.99
888.334	910.06
888.651	923.85
888.967	930.63
889.284	904.64
889.6	907.58
889.917	915.71
890.233	928.37
890.55	891.98
890.866	910.29
891.182	934.47
891.498	889.95
891.815	896.28
892.131	891.98
892.447	907.8
892.763	871.87
893.079	889.27
893.395	864.19
893.71	853.34
894.026	907.12
894.342	866.9
894.657	858.54
894.973	851.53
895.289	883.85
895.604	909.16
895.92	857.63
896.235	899.89
896.55	876.39
896.865	869.16
897.181	849.95
897.496	856.73
897.811	845.66
898.126	856.28
898.441	879.33
898.756	857.86
899.071	835.26
899.386	850.4
899.7	835.26
900.015	839.78
900.33	827.35
900.644	835.26
900.959	828.26
901.273	818.54
901.588	854.02
901.902	794.58
902.216	818.31
902.531	828.03
902.845	819.22
903.159	821.48
903.473	811.53
903.787	813.34
904.101	811.08
904.415	793
904.729	794.58
905.042	794.58
905.356	799.1
905.67	791.87
905.984	802.49
906.297	790.97
906.611	791.87
906.924	796.39
907.237	774.7
907.551	791.87
907.864	770.86
908.177	794.81
908.491	775.38
908.804	765.88
909.117	783.06
909.43	763.62
909.743	771.76
910.056	780.57
910.368	760.01
910.681	757.97
910.994	755.71
911.307	734.47
911.619	768.6
911.932	750.52
912.244	744.64
912.557	715.49
912.869	746
913.181	741.7
913.494	753
913.806	727.92
914.118	712.78
914.43	694.25
914.742	715.26
915.054	728.82
915.366	735.6
915.678	736.73
915.99	740.35
916.302	749.39
916.613	742.61
916.925	694.02
917.236	721.37
917.548	693.57
917.859	719.56
918.171	727.01
918.482	718.88
918.794	719.78
919.105	714.36
919.416	728.37
919.727	696.96
920.038	700.8
920.349	694.25
920.66	679.78
920.971	707.35
921.282	689.73
921.593	709.16
921.903	699.44
922.214	698.54
922.525	682.72
922.835	689.05
923.146	671.87
923.456	706.45
923.767	676.39
924.077	676.17
924.387	686.34
924.697	658.32
925.008	684.08
925.318	682.5
925.628	683.17
925.938	679.78
926.248	668.49
926.558	677.3
926.867	669.39
927.177	669.16
927.487	693.8
927.796	646.56
928.106	643.63
928.416	656.28
928.725	668.71
929.034	639.33
929.344	659.67
929.653	655.38
929.962	666.23
930.271	649.28
930.581	656.73
930.89	665.55
931.199	658.77
931.508	642.72
931.817	656.06
932.125	654.25
932.434	658.54
932.743	651.08
933.051	657.64
933.36	621.48
933.669	631.88
933.977	628.94
934.286	652.44
934.594	644.76
934.902	633.46
935.21	662.16
935.519	634.14
935.827	638.88
936.135	620.8
936.443	617.19
936.751	645.66
937.059	645.89
937.367	657.19
937.674	638.88
937.982	616.51
938.29	640.46
938.597	638.66
938.905	624.64
939.213	631.88
939.52	626.45
939.827	619
940.135	620.12
940.442	612.67
940.749	603.18
941.056	608.15
941.363	622.61
941.67	606.57
941.977	609.5
942.284	603.18
942.591	615.61
942.898	609.05
943.205	613.57
943.511	604.31
943.818	610.86
944.125	608.6
944.431	608.83
944.738	630.52
945.044	595.27
945.35	608.6
945.657	602.95
945.963	578.09
946.269	611.54
946.575	601.82
946.881	602.5
947.187	584.19
947.493	584.42
947.799	589.17
948.105	597.53
948.41	593.68
948.716	591.65
949.022	606.57
949.327	584.42
949.633	579.9
949.938	606.57
950.244	590.75
950.549	576.74
950.854	591.2
951.16	569.96
951.465	599.11
951.77	562.5
952.075	576.06
952.38	596.17
952.685	580.35
952.99	570.18
953.294	589.17
953.599	584.42
953.904	593.23
954.209	583.29
954.513	577.87
954.818	556.62
955.122	571.54
955.426	575.61
955.731	589.84
956.035	584.65
956.339	577.64
956.643	569.5
956.948	582.16
957.252	578.09
957.556	555.04
957.86	568.6
958.163	567.02
958.467	566.57
958.771	563.86
959.075	562.5
959.378	547.58
959.682	556.85
959.985	546.23
960.289	546.45
960.592	560.92
960.896	569.05
961.199	564.76
961.502	545.1
961.805	547.36
962.108	547.81
962.411	552.56
962.714	550.52
963.017	533.57
963.32	562.27
963.623	551.2
963.926	537.42
964.228	564.99
964.531	545.55
964.833	537.19
965.136	533.57
965.438	548.04
965.741	538.32
966.043	536.06
966.345	525.44
966.648	533.8
966.95	539.9
967.252	534.25
967.554	560.69
967.856	537.19
968.158	540.13
968.46	551.43
968.761	522.27
969.063	506.46
969.365	538.32
969.666	530.86
969.968	531.77
970.269	534.93
970.571	539.45
970.872	515.27
971.174	502.39
971.475	529.96
971.776	528.6
972.077	515.49
972.378	526.34
972.679	528.15
972.98	531.09
973.281	506.23
973.582	515.95
973.883	511.43
974.183	511.43
974.484	520.24
974.785	515.27
975.085	516.4
975.386	508.94
975.686	506.91
975.986	512.56
976.287	507.13
976.587	493.12
976.887	516.85
977.187	517.08
977.487	486.57
977.787	512.56
978.087	509.39
978.387	508.72
978.687	494.48
978.987	511.2
979.286	477.3
979.586	495.16
979.885	463.07
980.185	494.93
980.484	493.35
980.784	492.44
981.083	483.86
981.382	482.05
981.682	495.38
981.981	494.48
982.28	481.6
982.579	487.02
982.878	477.76
983.177	477.98
983.475	487.93
983.774	499.45
984.073	455.38
984.372	471.2
984.67	468.72
984.969	482.73
985.267	466.91
985.566	480.02
985.864	481.6
986.162	481.6
986.461	477.98
986.759	464.2
987.057	469.62
987.355	462.84
987.653	476.17
987.951	448.38
988.249	459
988.547	444.99
988.844	460.58
989.142	465.78
989.44	470.52
989.737	469.62
990.035	456.06
990.332	452.45
990.63	463.29
990.927	450.19
991.224	440.24
991.521	449.51
991.819	449.51
992.116	441.15
992.413	451.32
992.71	446.8
993.006	438.66
993.303	455.84
993.6	448.6
993.897	455.38
994.193	440.92
994.49	429.4
994.787	452.22
995.083	458.32
995.379	441.15
995.676	423.52
995.972	434.14
996.268	447.02
996.565	425.55
996.861	451.54
997.157	441.15
997.453	435.27
997.749	430.75
998.044	430.98
998.34	422.84
998.636	430.3
998.932	430.3
999.227	434.37
999.523	430.98
999.818	439.34
1000.114	436.17
1000.409	437.53
1000.704	426.23
1001	415.16
1001.295	418.55
1001.59	416.97
1001.885	450.19
1002.18	436.4
1002.475	428.72
1002.77	419
1003.065	430.07
1003.359	411.54
1003.654	428.04
1003.949	391.66
1004.243	405.44
1004.538	421.94
1004.832	400.7
1005.127	417.64
1005.421	424.65
1005.715	399.34
1006.009	403.86
1006.304	419.45
1006.598	406.8
1006.892	404.31
1007.186	394.14
1007.48	407.93
1007.773	425.78
1008.067	431.43
1008.361	407.02
1008.655	388.49
1008.948	392.79
1009.242	399.57
1009.535	379.23
1009.829	400.92
1010.122	405.44
1010.415	392.33
1010.708	381.26
1011.001	396.18
1011.295	398.66
1011.588	414.03
1011.881	382.39
1012.173	391.88
1012.466	399.79
1012.759	393.46
1013.052	409.73
1013.344	409.51
1013.637	401.83
1013.93	391.66
1014.222	388.94
1014.514	405.67
1014.807	381.94
1015.099	404.31
1015.391	396.18
1015.683	384.88
1015.976	405.67
1016.268	378.32
1016.56	382.84
1016.851	390.98
1017.143	391.66
1017.435	394.37
1017.727	397.76
1018.018	405.67
1018.31	387.59
1018.602	381.04
1018.893	387.14
1019.185	372.22
1019.476	394.37
1019.767	397.08
1020.058	368.61
1020.35	386.46
1020.641	387.14
1020.932	386.23
1021.223	384.42
1021.514	387.81
1021.804	404.99
1022.095	401.15
1022.386	386.01
1022.677	376.74
1022.967	376.74
1023.258	368.15
1023.548	387.59
1023.839	391.2
1024.129	382.39
1024.419	378.78
1024.709	371.54
1025	366.57
1025.29	393.24
1025.58	386.01
1025.87	386.68
1026.16	370.19
1026.449	373.8
1026.739	364.54
1027.029	382.39
1027.319	376.52
1027.608	392.56
1027.898	371.77
1028.187	357.76
1028.477	376.97
1028.766	376.06
1029.055	369.06
1029.344	352.11
1029.634	362.28
1029.923	359.34
1030.212	366.12
1030.501	374.48
1030.79	342.39
1031.078	390.3
1031.367	363.86
1031.656	373.8
1031.945	364.31
1032.233	350.98
1032.522	371.09
1032.81	372.9
1033.099	371.09
1033.387	371.54
1033.675	354.82
1033.963	362.5
1034.251	359.57
1034.54	369.96
1034.828	394.82
1035.116	383.52
1035.403	367.48
1035.691	328.16
1035.979	362.73
1036.267	352.34
1036.554	363.86
1036.842	364.76
1037.129	364.09
1037.417	337.42
1037.704	347.82
1037.992	355.05
1038.279	341.49
1038.566	359.57
1038.853	359.57
1039.14	359.57
