Data from foam_black_FLMS001491_00027.txt Node
Date: Wed Feb 08 10:43:39 GMT 2017
User: dcchb
Spectrometer: FLMS00149
Trigger mode: 0
Integration Time (sec): 2.000000E-2
Scans to average: 10
Electric dark correction enabled: true
Nonlinearity correction enabled: false
Boxcar width: 0
XAxis mode: Wavelengths
Number of Pixels in Spectrum: 2048
>>>>>Begin Spectral Data<<<<<
341.393	13.12
341.776	13.12
342.16	13.12
342.543	-49.48
342.927	-63.94
343.31	-56.26
343.693	-61.23
344.077	-68.46
344.46	-65.07
344.843	-68.23
345.226	-38.4
345.61	-43.6
345.993	-13.77
346.376	6.57
346.759	-18.06
347.142	19.67
347.525	58.54
347.908	70.97
348.291	67.13
348.674	91.31
349.057	118.88
349.44	143.51
349.823	135.15
350.206	155.04
350.588	182.16
350.971	183.74
351.354	210.18
351.737	237.97
352.119	256.28
352.502	264.87
352.884	275.04
353.267	270.97
353.65	298.99
354.032	274.58
354.414	308.48
354.797	300.8
355.179	313.45
355.562	318.2
355.944	311.42
356.326	331.76
356.709	332.21
357.091	349.16
357.473	316.84
357.855	341.25
358.238	332.66
358.62	354.81
359.002	341.02
359.384	328.82
359.766	327.24
360.148	325.2
360.53	315.26
360.912	334.02
361.294	324.53
361.676	315.26
362.057	329.27
362.439	324.53
362.821	325.88
363.203	322.27
363.584	325.88
363.966	303.96
364.348	311.19
364.729	332.89
365.111	310.97
365.493	316.62
365.874	330.4
366.256	305.99
366.637	316.16
367.019	330.85
367.4	332.43
367.781	318.88
368.163	305.09
368.544	332.21
368.925	301.02
369.306	325.43
369.688	337.41
370.069	330.4
370.45	292.21
370.831	307.8
371.212	305.32
371.593	328.82
371.974	323.62
372.355	307.58
372.736	299.89
373.117	306.67
373.498	317.07
373.879	306.9
374.26	314.36
374.641	331.3
375.021	305.99
375.402	339.89
375.783	333.79
376.163	322.72
376.544	344.86
376.925	326.11
377.305	319.78
377.686	328.14
378.066	327.01
378.447	335.37
378.827	335.15
379.208	346.9
379.588	341.93
379.968	334.02
380.349	345.77
380.729	346.22
381.109	348.93
381.489	353.23
381.87	348.48
382.25	357.29
382.63	353
383.01	372.66
383.39	362.04
383.77	362.72
384.15	369.04
384.53	344.41
384.91	381.92
385.29	357.97
385.67	371.3
386.049	376.95
386.429	343.06
386.809	373.11
387.189	357.74
387.568	361.59
387.948	377.18
388.328	384.86
388.707	372.21
389.087	404.3
389.466	377.41
389.846	384.41
390.225	415.82
390.605	390.74
390.984	384.41
391.363	407.46
391.743	376.28
392.122	385.77
392.501	382.38
392.881	395.94
393.26	393.9
393.639	421.92
394.018	389.83
394.397	416.73
394.776	423.51
395.155	428.03
395.534	405.65
395.913	417.18
396.292	442.04
396.671	424.86
397.05	434.13
397.429	418.53
397.808	421.02
398.186	433
398.565	435.93
398.944	432.32
399.323	429.83
399.701	433.68
400.08	432.55
400.458	434.35
400.837	447.23
401.215	431.42
401.594	448.36
401.972	452.66
402.351	467.57
402.729	448.14
403.107	447.69
403.486	444.52
403.864	446.33
404.242	463.73
404.62	451.53
404.999	486.1
405.377	459.44
405.755	487.68
406.133	487.91
406.511	506.44
406.889	505.99
407.267	484.07
407.645	485.43
408.023	512.99
408.401	507.35
408.779	503.5
409.156	516.61
409.534	507.35
409.912	508.48
410.29	517.06
410.667	517.51
411.045	520.45
411.422	558.64
411.8	555.48
412.178	526.55
412.555	554.8
412.933	568.36
413.31	541.47
413.687	564.75
414.065	560.9
414.442	565.87
414.819	573.56
415.197	572.88
415.574	569.26
415.951	591.86
416.328	580.11
416.705	585.54
417.082	582.6
417.46	597.96
417.837	611.98
418.214	610.62
418.591	617.4
418.967	607.68
419.344	616.72
419.721	635.48
420.098	630.96
420.475	637.96
420.852	638.42
421.228	631.64
421.605	634.12
421.982	602.48
422.358	629.38
422.735	669.83
423.111	670.96
423.488	675.48
423.864	639.32
424.241	686.32
424.617	680.67
424.994	671.18
425.37	687.23
425.746	706.21
426.123	695.36
426.499	707.34
426.875	724.51
427.251	725.64
427.627	734.68
428.003	723.61
428.379	740.56
428.756	740.79
429.132	746.44
429.507	745.08
429.883	733.78
430.259	780.33
430.635	776.49
431.011	781.91
431.387	818.75
431.763	807.22
432.138	802.93
432.514	800.9
432.89	812.42
433.265	839.54
433.641	812.2
434.016	817.39
434.392	841.8
434.767	852.65
435.143	871.63
435.518	866.43
435.894	868.47
436.269	889.93
436.644	923.38
437.02	885.19
437.395	910.5
437.77	925.19
438.145	926.77
438.52	931.97
438.895	950.72
439.271	928.13
439.646	933.32
440.021	940.55
440.395	933.55
440.77	943.04
441.145	961.57
441.52	993.89
441.895	983.94
442.27	981.68
442.645	980.78
443.019	1023.94
443.394	1015.58
443.769	981.91
444.143	1023.26
444.518	1040.21
444.892	1023.72
445.267	1011.96
445.641	1043.83
446.016	1052.19
446.39	1018.74
446.764	1043.38
447.139	1042.47
447.513	1052.19
447.887	1060.33
448.262	1065.07
448.636	1074.79
449.01	1077.27
449.384	1087.22
449.758	1110.72
450.132	1098.52
450.506	1143.26
450.88	1132.64
451.254	1131.51
451.628	1137.61
452.002	1151.85
452.376	1148.23
452.75	1161.79
453.123	1187.55
453.497	1162.92
453.871	1154.79
454.244	1185.52
454.618	1208.12
454.992	1215.35
455.365	1238.63
455.739	1269.13
456.112	1266.65
456.486	1277.27
456.859	1293.09
457.232	1283.37
457.606	1322.01
457.979	1329.02
458.352	1364.05
458.725	1387.55
459.099	1337.15
459.472	1379.86
459.845	1407.21
460.218	1385.06
460.591	1405.63
460.964	1416.7
461.337	1455.8
461.71	1449.69
462.083	1481.78
462.456	1474.55
462.829	1475.68
463.201	1495.57
463.574	1510.26
463.947	1524.49
464.32	1554.1
464.692	1569.46
465.065	1591.84
465.438	1600.88
465.81	1638.39
466.183	1618.28
466.555	1647.2
466.928	1664.6
467.3	1684.94
467.672	1694.43
468.045	1717.26
468.417	1730.59
468.789	1733.3
469.161	1773.53
469.534	1788.22
469.906	1845.16
470.278	1873.86
470.65	1879.96
471.022	1873.19
471.394	1933.3
471.766	1902.34
472.138	1929.91
472.51	1976.23
472.882	2002.22
473.253	1998.61
473.625	2068.89
473.997	2075.67
474.369	2080.19
474.74	2112.73
475.112	2138.26
475.484	2213.97
475.855	2222.1
476.227	2240.63
476.598	2286.06
476.97	2286.06
477.341	2357.69
477.713	2388.88
478.084	2416
478.455	2478.59
478.827	2497.58
479.198	2540.06
479.569	2538.48
479.94	2616.67
480.311	2651.92
480.682	2693.28
481.053	2728.53
481.424	2749.32
481.795	2798.58
482.166	2846.72
482.537	2862.09
482.908	2928.75
483.279	2930.33
483.65	2968.52
484.021	3049.88
484.391	3072.25
484.762	3074.96
485.133	3123.32
485.503	3136.65
485.874	3226.82
486.244	3258.46
486.615	3299.14
486.985	3366.48
487.356	3418
487.726	3431.11
488.097	3537.77
488.467	3530.54
488.837	3629.07
489.207	3590.2
489.578	3674.27
489.948	3670.88
490.318	3741.16
490.688	3773.25
491.058	3802.4
491.428	3842.62
491.798	3895.28
492.168	3934.37
492.538	3958.78
492.908	4047.59
493.278	4020.93
493.648	4114.03
494.017	4102.05
494.387	4185.67
494.757	4168.27
495.126	4241.26
495.496	4267.02
495.866	4257.53
496.235	4351.99
496.605	4353.35
496.974	4359.22
497.344	4417.98
497.713	4421.59
498.082	4512.21
498.452	4566.67
498.821	4587.92
499.19	4587.01
499.559	4604.86
499.928	4640.34
500.298	4647.58
500.667	4692.32
501.036	4676.5
501.405	4742.71
501.774	4732.32
502.143	4775.26
502.512	4765.31
502.88	4855.93
503.249	4905.65
503.618	4891.64
503.987	4904.07
504.356	4982.48
504.724	5037.62
505.093	5032.65
505.462	5030.39
505.83	5087.34
506.199	5111.52
506.567	5206.66
506.936	5190.39
507.304	5261.57
507.672	5299.54
508.041	5321.46
508.409	5358.52
508.777	5375.92
509.145	5413.21
509.514	5484.39
509.882	5485.75
510.25	5496.59
510.618	5515.8
510.986	5564.84
511.354	5575.23
511.722	5642.13
512.09	5658.4
512.458	5650.04
512.826	5747.66
513.193	5741.11
513.561	5779.3
513.929	5820.88
514.297	5821.1
514.664	5877.37
515.032	5915.34
515.4	5999.86
515.767	6030.82
516.135	6007.54
516.502	6027.65
516.869	6179.29
517.237	6246.18
517.604	6198.04
517.972	6299.96
518.339	6295.67
518.706	6376.12
519.073	6440.07
519.44	6474.42
519.808	6492.27
520.175	6539.5
520.542	6658.6
520.909	6609.78
521.276	6685.49
521.643	6729.78
522.009	6818.37
522.376	6829.67
522.743	6878.93
523.11	6928.19
523.477	6964.58
523.843	7004.8
524.21	7066.95
524.577	7097.91
524.943	7116.89
525.31	7151.01
525.676	7191.69
526.043	7239.6
526.409	7328.86
526.776	7371.12
527.142	7393.72
527.508	7475.75
527.874	7574.96
528.241	7626.48
528.607	7702.18
528.973	7759.81
529.339	7790.09
529.705	7813.82
530.071	7946.7
530.437	7956.87
530.803	8055.4
531.169	8062.18
531.535	8063.76
531.901	8104.43
532.267	8223.53
532.632	8168.84
532.998	8225.33
533.364	8245.67
533.73	8273.02
534.095	8326.35
534.461	8373.81
534.826	8405.22
535.192	8368.16
535.557	8458.1
535.923	8481.15
536.288	8500.58
536.653	8552.56
537.019	8527.25
537.384	8573.8
537.749	8632.1
538.114	8628.26
538.479	8702.16
538.845	8723.17
539.21	8723.63
539.575	8818.99
539.94	8898.09
540.305	8913.23
540.67	8990.74
541.034	9035.93
541.399	9032.54
541.764	9127.23
542.129	9138.53
542.494	9223.5
542.858	9192.77
543.223	9259.66
543.587	9265.99
543.952	9223.73
544.316	9314.12
544.681	9312.31
545.045	9338.98
545.41	9317.74
545.774	9339.88
546.138	9358.64
546.503	9393.21
546.867	9437.73
547.231	9463.27
547.595	9498.3
547.959	9523.83
548.324	9543.94
548.688	9621.91
549.052	9654.45
549.416	9672.53
549.779	9722.7
550.143	9780.1
550.507	9809.7
550.871	9959.07
551.235	9917.49
551.599	10009.24
551.962	10011.28
552.326	10084.49
552.689	10132.4
553.053	10124.04
553.417	10230.25
553.78	10320.19
554.143	10336.69
554.507	10412.85
554.87	10416.24
555.234	10483.58
555.597	10399.97
555.96	10479.06
556.323	10499.4
556.686	10555.44
557.05	10622.56
557.413	10649.45
557.776	10678.15
558.139	10693.07
558.502	10767.87
558.865	10769.9
559.228	10839.05
559.59	10815.77
559.953	10923.34
560.316	10967.64
560.679	11100.97
561.041	11105.03
561.404	11162.88
561.767	11299.83
562.129	11222.09
562.492	11343.44
562.854	11359.94
563.217	11367.4
563.579	11488.75
563.941	11572.14
564.304	11624.12
564.666	11727.62
565.028	11727.84
565.39	11834.73
565.753	11923.09
566.115	11869.08
566.477	11945.46
566.839	11987.5
567.201	12121.73
567.563	12143.88
567.925	12212.35
568.287	12158.56
568.648	12189.52
569.01	12292.57
569.372	12349.97
569.734	12354.49
570.095	12490.53
570.457	12469.97
570.819	12509.97
571.18	12524.2
571.542	12572.11
571.903	12705.44
572.265	12580.47
572.626	12690.98
572.987	12729.4
573.349	12785.67
573.71	12899.79
574.071	12903.86
574.432	12909.51
574.794	13041.71
575.155	13120.12
575.516	12983.63
575.877	13145.66
576.238	13095.49
576.599	13191.08
576.96	13087.81
577.32	13142.95
577.681	13259.33
578.042	13252.1
578.403	13266.33
578.763	13246.22
579.124	13354.47
579.485	13432.43
579.845	13398.76
580.206	13351.3
580.566	13416.61
580.927	13477.17
581.287	13536.83
581.648	13545.87
582.008	13577.06
582.368	13510.17
582.728	13583.39
583.089	13547.91
583.449	13524.63
583.809	13550.84
584.169	13629.71
584.529	13572.99
584.889	13676.49
585.249	13642.14
585.609	13502.03
585.969	13662.25
586.329	13592.43
586.688	13507
587.048	13607.57
587.408	13541.58
587.768	13590.39
588.127	13609.6
588.487	13635.81
588.846	13620.67
589.206	13598.98
589.565	13508.36
589.925	13582.48
590.284	13577.51
590.643	13612.31
591.003	13633.33
591.362	13634.46
591.721	13559.88
592.08	13590.17
592.44	13693.21
592.799	13761.46
593.158	13737.28
593.517	13701.8
593.876	13815.47
594.235	13716.26
594.593	13842.36
594.952	13868.12
595.311	13848.92
595.67	13838.07
596.029	13984.05
596.387	13986.31
596.746	14045.29
597.104	13953.32
597.463	13954.9
597.822	14012.53
598.18	14016.14
598.538	13963.49
598.897	14010.72
599.255	13928.69
599.613	14092.3
599.972	14001.23
600.33	14032.19
600.688	13925.98
601.046	14050.49
601.404	14023.6
601.762	14027.44
602.12	13989.48
602.478	14010.49
602.836	13977.73
603.194	13852.98
603.552	13882.81
603.91	13891.85
604.268	13963.04
604.625	13838.07
604.983	14046.2
605.341	13958.74
605.698	14018.85
606.056	14081.9
606.413	14018.18
606.771	14099.53
607.128	14052.75
607.485	14134.33
607.843	14120.32
608.2	14273.09
608.557	14312.41
608.914	14254.1
609.272	14360.31
609.629	14469.01
609.986	14472.85
610.343	14433.98
610.7	14488.22
611.057	14504.94
611.414	14479.41
611.771	14527.54
612.127	14585.62
612.484	14590.36
612.841	14621.78
613.198	14559.86
613.554	14586.75
613.911	14618.39
614.267	14577.48
614.624	14574.77
614.98	14578.84
615.337	14578.61
615.693	14498.16
616.05	14541.78
616.406	14601.66
616.762	14515.79
617.118	14546.07
617.475	14571.61
617.831	14628.33
618.187	14611.16
618.543	14610.93
618.899	14713.75
619.255	14615.45
619.611	14671.72
619.967	14693.19
620.323	14798.04
620.678	14699.06
621.034	14693.41
621.39	14658.61
621.746	14740.64
622.101	14897.7
622.457	14854.99
622.812	14877.59
623.168	14957.59
623.523	14925.05
623.879	14895.89
624.234	14930.69
624.589	15042.78
624.945	14916.91
625.3	15138.37
625.655	14976.8
626.01	15053.18
626.365	15049.11
626.72	15028.32
627.075	14958.49
627.43	14964.82
627.785	14998.26
628.14	15000.3
628.495	14992.39
628.85	14927.31
629.205	14858.15
629.559	14942.45
629.914	14882.33
630.269	14849.57
630.623	14760.3
630.978	14746.97
631.332	14782.9
631.687	14694.09
632.041	14671.04
632.396	14702.23
632.75	14635.34
633.104	14596.01
633.459	14541.55
633.813	14553.08
634.167	14539.07
634.521	14556.47
634.875	14563.02
635.229	14594.21
635.583	14447.32
635.937	14392.63
636.291	14407.77
636.645	14456.13
636.999	14342.01
637.352	14455
637.706	14361.9
638.06	14518.95
638.413	14425.4
638.767	14393.99
639.121	14487.54
639.474	14375.46
639.828	14296.14
640.181	14441.89
640.534	14444.38
640.888	14365.29
641.241	14374.55
641.594	14422.23
641.947	14424.49
642.301	14351.73
642.654	14354.89
643.007	14379.3
643.36	14328.45
643.713	14342.24
644.066	14390.82
644.419	14210.04
644.771	14105.41
645.124	14013.43
645.477	13897.28
645.83	13879.2
646.182	13774.79
646.535	13834.23
646.888	13872.87
647.24	13941.57
647.593	13961.91
647.945	13912.42
648.298	13779.76
648.65	13812.98
649.002	13741.57
649.355	13751.06
649.707	13695.47
650.059	13632.42
650.411	13748.35
650.763	13840.1
651.115	13997.16
651.467	14001.91
651.819	13909.93
652.171	13821.12
652.523	13814.79
652.875	13885.75
653.227	13814.79
653.578	13853.89
653.93	13886.65
654.282	13776.15
654.633	13760.56
654.985	13852.31
655.337	13790.16
655.688	13792.87
656.039	13778.63
656.391	13752.19
656.742	13750.61
657.094	13756.71
657.445	13764.17
657.796	13668.58
658.147	13714.91
658.498	13718.07
658.849	13784.96
659.2	13837.39
659.551	13548.36
659.902	13760.33
660.253	13683.72
660.604	13767.56
660.955	13613.22
661.306	13750.84
661.656	13676.04
662.007	13746.77
662.358	13737.73
662.708	13759.2
663.059	13733.44
663.409	13622.48
663.76	13767.34
664.11	13795.81
664.461	13731.86
664.811	13744.51
665.161	13753.55
665.511	13664.06
665.862	13726.88
666.212	13677.85
666.562	13729.14
666.912	13744.29
667.262	13687.11
667.612	13641.01
667.962	13651.63
668.312	13676.94
668.662	13698.86
669.011	13646.89
669.361	13606.66
669.711	13620.67
670.06	13544.97
670.41	13558.98
670.76	13514.01
671.109	13517.85
671.459	13524.63
671.808	13510.17
672.157	13509.72
672.507	13479.66
672.856	13447.57
673.205	13540.45
673.554	13505.65
673.904	13362.15
674.253	13544.52
674.602	13419.1
674.951	13210.74
675.3	13113.79
675.649	13345.65
675.998	13303.85
676.346	13221.36
676.695	13294.35
677.044	13256.84
677.393	13284.18
677.741	13321.92
678.09	13257.29
678.438	13184.3
678.787	13316.27
679.135	13391.75
679.484	13252.32
679.832	13376.84
680.181	13316.05
680.529	13330.96
680.877	13194.24
681.225	13200.35
681.573	13293.68
681.922	13205.09
682.27	13126.22
682.618	13129.61
682.966	13109.73
683.314	13203.96
683.661	13220.91
684.009	13136.84
684.357	13081.93
684.705	13011.2
685.053	13102.49
685.4	13070.86
685.748	13053.68
686.095	12926.68
686.443	12948.15
686.79	12874.93
687.138	12902.05
687.485	12893.23
687.832	12902.95
688.18	12855.27
688.527	12764.88
688.874	12711.09
689.221	12675.61
689.568	12557.42
689.915	12618.89
690.262	12565.11
690.609	12545.22
690.956	12534.37
691.303	12550.64
691.65	12468.39
691.997	12425.9
692.344	12334.15
692.69	12336.41
693.037	12436.07
693.383	12253.25
693.73	12360.37
694.077	12225
694.423	12204.21
694.769	12187.04
695.116	12149.07
695.462	12104.1
695.808	12069.08
696.155	12114.5
696.501	12033.37
696.847	11976.42
697.193	11917.44
697.539	11986.59
697.885	11906.82
698.231	11865.01
698.577	11887.16
698.923	11893.94
699.269	11803.09
699.614	11789.53
699.96	11676.54
700.306	11722.64
700.651	11675.41
700.997	11716.32
701.342	11627.73
701.688	11573.95
702.033	11619.82
702.379	11606.26
702.724	11597.9
703.069	11617.56
703.415	11440.62
703.76	11379.38
704.105	11441.75
704.45	11380.05
704.795	11332.15
705.14	11277.68
705.485	11236.78
705.83	11260.28
706.175	11285.59
706.52	11284.01
706.865	11227.74
707.209	11240.85
707.554	11094.41
707.899	11147.29
708.243	11072.49
708.588	10994.08
708.932	11009.89
709.277	10985.26
709.621	10995.66
709.966	10911.59
710.31	10901.87
710.654	10863.91
710.998	10883.57
711.342	10902.1
711.687	10885.15
712.031	10789.79
712.375	10780.52
712.719	10782.56
713.063	10768.09
713.407	10795.66
713.75	10680.19
714.094	10647.19
714.438	10684.03
714.782	10704.82
715.125	10614.65
715.469	10737.36
715.812	10603.8
716.156	10560.64
716.499	10510.02
716.843	10626.18
717.186	10529.23
717.53	10564.03
717.873	10656.68
718.216	10578.04
718.559	10542.11
718.902	10449.23
719.246	10453.07
719.589	10458.27
719.932	10444.03
720.275	10390.25
720.617	10430.02
720.96	10292.85
721.303	10391.83
721.646	10395.9
721.989	10309.35
722.331	10328.1
722.674	10326.52
723.016	10219.41
723.359	10262.57
723.701	10243.59
724.044	10119.52
724.386	10094.89
724.729	10199.75
725.071	10102.57
725.413	10092.18
725.755	10101.44
726.097	10010.82
726.439	9932.86
726.782	10003.59
727.124	10018.96
727.465	9985.06
727.807	10008.79
728.149	10006.76
728.491	9952.52
728.833	9913.65
729.175	9867.55
729.516	9873.43
729.858	9875.91
730.199	9866.65
730.541	9862.81
730.882	9883.14
731.224	9809.7
731.565	9794.56
731.906	9735.35
732.248	9831.17
732.589	9772.19
732.93	9670.72
733.271	9739.65
733.612	9770.6
733.953	9816.48
734.294	9640.66
734.635	9653.09
734.976	9748.23
735.317	9750.49
735.658	9663.94
735.999	9610.61
736.339	9630.72
736.68	9668.46
737.021	9607.9
737.361	9511.85
737.702	9677.5
738.042	9641.12
738.383	9625.52
738.723	9620.55
739.063	9593.89
739.404	9543.72
739.744	9594.11
740.084	9495.58
740.424	9546.43
740.764	9461.69
741.104	9537.16
741.444	9437.73
741.784	9483.61
742.124	9460.1
742.464	9394.57
742.804	9400.44
743.143	9444.74
743.483	9337.4
743.823	9362.03
744.162	9337.17
744.502	9355.7
744.841	9318.64
745.181	9303.27
745.52	9312.09
745.86	9378.98
746.199	9305.98
746.538	9239.32
746.877	9220.11
747.216	9241.58
747.556	9194.12
747.895	9211.52
748.234	9128.36
748.573	9162.71
748.911	9073.45
749.25	9123.16
749.589	9139.43
749.928	9124.97
750.267	9151.86
750.605	9123.84
750.944	9044.97
751.283	9120.68
751.621	9066.44
751.96	9023.73
752.298	8993.68
752.636	8980.12
752.975	8931.08
753.313	8951.42
753.651	8938.08
753.989	8853.11
754.327	8893.11
754.666	8814.02
755.004	8765.43
755.342	8797.97
755.679	8766.11
756.017	8696.96
756.355	8743.97
756.693	8691.09
757.031	8767.47
757.368	8633.46
757.706	8661.71
758.044	8559.11
758.381	8587.81
758.719	8581.03
759.056	8624.87
759.394	8530.41
759.731	8476.18
760.068	8486.12
760.405	8450.87
760.743	8459.23
761.08	8469.85
761.417	8428.49
761.754	8385.33
762.091	8367.48
762.428	8376.74
762.765	8271.21
763.102	8327.03
763.438	8162.29
763.775	8197.99
764.112	8253.81
764.449	8267.82
764.785	8189.4
765.122	8197.31
765.458	8169.29
765.795	8115.96
766.131	8131.55
766.467	8134.26
766.804	8092.91
767.14	8039.12
767.476	8037.32
767.812	8035.96
768.148	7996.41
768.485	7956.87
768.821	7901.95
769.157	7952.57
769.492	7902.41
769.828	7840.49
770.164	7769.98
770.5	7816.08
770.836	7852.69
771.171	7749.41
771.507	7754.84
771.842	7685.91
772.178	7711
772.513	7723.2
772.849	7716.87
773.184	7644.33
773.519	7607.27
773.855	7580.15
774.19	7511.68
774.525	7525.01
774.86	7503.32
775.195	7467.84
775.53	7383.55
775.865	7403.21
776.2	7299.48
776.535	7249.54
776.87	7295.42
777.205	7227.39
777.539	7192.14
777.874	7206.15
778.209	7129.32
778.543	7118.25
778.878	7067.17
779.212	7071.01
779.547	7089.09
779.881	7070.11
780.215	6966.84
780.55	6978.14
780.884	6947.4
781.218	6923.45
781.552	6932.04
781.886	6885.71
782.22	6880.74
782.554	6885.26
782.888	6794.86
783.222	6768.88
783.556	6756.67
783.889	6705.6
784.223	6611.59
784.557	6662.21
784.89	6681.87
785.224	6625.6
785.557	6635.77
785.891	6621.08
786.224	6594.42
786.558	6615.43
786.891	6532.5
787.224	6486.85
787.557	6514.42
787.891	6478.26
788.224	6463.8
788.557	6550.35
788.89	6480.3
789.223	6425.38
789.556	6393.74
789.888	6392.84
790.221	6374.99
790.554	6360.75
790.887	6368.89
791.219	6300.64
791.552	6333.86
791.884	6269.68
792.217	6314.65
792.549	6276.46
792.882	6182.22
793.214	6197.14
793.546	6209.57
793.879	6224.94
794.211	6125.5
794.543	6208.66
794.875	6117.59
795.207	6166.63
795.539	6088.89
795.871	6171.83
796.203	6078.72
796.535	6084.37
796.867	6048.44
797.198	5994.66
797.53	6045.73
797.862	5973.64
798.193	6029.23
798.525	5943.13
798.856	5916.02
799.188	5875.79
799.519	5832.18
799.85	5815
800.182	5852.74
800.513	5813.19
800.844	5782.91
801.175	5746.98
801.506	5786.75
801.837	5728.23
802.168	5684.16
802.499	5680.32
802.83	5688.9
803.161	5650.94
803.491	5670.6
803.822	5689.81
804.153	5556.93
804.483	5561.45
804.814	5622.24
805.145	5513.77
805.475	5555.35
805.805	5530.26
806.136	5496.14
806.466	5466.31
806.796	5458.18
807.126	5450.94
807.457	5410.49
807.787	5415.46
808.117	5391.06
808.447	5323.72
808.777	5308.12
809.107	5372.53
809.436	5342.7
809.766	5326.65
810.096	5326.88
810.426	5299.08
810.755	5296.37
811.085	5308.35
811.414	5293.43
811.744	5257.5
812.073	5206.43
812.403	5214.57
812.732	5200.56
813.061	5257.5
813.39	5198.52
813.719	5140.22
814.049	5179.76
814.378	5169.14
814.707	5187.45
815.036	5163.49
815.365	5177.51
815.693	5118.52
816.022	5134.57
816.351	5074.23
816.68	5085.08
817.008	5118.07
817.337	5062.93
817.665	5102.03
817.994	5068.81
818.322	5059.32
818.651	5067.23
818.979	5035.81
819.307	5044.18
819.636	5045.53
819.964	5041.69
820.292	5032.2
820.62	5062.71
820.948	5014.35
821.276	5077.39
821.604	5041.69
821.932	5024.74
822.259	5035.36
822.587	5043.27
822.915	4949.26
823.243	5023.16
823.57	5013.89
823.898	5024.97
824.225	4942.94
824.553	4978.87
824.88	4960.56
825.207	4960.79
825.535	4925.53
825.862	4978.41
826.189	4953.56
826.516	4974.12
826.843	4941.81
827.17	4945.42
827.497	4937.51
827.824	4961.69
828.151	4892.31
828.478	4968.92
828.805	4949.71
829.131	4976.61
829.458	4937.29
829.785	4903.16
830.111	4935.03
830.438	5000.11
830.764	4966.66
831.09	4932.99
831.417	4934.8
831.743	4940.68
832.069	4945.19
832.395	4901.35
832.722	4891.18
833.048	4936.61
833.374	4914.69
833.7	4886.89
834.026	4874.46
834.351	4847.34
834.677	4851.41
835.003	4914.69
835.329	4923.95
835.654	4855.71
835.98	4854.35
836.306	4897.29
836.631	4853.67
836.956	4835.59
837.282	4861.36
837.607	4843.28
837.932	4821.81
838.258	4812.32
838.583	4820.45
838.908	4831.75
839.233	4774.13
839.558	4808.02
839.883	4769.83
840.208	4758.76
840.533	4785.65
840.858	4773
841.182	4730.51
841.507	4765.54
841.832	4685.77
842.156	4725.77
842.481	4712.43
842.805	4685.77
843.13	4670.4
843.454	4713.56
843.778	4656.39
844.103	4666.78
844.427	4615.26
844.751	4653.45
845.075	4632.43
845.399	4598.54
845.723	4608.03
846.047	4610.06
846.371	4588.59
846.695	4570.97
847.019	4536.84
847.343	4512.89
847.666	4487.81
847.99	4469.95
848.313	4473.34
848.637	4451.65
848.96	4465.89
849.284	4434.02
849.607	4406.9
849.931	4361.93
850.254	4415.04
850.577	4368.49
850.9	4292.78
851.223	4350.63
851.546	4317.41
851.869	4249.62
852.192	4286.46
852.515	4273.8
852.838	4253.69
853.161	4257.76
853.483	4243.07
853.806	4293.69
854.129	4218.66
854.451	4236.06
854.774	4117.42
855.096	4139.57
855.419	4155.61
855.741	4191.54
856.063	4171.2
856.385	4174.37
856.708	4127.82
857.03	4094.82
857.352	4130.08
857.674	4099.34
857.996	4079.91
858.318	4053.92
858.64	4101.15
858.961	4040.36
859.283	4069.96
859.605	4007.37
859.926	4027.93
860.248	4050.76
860.57	4011.21
860.891	4029.51
861.212	3996.52
861.534	4015.05
861.855	4022.51
862.176	3998.1
862.498	3940.25
862.819	3982.28
863.14	3954.71
863.461	3949.97
863.782	3950.19
864.103	3961.94
864.424	3898.67
864.745	3921.72
865.065	3881.95
865.386	3919.69
865.707	3882.4
866.027	3896.18
866.348	3904.77
866.668	3865
866.989	3865
867.309	3843.3
867.63	3851.89
867.95	3832.91
868.27	3792.46
868.59	3810.31
868.91	3780.93
869.23	3792.68
869.55	3782.74
869.87	3812.34
870.19	3763.98
870.51	3798.11
870.83	3780.71
871.15	3756.3
871.469	3750.65
871.789	3741.38
872.109	3739.58
872.428	3691.89
872.748	3741.38
873.067	3710.88
873.386	3741.84
873.706	3693.7
874.025	3699.35
874.344	3690.76
874.663	3667.26
874.982	3692.57
875.301	3680.6
875.62	3694.83
875.939	3670.88
876.258	3641.73
876.577	3673.14
876.896	3653.03
877.214	3676.08
877.533	3683.08
877.852	3647.83
878.17	3608.51
878.489	3653.7
878.807	3622.97
879.125	3645.57
879.444	3599.02
879.762	3623.42
880.08	3637.66
880.398	3635.4
880.716	3610.54
881.034	3587.94
881.352	3648.73
881.67	3608.28
881.988	3613.93
882.306	3627.26
882.624	3590.43
882.941	3583.2
883.259	3550.2
883.577	3570.99
883.894	3594.27
884.212	3552.01
884.529	3561.5
884.846	3603.76
885.164	3569.41
885.481	3562.41
885.798	3552.46
886.115	3506.81
886.432	3534.38
886.75	3531.67
887.067	3537.32
887.383	3494.84
887.7	3533.71
888.017	3462.52
888.334	3490.77
888.651	3460.71
888.967	3429.75
889.284	3453.26
889.6	3459.13
889.917	3441.73
890.233	3460.94
890.55	3466.14
890.866	3407.16
891.182	3421.39
891.498	3429.53
891.815	3419.59
892.131	3400.83
892.447	3378.91
892.763	3384.56
893.079	3358.34
893.395	3346.82
893.71	3333.71
894.026	3315.86
894.342	3328.97
894.657	3287.39
894.973	3292.81
895.289	3285.8
895.604	3272.02
895.92	3232.25
896.235	3265.46
896.55	3229.08
896.865	3231.79
897.181	3204.9
897.496	3182.53
897.811	3180.27
898.126	3188.4
898.441	3144.79
898.756	3109.31
899.071	3093.04
899.386	3121.74
899.7	3088.07
900.015	3047.17
900.33	3055.75
900.644	3037.45
900.959	3048.07
901.273	2981.86
901.588	3002.2
901.902	2974.85
902.216	3015.75
902.531	3003.32
902.845	2975.76
903.159	2978.01
903.473	2935.53
903.787	2932.82
904.101	2895.76
904.415	2884.91
904.729	2888.07
905.042	2868.41
905.356	2848.53
905.67	2881.29
905.984	2867.74
906.297	2844.69
906.611	2826.15
906.924	2832.71
907.237	2849.2
907.551	2841.97
907.864	2835.19
908.177	2801.07
908.491	2789.55
908.804	2769.21
909.117	2772.82
909.43	2754.52
909.743	2783.22
910.056	2721.98
910.368	2757.46
910.681	2777.34
910.994	2774.63
911.307	2728.98
911.619	2677.91
911.932	2705.25
912.244	2692.6
912.557	2677.91
912.869	2702.54
913.181	2675.42
913.494	2713.16
913.806	2657.8
914.118	2670.68
914.43	2664.35
914.742	2650.11
915.054	2648.31
915.366	2615.54
915.678	2598.36
915.99	2646.05
916.302	2591.81
916.613	2579.83
916.925	2572.83
917.236	2578.25
917.548	2609.66
917.859	2583.68
918.171	2519.72
918.482	2562.21
918.794	2531.25
919.105	2537.57
919.416	2525.15
919.727	2512.49
920.038	2531.47
920.349	2535.54
920.66	2513.85
920.971	2477.01
921.282	2493.06
921.593	2479.95
921.903	2484.24
922.214	2473.17
922.525	2443.11
922.835	2425.26
923.146	2414.19
923.456	2407.63
923.767	2366.51
924.077	2395.88
924.387	2400.4
924.697	2343.46
925.008	2382.55
925.318	2380.06
925.628	2363.34
925.938	2377.13
926.248	2338.48
926.558	2306.17
926.867	2300.74
927.177	2304.13
927.487	2320.41
927.796	2257.81
928.106	2246.28
928.416	2266.17
928.725	2241.76
929.034	2227.75
929.344	2193.63
929.653	2232.5
929.962	2177.36
930.271	2171.03
930.581	2173.06
930.89	2185.04
931.199	2128.32
931.508	2159.05
931.817	2128.55
932.125	2118.38
932.434	2121.99
932.743	2112.05
933.051	2101.2
933.36	2083.8
933.669	2045.61
933.977	2066.4
934.286	2052.62
934.594	2044.71
934.902	2025.72
935.21	2019.4
935.519	2011.94
935.827	2041.54
936.135	2007.87
936.443	1966.29
936.751	1976.69
937.059	1976.01
937.367	1958.61
937.674	1963.35
937.982	1953.18
938.29	1935.78
938.597	1938.49
938.905	1925.84
939.213	1945.27
939.52	1927.42
939.827	1904.6
940.135	1897.59
940.442	1884.71
940.749	1918.16
941.056	1881.09
941.363	1896.01
941.67	1874.32
941.977	1860.08
942.284	1841.55
942.591	1893.75
942.898	1845.16
943.205	1833.64
943.511	1861.43
943.818	1811.27
944.125	1816.01
944.431	1827.54
944.738	1809.91
945.044	1824.37
945.35	1828.67
945.657	1794.09
945.963	1805.62
946.269	1803.58
946.575	1796.58
946.881	1783.7
947.187	1797.26
947.493	1796.58
947.799	1764.26
948.105	1750.93
948.41	1749.57
948.716	1733.53
949.022	1743.02
949.327	1753.64
949.633	1735.11
949.938	1720.42
950.244	1756.13
950.549	1707.99
950.854	1708.9
951.16	1683.59
951.465	1752.28
951.77	1716.81
952.075	1714.55
952.38	1702.12
952.685	1705.51
952.99	1665.73
953.294	1671.16
953.599	1671.16
953.904	1680.87
954.209	1650.14
954.513	1659.63
954.818	1664.38
955.122	1637.94
955.426	1668.67
955.731	1602.01
956.035	1613.53
956.339	1617.37
956.643	1633.87
956.948	1601.55
957.252	1583.25
957.556	1625.96
957.86	1576.7
958.163	1548
958.467	1575.34
958.771	1537.83
959.075	1563.36
959.378	1548
959.682	1510.03
959.985	1532.4
960.289	1532.63
960.592	1492.63
960.896	1474.55
961.199	1527.43
961.502	1490.82
961.805	1501.9
962.108	1461.67
962.411	1466.19
962.714	1464.38
963.017	1480.88
963.32	1433.42
963.623	1462.35
963.926	1436.13
964.228	1450.15
964.531	1441.33
964.833	1415.57
965.136	1413.76
965.438	1420.99
965.741	1387.1
966.043	1397.27
966.345	1389.13
966.648	1375.57
966.95	1388.45
967.252	1366.98
967.554	1373.54
967.856	1360.66
968.158	1351.39
968.46	1335.35
968.761	1340.77
969.063	1326.31
969.365	1328.34
969.666	1342.58
969.968	1301.45
970.269	1347.1
970.571	1319.75
970.872	1301.22
971.174	1296.93
971.475	1258.96
971.776	1310.04
972.077	1271.39
972.378	1289.02
972.679	1287.44
972.98	1264.84
973.281	1267.1
973.582	1241.79
973.883	1251.05
974.183	1242.69
974.484	1259.42
974.785	1238.17
975.085	1242.69
975.386	1243.37
975.686	1242.69
975.986	1242.69
976.287	1212.64
976.587	1231.62
976.887	1222.81
977.187	1267.55
977.487	1211.96
977.787	1188.23
978.087	1192.07
978.387	1212.41
978.687	1198.4
978.987	1194.33
979.286	1193.2
979.586	1200.66
979.885	1197.04
980.185	1180.55
980.484	1175.35
980.784	1181
981.083	1170.6
981.382	1182.13
981.682	1160.66
981.981	1160.89
982.28	1194.56
982.579	1166.54
982.878	1175.58
983.177	1159.98
983.475	1154.79
983.774	1150.94
984.073	1136.03
984.372	1121.11
984.67	1102.81
984.969	1104.62
985.267	1131.96
985.566	1131.28
985.864	1121.57
986.162	1125.86
986.461	1127.67
986.759	1102.36
987.057	1096.93
987.355	1107.1
987.653	1112.75
987.951	1117.27
988.249	1103.26
988.547	1084.96
988.844	1058.29
989.142	1093.32
989.44	1102.13
989.737	1040.66
990.035	1070.27
990.332	1049.7
990.63	1040.44
990.927	1039.76
991.224	1042.92
991.521	1063.71
991.819	1034.56
992.116	1031.4
992.413	1051.51
992.71	1026.2
993.006	1039.08
993.303	1006.32
993.6	1023.26
993.897	1019.87
994.193	1008.8
994.49	991.63
994.787	991.85
995.083	1012.19
995.379	966.54
995.676	997.95
995.972	980.78
996.268	973.1
996.565	950.95
996.861	979.42
997.157	950.72
997.453	951.63
997.749	941.01
998.044	940.78
998.34	930.84
998.636	934.45
998.932	941.01
999.227	910.95
999.523	918.86
999.818	937.39
1000.114	914.11
1000.409	887
1000.704	896.04
1001	928.8
1001.295	890.39
1001.59	881.57
1001.885	904.17
1002.18	909.59
1002.475	863.04
1002.77	868.92
1003.065	903.95
1003.359	900.78
1003.654	879.77
1003.949	852.2
1004.243	865.53
1004.538	861.46
1004.832	849.71
1005.127	859.43
1005.421	840.9
1005.715	822.59
1006.009	858.97
1006.304	820.33
1006.598	855.13
1006.892	823.72
1007.186	818.75
1007.48	821.91
1007.773	836.83
1008.067	812.65
1008.361	821.46
1008.655	813.78
1008.948	813.55
1009.242	775.13
1009.535	813.78
1009.829	800.22
1010.122	778.3
1010.415	772.65
1010.708	788.24
1011.001	791.18
1011.295	786.21
1011.588	795.7
1011.881	764.51
1012.173	772.88
1012.466	775.59
1012.759	764.51
1013.052	750.28
1013.344	747.11
1013.637	766.77
1013.93	752.76
1014.222	754.34
1014.514	760.9
1014.807	759.32
1015.099	748.92
1015.391	752.08
1015.683	745.98
1015.976	738.07
1016.268	749.15
1016.56	738.53
1016.851	723.16
1017.143	711.18
1017.435	720.67
1017.727	714.57
1018.018	711.63
1018.31	720.9
1018.602	723.84
1018.893	718.87
1019.185	700.11
1019.476	696.04
1019.767	707.79
1020.058	696.04
1020.35	679.54
1020.641	686.55
1020.932	687.91
1021.223	666.44
1021.514	691.07
1021.804	694.91
1022.095	664.18
1022.386	654.91
1022.677	683.61
1022.967	675.93
1023.258	660.34
1023.548	652.65
1023.839	673.67
1024.129	656.72
1024.419	657.62
1024.709	645.19
1025	651.52
1025.29	665.31
1025.58	649.04
1025.87	640.22
1026.16	639.77
1026.449	618.75
1026.739	628.02
1027.029	631.86
1027.319	639.55
1027.608	625.08
1027.898	592.54
1028.187	626.66
1028.477	616.95
1028.766	607.46
1029.055	592.09
1029.344	592.09
1029.634	588.47
1029.923	593.67
1030.212	592.99
1030.501	592.99
1030.79	576.72
1031.078	585.76
1031.367	593.22
1031.656	578.98
1031.945	587.8
1032.233	601.13
1032.522	568.81
1032.81	569.94
1033.099	585.31
1033.387	569.72
1033.675	557.74
1033.963	556.61
1034.251	566.78
1034.54	555.25
1034.828	545.99
1035.116	560.45
1035.403	548.47
1035.691	517.51
1035.979	550.06
1036.267	532.66
1036.554	546.89
1036.842	556.38
1037.129	529.94
1037.417	503.05
1037.704	556.61
1037.992	527.01
1038.279	520.45
1038.566	522.71
1038.853	522.71
1039.14	522.71
