Data from foam2_polystyrene_foam_FLMS001491_00068.txt Node
Date: Wed Feb 08 10:58:20 GMT 2017
User: dcchb
Spectrometer: FLMS00149
Trigger mode: 0
Integration Time (sec): 2.000000E-2
Scans to average: 10
Electric dark correction enabled: true
Nonlinearity correction enabled: false
Boxcar width: 0
XAxis mode: Wavelengths
Number of Pixels in Spectrum: 2048
>>>>>Begin Spectral Data<<<<<
341.393	7.39
341.776	7.39
342.16	7.39
342.543	-59.5
342.927	-84.36
343.31	-49.56
343.693	-55.66
344.077	-73.06
344.46	-64.02
344.843	-59.73
345.226	-40.07
345.61	-43.46
345.993	-28.09
346.376	-2.56
346.759	14.17
347.142	34.28
347.525	40.61
347.908	58.91
348.291	68.18
348.674	100.72
349.057	99.36
349.44	114.28
349.823	139.36
350.206	165.8
350.588	175.97
350.971	215.52
351.354	234.5
351.737	246.25
352.119	250.09
352.502	256.19
352.884	249.87
353.267	298.23
353.65	314.95
354.032	298.45
354.414	309.07
354.797	323.54
355.179	333.71
355.562	338.45
355.944	335.51
356.326	331.22
356.709	335.74
357.091	321.73
357.473	352.69
357.855	353.37
358.238	331.9
358.62	350.2
359.002	325.57
359.384	339.13
359.766	342.52
360.148	368.51
360.53	356.76
360.912	326.25
361.294	347.04
361.676	348.62
362.057	343.42
362.439	335.97
362.821	354.72
363.203	346.59
363.584	345.23
363.966	335.29
364.348	347.26
364.729	330.99
365.111	332.12
365.493	323.76
365.874	335.97
366.256	340.26
366.637	310.2
367.019	333.25
367.4	343.2
367.781	325.8
368.163	333.03
368.544	320.37
368.925	343.88
369.306	328.96
369.688	317.89
370.069	333.03
370.45	333.48
370.831	336.87
371.212	332.8
371.593	338.9
371.974	346.81
372.355	330.77
372.736	345.91
373.117	342.29
373.498	339.36
373.879	305.46
374.26	347.04
374.641	340.26
375.021	326.7
375.402	344.33
375.783	352.24
376.163	336.42
376.544	354.04
376.925	375.29
377.305	356.98
377.686	374.61
378.066	360.37
378.447	352.01
378.827	346.59
379.208	365.57
379.588	361.28
379.968	367.83
380.349	369.64
380.729	381.61
381.109	358.56
381.489	393.14
381.87	370.99
382.25	364.89
382.63	404.21
383.01	385
383.39	385.46
383.77	403.53
384.15	425.91
384.53	399.24
384.91	428.62
385.29	388.17
385.67	414.16
386.049	411.9
386.429	410.77
386.809	420.71
387.189	396.3
387.568	409.18
387.948	417.77
388.328	442.4
388.707	430.2
389.087	432.01
389.466	428.17
389.846	422.97
390.225	442.18
390.605	444.21
390.984	439.01
391.363	436.53
391.743	442.63
392.122	445.34
392.501	449.86
392.881	462.52
393.26	462.97
393.639	468.39
394.018	473.59
394.397	457.77
394.776	469.07
395.155	467.49
395.534	458.45
395.913	481.5
396.292	479.24
396.671	444.21
397.05	479.24
397.429	488.28
397.808	490.99
398.186	489.86
398.565	484.66
398.944	516.75
399.323	515.4
399.701	507.26
400.08	529.41
400.458	521.95
400.837	528.96
401.215	522.85
401.594	531.44
401.972	535.51
402.351	522.18
402.729	533.93
403.107	538.9
403.486	546.58
403.864	550.65
404.242	535.73
404.62	548.16
404.999	555.62
405.377	576.19
405.755	575.28
406.133	576.86
406.511	581.38
406.889	589.29
407.267	591.55
407.645	626.58
408.023	592
408.401	604.66
408.779	605.34
409.156	611.44
409.534	642.4
409.912	624.55
410.29	635.17
410.667	624.32
411.045	644.21
411.422	637.43
411.8	677.43
412.178	679.69
412.555	681.95
412.933	679.91
413.31	662.06
413.687	685.79
414.065	685.11
414.442	706.8
414.819	702.96
415.197	709.52
415.574	720.59
415.951	726.69
416.328	752.45
416.705	733.92
417.082	733.02
417.46	757.88
417.837	764.43
418.214	759.46
418.591	772.56
418.967	761.94
419.344	766.69
419.721	775.05
420.098	787.03
420.475	773.02
420.852	792.9
421.228	807.37
421.605	803.52
421.982	829.06
422.358	830.87
422.735	844.65
423.111	841.49
423.488	869.51
423.864	851.21
424.241	878.78
424.617	875.39
424.994	887.82
425.37	890.75
425.746	873.58
426.123	896.85
426.499	900.02
426.875	925.78
427.251	927.59
427.627	919.68
428.003	942.5
428.379	964.65
428.756	968.49
429.132	955.16
429.507	994.71
429.883	994.93
430.259	1016.85
430.635	1001.48
431.011	1014.59
431.387	1038.32
431.763	1075.38
432.138	1069.96
432.514	1077.64
432.89	1078.32
433.265	1126.68
433.641	1089.39
434.016	1127.13
434.392	1138.88
434.767	1153.57
435.143	1169.84
435.518	1170.97
435.894	1186.56
436.269	1186.34
436.644	1192.21
437.02	1238.31
437.395	1254.59
437.77	1270.63
438.145	1267.01
438.52	1244.87
438.895	1293
439.271	1263.85
439.646	1323.96
440.021	1320.8
440.395	1332.55
440.77	1322.38
441.145	1314.47
441.52	1378.2
441.895	1350.4
442.27	1374.36
442.645	1382.49
443.019	1400.57
443.394	1407.58
443.769	1417.75
444.143	1402.83
444.518	1457.29
444.892	1414.13
445.267	1458.2
445.641	1467.01
446.016	1464.52
446.39	1494.81
446.764	1494.81
447.139	1484.86
447.513	1508.59
447.887	1508.59
448.262	1520.12
448.636	1562.37
449.01	1541.36
449.384	1607.57
449.758	1592.66
450.132	1600.79
450.506	1610.06
450.88	1631.75
451.254	1650.51
451.628	1637.17
452.002	1683.95
452.376	1688.02
452.75	1711.97
453.123	1720.56
453.497	1720.79
453.871	1730.73
454.244	1748.81
454.618	1762.59
454.992	1827
455.365	1792.42
455.739	1839.66
456.112	1854.57
456.486	1862.48
456.859	1864.74
457.232	1881.24
457.606	1886.66
457.979	1915.81
458.352	1935.92
458.725	1957.62
459.099	1956.26
459.472	2037.84
459.845	2017.96
460.218	2029.93
460.591	2065.41
460.964	2052.98
461.337	2103.38
461.71	2106.31
462.083	2151.96
462.456	2143.83
462.829	2203.94
463.201	2201.91
463.574	2216.59
463.947	2254.56
464.32	2303.6
464.692	2271.06
465.065	2290.72
465.438	2333.88
465.81	2378.4
466.183	2380.88
466.555	2432.86
466.928	2426.08
467.3	2432.18
467.672	2466.08
468.045	2528.9
468.417	2534.1
468.789	2547.66
469.161	2599.41
469.534	2602.57
469.906	2685.28
470.278	2652.52
470.65	2722.8
471.022	2761.44
471.394	2841.21
471.766	2774.55
472.138	2845.96
472.51	2906.97
472.882	2967.31
473.253	2974.31
473.625	3037.59
473.997	3082.11
474.369	3099.28
474.74	3104.93
475.112	3228.55
475.484	3239.84
475.855	3250.69
476.227	3293.63
476.598	3394.87
476.97	3413.4
477.341	3465.6
477.713	3500.18
478.084	3534.53
478.455	3605.94
478.827	3661.3
479.198	3725.26
479.569	3753.73
479.94	3807.51
480.311	3902.65
480.682	3979.26
481.053	4038.92
481.424	4087.51
481.795	4107.84
482.166	4169.76
482.537	4267.16
482.908	4348.74
483.279	4382.64
483.65	4451.34
484.021	4520.26
484.391	4633.93
484.762	4625.8
485.133	4668.28
485.503	4718.22
485.874	4805.23
486.244	4889.29
486.615	4967.71
486.985	4983.98
487.356	5093.13
487.726	5162.73
488.097	5222.62
488.467	5282.73
488.837	5376.51
489.207	5441.14
489.578	5488.15
489.948	5520.46
490.318	5614.92
490.688	5630.29
491.058	5727.24
491.428	5762.49
491.798	5873.45
492.168	6010.39
492.538	5972.65
492.908	6093.33
493.278	6145.53
493.648	6155.47
494.017	6258.75
494.387	6282.7
494.757	6351.85
495.126	6396.82
495.496	6456.26
495.866	6500.32
496.235	6517.27
496.605	6508.46
496.974	6643.82
497.344	6707.32
497.713	6736.25
498.082	6749.36
498.452	6831.61
498.821	6859.18
499.19	6862.35
499.559	6951.84
499.928	7046.07
500.298	7063.02
500.667	7172.17
501.036	7148.44
501.405	7280.64
501.774	7251.49
502.143	7307.76
502.512	7318.38
502.88	7410.13
503.249	7466.17
503.618	7506.17
503.987	7513.63
504.356	7603.57
504.724	7606.74
505.093	7666.39
505.462	7747.75
505.83	7814.41
506.199	7853.06
506.567	8008.31
506.936	7955.88
507.304	8025.03
507.672	8038.59
508.041	8091.24
508.409	8191.8
508.777	8260.28
509.145	8298.69
509.514	8347.51
509.882	8399.48
510.25	8457.79
510.618	8507.95
510.986	8534.39
511.354	8643.09
511.722	8677.89
512.09	8787.49
512.458	8755.86
512.826	8831.56
513.193	8893.71
513.561	8941.16
513.929	9006.47
514.297	9114.72
514.664	9134.38
515.032	9156.3
515.4	9267.26
515.767	9364.2
516.135	9414.6
516.502	9371.43
516.869	9468.38
517.237	9559
517.604	9517.65
517.972	9691.88
518.339	9768.26
518.706	9770.52
519.073	9821.82
519.44	9838.31
519.808	9949.05
520.175	9997.41
520.542	10138.19
520.909	10163.28
521.276	10292.09
521.643	10313.78
522.009	10349.49
522.376	10481.01
522.743	10616.37
523.11	10653.89
523.477	10739.76
523.843	10813.43
524.21	10901.11
524.577	11038.51
524.943	11047.1
525.31	11154.21
525.676	11271.72
526.043	11251.38
526.409	11381.33
526.776	11475.56
527.142	11530.7
527.508	11561.21
527.874	11710.36
528.241	11681.2
528.607	11795.1
528.973	11932.27
529.339	11919.62
529.705	12040.52
530.071	12087.75
530.437	12205.26
530.803	12271.47
531.169	12317.57
531.535	12310.34
531.901	12379.26
532.267	12490
532.632	12529.77
532.998	12552.37
533.364	12594.85
533.73	12686.15
534.095	12793.27
534.461	12868.07
534.826	12954.62
535.192	12962.75
535.557	13061.73
535.923	13062.86
536.288	13148.51
536.653	13245.91
537.019	13182.86
537.384	13249.52
537.749	13379.92
538.114	13384.44
538.479	13416.53
538.845	13402.51
539.21	13453.36
539.575	13546.92
539.94	13551.89
540.305	13699.68
540.67	13700.13
541.034	13739.23
541.399	13854.03
541.764	13801.6
542.129	13842.73
542.494	13933.8
542.858	13955.72
543.223	14077.75
543.587	14111.87
543.952	14169.27
544.316	14222.38
544.681	14231.65
545.045	14266.9
545.41	14377.63
545.774	14392.55
546.138	14385.99
546.503	14422.83
546.867	14385.09
547.231	14543.05
547.595	14641.13
547.959	14655.59
548.324	14701.01
548.688	14737.17
549.052	14821.46
549.416	14897.84
549.779	14903.72
550.143	14882.7
550.507	15013.09
550.871	15129.93
551.235	15116.82
551.599	15182.81
551.962	15177.16
552.326	15320.2
552.689	15420.99
553.053	15334.22
553.417	15423.48
553.78	15648.33
554.143	15537.83
554.507	15640.65
554.87	15674.32
555.234	15803.13
555.597	15811.94
555.96	15863.24
556.323	16048.09
556.686	15972.16
557.05	16077.7
557.413	16131.26
557.776	16190.92
558.139	16341.87
558.502	16326.28
558.865	16383.45
559.228	16559.49
559.59	16555.65
559.953	16604.46
560.316	16810.79
560.679	16851.92
561.041	16867.96
561.404	17003.1
561.767	17129.42
562.129	17076.32
562.492	17276.54
562.854	17262.98
563.217	17272.24
563.579	17436.31
563.941	17422.75
564.304	17515.85
564.666	17643.08
565.028	17654.83
565.39	17798.78
565.753	17928.95
566.115	17900.7
566.477	17935.5
566.839	18087.59
567.201	18186.8
567.563	18131.66
567.925	18269.28
568.287	18332.1
568.648	18373.01
569.01	18484.42
569.372	18597.18
569.734	18501.14
570.095	18700
570.457	18786.78
570.819	18869.72
571.18	18827.68
571.542	18989.94
571.903	18951.52
572.265	19050.73
572.626	19151.74
572.987	19191.97
573.349	19254.56
573.71	19293.66
574.071	19333.21
574.432	19347.9
574.794	19557.83
575.155	19570.04
575.516	19411.85
575.877	19608.91
576.238	19644.38
576.599	19715.57
576.96	19743.14
577.32	19759.64
577.681	19886.19
578.042	19826.75
578.403	19880.76
578.763	19895.23
579.124	19953.98
579.485	19996.47
579.845	20073.07
580.206	20042.57
580.566	20087.08
580.927	20079.4
581.287	20186.52
581.648	20080.31
582.008	20197.14
582.368	20078.72
582.728	20181.32
583.089	20165.73
583.449	20142
583.809	20166.63
584.169	20291.15
584.529	20189.68
584.889	20425.61
585.249	20263.35
585.609	20201.21
585.969	20279.17
586.329	20276.46
586.688	20358.26
587.048	20211.15
587.408	20330.69
587.768	20186.74
588.127	20245.72
588.487	20266.29
588.846	20466.28
589.206	20170.02
589.565	20299.51
589.925	20303.35
590.284	20310.58
590.643	20349
591.003	20327.3
591.362	20394.87
591.721	20317.81
592.08	20377.02
592.44	20382.44
592.799	20438.71
593.158	20417.25
593.517	20277.14
593.876	20372.28
594.235	20352.39
594.593	20461.99
594.952	20503.57
595.311	20361.43
595.67	20456.57
596.029	20488.66
596.387	20630.57
596.746	20630.57
597.104	20450.24
597.463	20573.63
597.822	20545.6
598.18	20494.76
598.538	20556
598.897	20572.5
599.255	20535.66
599.613	20759.61
599.972	20594.19
600.33	20670.35
600.688	20609.33
601.046	20659.27
601.404	20707.18
601.762	20637.58
602.12	20791.47
602.478	20752.83
602.836	20776.11
603.194	20652.95
603.552	20723.9
603.91	20752.38
604.268	20799.61
604.625	20679.16
604.983	20768.65
605.341	20719.38
605.698	20808.42
606.056	20841.64
606.413	20737.01
606.771	20892.26
607.128	20915.76
607.485	20855.2
607.843	20908.76
608.2	20982.88
608.557	20985.82
608.914	20946.72
609.272	21087.06
609.629	21078.92
609.986	21146.27
610.343	20881.19
610.7	21208.64
611.057	21152.14
611.414	21117.11
611.771	21140.39
612.127	21229.43
612.484	21236.43
612.841	21203.44
613.198	21193.27
613.554	21271.23
613.911	21286.83
614.267	21342.65
614.624	21387.16
614.98	21351.68
615.337	21431.46
615.693	21407.05
616.05	21318.46
616.406	21569.98
616.762	21404.11
617.118	21506.03
617.475	21385.13
617.831	21515.97
618.187	21567.05
618.543	21616.08
618.899	21636.42
619.255	21669.42
619.611	21557.33
619.967	21671.68
620.323	21722.75
620.678	21592.36
621.034	21550.1
621.39	21550.55
621.746	21530.89
622.101	21819.69
622.457	21631.68
622.812	21537.67
623.168	21642.07
623.523	21623.32
623.879	21744.67
624.234	21441.85
624.589	21600.94
624.945	21556.88
625.3	21626.93
625.655	21567.05
626.01	21620.6
626.365	21710.09
626.72	21694.95
627.075	21695.86
627.43	21549.19
627.785	21583.09
628.14	21571.79
628.495	21624.9
628.85	21607.5
629.205	21462.42
629.559	21608.4
629.914	21562.53
630.269	21575.63
630.623	21465.58
630.978	21401.4
631.332	21432.36
631.687	21500.38
632.041	21416.32
632.396	21446.82
632.75	21386.71
633.104	21424.22
633.459	21169.99
633.813	21237.79
634.167	21265.81
634.521	21170.9
634.875	21196.89
635.229	21209.32
635.583	21099.26
635.937	21110.56
636.291	21017
636.645	21110.33
636.999	20969.32
637.352	21102.43
637.706	20810.91
638.06	20935.65
638.413	20849.55
638.767	20814.07
639.121	20859.04
639.474	20769.55
639.828	20721.64
640.181	20722.1
640.534	20751.25
640.888	20659.05
641.241	20619.73
641.594	20624.7
641.947	20686.62
642.301	20564.36
642.654	20552.38
643.007	20494.76
643.36	20583.12
643.713	20506.06
644.066	20538.82
644.419	20487.3
644.771	20202.56
645.124	20026.07
645.477	19901.55
645.83	19873.98
646.182	19765.96
646.535	19768.9
646.888	19857.26
647.24	19756.25
647.593	19893.87
647.945	19744.49
648.298	19626.31
648.65	19639.41
649.002	19564.84
649.355	19621.56
649.707	19616.14
650.059	19696.81
650.411	19900.42
650.763	19850.03
651.115	20131.6
651.467	19976.58
651.819	19979.74
652.171	19975
652.523	19842.8
652.875	19816.13
653.227	19781.56
653.578	19937.48
653.93	19947.2
654.282	19662.01
654.633	19755.79
654.985	19735.68
655.337	19727.55
655.688	19716.7
656.039	19764.16
656.391	19580.88
656.742	19599.19
657.094	19642.12
657.445	19715.8
657.796	19646.87
658.147	19611.17
658.498	19649.81
658.849	19646.87
659.2	19450.49
659.551	19473.32
659.902	19552.18
660.253	19546.53
660.604	19591.73
660.955	19457.95
661.306	19497.95
661.656	19438.51
662.007	19578.4
662.358	19411.4
662.708	19449.36
663.059	19331.4
663.409	19290.5
663.76	19328.23
664.11	19343.38
664.461	19385.63
664.811	19311.06
665.161	19331.17
665.511	19286.88
665.862	19278.74
666.212	19364.84
666.562	19328.69
666.912	19285.52
667.262	19248.91
667.612	19216.83
667.962	19294.11
668.312	19195.36
668.662	19302.25
669.011	19242.14
669.361	19190.39
669.711	19196.49
670.06	19107.9
670.41	19058.86
670.76	19155.81
671.109	19150.84
671.459	19106.32
671.808	19151.74
672.157	19192.42
672.507	19040.33
672.856	19025.87
673.205	19125.53
673.554	19075.81
673.904	18962.37
674.253	19071.74
674.602	18974.8
674.951	18657.29
675.3	18673.11
675.649	19016.83
675.998	18992.65
676.346	18895.25
676.695	19078.75
677.044	18886.21
677.393	18865.87
677.741	18981.58
678.09	18861.81
678.438	18784.97
678.787	18770.51
679.135	18757.85
679.484	18691.42
679.832	18702.26
680.181	18650.74
680.529	18706.1
680.877	18666.11
681.225	18674.92
681.573	18768.93
681.922	18561.25
682.27	18509.95
682.618	18558.99
682.966	18462.72
683.314	18486.67
683.661	18394.02
684.009	18330.97
684.357	18316.28
684.705	18306.11
685.053	18231.77
685.4	18185.21
685.748	18112.45
686.095	18119.23
686.443	18112.45
686.79	18123.29
687.138	18060.02
687.485	18153.12
687.832	18088.04
688.18	18031.77
688.527	17965.11
688.874	17922.85
689.221	17884.66
689.568	17742.29
689.915	17715.62
690.262	17747.94
690.609	17602.18
690.956	17631.33
691.303	17568.28
691.65	17545.46
691.997	17538.9
692.344	17404.44
692.69	17394.05
693.037	17428.62
693.383	17206.03
693.73	17300.27
694.077	17230.21
694.423	17163.32
694.769	17201.74
695.116	17166.03
695.462	17043.1
695.808	17035.64
696.155	16997.9
696.501	16895.98
696.847	16934.85
697.193	16715.87
697.539	16879.26
697.885	16725.59
698.231	16633.62
698.577	16587.74
698.923	16607.63
699.269	16526.73
699.614	16476.11
699.96	16505.94
700.306	16469.1
700.651	16378.71
700.997	16244.02
701.342	16272.72
701.688	16289.67
702.033	16223.91
702.379	16176.23
702.724	16147.3
703.069	16183.46
703.415	16011.94
703.76	15924.03
704.105	16028.66
704.45	15886.52
704.795	15815.56
705.14	15793.41
705.485	15733.75
705.83	15712.06
706.175	15794.32
706.52	15717.93
706.865	15665.28
707.209	15702.57
707.554	15575.57
707.899	15675.22
708.243	15415.8
708.588	15485.85
708.932	15376.47
709.277	15321.56
709.621	15321.33
709.966	15215.12
710.31	15225.29
710.654	15125.63
710.998	15246.76
711.342	15150.27
711.687	15147.33
712.031	15035.69
712.375	15013.32
712.719	14994.11
713.063	15036.37
713.407	15080.21
713.75	14998.86
714.094	14878.63
714.438	14849.48
714.782	14949.59
715.125	14806.32
715.469	14786.43
715.812	14677.74
716.156	14705.76
716.499	14693.78
716.843	14738.75
717.186	14580.34
717.53	14664.85
717.873	14647.23
718.216	14644.06
718.559	14510.73
718.902	14429.38
719.246	14506.67
719.589	14363.85
719.932	14344.41
720.275	14307.35
720.617	14237.97
720.96	14290.63
721.303	14284.98
721.646	14303.28
721.989	14179.67
722.331	14207.92
722.674	14126.56
723.016	14096.96
723.359	14131.31
723.701	14117.75
724.044	14077.3
724.386	14034.36
724.729	14045.44
725.071	14032.1
725.413	13920.69
725.755	14038.43
726.097	13916.4
726.439	13801.15
726.782	13953.46
727.124	13885.67
727.465	13781.26
727.807	13830.07
728.149	13834.37
728.491	13835.5
728.833	13771.54
729.175	13760.25
729.516	13733.13
729.858	13701.94
730.199	13789.85
730.541	13609.06
730.882	13573.13
731.224	13605.22
731.565	13623.75
731.906	13576.3
732.248	13663.3
732.589	13517.77
732.93	13423.08
733.271	13511.66
733.612	13489.29
733.953	13540.14
734.294	13418.33
734.635	13421.05
734.976	13430.08
735.317	13314.38
735.658	13307.38
735.999	13287.72
736.339	13324.1
736.68	13322.06
737.021	13312.35
737.361	13237.1
737.702	13184.44
738.042	13188.51
738.383	13237.55
738.723	13179.47
739.063	13116.19
739.404	13119.13
739.744	13184.89
740.084	13039.36
740.424	13052.69
740.764	13008.63
741.104	12980.38
741.444	12976.31
741.784	12902.41
742.124	12983.09
742.464	12965.24
742.804	12942.87
743.143	12865.35
743.483	12837.11
743.823	12798.91
744.162	12811.12
744.502	12792.59
744.841	12704
745.181	12804.34
745.52	12752.59
745.86	12711.91
746.199	12678.92
746.538	12674.85
746.877	12633.27
747.216	12670.78
747.556	12701.06
747.895	12624.23
748.234	12554.18
748.573	12533.61
748.911	12480.51
749.25	12518.47
749.589	12456.55
749.928	12520.05
750.267	12579.26
750.605	12458.58
750.944	12410.22
751.283	12328.87
751.621	12400.96
751.96	12313.5
752.298	12210.23
752.636	12311.47
752.975	12251.58
753.313	12240.74
753.651	12180.63
753.989	12201.19
754.327	12207.07
754.666	12052.04
755.004	12131.14
755.342	12122.1
755.679	12062.89
756.017	11979.05
756.355	12005.04
756.693	11935.89
757.031	11918.94
757.368	11850.69
757.706	11852.5
758.044	11794.65
758.381	11797.13
758.719	11780.86
759.056	11764.37
759.394	11733.86
759.731	11685.27
760.068	11563.47
760.405	11609.57
760.743	11593.07
761.08	11601.21
761.417	11479.18
761.754	11450.25
762.091	11476.92
762.428	11474.43
762.765	11327.54
763.102	11330.7
763.438	11313.76
763.775	11268.79
764.112	11297.26
764.449	11271.05
764.785	11197.15
765.122	11099.52
765.458	11163.93
765.795	11076.93
766.131	11066.08
766.467	10998.06
766.804	10928.91
767.14	10890.72
767.476	10914.22
767.812	10874.22
768.148	10815.01
768.485	10797.16
768.821	10735.24
769.157	10650.04
769.492	10664.96
769.828	10692.76
770.164	10626.32
770.5	10513.78
770.836	10558.97
771.171	10503.61
771.507	10463.84
771.842	10395.81
772.178	10409.37
772.513	10365.53
772.849	10347.68
773.184	10274.46
773.519	10255.48
773.855	10235.59
774.19	10167.57
774.525	10104.07
774.86	10183.84
775.195	10213.9
775.53	10082.6
775.865	10061.13
776.2	9984.07
776.535	9930.97
776.87	9944.75
777.205	9888.48
777.539	9805.55
777.874	9883.74
778.209	9814.81
778.543	9724.19
778.878	9742.27
779.212	9704.98
779.547	9620.69
779.881	9613.01
780.215	9608.49
780.55	9554.25
780.884	9529.85
781.218	9488.49
781.552	9462.96
781.886	9425.67
782.22	9427.25
782.554	9340.02
782.888	9244.21
783.222	9236.97
783.556	9246.47
783.889	9183.19
784.223	9093.7
784.557	9142.97
784.89	9161.95
785.224	9068.17
785.557	9024.78
785.891	9020.26
786.224	8985
786.558	8942.97
786.891	8947.94
787.224	8876.53
787.557	8841.5
787.891	8889.19
788.224	8783.88
788.557	8787.72
788.89	8748.63
789.223	8773.26
789.556	8735.74
789.888	8669.53
790.221	8580.27
790.554	8620.27
790.887	8566.94
791.219	8499.59
791.552	8542.53
791.884	8536.65
792.217	8500.04
792.549	8498.91
792.882	8371.46
793.214	8370.56
793.546	8389.77
793.879	8322.42
794.211	8326.94
794.543	8279.49
794.875	8324.46
795.207	8311.12
795.539	8157.91
795.871	8201.3
796.203	8158.81
796.535	8097.12
796.867	8109.09
797.198	8045.37
797.53	8124.01
797.862	7952.94
798.193	8014.18
798.525	7929.44
798.856	7950.91
799.188	7846.95
799.519	7834.75
799.85	7817.8
800.182	7811.48
800.513	7826.84
800.844	7792.94
801.175	7817.35
801.506	7723.34
801.837	7700.07
802.168	7703
802.499	7596.57
802.83	7659.84
803.161	7604.93
803.491	7612.38
803.822	7552.5
804.153	7613.29
804.483	7513.86
804.814	7489.68
805.145	7441.32
805.475	7464.14
805.805	7469.79
806.136	7489.22
806.466	7432.95
806.796	7405.16
807.126	7372.62
807.457	7405.61
807.787	7380.3
808.117	7288.33
808.447	7287.87
808.777	7333.52
809.107	7290.81
809.436	7220.53
809.766	7207.65
810.096	7195.67
810.426	7120.19
810.755	7137.82
811.085	7120.87
811.414	7134.43
811.744	7136.46
812.073	7094.43
812.403	7064.38
812.732	7058.27
813.061	6992.29
813.39	7033.87
813.719	6970.59
814.049	6991.38
814.378	6983.25
814.707	6857.38
815.036	6895.12
815.365	6867.32
815.693	6831.61
816.022	6846.98
816.351	6853.76
816.68	6783.48
817.008	6851.95
817.337	6771.95
817.665	6770.37
817.994	6750.71
818.322	6790.94
818.651	6742.12
818.979	6723.82
819.307	6699.64
819.636	6750.94
819.964	6715.23
820.292	6624.39
820.62	6647.66
820.948	6623.48
821.276	6647.44
821.604	6637.49
821.932	6666.19
822.259	6676.36
822.587	6618.29
822.915	6595.01
823.243	6656.7
823.57	6587.33
823.898	6644.05
824.225	6599.08
824.553	6602.24
824.88	6605.86
825.207	6605.86
825.535	6582.36
825.862	6579.87
826.189	6574.45
826.516	6602.24
826.843	6634.11
827.17	6599.53
827.497	6649.47
827.824	6564.05
828.151	6587.33
828.478	6576.48
828.805	6590.26
829.131	6530.15
829.458	6568.8
829.785	6529.25
830.111	6601.11
830.438	6614.22
830.764	6580.32
831.09	6572.64
831.417	6510.27
831.743	6581
832.069	6553.2
832.395	6562.47
832.722	6565.63
833.048	6541.45
833.374	6531.51
833.7	6545.29
834.026	6544.39
834.351	6531.06
834.677	6511.17
835.003	6591.85
835.329	6548.46
835.654	6542.36
835.98	6472.08
836.306	6469.14
836.631	6449.03
836.956	6512.3
837.282	6487.44
837.607	6436.14
837.932	6493.77
838.258	6424.17
838.583	6382.13
838.908	6346.2
839.233	6367.22
839.558	6374.68
839.883	6350.5
840.208	6351.85
840.533	6334
840.858	6336.94
841.182	6301.46
841.507	6299.88
841.832	6285.64
842.156	6282.7
842.481	6262.59
842.805	6263.27
843.13	6255.13
843.454	6238.18
843.778	6220.1
844.103	6199.09
844.427	6230.95
844.751	6190.28
845.075	6197.28
845.399	6172.42
845.723	6099.88
846.047	6153.21
846.371	6047.68
846.695	6033.44
847.019	5983.27
847.343	5998.42
847.666	5950.96
847.99	5971.3
848.313	5913.22
848.637	5900.11
848.96	5908.25
849.284	5941.69
849.607	5856.27
849.931	5880.23
850.254	5857.4
850.577	5755.71
850.9	5713
851.223	5770.17
851.546	5725.43
851.869	5704.19
852.192	5713.23
852.515	5638.43
852.838	5611.99
853.161	5594.58
853.483	5616.5
853.806	5564.08
854.129	5607.47
854.451	5567.69
854.774	5524.53
855.096	5535.83
855.419	5502.38
855.741	5484.3
856.063	5444.53
856.385	5440.69
856.708	5435.27
857.03	5456.51
857.352	5419.22
857.674	5382.16
857.996	5338.55
858.318	5383.74
858.64	5292.45
858.961	5328.38
859.283	5325.44
859.605	5294.48
859.926	5254.48
860.248	5284.99
860.57	5252.45
860.891	5256.74
861.212	5228.04
861.534	5194.82
861.855	5196.4
862.176	5209.51
862.498	5181.94
862.819	5242.28
863.14	5169.96
863.461	5150.3
863.782	5149.85
864.103	5143.52
864.424	5120.92
864.745	5123.64
865.065	5128.83
865.386	5117.76
865.707	5090.19
866.027	5107.37
866.348	5047.48
866.668	5105.11
866.989	5069.85
867.309	5068.5
867.63	5049.74
867.95	5014.94
868.27	5000.02
868.59	5049.51
868.91	5018.33
869.23	5023.53
869.55	4997.99
869.87	4966.35
870.19	5005.22
870.51	5013.58
870.83	4988.5
871.15	4946.47
871.469	4940.82
871.789	4984.21
872.109	4953.25
872.428	4901.5
872.748	4944.88
873.067	4961.38
873.386	4969.06
873.706	4923.19
874.025	4900.14
874.344	4900.82
874.663	4884.55
874.982	4907.6
875.301	4852.46
875.62	4881.38
875.939	4805.45
876.258	4847.71
876.577	4771.33
876.896	4767.71
877.214	4767.94
877.533	4795.06
877.852	4795.28
878.17	4788.5
878.489	4818.79
878.807	4770.2
879.125	4751.89
879.444	4773.59
879.762	4760.48
880.08	4778.56
880.398	4751.67
880.716	4740.6
881.034	4701.5
881.352	4685.91
881.67	4714.16
881.988	4717.32
882.306	4692.69
882.624	4692.69
882.941	4707.15
883.259	4628.28
883.577	4659.47
883.894	4593.03
884.212	4623.76
884.529	4637.77
884.846	4612.24
885.164	4621.95
885.481	4636.87
885.798	4613.82
886.115	4572.46
886.432	4576.08
886.75	4536.53
887.067	4533.6
887.383	4502.18
887.7	4497.89
888.017	4529.75
888.334	4479.13
888.651	4475.52
888.967	4519.58
889.284	4463.99
889.6	4443.43
889.917	4407.27
890.233	4417.21
890.55	4440.72
890.866	4438.46
891.182	4399.81
891.498	4378.12
891.815	4342.64
892.131	4361.4
892.447	4339.25
892.763	4339.02
893.079	4316.88
893.395	4276.65
893.71	4258.35
894.026	4285.92
894.342	4248.63
894.657	4239.14
894.973	4250.89
895.289	4222.64
895.604	4219.25
895.92	4217.45
896.235	4222.87
896.55	4219.93
896.865	4161.85
897.181	4169.54
897.496	4158.92
897.811	4132.25
898.126	4107.17
898.441	4068.3
898.756	4070.78
899.071	4055.87
899.386	4068.97
899.7	4043.21
900.015	4012.71
900.33	4012.25
900.644	4012.71
900.959	4002.76
901.273	3950.56
901.588	3970.22
901.902	3908.75
902.216	3953.5
902.531	3937.45
902.845	3906.72
903.159	3907.85
903.473	3916.44
903.787	3852.03
904.101	3833.05
904.415	3837.12
904.729	3855.87
905.042	3817.23
905.356	3833.27
905.67	3748.98
905.984	3785.82
906.297	3737.91
906.611	3715.09
906.924	3732.03
907.237	3725.71
907.551	3690.45
907.864	3712.83
908.177	3685.93
908.491	3681.19
908.804	3656.33
909.117	3607.29
909.43	3619.04
909.743	3596.44
910.056	3621.98
910.368	3594.19
910.681	3579.04
910.994	3604.58
911.307	3576.56
911.619	3480.74
911.932	3531.14
912.244	3471.25
912.557	3511.93
912.869	3525.03
913.181	3490.91
913.494	3453.4
913.806	3413.17
914.118	3420.4
914.43	3396.68
914.742	3392.61
915.054	3404.59
915.366	3392.61
915.678	3353.06
915.99	3346.28
916.302	3325.27
916.613	3345.6
916.925	3324.36
917.236	3285.72
917.548	3286.4
917.859	3285.04
918.171	3276.23
918.482	3240.3
918.794	3262.44
919.105	3190.81
919.416	3166.4
919.727	3184.7
920.038	3192.39
920.349	3118.27
920.66	3140.41
920.971	3140.19
921.282	3116.46
921.593	3078.94
921.903	3099.06
922.214	3118.94
922.525	3082.56
922.835	3078.27
923.146	3039.85
923.456	3067.19
923.767	3029.23
924.077	2990.81
924.387	3009.57
924.697	2983.35
925.008	2959.85
925.318	2982.9
925.628	2970.25
925.938	2975.22
926.248	2951.49
926.558	2952.17
926.867	2883.24
927.177	2919.4
927.487	2904.26
927.796	2866.52
928.106	2863.58
928.416	2835.11
928.725	2838.27
929.034	2817.71
929.344	2812.96
929.653	2838.72
929.962	2759.18
930.271	2758.27
930.581	2779.74
930.89	2761.21
931.199	2755.79
931.508	2766.18
931.817	2749.91
932.125	2697.26
932.434	2710.82
932.743	2723.02
933.051	2676.24
933.36	2663.36
933.669	2653.19
933.977	2650.26
934.286	2656.58
934.594	2634.44
934.902	2634.21
935.21	2564.83
935.519	2584.49
935.827	2586.75
936.135	2584.27
936.443	2566.64
936.751	2550.14
937.059	2516.93
937.367	2552.86
937.674	2547.88
937.982	2501.78
938.29	2492.07
938.597	2519.19
938.905	2466.98
939.213	2474.67
939.52	2459.3
939.827	2471.05
940.135	2443.71
940.442	2436.25
940.749	2430.83
941.056	2459.98
941.363	2393.31
941.67	2415.91
941.977	2374.1
942.284	2352.64
942.591	2327.55
942.898	2382.24
943.205	2353.09
943.511	2312.18
943.818	2317.61
944.125	2316.93
944.431	2328.46
944.738	2313.31
945.044	2266.31
945.35	2269.02
945.657	2294.56
945.963	2288.91
946.269	2232.87
946.575	2271.96
946.881	2245.07
947.187	2248.46
947.493	2217.27
947.799	2241.23
948.105	2225.41
948.41	2226.31
948.716	2186.09
949.022	2191.06
949.327	2184.5
949.633	2172.98
949.938	2154.9
950.244	2124.62
950.549	2111.06
950.854	2144.96
951.16	2155.35
951.465	2120.78
951.77	2131.85
952.075	2106.77
952.38	2095.02
952.685	2102.02
952.99	2059.99
953.294	2079.87
953.599	2048.24
953.904	2053.89
954.209	2008.01
954.513	2040.33
954.818	2024.28
955.122	2038.75
955.426	2010.72
955.731	1979.09
956.035	1994.68
956.339	1999.42
956.643	1978.63
956.948	1955.36
957.252	1956.49
957.556	1970.5
957.86	1911.29
958.163	1930.95
958.467	1942.03
958.771	1916.04
959.075	1918.97
959.378	1921.69
959.682	1894.34
959.985	1905.19
960.289	1860.22
960.592	1868.58
960.896	1877.85
961.199	1891.63
961.502	1848.69
961.805	1850.28
962.108	1840.11
962.411	1848.47
962.714	1821.58
963.017	1813.67
963.32	1817.73
963.623	1791.07
963.926	1806.89
964.228	1787
964.531	1777.28
964.833	1754.23
965.136	1764.85
965.438	1737.96
965.741	1777.74
966.043	1772.54
966.345	1739.54
966.648	1755.59
966.95	1728.7
967.252	1734.57
967.554	1676.04
967.856	1699.55
968.158	1704.74
968.46	1705.65
968.761	1665.87
969.063	1679.66
969.365	1656.61
969.666	1662.48
969.968	1651.86
970.269	1674.69
970.571	1661.81
970.872	1641.92
971.174	1637.63
971.475	1635.82
971.776	1637.4
972.077	1604.86
972.378	1588.59
972.679	1622.03
972.98	1614.58
973.281	1586.78
973.582	1587.68
973.883	1637.85
974.183	1598.98
974.484	1576.61
974.785	1579.1
975.085	1558.08
975.386	1560.34
975.686	1551.75
975.986	1551.75
976.287	1544.52
976.587	1519.66
976.887	1539.32
977.187	1514.24
977.487	1522.15
977.787	1523.05
978.087	1505.2
978.387	1495.48
978.687	1483.05
978.987	1490.29
979.286	1470.63
979.586	1513.34
979.885	1476.05
980.185	1467.46
980.484	1469.5
980.784	1436.28
981.083	1425.2
981.382	1440.8
981.682	1432.43
981.981	1449.83
982.28	1415.71
982.579	1430.4
982.878	1409.61
983.177	1416.84
983.475	1408.03
983.774	1390.18
984.073	1370.51
984.372	1410.51
984.67	1373.9
984.969	1362.61
985.267	1397.63
985.566	1350.4
985.864	1355.37
986.162	1380.23
986.461	1327.13
986.759	1323.28
987.057	1297.97
987.355	1296.62
987.653	1319.44
987.951	1304.53
988.249	1331.19
988.547	1283.74
988.844	1279.22
989.142	1295.04
989.44	1268.6
989.737	1292.78
990.035	1291.42
990.332	1292.55
990.63	1278.77
990.927	1287.81
991.224	1249.16
991.521	1270.18
991.819	1278.77
992.116	1249.61
992.413	1246.45
992.71	1244.87
993.006	1222.27
993.303	1228.82
993.6	1200.8
993.897	1251.2
994.193	1223.63
994.49	1225.43
994.787	1172.1
995.083	1214.81
995.379	1184.08
995.676	1179.11
995.972	1213.23
996.268	1181.37
996.565	1161.48
996.861	1185.89
997.157	1169.16
997.453	1186.79
997.749	1143.85
998.044	1155.15
998.34	1133.01
998.636	1132.55
998.932	1129.62
999.227	1136.17
999.523	1116.96
999.818	1129.39
1000.114	1112.89
1000.409	1111.31
1000.704	1121.48
1001	1126.91
1001.295	1076.06
1001.59	1118.32
1001.885	1078.09
1002.18	1084.87
1002.475	1064.53
1002.77	1071.09
1003.065	1030.41
1003.359	1064.08
1003.654	1087.36
1003.949	1056.17
1004.243	1046.23
1004.538	1055.27
1004.832	1024.99
1005.127	1027.7
1005.421	1025.21
1005.715	1027.25
1006.009	1013.01
1006.304	1004.42
1006.598	1001.71
1006.892	1008.04
1007.186	999.9
1007.48	984.76
1007.773	1005.1
1008.067	985.67
1008.361	986.12
1008.655	992.22
1008.948	980.24
1009.242	969.62
1009.535	960.58
1009.829	944.54
1010.122	928.27
1010.415	973.92
1010.708	947.02
1011.001	946.35
1011.295	937.76
1011.588	929.62
1011.881	959.23
1012.173	915.61
1012.466	923.07
1012.759	902.96
1013.052	900.92
1013.344	902.5
1013.637	922.39
1013.93	901.83
1014.222	918.1
1014.514	890.98
1014.807	896.18
1015.099	871.09
1015.391	850.53
1015.683	887.36
1015.976	864.54
1016.268	871.32
1016.56	864.77
1016.851	848.95
1017.143	849.4
1017.435	836.52
1017.727	865.9
1018.018	835.39
1018.31	873.8
1018.602	856.4
1018.893	816.86
1019.185	811.89
1019.476	810.98
1019.767	800.59
1020.058	817.99
1020.35	796.29
1020.641	796.97
1020.932	809.17
1021.223	800.13
1021.514	760.14
1021.804	775.28
1022.095	793.81
1022.386	781.15
1022.677	777.31
1022.967	786.8
1023.258	761.27
1023.548	752.68
1023.839	739.12
1024.129	734.15
1024.419	735.73
1024.709	763.98
1025	742.96
1025.29	748.38
1025.58	748.38
1025.87	726.46
1026.16	713.58
1026.449	745.9
1026.739	729.63
1027.029	730.76
1027.319	712.45
1027.608	719.23
1027.898	722.4
1028.187	703.64
1028.477	693.24
1028.766	707.48
1029.055	691.66
1029.344	710.19
1029.634	693.24
1029.923	677.2
1030.212	670.87
1030.501	683.75
1030.79	678.1
1031.078	676.52
1031.367	642.4
1031.656	655.28
1031.945	663.64
1032.233	659.12
1032.522	669.29
1032.81	645.56
1033.099	651.66
1033.387	649.4
1033.675	654.83
1033.963	641.72
1034.251	653.25
1034.54	648.27
1034.828	617.09
1035.116	626.81
1035.403	617.09
1035.691	625.68
1035.979	636.07
1036.267	601.5
1036.554	638.56
1036.842	601.04
1037.129	604.21
1037.417	610.31
1037.704	600.37
1037.992	586.81
1038.279	611.66
1038.566	577.99
1038.853	577.99
1039.14	577.99
