Data from foam_black_FLMS001491_00043.txt Node
Date: Wed Feb 08 10:43:56 GMT 2017
User: dcchb
Spectrometer: FLMS00149
Trigger mode: 0
Integration Time (sec): 2.000000E-2
Scans to average: 10
Electric dark correction enabled: true
Nonlinearity correction enabled: false
Boxcar width: 0
XAxis mode: Wavelengths
Number of Pixels in Spectrum: 2048
>>>>>Begin Spectral Data<<<<<
341.393	-15.13
341.776	-15.13
342.16	-15.13
342.543	-55.8
342.927	-59.19
343.31	-58.06
343.693	-88.35
344.077	-79.53
344.46	-84.73
344.843	-51.28
345.226	-27.56
345.61	-20.32
345.993	-20.32
346.376	11.54
346.759	-3.15
347.142	30.3
347.525	52.89
347.908	61.26
348.291	80.69
348.674	92.67
349.057	103.97
349.44	118.43
349.823	152.55
350.206	155.72
350.588	196.39
350.971	184.64
351.354	207.69
351.737	222.61
352.119	235.71
352.502	255.6
352.884	260.12
353.267	283.17
353.65	296.73
354.032	288.37
354.414	278.42
354.797	295.15
355.179	304.86
355.562	311.19
355.944	317.29
356.326	324.53
356.709	320.01
357.091	337.86
357.473	330.4
357.855	331.76
358.238	313.23
358.62	320.91
359.002	322.72
359.384	340.12
359.766	332.89
360.148	317.07
360.53	354.13
360.912	337.86
361.294	327.92
361.676	331.08
362.057	310.29
362.439	343.06
362.821	326.33
363.203	326.33
363.584	321.36
363.966	328.59
364.348	315.26
364.729	312.32
365.111	305.99
365.493	323.62
365.874	309.38
366.256	313
366.637	311.87
367.019	327.46
367.4	321.14
367.781	332.66
368.163	313.68
368.544	298.31
368.925	317.97
369.306	318.42
369.688	308.93
370.069	313.45
370.45	312.1
370.831	324.53
371.212	321.81
371.593	312.32
371.974	333.79
372.355	312.1
372.736	327.24
373.117	336.5
373.498	317.97
373.879	303.73
374.26	336.28
374.641	302.83
375.021	303.06
375.402	319.78
375.783	325.66
376.163	326.56
376.544	321.81
376.925	348.93
377.305	333.11
377.686	334.92
378.066	344.41
378.447	345.99
378.827	338.76
379.208	331.76
379.588	325.43
379.968	348.48
380.349	332.21
380.729	334.47
381.109	329.72
381.489	340.12
381.87	351.87
382.25	360.91
382.63	349.38
383.01	337.63
383.39	325.43
383.77	346.22
384.15	355.71
384.53	375.37
384.91	342.6
385.29	365.65
385.67	360.68
386.049	372.21
386.429	359.55
386.809	381.02
387.189	360.68
387.568	355.03
387.948	359.33
388.328	383.28
388.707	390.29
389.087	385.77
389.466	371.98
389.846	375.15
390.225	387.8
390.605	390.29
390.984	395.03
391.363	385.09
391.743	374.69
392.122	390.74
392.501	403.39
392.881	386.9
393.26	413.79
393.639	408.82
394.018	399.1
394.397	406.78
394.776	411.75
395.155	388.93
395.534	404.98
395.913	418.76
396.292	414.24
396.671	422.83
397.05	402.94
397.429	417.18
397.808	410.17
398.186	435.71
398.565	432.09
398.944	426.67
399.323	417.86
399.701	451.3
400.08	420.34
400.458	432.55
400.837	426.67
401.215	435.48
401.594	446.78
401.972	448.59
402.351	433.22
402.729	442.04
403.107	447.01
403.486	464.63
403.864	448.59
404.242	475.93
404.62	473
404.999	458.31
405.377	467.57
405.755	488.14
406.133	480.23
406.511	465.99
406.889	511.41
407.267	493.56
407.645	484.97
408.023	503.96
408.401	510.96
408.779	497.18
409.156	500.79
409.534	505.31
409.912	512.09
410.29	515.71
410.667	516.38
411.045	531.53
411.422	517.06
411.8	522.03
412.178	532.88
412.555	534.92
412.933	565.87
413.31	550.51
413.687	538.31
414.065	543.28
414.442	551.86
414.819	551.86
415.197	555.48
415.574	578.98
415.951	578.3
416.328	563.16
416.705	574.91
417.082	561.13
417.46	618.53
417.837	588.93
418.214	608.13
418.591	605.87
418.967	587.12
419.344	606.33
419.721	625.31
420.098	627.79
420.475	610.39
420.852	628.25
421.228	630.73
421.605	646.55
421.982	636.38
422.358	648.81
422.735	659.21
423.111	638.87
423.488	678.64
423.864	661.47
424.241	652.2
424.617	637.96
424.994	671.41
425.37	663.27
425.746	684.29
426.123	672.31
426.499	647.45
426.875	692.65
427.251	695.36
427.627	724.74
428.003	682.71
428.379	729.71
428.756	740.11
429.132	725.42
429.507	742.59
429.883	714.8
430.259	762.71
430.635	754.57
431.011	775.81
431.387	795.47
431.763	761.8
432.138	771.75
432.514	777.85
432.89	770.84
433.265	784.85
433.641	843.83
434.016	799.54
434.392	803.38
434.767	833.66
435.143	840.67
435.518	863.04
435.894	849.94
436.269	862.14
436.644	861.69
437.02	852.65
437.395	871.4
437.77	872.76
438.145	884.74
438.52	890.39
438.895	915.24
439.271	909.14
439.646	941.01
440.021	944.4
440.395	923.61
440.77	937.62
441.145	910.05
441.52	954.79
441.895	946.2
442.27	960.89
442.645	961.12
443.019	956.37
443.394	964.73
443.769	990.95
444.143	963.38
444.518	1009.71
444.892	989.14
445.267	997.28
445.641	986.2
446.016	997.95
446.39	1007.67
446.764	1043.38
447.139	1019.42
447.513	1021.23
447.887	1028.46
448.262	1038.63
448.636	1055.58
449.01	1069.36
449.384	1053.77
449.758	1051.06
450.132	1070.49
450.506	1105.97
450.88	1102.13
451.254	1088.35
451.628	1116.37
452.002	1113.43
452.376	1142.13
452.75	1125.41
453.123	1156.37
453.497	1139.65
453.871	1152.75
454.244	1168.34
454.618	1190.72
454.992	1190.49
455.365	1188.23
455.739	1219.19
456.112	1201.11
456.486	1215.8
456.859	1274.33
457.232	1231.62
457.606	1275.91
457.979	1270.72
458.352	1303.93
458.725	1332.41
459.099	1317.72
459.472	1357.27
459.845	1352.07
460.218	1360.2
460.591	1362.92
460.964	1414.89
461.337	1413.08
461.71	1440.88
462.083	1459.86
462.456	1434.55
462.829	1450.6
463.201	1454.44
463.574	1470.48
463.947	1492.63
464.32	1509.13
464.692	1528.79
465.065	1536.92
465.438	1566.53
465.81	1565.4
466.183	1582.57
466.555	1597.94
466.928	1616.02
467.3	1590.25
467.672	1630.03
468.045	1689.46
468.417	1680.2
468.789	1684.49
469.161	1685.62
469.534	1732.17
469.906	1752.28
470.278	1780.31
470.65	1785.73
471.022	1834.99
471.394	1853.3
471.766	1856.69
472.138	1888.55
472.51	1944.6
472.882	1981.66
473.253	1963.13
473.625	1996.12
473.997	2030.02
474.369	2024.14
474.74	2041.99
475.112	2087.42
475.484	2150.24
475.855	2152.5
476.227	2170.35
476.598	2232.5
476.97	2224.14
477.341	2264.36
477.713	2303.91
478.084	2299.84
478.455	2374.64
478.827	2371.93
479.198	2446.28
479.569	2476.33
479.94	2536.67
480.311	2553.62
480.682	2594.52
481.053	2621.87
481.424	2666.38
481.795	2688.08
482.166	2734.63
482.537	2793.84
482.908	2834.29
483.279	2847.62
483.65	2895.53
484.021	2950.45
484.391	2982.99
484.762	2996.77
485.133	3058.46
485.503	3046.94
485.874	3128.29
486.244	3165.58
486.615	3205.13
486.985	3260.49
487.356	3253.04
487.726	3394.5
488.097	3425.46
488.467	3396.99
488.837	3476.53
489.207	3491
489.578	3534.84
489.948	3549.07
490.318	3596.76
490.688	3640.37
491.058	3690.31
491.428	3699.13
491.798	3747.94
492.168	3794.49
492.538	3815.51
492.908	3852.79
493.278	3944.09
493.648	3917.2
494.017	3991.1
494.387	4015.95
494.757	4040.36
495.126	4070.87
495.496	4103.41
495.866	4137.98
496.235	4208.94
496.605	4230.86
496.974	4215.95
497.344	4252.78
497.713	4300.69
498.082	4364.19
498.452	4368.49
498.821	4394.93
499.19	4383.63
499.559	4482.61
499.928	4496.85
500.298	4568.03
500.667	4570.74
501.036	4547.92
501.405	4610.74
501.774	4638.31
502.143	4655.03
502.512	4700.68
502.88	4701.36
503.249	4719.89
503.618	4744.3
503.987	4820.9
504.356	4849.15
504.724	4870.62
505.093	4878.98
505.462	4896.83
505.83	4927.79
506.199	4967.79
506.567	5035.59
506.936	4977.96
507.304	5068.58
507.672	5071.07
508.041	5084.63
508.409	5130.5
508.777	5185.19
509.145	5211.85
509.514	5238.75
509.882	5289.37
510.25	5303.6
510.618	5326.2
510.986	5364.39
511.354	5446.2
511.722	5432.19
512.09	5512.64
512.458	5546.31
512.826	5577.72
513.193	5622.01
513.561	5625.63
513.929	5659.53
514.297	5724.16
514.664	5724.84
515.032	5816.58
515.4	5853.19
515.767	5881.44
516.135	5942.23
516.502	5902.01
516.869	6024.71
517.237	6042.79
517.604	6015.68
517.972	6091.15
518.339	6147.42
518.706	6169.8
519.073	6174.09
519.44	6271.49
519.808	6294.99
520.175	6286.18
520.542	6453.63
520.909	6423.57
521.276	6452.5
521.643	6507.41
522.009	6552.38
522.376	6578.6
522.743	6657.47
523.11	6732.94
523.477	6756.45
523.843	6830.57
524.21	6895.43
524.577	6950.57
524.943	6943.79
525.31	6991.47
525.676	7085.93
526.043	7146.72
526.409	7164.57
526.776	7287.28
527.142	7293.38
527.508	7328.18
527.874	7364.11
528.241	7421.06
528.607	7439.59
528.973	7531.57
529.339	7644.33
529.705	7642.98
530.071	7681.39
530.437	7676.87
530.803	7788.06
531.169	7797.32
531.535	7815.85
531.901	7795.29
532.267	7876.87
532.632	7903.99
532.998	7874.61
533.364	7980.37
533.73	7999.8
534.095	8084.1
534.461	8147.82
534.826	8144.88
535.192	8161.16
535.557	8249.97
535.923	8215.62
536.288	8260.59
536.653	8353.69
537.019	8373.58
537.384	8375.61
537.749	8422.62
538.114	8474.82
538.479	8570.41
538.845	8538.32
539.21	8622.16
539.575	8611.77
539.94	8647.7
540.305	8687.47
540.67	8729.5
541.034	8741.48
541.399	8801.36
541.764	8899.89
542.129	8873
542.494	8905.99
542.858	8945.09
543.223	9002.72
543.587	8988.03
543.952	9057.4
544.316	9065.31
544.681	9076.39
545.045	9179.89
545.41	9185.31
545.774	9213.78
546.138	9284.06
546.503	9343.27
546.867	9264.18
547.231	9364.51
547.595	9367.9
547.959	9413.33
548.324	9439.77
548.688	9419.88
549.052	9511.18
549.416	9444.96
549.779	9508.69
550.143	9558.86
550.507	9598.41
550.871	9629.82
551.235	9677.27
551.599	9778.29
551.962	9797.27
552.326	9873.65
552.689	9872.3
553.053	9829.13
553.417	9867.33
553.78	10133.31
554.143	10040.88
554.507	10113.65
554.87	10131.27
555.234	10232.29
555.597	10136.7
555.96	10198.39
556.323	10252.85
556.686	10263.93
557.05	10400.19
557.413	10452.17
557.776	10480.64
558.139	10501.43
558.502	10515.9
558.865	10460.08
559.228	10664.82
559.59	10665.72
559.953	10722.9
560.316	10809.67
560.679	10809.9
561.041	10857.58
561.404	10971.25
561.767	10966.96
562.129	11054.19
562.492	11061.19
562.854	11070.01
563.217	11135.99
563.579	11250.11
563.941	11261.19
564.304	11428.41
564.666	11506.15
565.028	11493.95
565.39	11566.04
565.753	11593.38
566.115	11646.49
566.477	11715.19
566.839	11743.89
567.201	11825.69
567.563	11887.16
567.925	11963.54
568.287	11975.74
568.648	12081.73
569.01	12152.69
569.372	12210.77
569.734	12161.95
570.095	12349.29
570.457	12320.37
570.819	12364.21
571.18	12427.48
571.542	12494.83
571.903	12406.69
572.265	12593.36
572.626	12646.01
572.987	12584.32
573.349	12687.14
573.71	12804.88
574.071	12721.49
574.432	12830.64
574.794	12902.95
575.155	12844.87
575.516	12819.11
575.877	12924.19
576.238	12922.39
576.599	12905.44
576.96	12992.21
577.32	12957.19
577.681	13083.96
578.042	13097.75
578.403	13078.09
578.763	13112.44
579.124	13083.74
579.485	13138.88
579.845	13158.31
580.206	13147.92
580.566	13222.72
580.927	13249.61
581.287	13285.09
581.648	13210.06
582.008	13316.27
582.368	13256.16
582.728	13303.39
583.089	13266.33
583.449	13273.79
583.809	13307.01
584.169	13266.11
584.529	13262.72
584.889	13469.49
585.249	13327.35
585.609	13212.1
585.969	13383.62
586.329	13313.56
586.688	13336.39
587.048	13361.7
587.408	13332.54
587.768	13395.37
588.127	13419.55
588.487	13398.08
588.846	13502.26
589.206	13411.64
589.565	13465.65
589.925	13553.56
590.284	13535.25
590.643	13572.09
591.003	13577.51
591.362	13574.57
591.721	13541.13
592.08	13630.39
592.44	13640.79
592.799	13688.69
593.158	13604.63
593.517	13650.05
593.876	13642.37
594.235	13610.96
594.593	13608.02
594.952	13716.26
595.311	13702.48
595.67	13667
596.029	13791.52
596.387	13796.49
596.746	13743.83
597.104	13721.69
597.463	13715.36
597.822	13850.5
598.18	13708.13
598.538	13762.82
598.897	13862.02
599.255	13775.7
599.613	13947.67
599.972	13844.85
600.33	13850.5
600.688	13696.83
601.046	13898.18
601.404	13907.45
601.762	13877.16
602.12	13970.49
602.478	13882.36
602.836	13911.96
603.194	13810.27
603.552	13883.04
603.91	13812.53
604.268	13993.09
604.625	13854.34
604.983	13904.73
605.341	13822.48
605.698	14049.59
606.056	14023.37
606.413	13993.09
606.771	13977.05
607.128	14113.54
607.485	13957.84
607.843	13964.62
608.2	14082.81
608.557	14081.68
608.914	14086.2
609.272	14116.48
609.629	14173.43
609.986	14197.38
610.343	14206.65
610.7	14271.05
611.057	14348.11
611.414	14248.23
611.771	14252.52
612.127	14300.2
612.484	14326.42
612.841	14379.98
613.198	14372.97
613.554	14312.18
613.911	14455.23
614.267	14366.19
614.624	14410.48
614.98	14405.96
615.337	14513.3
615.693	14478.73
616.05	14514.66
616.406	14541.33
616.762	14478.96
617.118	14564.15
617.475	14572.96
617.831	14623.58
618.187	14608.44
618.543	14742.45
618.899	14815.9
619.255	14694.09
619.611	14693.64
619.967	14808.44
620.323	14736.12
620.678	14712.62
621.034	14738.38
621.39	14780.19
621.746	14678.5
622.101	14867.19
622.457	14694.32
622.812	14723.02
623.168	14819.51
623.523	14804.82
623.879	14919.4
624.234	14766.41
624.589	14796.91
624.945	14796.01
625.3	14843.69
625.655	14847.31
626.01	14761.43
626.365	14739.74
626.72	14842.56
627.075	14782.45
627.43	14747.42
627.785	14746.75
628.14	14745.16
628.495	14739.74
628.85	14770.47
629.205	14698.38
629.559	14812.28
629.914	14752.39
630.269	14740.64
630.623	14719.63
630.978	14679.85
631.332	14686.63
631.687	14697.48
632.041	14673.53
632.396	14613.87
632.75	14661.55
633.104	14703.58
633.459	14605.28
633.813	14572.74
634.167	14556.69
634.521	14569.12
634.875	14504.49
635.229	14514.66
635.583	14504.72
635.937	14426.3
636.291	14469.01
636.645	14380.2
636.999	14413.65
637.352	14487.77
637.706	14256.59
638.06	14376.59
638.413	14376.36
638.767	14289.36
639.121	14318.28
639.474	14339.75
639.828	14233.54
640.181	14297.27
640.534	14301.56
640.888	14237.38
641.241	14242.58
641.594	14252.75
641.947	14315.8
642.301	14288.68
642.654	14261.11
643.007	14217.27
643.36	14301.11
643.713	14233.54
644.066	14297.27
644.419	14208.45
644.771	14073.99
645.124	13929.14
645.477	13892.98
645.83	13731.4
646.182	13750.16
646.535	13767.34
646.888	13824.06
647.24	13873.77
647.593	13847.33
647.945	13860.89
648.298	13670.62
648.65	13720.33
649.002	13690.73
649.355	13723.72
649.707	13657.96
650.059	13731.4
650.411	13780.89
650.763	13833.55
651.115	13987.89
651.467	13944.28
651.819	13925.3
652.171	13881.01
652.523	13862.47
652.875	13888.91
653.227	13797.84
653.578	13854.79
653.93	13829.03
654.282	13836.71
654.633	13674.91
654.985	13820.67
655.337	13841.68
655.688	13749.26
656.039	13803.49
656.391	13719.2
656.742	13706.77
657.094	13724.85
657.445	13686.21
657.796	13742.25
658.147	13724.85
658.498	13761.46
658.849	13768.24
659.2	13723.95
659.551	13717.39
659.902	13690.5
660.253	13685.3
660.604	13697.73
660.955	13730.05
661.306	13716.04
661.656	13663.38
662.007	13589.04
662.358	13615.25
662.708	13589.71
663.059	13744.06
663.409	13546.32
663.76	13651.41
664.11	13737.28
664.461	13686.21
664.811	13672.65
665.161	13620.67
665.511	13521.47
665.862	13664.06
666.212	13713.1
666.562	13690.05
666.912	13694.34
667.262	13608.7
667.612	13659.99
667.962	13603.72
668.312	13607.79
668.662	13759.65
669.011	13626.1
669.361	13672.2
669.711	13647.34
670.06	13645.98
670.41	13628.81
670.76	13462.94
671.109	13638.07
671.459	13551.3
671.808	13510.85
672.157	13566.21
672.507	13449.83
672.856	13578.64
673.205	13541.8
673.554	13554.69
673.904	13489.38
674.253	13552.88
674.602	13441.69
674.951	13228.82
675.3	13144.53
675.649	13483.5
675.998	13354.01
676.346	13386.78
676.695	13522.37
677.044	13314.92
677.393	13369.15
677.741	13380.68
678.09	13327.8
678.438	13362.15
678.787	13318.99
679.135	13256.61
679.484	13255.03
679.832	13351.3
680.181	13260.68
680.529	13333.22
680.877	13278.54
681.225	13204.41
681.573	13328.03
681.922	13262.04
682.27	13030.86
682.618	13171.65
682.966	13125.54
683.314	13154.02
683.661	13158.31
684.009	13020.46
684.357	12970.75
684.705	13001.71
685.053	13017.75
685.4	13017.98
685.748	12982.27
686.095	12951.09
686.443	12918.09
686.79	12808.72
687.138	12909.73
687.485	12857.53
687.832	12818.43
688.18	12858.21
688.527	12797.64
688.874	12797.87
689.221	12808.26
689.568	12608.04
689.915	12707.7
690.262	12625.44
690.609	12637.65
690.956	12547.93
691.303	12569.18
691.65	12474.71
691.997	12439.46
692.344	12292.57
692.69	12409.41
693.037	12384.32
693.383	12264.78
693.73	12299.35
694.077	12287.37
694.423	12271.1
694.769	12235.17
695.116	12183.87
695.462	12165.57
695.808	12041.05
696.155	12109.53
696.501	11953.6
696.847	12027.27
697.193	11984.33
697.539	11954.05
697.885	11854.17
698.231	11903.88
698.577	11965.8
698.923	11821.62
699.269	11827.5
699.614	11768.97
699.96	11757.67
700.306	11794.96
700.651	11620.73
700.997	11687.39
701.342	11624.12
701.688	11638.58
702.033	11637.9
702.379	11654.62
702.724	11631.57
703.069	11620.95
703.415	11490.79
703.76	11535.08
704.105	11478.36
704.45	11434.29
704.795	11473.38
705.14	11491.92
705.485	11428.64
705.83	11470.67
706.175	11394.29
706.52	11411.47
706.865	11410.56
707.209	11336.67
707.554	11295.08
707.899	11402.88
708.243	11268.64
708.588	11348.42
708.932	11195.43
709.277	11283.33
709.621	11310.9
709.966	11173.51
710.31	11167.18
710.654	11175.31
710.998	11223.22
711.342	11171.25
711.687	11097.58
712.031	11020.06
712.375	10953.85
712.719	11090.12
713.063	11018.48
713.407	10926.96
713.75	10908.43
714.094	10924.25
714.438	10893.51
714.782	10850.35
715.125	10774.42
715.469	10811.71
715.812	10760.41
716.156	10691.94
716.499	10766.06
716.843	10732.84
717.186	10619.62
717.53	10622.11
717.873	10652.62
718.216	10710.47
718.559	10568.1
718.902	10481.77
719.246	10473.64
719.589	10465.28
719.932	10381.89
720.275	10403.81
720.617	10368.1
720.96	10376.24
721.303	10394.09
721.646	10363.58
721.989	10229.58
722.331	10262.8
722.674	10163.81
723.016	10268.9
723.359	10232.74
723.701	10239.29
724.044	10131.5
724.386	10090.37
724.729	10044.27
725.071	10119.07
725.413	10070.26
725.755	10091.27
726.097	10025.97
726.439	10004.04
726.782	9927.66
727.124	9995.23
727.465	10010.37
727.807	9965.85
728.149	9942.13
728.491	9950.49
728.833	9934.67
729.175	9877.04
729.516	9884.95
729.858	9867.33
730.199	9835.01
730.541	9878.4
730.882	9853.31
731.224	9871.17
731.565	9755.92
731.906	9799.3
732.248	9799.08
732.589	9789.59
732.93	9828
733.271	9822.35
733.612	9777.61
733.953	9824.39
734.294	9811.51
734.635	9828.68
734.976	9873.88
735.317	9749.81
735.658	9818.51
735.999	9802.69
736.339	9792.07
736.68	9823.71
737.021	9730.15
737.361	9736.93
737.702	9750.04
738.042	9729.93
738.383	9782.13
738.723	9730.61
739.063	9729.25
739.404	9736.26
739.744	9707.33
740.084	9736.71
740.424	9680.21
740.764	9674.79
741.104	9689.7
741.444	9636.14
741.784	9642.02
742.124	9635.69
742.464	9569.93
742.804	9523.83
743.143	9595.69
743.483	9558.63
743.823	9489.93
744.162	9558.63
744.502	9522.93
744.841	9430.95
745.181	9476.6
745.52	9415.81
745.86	9458.97
746.199	9460.78
746.538	9377.39
746.877	9470.05
747.216	9380.56
747.556	9382.82
747.895	9365.42
748.234	9333.78
748.573	9261.01
748.911	9308.24
749.25	9278.41
749.589	9245.87
749.928	9260.79
750.267	9237.29
750.605	9241.81
750.944	9163.39
751.283	9159.32
751.621	9124.52
751.96	9092.88
752.298	9108.93
752.636	9091.3
752.975	9060.79
753.313	8982.15
753.651	9021.92
753.989	9001.59
754.327	8982.83
754.666	8967.46
755.004	8935.6
755.342	8910.06
755.679	8917.75
756.017	8898.31
756.355	8873.45
756.693	8855.83
757.031	8815.15
757.368	8785.55
757.706	8786.45
758.044	8751.65
758.381	8763.63
758.719	8750.97
759.056	8752.78
759.394	8689.28
759.731	8717.53
760.068	8649.73
760.405	8648.6
760.743	8581.48
761.08	8630.3
761.417	8548.72
761.754	8571.54
762.091	8544.87
762.428	8544.2
762.765	8480.47
763.102	8461.94
763.438	8368.61
763.775	8393.69
764.112	8380.13
764.449	8352.56
764.785	8364.99
765.122	8296.75
765.458	8309.4
765.795	8277.31
766.131	8294.03
766.467	8213.13
766.804	8135.39
767.14	8139.69
767.476	8182.17
767.812	8077.77
768.148	8107.6
768.485	8070.54
768.821	8048.84
769.157	8014.49
769.492	7993.25
769.828	7973.36
770.164	7867.38
770.5	7926.59
770.836	7845.68
771.171	7831.45
771.507	7832.8
771.842	7772.92
772.178	7734.05
772.513	7760.26
772.849	7732.69
773.184	7639.36
773.519	7641.62
773.855	7654.28
774.19	7559.82
774.525	7598.91
774.86	7488.63
775.195	7585.35
775.53	7528.63
775.865	7469.42
776.2	7398.92
776.535	7360.05
776.87	7343.32
777.205	7379.93
777.539	7321.4
777.874	7278.47
778.209	7183.55
778.543	7225.13
778.878	7142.88
779.212	7181.52
779.547	7105.36
779.881	7089.09
780.215	7061.3
780.55	7088.19
780.884	7058.81
781.218	7056.55
781.552	6996.67
781.886	6943.56
782.22	6932.71
782.554	6861.3
782.888	6820.17
783.222	6794.86
783.556	6824.69
783.889	6812.26
784.223	6798.71
784.557	6804.13
784.89	6713.96
785.224	6745.6
785.557	6637.13
785.891	6665.83
786.224	6675.32
786.558	6676.45
786.891	6603.46
787.224	6596.68
787.557	6574.98
787.891	6558.26
788.224	6576.79
788.557	6589.67
788.89	6549.45
789.223	6539.28
789.556	6549.22
789.888	6553.06
790.221	6481.88
790.554	6467.87
790.887	6460.18
791.219	6413.4
791.552	6413.4
791.884	6376.8
792.217	6414.31
792.549	6407.98
792.882	6335.21
793.214	6314.42
793.546	6327.53
793.879	6358.94
794.211	6297.02
794.543	6297.48
794.875	6291.37
795.207	6274.88
795.539	6208.44
795.871	6259.28
796.203	6228.55
796.535	6153.3
796.867	6212.28
797.198	6176.8
797.53	6135.22
797.862	6114.43
798.193	6108.78
798.525	6086.63
798.856	6024.26
799.188	6029.69
799.519	6061.55
799.85	6004.6
800.182	5982.46
800.513	5995.11
800.844	5905.17
801.175	5940.65
801.506	5945.17
801.837	5912.18
802.168	5952.4
802.499	5886.19
802.83	5887.54
803.161	5847.32
803.491	5794.66
803.822	5845.96
804.153	5821.56
804.483	5768.9
804.814	5776.81
805.145	5690.26
805.475	5728.23
805.805	5715.57
806.136	5726.42
806.466	5744.27
806.796	5677.15
807.126	5633.31
807.457	5559.19
807.787	5624.5
808.117	5539.98
808.447	5548.79
808.777	5531.62
809.107	5568.68
809.436	5506.08
809.766	5551.05
810.096	5490.94
810.426	5488.23
810.755	5429.48
811.085	5478.51
811.414	5421.57
811.744	5338.4
812.073	5372.75
812.403	5391.06
812.732	5354.68
813.061	5297.5
813.39	5341.57
813.719	5292.08
814.049	5319.87
814.378	5297.28
814.707	5290.72
815.036	5254.11
815.365	5253.21
815.693	5130.05
816.022	5198.97
816.351	5163.27
816.68	5130.73
817.008	5100.22
817.337	5147.22
817.665	5102.7
817.994	5131.86
818.322	5112.65
818.651	5091.41
818.979	5068.36
819.307	5043.72
819.636	5063.38
819.964	4993.56
820.292	5005.08
820.62	5014.57
820.948	4999.66
821.276	5021.35
821.604	5061.35
821.932	5015.7
822.259	4987.45
822.587	5020
822.915	4973.89
823.243	4996.27
823.57	4962.82
823.898	4981.13
824.225	4950.39
824.553	4961.24
824.88	4951.07
825.207	5031.97
825.535	4971.18
825.862	5024.74
826.189	5015.93
826.516	4989.71
826.843	4996.72
827.17	4982.03
827.497	4981.58
827.824	5024.29
828.151	5061.12
828.478	4963.73
828.805	5030.84
829.131	4953.1
829.458	4994.91
829.785	4999.66
830.111	4924.63
830.438	5012.31
830.764	4999.66
831.09	5008.92
831.417	4974.35
831.743	5004.63
832.069	4975.25
832.395	4955.82
832.722	5004.85
833.048	4992.2
833.374	5030.84
833.7	4959.66
834.026	4988.58
834.351	5059.54
834.677	4958.75
835.003	5024.29
835.329	4937.06
835.654	4949.04
835.98	4941.81
836.306	4929.38
836.631	4913.56
836.956	4955.14
837.282	4939.77
837.607	4942.71
837.932	4926.21
838.258	4905.65
838.583	4919.43
838.908	4918.53
839.233	4913.78
839.558	4914.46
839.883	4918.3
840.208	4888.47
840.533	4904.97
840.858	4885.99
841.182	4884.63
841.507	4849.15
841.832	4821.81
842.156	4860.68
842.481	4872.43
842.805	4843.73
843.13	4804.41
843.454	4840.34
843.778	4787.23
844.103	4811.19
844.427	4783.39
844.751	4786.78
845.075	4786.1
845.399	4743.39
845.723	4761.47
846.047	4772.09
846.371	4703.85
846.695	4741.81
847.019	4651.64
847.343	4650.51
847.666	4618.42
847.99	4635.82
848.313	4584.3
848.637	4630.4
848.96	4595.37
849.284	4541.59
849.607	4552.21
849.931	4530.52
850.254	4490.29
850.577	4530.29
850.9	4449.84
851.223	4427.69
851.546	4438.54
851.869	4448.48
852.192	4473.57
852.515	4413.46
852.838	4386.11
853.161	4397.86
853.483	4385.89
853.806	4367.36
854.129	4352.89
854.451	4299.79
854.774	4318.77
855.096	4345.89
855.419	4348.37
855.741	4277.42
856.063	4279.22
856.385	4264.76
856.708	4241.48
857.03	4215.95
857.352	4253.01
857.674	4238.55
857.996	4206.46
858.318	4181.6
858.64	4189.51
858.961	4151.54
859.283	4179.34
859.605	4157.64
859.926	4133.92
860.248	4214.14
860.57	4123.97
860.891	4108.83
861.212	4139.11
861.534	4123.75
861.855	4069.96
862.176	4110.19
862.498	4080.81
862.819	4077.2
863.14	4068.61
863.461	4062.51
863.782	4078.1
864.103	4017.76
864.424	4010.98
864.745	4012.11
865.065	3997.88
865.386	3998.78
865.707	3996.29
866.027	3988.16
866.348	4020.47
866.668	3966.01
866.989	3983.41
867.309	3950.87
867.63	3938.89
867.95	3959.23
868.27	3930.08
868.59	3928.95
868.91	3931.44
869.23	3910.65
869.55	3893.92
869.87	3897.99
870.19	3878.1
870.51	3923.53
870.83	3875.84
871.15	3897.31
871.469	3848.27
871.789	3849.18
872.109	3817.09
872.428	3825.68
872.748	3804.89
873.067	3846.24
873.386	3822.51
873.706	3801.27
874.025	3794.72
874.344	3748.39
874.663	3803.08
874.982	3738.67
875.301	3777.32
875.62	3758.33
875.939	3766.69
876.258	3715.4
876.577	3732.35
876.896	3705.45
877.214	3734.38
877.533	3688.5
877.852	3678.34
878.17	3726.47
878.489	3662.74
878.807	3705.45
879.125	3684.44
879.444	3690.54
879.762	3655.29
880.08	3672.69
880.398	3625.46
880.716	3616.42
881.034	3653.93
881.352	3629.07
881.67	3629.07
881.988	3608.28
882.306	3615.06
882.624	3564.44
882.941	3553.14
883.259	3542.75
883.577	3562.41
883.894	3550.66
884.212	3549.07
884.529	3542.75
884.846	3537.32
885.164	3534.38
885.481	3512.92
885.798	3507.49
886.115	3505.68
886.432	3449.87
886.75	3454.61
887.067	3477.66
887.383	3514.72
887.7	3463.2
888.017	3490.09
888.334	3449.64
888.651	3433.37
888.967	3459.13
889.284	3422.52
889.6	3372.81
889.917	3380.04
890.233	3400.38
890.55	3400.6
890.866	3399.7
891.182	3398.57
891.498	3389.76
891.815	3360.38
892.131	3336.88
892.447	3370.1
892.763	3305.01
893.079	3344.11
893.395	3320.6
893.71	3293.26
894.026	3319.93
894.342	3321.96
894.657	3254.39
894.973	3324.22
895.289	3284.22
895.604	3287.84
895.92	3267.27
896.235	3261.62
896.55	3272.92
896.865	3261.17
897.181	3247.16
897.496	3271.79
897.811	3195.86
898.126	3210.55
898.441	3207.84
898.756	3201.51
899.071	3190.44
899.386	3149.31
899.7	3211.68
900.015	3180.72
900.33	3128.52
900.644	3093.49
900.959	3143.89
901.273	3128.29
901.588	3094.85
901.902	3129.88
902.216	3125.36
902.531	3149.54
902.845	3126.03
903.159	3084
903.473	3088.07
903.787	3079.26
904.101	3060.5
904.415	3063.89
904.729	3063.89
905.042	3030.67
905.356	2994.74
905.67	3021.4
905.984	3001.52
906.297	3008.75
906.611	3009.2
906.924	3017.79
907.237	3004.91
907.551	2996.55
907.864	2954.96
908.177	2992.48
908.491	2947.51
908.804	2940.73
909.117	2934.63
909.43	2911.35
909.743	2903.44
910.056	2882.65
910.368	2895.98
910.681	2870.9
910.994	2889.2
911.307	2870.9
911.619	2853.95
911.932	2856.21
912.244	2863.44
912.557	2853.5
912.869	2858.24
913.181	2820.5
913.494	2816.89
913.806	2776.66
914.118	2760.17
914.43	2761.75
914.742	2760.39
915.054	2756.55
915.366	2761.52
915.678	2704.12
915.99	2702.54
916.302	2749.55
916.613	2690.56
916.925	2715.65
917.236	2669.1
917.548	2663.67
917.859	2676.55
918.171	2624.58
918.482	2636.33
918.794	2634.3
919.105	2607.86
919.416	2621.19
919.727	2586.16
920.038	2650.11
920.349	2563.79
920.66	2622.77
920.971	2554.52
921.282	2526.28
921.593	2533.96
921.903	2503.23
922.214	2468.2
922.525	2505.26
922.835	2507.97
923.146	2482.21
923.456	2486.5
923.767	2479.27
924.077	2444.92
924.387	2460.51
924.697	2438.82
925.008	2460.06
925.318	2417.13
925.628	2416.67
925.938	2409.67
926.248	2368.31
926.558	2408.54
926.867	2380.52
927.177	2354.53
927.487	2347.75
927.796	2295.1
928.106	2309.33
928.416	2283.8
928.725	2325.83
929.034	2287.41
929.344	2286.06
929.653	2234.98
929.962	2261.88
930.271	2268.88
930.581	2248.54
930.89	2266.62
931.199	2206.51
931.508	2187.08
931.817	2210.58
932.125	2193.63
932.434	2190.92
932.743	2178.49
933.051	2183.69
933.36	2152.05
933.669	2135.1
933.977	2110.69
934.286	2129.22
934.594	2134.42
934.902	2119.05
935.21	2137.36
935.519	2082.45
935.827	2106.17
936.135	2091.48
936.443	2032.28
936.751	2034.76
937.059	2068.89
937.367	2035.44
937.674	2012.16
937.982	2017.36
938.29	2017.36
938.597	1992.5
938.905	2002.22
939.213	1971.49
939.52	1953.64
939.827	2009.68
940.135	1939.62
940.442	1945.05
940.749	1954.31
941.056	1945.73
941.363	1915.9
941.67	1921.32
941.977	1905.27
942.284	1889
942.591	1872.96
942.898	1866.18
943.205	1896.69
943.511	1883.58
943.818	1842
944.125	1879.51
944.431	1861.43
944.738	1816.69
945.044	1831.15
945.35	1825.95
945.657	1772.62
945.963	1808.33
946.269	1814.88
946.575	1796.58
946.881	1807.88
947.187	1775.56
947.493	1786.63
947.799	1777.14
948.105	1753.19
948.41	1760.65
948.716	1729.23
949.022	1744.6
949.327	1747.54
949.633	1723.81
949.938	1704.15
950.244	1729.23
950.549	1685.85
950.854	1713.64
951.16	1692.85
951.465	1712.29
951.77	1665.28
952.075	1664.6
952.38	1645.17
952.685	1676.35
952.99	1650.59
953.294	1658.5
953.599	1670.25
953.904	1610.14
954.209	1608.79
954.513	1634.1
954.818	1628.45
955.122	1622.12
955.426	1616.02
955.731	1603.81
956.035	1605.17
956.339	1604.72
956.643	1609.92
956.948	1586.87
957.252	1595.23
957.556	1576.7
957.86	1573.76
958.163	1542.57
958.467	1569.01
958.771	1593.64
959.075	1573.31
959.378	1555.68
959.682	1556.36
959.985	1527.66
960.289	1549.35
960.592	1549.35
960.896	1551.84
961.199	1556.36
961.502	1519.07
961.805	1500.99
962.108	1507.55
962.411	1511.39
962.714	1492.4
963.017	1481.78
963.32	1493.31
963.623	1501.44
963.926	1484.04
964.228	1476.59
964.531	1460.99
964.833	1491.95
965.136	1455.12
965.438	1490.82
965.741	1458.73
966.043	1444.04
966.345	1465.74
966.648	1431.61
966.95	1452.86
967.252	1432.74
967.554	1429.58
967.856	1450.82
968.158	1418.96
968.46	1406.53
968.761	1393.65
969.063	1404.95
969.365	1391.84
969.666	1392.29
969.968	1407.21
970.269	1343.03
970.571	1391.84
970.872	1392.75
971.174	1372.63
971.475	1378.06
971.776	1350.04
972.077	1360.2
972.378	1382.12
972.679	1349.13
972.98	1339.19
973.281	1370.6
973.582	1336.02
973.883	1334.44
974.183	1322.01
974.484	1314.78
974.785	1321.11
975.085	1301.9
975.386	1321.56
975.686	1329.47
975.986	1298.51
976.287	1322.24
976.587	1300.09
976.887	1286.99
977.187	1295.12
977.487	1315.01
977.787	1284.5
978.087	1270.49
978.387	1273.65
978.687	1265.52
978.987	1257.16
979.286	1259.87
979.586	1241.11
979.885	1256.93
980.185	1234.11
980.484	1244.73
980.784	1229.36
981.083	1237.27
981.382	1219.87
981.682	1195.91
981.981	1213.32
982.28	1212.64
982.579	1229.81
982.878	1218.97
983.177	1189.36
983.475	1166.99
983.774	1187.1
984.073	1186.65
984.372	1176.48
984.67	1191.4
984.969	1152.07
985.267	1178.06
985.566	1180.55
985.864	1176.48
986.162	1134.67
986.461	1133.54
986.759	1157.27
987.057	1145.52
987.355	1142.36
987.653	1129.7
987.951	1143.26
988.249	1110.27
988.547	1125.18
988.844	1125.63
989.142	1100.32
989.44	1119.08
989.737	1108.69
990.035	1096.71
990.332	1103.26
990.63	1087.67
990.927	1079.08
991.224	1101.45
991.521	1078.4
991.819	1058.07
992.116	1085.86
992.413	1068.69
992.71	1046.09
993.006	1038.86
993.303	1047.22
993.6	1055.58
993.897	1044.05
994.193	1028.46
994.49	1035.69
994.787	1021.68
995.083	1018.97
995.379	1022.59
995.676	1006.32
995.972	1007.9
996.268	1009.71
996.565	990.04
996.861	1002.25
997.157	984.4
997.453	1010.84
997.749	996.37
998.044	968.12
998.34	983.04
998.636	971.29
998.932	991.17
999.227	970.84
999.523	962.02
999.818	955.47
1000.114	995.47
1000.409	926.54
1000.704	952.76
1001	925.87
1001.295	950.5
1001.59	919.99
1001.885	949.82
1002.18	916.37
1002.475	948.69
1002.77	906.66
1003.065	907.79
1003.359	895.81
1003.654	913.66
1003.949	907.79
1004.243	934.9
1004.538	885.64
1004.832	879.54
1005.127	898.97
1005.421	873.44
1005.715	890.16
1006.009	859.65
1006.304	868.92
1006.598	864.62
1006.892	855.58
1007.186	850.39
1007.48	843.16
1007.773	841.35
1008.067	858.75
1008.361	859.43
1008.655	860.56
1008.948	847.45
1009.242	805.42
1009.535	844.96
1009.829	836.38
1010.122	828.47
1010.415	800.22
1010.708	789.6
1011.001	825.98
1011.295	794.57
1011.588	802.7
1011.881	786.21
1012.173	788.24
1012.466	796.6
1012.759	813.78
1013.052	782.82
1013.344	784.4
1013.637	770.39
1013.93	796.38
1014.222	761.58
1014.514	778.75
1014.807	747.34
1015.099	764.74
1015.391	745.53
1015.683	725.87
1015.976	738.98
1016.268	730.39
1016.56	743.72
1016.851	737.4
1017.143	738.53
1017.435	722.26
1017.727	736.72
1018.018	717.51
1018.31	726.1
1018.602	717.06
1018.893	736.27
1019.185	726.1
1019.476	705.76
1019.767	716.61
1020.058	702.59
1020.35	693.56
1020.641	675.7
1020.932	716.38
1021.223	701.92
1021.514	679.09
1021.804	680.22
1022.095	695.14
1022.386	685.87
1022.677	669.83
1022.967	689.71
1023.258	668.02
1023.548	663.73
1023.839	656.27
1024.129	663.95
1024.419	672.09
1024.709	656.72
1025	663.5
1025.29	643.61
1025.58	687.68
1025.87	649.71
1026.16	628.25
1026.449	637.06
1026.739	633.44
1027.029	632.77
1027.319	625.99
1027.608	627.79
1027.898	614.24
1028.187	628.47
1028.477	598.64
1028.766	604.07
1029.055	592.31
1029.344	600.45
1029.634	572.65
1029.923	605.2
1030.212	607.23
1030.501	604.52
1030.79	592.99
1031.078	603.16
1031.367	583.73
1031.656	595.48
1031.945	575.82
1032.233	594.8
1032.522	602.26
1032.81	593.67
1033.099	596.38
1033.387	566.55
1033.675	560
1033.963	568.13
1034.251	582.37
1034.54	578.98
1034.828	547.34
1035.116	560.45
1035.403	559.77
1035.691	548.93
1035.979	569.04
1036.267	527.91
1036.554	546.21
1036.842	552.32
1037.129	530.4
1037.417	550.28
1037.704	532.2
1037.992	570.39
1038.279	545.99
1038.566	503.05
1038.853	503.05
1039.14	503.05
