Data from foam2_polystyrene_foam_FLMS001491_00060.txt Node
Date: Wed Feb 08 10:58:11 GMT 2017
User: dcchb
Spectrometer: FLMS00149
Trigger mode: 0
Integration Time (sec): 2.000000E-2
Scans to average: 10
Electric dark correction enabled: true
Nonlinearity correction enabled: false
Boxcar width: 0
XAxis mode: Wavelengths
Number of Pixels in Spectrum: 2048
>>>>>Begin Spectral Data<<<<<
341.393	-30.08
341.776	-30.08
342.16	-30.08
342.543	-44.32
342.927	-59.46
343.31	-70.76
343.693	-55.17
344.077	-55.39
344.46	-68.73
344.843	-52.23
345.226	-40.48
345.61	-23.3
345.993	-13.81
346.376	-13.59
346.759	3.59
347.142	42.91
347.525	46.3
347.908	47.65
348.291	69.57
348.674	77.03
349.057	106.41
349.44	120.19
349.823	147.31
350.206	180.98
350.588	192.96
350.971	221.21
351.354	240.64
351.737	259.4
352.119	256.69
352.502	272.05
352.884	284.94
353.267	303.92
353.65	313.18
354.032	288.55
354.414	310.92
354.797	329.23
355.179	325.61
355.562	318.38
355.944	341.88
356.326	347.76
356.709	352.96
357.091	350.7
357.473	362.9
357.855	335.33
358.238	345.95
358.62	344.37
359.002	364.71
359.384	345.05
359.766	360.64
360.148	357.48
360.53	357.25
360.912	327.42
361.294	345.95
361.676	359.06
362.057	343.92
362.439	351.15
362.821	345.95
363.203	353.18
363.584	354.31
363.966	346.4
364.348	347.99
364.729	366.97
365.111	359.51
365.493	326.97
365.874	339.62
366.256	336.23
366.637	336.01
367.019	338.95
367.4	342.11
367.781	333.97
368.163	357.93
368.544	338.95
368.925	357.93
369.306	326.52
369.688	362.67
370.069	360.64
370.45	331.94
370.831	360.41
371.212	365.61
371.593	356.35
371.974	363.8
372.355	366.52
372.736	354.99
373.117	363.35
373.498	344.82
373.879	364.48
374.26	361.77
374.641	355.44
375.021	361.54
375.402	365.39
375.783	371.04
376.163	386.63
376.544	367.87
376.925	371.94
377.305	375.1
377.686	383.46
378.066	378.04
378.447	392.28
378.827	361.09
379.208	397.25
379.588	390.92
379.968	390.92
380.349	387.53
380.729	398.61
381.109	391.83
381.489	401.77
381.87	412.62
382.25	394.09
382.63	408.32
383.01	392.5
383.39	411.03
383.77	407.64
384.15	418.27
384.53	418.27
384.91	430.92
385.29	413.97
385.67	430.92
386.049	416.91
386.429	417.36
386.809	434.31
387.189	437.25
387.568	428.21
387.948	439.28
388.328	456.91
388.707	435.44
389.087	455.1
389.466	466.85
389.846	453.52
390.225	451.03
390.605	459.62
390.984	472.05
391.363	461.2
391.743	462.56
392.122	486.51
392.501	476.8
392.881	485.38
393.26	494.65
393.639	508.66
394.018	500.75
394.397	512.05
394.776	525.83
395.155	517.25
395.534	514.76
395.913	512.95
396.292	518.83
396.671	537.13
397.05	523.35
397.429	530.13
397.808	550.92
398.186	535.55
398.565	535.55
398.944	535.1
399.323	544.59
399.701	555.21
400.08	551.14
400.458	533.29
400.837	564.7
401.215	544.36
401.594	581.65
401.972	582.78
402.351	559.96
402.729	584.14
403.107	588.88
403.486	596.79
403.864	582.56
404.242	593.63
404.62	625.72
404.999	617.13
405.377	634.98
405.755	619.16
406.133	648.32
406.511	631.82
406.889	637.24
407.267	652.16
407.645	670.24
408.023	674.53
408.401	672.27
408.779	669.33
409.156	677.47
409.534	695.09
409.912	709.11
410.29	700.07
410.667	699.39
411.045	705.72
411.422	732.83
411.8	704.36
412.178	757.24
412.555	738.26
412.933	738.94
413.31	771.25
413.687	781.65
414.065	797.01
414.442	786.39
414.819	790.91
415.197	790.01
415.574	802.89
415.951	795.88
416.328	808.31
416.705	823.23
417.082	842.89
417.46	844.02
417.837	873.4
418.214	863.23
418.591	872.27
418.967	876.56
419.344	880.17
419.721	880.17
420.098	908.87
420.475	910.68
420.852	928.31
421.228	925.37
421.605	908.42
421.982	921.08
422.358	900.97
422.735	954.3
423.111	950.68
423.488	992.71
423.864	961.98
424.241	986.61
424.617	980.06
424.994	1012.37
425.37	1023.67
425.746	1027.74
426.123	1070.68
426.499	1029.55
426.875	1040.17
427.251	1048.53
427.627	1084.01
428.003	1109.32
428.379	1124.69
428.756	1085.37
429.132	1118.81
429.507	1148.19
429.883	1152.48
430.259	1170.56
430.635	1200.84
431.011	1194.29
431.387	1213.27
431.763	1228.87
432.138	1229.77
432.514	1244.01
432.89	1255.08
433.265	1281.97
433.641	1303.44
434.016	1324
434.392	1310.67
434.767	1358.13
435.143	1352.48
435.518	1375.3
435.894	1375.08
436.269	1388.86
436.644	1422.53
437.02	1410.1
437.395	1452.59
437.77	1443.55
438.145	1470.89
438.52	1453.72
438.895	1496.2
439.271	1486.26
439.646	1561.29
440.021	1569.2
440.395	1586.14
440.77	1566.03
441.145	1575.07
441.52	1625.47
441.895	1585.69
442.27	1596.99
442.645	1618.23
443.019	1655.97
443.394	1637.44
443.769	1656.43
444.143	1644
444.518	1676.99
444.892	1685.58
445.267	1671.57
445.641	1749.98
446.016	1740.72
446.39	1754.73
446.764	1794.95
447.139	1758.34
447.513	1801.96
447.887	1836.31
448.262	1802.18
448.636	1854.84
449.01	1846.02
449.384	1870.66
449.758	1862.07
450.132	1921.5
450.506	1926.93
450.88	1945.68
451.254	1943.2
451.628	1963.54
452.002	2005.12
452.376	2015.96
452.75	2022.29
453.123	2043.99
453.497	2040.14
453.871	2072.01
454.244	2103.42
454.618	2126.92
454.992	2171.89
455.365	2168.5
455.739	2240.14
456.112	2231.55
456.486	2226.35
456.859	2280.59
457.232	2274.49
457.606	2289.4
457.979	2328.05
458.352	2378.67
458.725	2365.79
459.099	2403.98
459.472	2473.58
459.845	2443.3
460.218	2458.44
460.591	2492.11
460.964	2516.97
461.337	2601.94
461.71	2591.77
462.083	2636.29
462.456	2645.1
462.829	2666.12
463.201	2709.05
463.574	2684.65
463.947	2722.84
464.32	2730.3
464.692	2800.8
465.065	2828.15
465.438	2895.26
465.81	2872.44
466.183	2911.53
466.555	3020.68
466.928	3006.45
467.3	3022.72
467.672	3053
468.045	3127.35
468.417	3146.78
468.789	3174.13
469.161	3236.04
469.534	3247.12
469.906	3337.51
470.278	3334.12
470.65	3411.18
471.022	3402.14
471.394	3506.77
471.766	3502.93
472.138	3589.71
472.51	3615.24
472.882	3683.04
473.253	3711.96
473.625	3720.1
473.997	3841.9
474.369	3865.41
474.74	3864.95
475.112	3945.4
475.484	4033.76
475.855	4142.91
476.227	4118.06
476.598	4241.44
476.97	4229.01
477.341	4394.66
477.713	4438.27
478.084	4502.68
478.455	4578.83
478.827	4607.76
479.198	4729.79
479.569	4737.93
479.94	4913.29
480.311	4915.55
480.682	5041.65
481.053	5117.35
481.424	5186.95
481.795	5241.42
482.166	5341.98
482.537	5371.81
482.908	5508.75
483.279	5537.91
483.65	5659.26
484.021	5790.1
484.391	5789.2
484.762	5892.92
485.133	5915.97
485.503	6023.77
485.874	6124.33
486.244	6199.81
486.615	6315.06
486.985	6414.72
487.356	6499.91
487.726	6517.77
488.097	6670.53
488.467	6671.43
488.837	6791.66
489.207	6883.63
489.578	7001.14
489.948	7048.37
490.318	7179.44
490.688	7206.11
491.058	7315.26
491.428	7420.57
491.798	7513.9
492.168	7608.59
492.538	7635.03
492.908	7785.53
493.278	7844.06
493.648	7871.86
494.017	7976.71
494.387	8039.08
494.757	8124.73
495.126	8192.07
495.496	8307.55
495.866	8361.11
496.235	8427.32
496.605	8519.75
496.974	8576.47
497.344	8618.28
497.713	8646.3
498.082	8708.44
498.452	8857.37
498.821	8889.46
499.19	8906.18
499.559	8955.44
499.928	9058.26
500.298	9151.82
500.667	9186.85
501.036	9272.5
501.405	9327.64
501.774	9352.04
502.143	9507.52
502.512	9533.05
502.88	9652.37
503.249	9622.09
503.618	9674.29
503.987	9717.68
504.356	9879.71
504.724	9826.83
505.093	9907.28
505.462	10007.17
505.83	10020.95
506.199	10123.55
506.567	10295.75
506.936	10275.86
507.304	10378.68
507.672	10458
508.041	10489.87
508.409	10588.39
508.777	10662.74
509.145	10707.03
509.514	10766.69
509.882	10901.15
510.25	10875.62
510.618	11035.84
510.986	11061.15
511.354	11159.23
511.722	11231.99
512.09	11320.13
512.458	11327.13
512.826	11444.42
513.193	11484.19
513.561	11565.77
513.929	11721.92
514.297	11781.58
514.664	11887.79
515.032	11943.61
515.4	12048.24
515.767	12071.97
516.135	12168.01
516.502	12105.42
516.869	12437.61
517.237	12405.75
517.604	12400.78
517.972	12511.96
518.339	12619.3
518.706	12711.73
519.073	12766.19
519.44	12899.75
519.808	12981.33
520.175	12963.7
520.542	13207.53
520.909	13202.79
521.276	13277.36
521.643	13466.74
522.009	13616.79
522.376	13689.56
522.743	13711.93
523.11	13831.7
523.477	13986.5
523.843	14064.91
524.21	14268.3
524.577	14344.23
524.943	14447.5
525.31	14518.01
525.676	14693.6
526.043	14714.39
526.409	14854.5
526.776	14955.06
527.142	15067.37
527.508	15160.93
527.874	15219.68
528.241	15366.8
528.607	15446.35
528.973	15567.92
529.339	15567.02
529.705	15685.66
530.071	15878.88
530.437	15851.76
530.803	16044.07
531.169	16077.06
531.535	16123.84
531.901	16148.25
532.267	16290.62
532.632	16322.48
532.998	16467.56
533.364	16555.69
533.73	16674.79
534.095	16762.24
534.461	16779.42
534.826	16798.85
535.192	16933.76
535.557	17094.21
535.923	17094.89
536.288	17171.27
536.653	17266.64
537.019	17296.47
537.384	17351.38
537.749	17472.28
538.114	17494.2
538.479	17503.24
538.845	17640.64
539.21	17671.6
539.575	17794.76
539.94	17799.05
540.305	17911.59
540.67	17926.05
541.034	17986.62
541.399	18061.19
541.764	18100.51
542.129	18232.71
542.494	18268.42
542.858	18296.21
543.223	18321.52
543.587	18489.2
543.952	18397.68
544.316	18581.4
544.681	18534.4
545.045	18693.27
545.41	18822.75
545.774	18816.2
546.138	18858.01
546.503	18990.66
546.867	18918.12
547.231	19141.39
547.595	19081.05
547.959	19262.06
548.324	19290.76
548.688	19280.14
549.052	19333.25
549.416	19462.06
549.779	19449.4
550.143	19521.04
550.507	19729.85
550.871	19862.95
551.235	19672.45
551.599	19860.92
551.962	19939.56
552.326	20018.43
552.689	20222.26
553.053	20158.54
553.417	20194.69
553.78	20457.06
554.143	20345.43
554.507	20516.27
554.87	20522.6
555.234	20800.78
555.597	20693.21
555.96	20771.4
556.323	20903.15
556.686	20964.62
557.05	21061.79
557.413	21114.9
557.776	21189.7
558.139	21300.88
558.502	21366.87
558.865	21329.13
559.228	21404.61
559.59	21583.13
559.953	21734.32
560.316	21896.57
560.679	21913.75
561.041	22046.17
561.404	22235.32
561.767	22353.06
562.129	22197.58
562.492	22487.74
562.854	22559.38
563.217	22559.6
563.579	22546.95
563.941	22747.62
564.304	22789.2
564.666	23029.65
565.028	23040.04
565.39	23158.91
565.753	23291.56
566.115	23395.51
566.477	23520.94
566.839	23532.23
567.201	23722.96
567.563	23732.91
567.925	23872.11
568.287	23991.43
568.648	23994.14
569.01	24137.64
569.372	24325.43
569.734	24216.74
570.095	24412.44
570.457	24442.94
570.819	24475.03
571.18	24538.99
571.542	24717.51
571.903	24665.31
572.265	24807
572.626	24816.95
572.987	24830.05
573.349	24985.08
573.71	25012.87
574.071	25082.02
574.432	25259.87
574.794	25339.64
575.155	25271.4
575.516	25254.45
575.877	25493.99
576.238	25477.27
576.599	25713.65
576.96	25564.27
577.32	25646.76
577.681	25748.67
578.042	25777.83
578.403	25735.79
578.763	25777.15
579.124	25879.07
579.485	25939.85
579.845	26058.5
580.206	25814.43
580.566	26008.33
580.927	25909.57
581.287	26155.67
581.648	25981.89
582.008	26147.31
582.368	26241.09
582.728	26172.84
583.089	26161.54
583.449	26164.71
583.809	26289.68
584.169	26181.2
584.529	25995.67
584.889	26265.27
585.249	26047.65
585.609	25968.78
585.969	26135.1
586.329	26167.42
586.688	26249.68
587.048	26267.3
587.408	26106.18
587.768	26158.61
588.127	26124.93
588.487	26067.31
588.846	26278.38
589.206	26128.1
589.565	26210.58
589.925	26290.81
590.284	26178.27
590.643	26393.18
591.003	26323.57
591.362	26298.04
591.721	26357.47
592.08	26347.98
592.44	26404.7
592.799	26320.64
593.158	26402.22
593.517	26334.42
593.876	26500.97
594.235	26398.83
594.593	26426.62
594.952	26446.06
595.311	26325.83
595.67	26374.65
596.029	26514.98
596.387	26472.04
596.746	26608.99
597.104	26405.61
597.463	26505.49
597.822	26522.44
598.18	26449.9
598.538	26552.95
598.897	26689.21
599.255	26503.68
599.613	26654.64
599.972	26639.72
600.33	26728.31
600.688	26610.57
601.046	26697.57
601.404	26817.57
601.762	26721.98
602.12	26868.64
602.478	27014.85
602.836	26961.3
603.194	26786.84
603.552	26885.14
603.91	26831.58
604.268	27059.83
604.625	26819.83
604.983	27063.67
605.341	26918.13
605.698	26994.74
606.056	27149.99
606.413	26948.87
606.771	27145.47
607.128	27229.99
607.485	27093.95
607.843	27002.88
608.2	27135.08
608.557	27291.23
608.914	27185.7
609.272	27336.43
609.629	27340.5
609.986	27411
610.343	27245.58
610.7	27573.71
611.057	27316.77
611.414	27387.27
611.771	27499.81
612.127	27532.36
612.484	27557.44
612.841	27607.16
613.198	27625.23
613.554	27568.96
613.911	27586.59
614.267	27674.27
614.624	27730.09
614.98	27705.91
615.337	27764.67
615.693	27844.89
616.05	27802.18
616.406	27904.1
616.762	27881.5
617.118	27878.33
617.475	27950.42
617.831	27985.45
618.187	27924.66
618.543	28023.19
618.899	28142.28
619.255	28087.59
619.611	28032
619.967	28166.01
620.323	28204.2
620.678	28072.68
621.034	28036.52
621.39	28075.84
621.746	28135.96
622.101	28289.62
622.457	28069.06
622.812	28105.9
623.168	28071.1
623.523	28003.76
623.879	28238.33
624.234	27976.86
624.589	27906.13
624.945	28196.97
625.3	28210.53
625.655	28055.28
626.01	28051.89
626.365	28042.62
626.72	27993.36
627.075	28024.32
627.43	28063.19
627.785	28069.06
628.14	27981.16
628.495	28031.33
628.85	27960.14
629.205	28080.59
629.559	28155.16
629.914	27965.79
630.269	27996.98
630.623	27952.46
630.978	27819.13
631.332	27927.15
631.687	27997.88
632.041	27862.97
632.396	27830.2
632.75	27803.31
633.104	27733.03
633.459	27604.67
633.813	27498.91
634.167	27625.23
634.521	27551.34
634.875	27632.24
635.229	27546.59
635.583	27438.57
635.937	27435.41
636.291	27491
636.645	27376.88
636.999	27281.51
637.352	27451.45
637.706	27265.47
638.06	27336.2
638.413	27206.71
638.767	27232.93
639.121	27201.74
639.474	27131.69
639.828	27143.21
640.181	27097.79
640.534	27115.42
640.888	27053.5
641.241	26830
641.594	26848.31
641.947	26964.01
642.301	26933.5
642.654	26800.62
643.007	26887.4
643.36	26737.12
643.713	26777.8
644.066	26749.1
644.419	26578.03
644.771	26470.91
645.124	26139.17
645.477	26202.45
645.83	25898.95
646.182	25872.96
646.535	25770.14
646.888	25938.95
647.24	25754.77
647.593	25829.12
647.945	25768.33
648.298	25653.08
648.65	25671.39
649.002	25531.73
649.355	25645.4
649.707	25548.23
650.059	25647.21
650.411	25867.09
650.763	25877.03
651.115	26229.11
651.467	26125.61
651.819	25993.41
652.171	26059.4
652.523	26003.36
652.875	26020.3
653.227	25844.26
653.578	26003.13
653.93	26002
654.282	25876.13
654.633	25831.38
654.985	25847.2
655.337	25863.47
655.688	25933.08
656.039	26077.48
656.391	25697.38
656.742	25817.37
657.094	25806.75
657.445	25966.52
657.796	25751.84
658.147	25637.94
658.498	25692.18
658.849	25700.31
659.2	25685.17
659.551	25675
659.902	25684.95
660.253	25558.85
660.604	25588.23
660.955	25603.37
661.306	25576.93
661.656	25601.78
662.007	25578.28
662.358	25516.59
662.708	25488.79
663.059	25398.63
663.409	25361.11
663.76	25524.5
664.11	25484.73
664.461	25446.08
664.811	25493.99
665.161	25417.38
665.511	25393.65
665.862	25356.37
666.212	25545.51
666.562	25382.36
666.912	25328.35
667.262	25433.43
667.612	25310.04
667.962	25408.8
668.312	25193.89
668.662	25449.92
669.011	25397.72
669.361	25416.7
669.711	25308.91
670.06	25246.54
670.41	25200.67
670.76	25101.01
671.109	25173.1
671.459	25220.1
671.808	25166.54
672.157	25284.28
672.507	25005.19
672.856	25124.28
673.205	25080.89
673.554	25112.76
673.904	24993.89
674.253	25152.76
674.602	25042.93
674.951	24627.57
675.3	24579.21
675.649	24946.21
675.998	24901.01
676.346	24915.25
676.695	25062.59
677.044	24800.68
677.393	24918.19
677.741	24959.99
678.09	24962.93
678.438	24840
678.787	24818.08
679.135	24865.76
679.484	24788.02
679.832	24822.37
680.181	24598.42
680.529	24812.65
680.877	24645.65
681.225	24530.4
681.573	24670.28
681.922	24501.93
682.27	24462.38
682.618	24432.1
682.966	24335.15
683.314	24509.61
683.661	24399.33
684.009	24230.07
684.357	24203.4
684.705	24173.8
685.053	24227.81
685.4	24204.53
685.748	24078.43
686.095	24056.74
686.443	23890.87
686.79	23954.6
687.138	23852.9
687.485	23814.26
687.832	23954.82
688.18	23860.81
688.527	23687.94
688.874	23651.55
689.221	23727.71
689.568	23634.6
689.915	23515.51
690.262	23527.49
690.609	23488.17
690.956	23366.81
691.303	23410.2
691.65	23364.56
691.997	23353.26
692.344	23158.68
692.69	23230.55
693.037	23117.33
693.383	22961.18
693.73	22870.1
694.077	22849.99
694.423	22929.99
694.769	22712.14
695.116	22759.83
695.462	22597.57
695.808	22648.64
696.155	22561.41
696.501	22441.87
696.847	22425.37
697.193	22365.49
697.539	22399.38
697.885	22142.21
698.231	22186.96
698.577	22020.64
698.923	22082.33
699.269	21910.58
699.614	21888.21
699.96	21755.56
700.306	21749.23
700.651	21622.91
700.997	21619.74
701.342	21525.96
701.688	21591.49
702.033	21492.29
702.379	21524.15
702.724	21427.88
703.069	21474.44
703.415	21183.37
703.76	21298.85
704.105	21176.59
704.45	21256.81
704.795	21113.31
705.14	20981.11
705.485	20994.45
705.83	21002.36
706.175	20926.88
706.52	20899.08
706.865	20883.26
707.209	20770.95
707.554	20659.32
707.899	20687.79
708.243	20570.28
708.588	20495.48
708.932	20354.24
709.277	20324.64
709.621	20380.9
709.966	20248.03
710.31	20356.95
710.654	20106.79
710.998	20206.45
711.342	20100.01
711.687	20051.87
712.031	19935.49
712.375	19921.03
712.719	19931.88
713.063	19795.84
713.407	19916.06
713.75	19773.46
714.094	19825.89
714.438	19652.56
714.782	19628.83
715.125	19615.95
715.469	19616.86
715.812	19572.34
716.156	19460.48
716.499	19457.09
716.843	19413.47
717.186	19410.76
717.53	19451.21
717.873	19365.11
718.216	19345.68
718.559	19260.93
718.902	19163.99
719.246	19149.07
719.589	19134.16
719.932	19054.84
720.275	19090.32
720.617	19080.6
720.96	19031.34
721.303	19086.25
721.646	19079.47
721.989	18831.12
722.331	18872.7
722.674	18840.83
723.016	18852.36
723.359	18781.85
723.701	18864.11
724.044	18638.8
724.386	18498.24
724.729	18572.14
725.071	18654.85
725.413	18544.12
725.755	18532.82
726.097	18490.33
726.439	18460.96
726.782	18295.54
727.124	18372.14
727.465	18354.97
727.807	18241.3
728.149	18321.52
728.491	18166.73
728.833	18260.73
729.175	18114.98
729.516	18133.28
729.858	18039.95
730.199	18005.37
730.541	17987.3
730.882	17999.95
731.224	18095.54
731.565	17976.22
731.906	17950.01
732.248	17885.6
732.589	17830.69
732.93	17849.67
733.271	17807.41
733.612	17839.05
733.953	17813.74
734.294	17731.48
734.635	17634.99
734.976	17715.44
735.317	17613.97
735.658	17618.94
735.999	17673.86
736.339	17683.57
736.68	17539.4
737.021	17551.15
737.361	17503.47
737.702	17566.74
738.042	17505.05
738.383	17470.92
738.723	17389.12
739.063	17355.22
739.404	17382.79
739.744	17326.75
740.084	17312.51
740.424	17368.55
740.764	17258.28
741.104	17287.43
741.444	17180.76
741.784	17163.81
742.124	17222.34
742.464	17118.84
742.804	17148.9
743.143	17032.52
743.483	16926.08
743.823	16828.91
744.162	16983.93
744.502	16913.2
744.841	16808.34
745.181	16868.45
745.52	16836.14
745.86	16754.33
746.199	16777.38
746.538	16685.86
746.877	16738.06
747.216	16719.98
747.556	16656.03
747.895	16661.45
748.234	16535.36
748.573	16497.39
748.911	16494.68
749.25	16436.15
749.589	16499.88
749.928	16423.49
750.267	16433.89
750.605	16315.02
750.944	16318.41
751.283	16266.21
751.621	16361.35
751.96	16211.3
752.298	16175.14
752.636	16127.68
752.975	16124.07
753.313	16027.35
753.651	16085.2
753.989	15908.48
754.327	15952.55
754.666	15848.59
755.004	15915.94
755.342	15880.91
755.679	15885.88
756.017	15726.56
756.355	15789.39
756.693	15788.26
757.031	15762.5
757.368	15684.31
757.706	15687.24
758.044	15601.37
758.381	15595.72
758.719	15504.2
759.056	15469.17
759.394	15462.16
759.731	15329.96
760.068	15278.21
760.405	15268.27
760.743	15301.72
761.08	15288.61
761.417	15194.15
761.754	15177.2
762.091	15082.74
762.428	15089.07
762.765	15020.82
763.102	15042.97
763.438	14919.81
763.775	14938.56
764.112	14824.44
764.449	14896.98
764.785	14726.59
765.122	14654.73
765.458	14705.8
765.795	14632.36
766.131	14634.16
766.467	14549.42
766.804	14370.44
767.14	14354.17
767.476	14363.21
767.812	14334.51
768.148	14308.07
768.485	14157.34
768.821	14118.02
769.157	14145.81
769.492	14011.58
769.828	14013.39
770.164	13925.93
770.5	13873.51
770.836	13791.93
771.171	13775.88
771.507	13723.23
771.842	13684.81
772.178	13637.13
772.513	13658.14
772.849	13592.38
773.184	13490.46
773.519	13520.75
773.855	13399.85
774.19	13405.49
774.525	13287.98
774.86	13288.66
775.195	13126.63
775.53	13197.82
775.865	13092.28
776.2	13037.37
776.535	12880.09
776.87	12937.71
777.205	12881.67
777.539	12830.14
777.874	12907.43
778.209	12809.58
778.543	12770.71
778.878	12657.04
779.212	12702.91
779.547	12550.6
779.881	12636.93
780.215	12530.04
780.55	12585.18
780.884	12428.57
781.218	12500.43
781.552	12414.56
781.886	12286.65
782.22	12263.15
782.554	12144.74
782.888	12094.79
783.222	12054.12
783.556	12088.02
783.889	11974.35
784.223	11902.48
784.557	11871.52
784.89	11957.4
785.224	11878.98
785.557	11793.33
785.891	11715.6
786.224	11725.31
786.558	11690.06
786.891	11642.15
787.224	11663.17
787.557	11591.76
787.891	11534.36
788.224	11549.5
788.557	11452.55
788.89	11459.78
789.223	11402.16
789.556	11391.31
789.888	11329.39
790.221	11264.53
790.554	11194.48
790.887	11204.42
791.219	11166.01
791.552	11135.27
791.884	11084.43
792.217	11040.81
792.549	11053.24
792.882	10925.33
793.214	10829.97
793.546	10879.69
793.879	10796.75
794.211	10855.96
794.543	10803.98
794.875	10777.32
795.207	10723.08
795.539	10708.16
795.871	10788.84
796.203	10669.97
796.535	10591.33
796.867	10537.32
797.198	10535.06
797.53	10471.33
797.862	10430.21
798.193	10431.56
798.525	10368.06
798.856	10381.62
799.188	10307.27
799.519	10251
799.85	10187.05
800.182	10219.82
800.513	10178.01
800.844	10116.32
801.175	10177.11
801.506	10164.9
801.837	10145.92
802.168	10051.23
802.499	10015.98
802.83	9998.35
803.161	9946.6
803.491	9964.23
803.822	9980.5
804.153	9793.84
804.483	9768.53
804.814	9764.91
805.145	9774.18
805.475	9776.44
805.805	9692.6
806.136	9697.57
806.466	9712.71
806.796	9666.61
807.126	9523.11
807.457	9541.19
807.787	9566.95
808.117	9439.95
808.447	9449.89
808.777	9522.43
809.107	9423.68
809.436	9425.49
809.766	9351.82
810.096	9368.99
810.426	9332.83
810.755	9328.77
811.085	9357.24
811.414	9291.48
811.744	9246.73
812.073	9253.51
812.403	9233.4
812.732	9206.28
813.061	9126.51
813.39	9139.39
813.719	9082.22
814.049	9077.02
814.378	9072.73
814.707	9078.83
815.036	9002.45
815.365	8952.5
815.693	8883.81
816.022	8877.7
816.351	8818.27
816.68	8809.23
817.008	8803.13
817.337	8809.23
817.665	8742.34
817.994	8811.04
818.322	8788.44
818.651	8758.84
818.979	8707.31
819.307	8710.48
819.636	8715
819.964	8579.41
820.292	8733.75
820.62	8632.51
820.948	8591.16
821.276	8673.42
821.604	8575.79
821.932	8652.63
822.259	8651.5
822.587	8595.9
822.915	8594.77
823.243	8601.78
823.57	8617.15
823.898	8604.49
824.225	8572.85
824.553	8537.15
824.88	8529.46
825.207	8603.81
825.535	8467.09
825.862	8573.08
826.189	8555
826.516	8561.78
826.843	8587.77
827.17	8614.89
827.497	8611.04
827.824	8568.11
828.151	8651.95
828.478	8620.08
828.805	8618.28
829.131	8595.9
829.458	8588.9
829.785	8516.13
830.111	8533.98
830.438	8638.84
830.764	8591.84
831.09	8553.19
831.417	8501.9
831.743	8573.31
832.069	8640.2
832.395	8553.65
832.722	8559.29
833.048	8570.82
833.374	8569.69
833.7	8534.21
834.026	8424.38
834.351	8507.09
834.677	8388.45
835.003	8502.57
835.329	8423.71
835.654	8486.98
835.98	8445.85
836.306	8421.45
836.631	8413.31
836.956	8483.36
837.282	8423.71
837.607	8351.16
837.932	8349.36
838.258	8378.73
838.583	8368.57
838.908	8253.77
839.233	8229.13
839.558	8268.91
839.883	8278.62
840.208	8261.22
840.533	8243.6
840.858	8215.12
841.182	8190.94
841.507	8195.24
841.832	8168.57
842.156	8200.43
842.481	8129.25
842.805	8154.79
843.13	8132.87
843.454	8081.12
843.778	8048.12
844.103	8000.67
844.427	8013.32
844.751	8018.07
845.075	8035.24
845.399	7963.83
845.723	7922.7
846.047	7918.63
846.371	7930.16
846.695	7876.15
847.019	7841.12
847.343	7802.25
847.666	7753.44
847.99	7675.02
848.313	7671.41
848.637	7653.1
848.96	7664.85
849.284	7607
849.607	7555.48
849.931	7543.95
850.254	7516.84
850.577	7504.63
850.9	7412.66
851.223	7423.73
851.546	7416.73
851.869	7342.38
852.192	7361.81
852.515	7317.52
852.838	7288.37
853.161	7305.09
853.483	7264.19
853.806	7235.49
854.129	7261.48
854.451	7154.59
854.774	7115.04
855.096	7054.02
855.419	7064.87
855.741	7087.69
856.063	7068.94
856.385	7063.06
856.708	6980.13
857.03	7033.23
857.352	6960.47
857.674	6943.29
857.996	6968.15
858.318	6894.25
858.64	6866.46
858.961	6880.02
859.283	6873.92
859.605	6814.93
859.926	6784.2
860.248	6786.01
860.57	6794.37
860.891	6738.78
861.212	6727.7
861.534	6730.87
861.855	6745.33
862.176	6724.31
862.498	6763.86
862.819	6720.02
863.14	6685.9
863.461	6670.98
863.782	6604.09
864.103	6656.97
864.424	6600.48
864.745	6626.01
865.065	6632.11
865.386	6582.62
865.707	6549.86
866.027	6573.36
866.348	6543.98
866.668	6556.64
866.989	6513.7
867.309	6465.11
867.63	6487.26
867.95	6485.45
868.27	6435.96
868.59	6513.02
868.91	6455.17
869.23	6513.92
869.55	6438.22
869.87	6438.22
870.19	6394.38
870.51	6427.15
870.83	6405
871.15	6393.93
871.469	6381.27
871.789	6382.4
872.109	6378.11
872.428	6295.63
872.748	6360.71
873.067	6336.98
873.386	6359.8
873.706	6320.26
874.025	6331.56
874.344	6273.48
874.663	6310.54
874.982	6278.45
875.301	6249.52
875.62	6226.25
875.939	6186.02
876.258	6219.7
876.577	6192.58
876.896	6228.73
877.214	6171.79
877.533	6217.89
877.852	6183.09
878.17	6196.87
878.489	6152.35
878.807	6172.01
879.125	6109.64
879.444	6181.73
879.762	6101.51
880.08	6134.05
880.398	6117.78
880.716	6087.27
881.034	6110.55
881.352	6074.39
881.67	6018.57
881.988	6058.8
882.306	6050.89
882.624	5966.14
882.941	5953.94
883.259	5983.09
883.577	6017.21
883.894	6003.66
884.212	5951.91
884.529	5940.15
884.846	5918.91
885.164	5878.01
885.481	5891.34
885.798	5920.49
886.115	5879.14
886.432	5841.17
886.75	5820.84
887.067	5855.64
887.383	5806.6
887.7	5818.35
888.017	5799.59
888.334	5739.03
888.651	5713.27
888.967	5782.64
889.284	5725.02
889.6	5692.03
889.917	5658.13
890.233	5740.84
890.55	5684.34
890.866	5665.81
891.182	5625.13
891.498	5591.01
891.815	5591.92
892.131	5587.85
892.447	5575.42
892.763	5502.88
893.079	5534.52
893.395	5506.72
893.71	5529.09
894.026	5523.89
894.342	5517.34
894.657	5423.78
894.973	5409.55
895.289	5420.17
895.604	5407.51
895.92	5324.8
896.235	5340.85
896.55	5361.19
896.865	5332.94
897.181	5348.53
897.496	5328.19
897.811	5292.04
898.126	5296.56
898.441	5239.83
898.756	5237.12
899.071	5190.12
899.386	5204.58
899.7	5129.33
900.015	5146.5
900.33	5167.75
900.644	5117.58
900.959	5132.72
901.273	5127.29
901.588	5112.15
901.902	5031.7
902.216	5033.96
902.531	5036.22
902.845	5037.35
903.159	4997.58
903.473	4962.33
903.787	4922.78
904.101	4912.84
904.415	4899.28
904.729	4857.02
905.042	4880.75
905.356	4831.26
905.67	4882.33
905.984	4762.56
906.297	4789.9
906.611	4817.7
906.924	4740.86
907.237	4753.07
907.551	4726.63
907.864	4708.32
908.177	4698.38
908.491	4704.48
908.804	4689.34
909.117	4635.56
909.43	4642.11
909.743	4620.19
910.056	4621.55
910.368	4623.8
910.681	4556.01
910.994	4533.86
911.307	4511.72
911.619	4493.19
911.932	4517.37
912.244	4453.87
912.557	4444.6
912.869	4493.19
913.181	4425.84
913.494	4399.4
913.806	4354.66
914.118	4343.59
914.43	4346.3
914.742	4404.38
915.054	4336.13
915.366	4311.72
915.678	4288.22
915.99	4244.83
916.302	4253.42
916.613	4252.52
916.925	4250.26
917.236	4236.02
917.548	4157.15
917.859	4198.73
918.171	4126.87
918.482	4138.17
918.794	4067.44
919.105	4115.12
919.416	4096.81
919.727	4086.87
920.038	4076.7
920.349	4068.57
920.66	4012.75
920.971	4046.42
921.282	3977.04
921.593	3962.81
921.903	3941.79
922.214	3972.07
922.525	3919.42
922.835	3965.97
923.146	3881
923.456	3883.26
923.767	3861.11
924.077	3875.8
924.387	3821.34
924.697	3810.94
925.008	3737.05
925.318	3737.73
925.628	3764.17
925.938	3747.67
926.248	3730.72
926.558	3739.99
926.867	3676.26
927.177	3680.1
927.487	3713.32
927.796	3686.65
928.106	3673.32
928.416	3645.3
928.725	3624.96
929.034	3591.74
929.344	3621.12
929.653	3641.23
929.962	3551.29
930.271	3567.34
930.581	3549.26
930.89	3530.5
931.199	3497.73
931.508	3478.75
931.817	3494.12
932.125	3429.94
932.434	3438.3
932.743	3403.5
933.051	3445.08
933.36	3385.87
933.669	3418.64
933.977	3337.74
934.286	3391.52
934.594	3362.14
934.902	3346.32
935.21	3332.54
935.519	3321.24
935.827	3275.59
936.135	3292.31
936.443	3265.42
936.751	3279.21
937.059	3247.8
937.367	3224.97
937.674	3228.81
937.982	3202.6
938.29	3218.87
938.597	3200.11
938.905	3184.97
939.213	3173
939.52	3141.81
939.827	3132.32
940.135	3146.56
940.442	3092.55
940.749	3106.1
941.056	3093.9
941.363	3035.82
941.67	3036.73
941.977	3040.57
942.284	3024.75
942.591	3032.43
942.898	3023.17
943.205	3010.74
943.511	2993.79
943.818	2991.76
944.125	2970.97
944.431	2956.05
944.738	2938.2
945.044	2887.35
945.35	2898.2
945.657	2890.29
945.963	2856.17
946.269	2890.29
946.575	2833.57
946.881	2827.69
947.187	2815.72
947.493	2822.95
947.799	2805.55
948.105	2794.7
948.41	2798.77
948.716	2816.17
949.022	2763.97
949.327	2756.74
949.633	2725.55
949.938	2732.1
950.244	2740.46
950.549	2666.79
950.854	2676.06
951.16	2686.23
951.465	2668.15
951.77	2634.93
952.075	2652.11
952.38	2615.04
952.685	2629.06
952.99	2602.62
953.294	2581.37
953.599	2575.27
953.904	2592.45
954.209	2582.28
954.513	2538.21
954.818	2554.25
955.122	2555.61
955.426	2564.2
955.731	2495.73
956.035	2496.63
956.339	2505.44
956.643	2513.13
956.948	2485.33
957.252	2480.36
957.556	2474.93
957.86	2478.1
958.163	2450.08
958.467	2488.04
958.771	2416.41
959.075	2428.61
959.378	2434.26
959.682	2408.72
959.985	2391.1
960.289	2423.41
960.592	2401.94
960.896	2358.78
961.199	2337.09
961.502	2339.57
961.805	2333.92
962.108	2351.32
962.411	2327.82
962.714	2325.56
963.017	2293.7
963.32	2294.37
963.623	2290.98
963.926	2298.44
964.228	2269.06
964.531	2262.96
964.833	2261.16
965.136	2218.67
965.438	2223.42
965.741	2231.55
966.043	2226.35
966.345	2204.21
966.648	2178.9
966.95	2176.19
967.252	2178.45
967.554	2161.95
967.856	2150.88
968.158	2137.32
968.46	2127.37
968.761	2090.99
969.063	2124.21
969.365	2138.45
969.666	2108.62
969.968	2085.79
970.269	2058.9
970.571	2084.21
970.872	2061.39
971.174	2068.17
971.475	2034.49
971.776	2068.84
972.077	2039.47
972.378	2008.73
972.679	2023.87
972.98	2029.97
973.281	2018.68
973.582	2015.74
973.883	1963.76
974.183	1985.68
974.484	1949.75
974.785	1961.95
975.085	1938.68
975.386	1922.86
975.686	1905.01
975.986	1952.69
976.287	1900.03
976.587	1906.36
976.887	1906.81
977.187	1900.03
977.487	1885.57
977.787	1919.7
978.087	1887.83
978.387	1874.5
978.687	1863.65
978.987	1870.21
979.286	1842.86
979.586	1863.88
979.885	1835.4
980.185	1828.62
980.484	1811.68
980.784	1792.02
981.083	1814.16
981.382	1761.28
981.682	1808.29
981.981	1772.35
982.28	1778
982.579	1790.66
982.878	1768.74
983.177	1753.15
983.475	1718.57
983.774	1745.91
984.073	1736.88
984.372	1705.46
984.67	1716.54
984.969	1698.68
985.267	1710.21
985.566	1718.8
985.864	1663.2
986.162	1673.83
986.461	1644.22
986.759	1645.8
987.057	1661.62
987.355	1626.14
987.653	1643.77
987.951	1656.65
988.249	1638.8
988.547	1598.35
988.844	1603.09
989.142	1624.34
989.44	1594.96
989.737	1575.52
990.035	1585.24
990.332	1607.39
990.63	1612.58
990.927	1567.39
991.224	1568.29
991.521	1564.45
991.819	1541.4
992.116	1542.08
992.413	1538.24
992.71	1513.38
993.006	1522.19
993.303	1507.95
993.6	1505.47
993.897	1494.17
994.193	1513.38
994.49	1494.17
994.787	1490.1
995.083	1477.67
995.379	1477.22
995.676	1474.28
995.972	1468.18
996.268	1468.86
996.565	1455.53
996.861	1447.84
997.157	1433.15
997.453	1434.74
997.749	1403.55
998.044	1414.85
998.34	1404.45
998.636	1371.24
998.932	1390.67
999.227	1382.99
999.523	1388.41
999.818	1407.39
1000.114	1366.94
1000.409	1378.01
1000.704	1341.86
1001	1347.28
1001.295	1342.76
1001.59	1331.01
1001.885	1339.37
1002.18	1317.9
1002.475	1336.89
1002.77	1336.21
1003.065	1295.53
1003.359	1312.03
1003.654	1298.02
1003.949	1301.63
1004.243	1273.16
1004.538	1280.62
1004.832	1276.32
1005.127	1260.28
1005.421	1255.76
1005.715	1259.83
1006.009	1254.18
1006.304	1223.44
1006.598	1245.81
1006.892	1227.96
1007.186	1222.09
1007.48	1236.78
1007.773	1197.23
1008.067	1227.51
1008.361	1177.12
1008.655	1209.43
1008.948	1180.51
1009.242	1174.63
1009.535	1173.5
1009.829	1199.49
1010.122	1162.65
1010.415	1143.67
1010.708	1151.13
1011.001	1135.54
1011.295	1151.13
1011.588	1141.86
1011.881	1144.35
1012.173	1128.76
1012.466	1095.76
1012.759	1097.12
1013.052	1120.85
1013.344	1089.21
1013.637	1083.79
1013.93	1093.28
1014.222	1075.2
1014.514	1092.37
1014.807	1078.36
1015.099	1076.55
1015.391	1041.3
1015.683	1052.83
1015.976	1041.53
1016.268	1034.52
1016.56	1074.97
1016.851	1033.62
1017.143	1021.87
1017.435	1025.48
1017.727	1038.36
1018.018	1008.53
1018.31	1002.66
1018.602	1022.54
1018.893	1007.4
1019.185	982.32
1019.476	1007.18
1019.767	982.77
1020.058	963.34
1020.35	978.03
1020.641	947.29
1020.932	960.85
1021.223	976.22
1021.514	948.65
1021.804	950
1022.095	951.59
1022.386	938.48
1022.677	917.46
1022.967	916.11
1023.258	930.79
1023.548	928.31
1023.839	916.78
1024.129	919.5
1024.419	897.8
1024.709	899.16
1025	869.55
1025.29	859.38
1025.58	873.62
1025.87	858.71
1026.16	887.86
1026.449	884.92
1026.739	850.8
1027.029	853.51
1027.319	863
1027.608	835.66
1027.898	813.96
1028.187	799.5
1028.477	849.44
1028.766	832.27
1029.055	819.39
1029.344	820.97
1029.634	790.01
1029.923	790.46
1030.212	820.52
1030.501	790.01
1030.79	813.28
1031.078	816.67
1031.367	782.55
1031.656	788.2
1031.945	787.97
1032.233	799.95
1032.522	813.96
1032.81	744.81
1033.099	754.08
1033.387	763.34
1033.675	763.57
1033.963	759.5
1034.251	734.19
1034.54	747.75
1034.828	737.81
1035.116	722.89
1035.403	715.89
1035.691	695.55
1035.979	721.53
1036.267	702.78
1036.554	697.81
1036.842	686.06
1037.129	709.78
1037.417	676.79
1037.704	697.13
1037.992	717.47
1038.279	702.1
1038.566	714.3
1038.853	714.3
1039.14	714.3
