Data from foam2_polystyrene_foam_FLMS001491_00029.txt Node
Date: Wed Feb 08 10:57:44 GMT 2017
User: dcchb
Spectrometer: FLMS00149
Trigger mode: 0
Integration Time (sec): 2.000000E-2
Scans to average: 10
Electric dark correction enabled: true
Nonlinearity correction enabled: false
Boxcar width: 0
XAxis mode: Wavelengths
Number of Pixels in Spectrum: 2048
>>>>>Begin Spectral Data<<<<<
341.393	-10.64
341.776	-10.64
342.16	-10.64
342.543	-62.39
342.927	-37.3
343.31	-78.66
343.693	-63.52
344.077	-49.96
344.46	-49.28
344.843	-50.63
345.226	-42.27
345.61	-31.2
345.993	-8.15
346.376	-6.12
346.759	0.21
347.142	14.22
347.525	37.27
347.908	54.22
348.291	74.79
348.674	102.81
349.057	96.25
349.44	128.12
349.823	123.82
350.206	170.38
350.588	196.36
350.971	206.08
351.354	228.68
351.737	241.34
352.119	259.87
352.502	272.3
352.884	288.57
353.267	288.34
353.65	307.55
354.032	297.15
354.414	295.35
354.797	323.82
355.179	326.3
355.562	334.89
355.944	350.49
356.326	352.97
356.709	364.5
357.091	340.99
357.473	359.07
357.855	349.58
358.238	332.63
358.62	362.24
359.002	355
359.384	333.31
359.766	352.74
360.148	375.57
360.53	349.58
360.912	356.13
361.294	358.39
361.676	356.81
362.057	339.64
362.439	343.71
362.821	354.33
363.203	348.23
363.584	346.19
363.966	347.1
364.348	349.13
364.729	359.52
365.111	337.6
365.493	357.26
365.874	313.2
366.256	360.43
366.637	352.97
367.019	353.65
367.4	363.14
367.781	349.81
368.163	341.9
368.544	338.06
368.925	338.73
369.306	354.33
369.688	345.51
370.069	347.32
370.45	334.89
370.831	356.59
371.212	343.03
371.593	355.91
371.974	362.46
372.355	361.33
372.736	349.13
373.117	359.75
373.498	373.54
373.879	359.98
374.26	373.76
374.641	361.56
375.021	365.17
375.402	376.02
375.783	385.74
376.163	414.21
376.544	397.94
376.925	404.95
377.305	381.44
377.686	379.18
378.066	407.66
378.447	378.96
378.827	398.39
379.208	397.26
379.588	413.99
379.968	408.11
380.349	402.46
380.729	423.93
381.109	397.04
381.489	422.8
381.87	406.98
382.25	418.28
382.63	442.23
383.01	424.38
383.39	451.95
383.77	436.36
384.15	424.83
384.53	442.01
384.91	443.82
385.29	456.02
385.67	476.81
386.049	465.96
386.429	446.3
386.809	461.44
387.189	475
387.568	477.94
387.948	467.32
388.328	490.37
388.707	496.7
389.087	486.98
389.466	509.35
389.846	489.69
390.225	499.41
390.605	512.74
390.984	527.66
391.363	513.87
391.743	526.53
392.122	541.21
392.501	509.13
392.881	541.67
393.26	531.05
393.639	532.63
394.018	547.09
394.397	563.81
394.776	561.78
395.155	552.06
395.534	553.42
395.913	565.17
396.292	576.02
396.671	567.43
397.05	590.7
397.429	606.07
397.808	564.72
398.186	599.29
398.565	620.99
398.944	620.99
399.323	624.83
399.701	625.73
400.08	615.56
400.458	623.92
400.837	630.03
401.215	637.71
401.594	638.61
401.972	647.43
402.351	654.21
402.729	659.86
403.107	663.02
403.486	656.92
403.864	692.17
404.242	677.03
404.62	703.47
404.999	700.31
405.377	710.48
405.755	703.7
406.133	704.83
406.511	726.07
406.889	710.7
407.267	732.62
407.645	748.89
408.023	747.99
408.401	791.15
408.779	769.91
409.156	780.98
409.534	797.48
409.912	788.21
410.29	835.22
410.667	824.37
411.045	811.49
411.422	835.22
411.8	838.61
412.178	840.64
412.555	847.2
412.933	889.68
413.31	899.17
413.687	902.34
414.065	899.85
414.442	939.85
414.819	934.2
415.197	925.16
415.574	970.81
415.951	948.21
416.328	957.7
416.705	985.72
417.082	976.23
417.46	1001.77
417.837	995.89
418.214	992.05
418.591	1001.32
418.967	1002.9
419.344	1016.91
419.721	1061.43
420.098	1067.53
420.475	1053.07
420.852	1076.12
421.228	1077.25
421.605	1103.23
421.982	1103.01
422.358	1097.81
422.735	1126.96
423.111	1119.96
423.488	1187.98
423.864	1158.83
424.241	1157.7
424.617	1186.62
424.994	1229.11
425.37	1203.34
425.746	1190.92
426.123	1232.95
426.499	1238.15
426.875	1251.25
427.251	1263.68
427.627	1308.2
428.003	1308.2
428.379	1324.92
428.756	1326.73
429.132	1356.79
429.507	1363.57
429.883	1379.61
430.259	1420.06
430.635	1445.82
431.011	1427.29
431.387	1430
431.763	1486.5
432.138	1472.04
432.514	1500.51
432.89	1536.89
433.265	1560.17
433.641	1600.62
434.016	1574.18
434.392	1622.09
434.767	1600.62
435.143	1643.33
435.518	1653.95
435.894	1694.63
436.269	1712.26
436.644	1725.59
437.02	1700.51
437.395	1761.75
437.77	1751.8
438.145	1801.75
438.52	1832.48
438.895	1830.67
439.271	1787.06
439.646	1907.05
440.021	1884.46
440.395	1884.91
440.77	1889.88
441.145	1917.22
441.52	1938.24
441.895	1948.86
442.27	1939.37
442.645	2010.55
443.019	2025.92
443.394	1969.88
443.769	2020.72
444.143	2042.19
444.518	2076.32
444.892	2038.8
445.267	2076.09
445.641	2082.19
446.016	2070.67
446.39	2130.33
446.764	2139.59
447.139	2143.21
447.513	2185.24
447.887	2207.61
448.262	2189.98
448.636	2212.36
449.01	2235.18
449.384	2244.9
449.758	2229.31
450.132	2320.38
450.506	2325.57
450.88	2316.99
451.254	2346.14
451.628	2348.85
452.002	2389.98
452.376	2382.52
452.75	2443.31
453.123	2458
453.497	2478.79
453.871	2523.54
454.244	2583.87
454.618	2549.75
454.992	2636.07
455.365	2601.05
455.739	2691.89
456.112	2659.8
456.486	2724.43
456.859	2752.68
457.232	2810.08
457.606	2764.21
457.979	2815.28
458.352	2858.22
458.725	2880.36
459.099	2928.04
459.472	2953.81
459.845	2974.82
460.218	2997.42
460.591	3075.61
460.964	3055.5
461.337	3139.34
461.71	3188.38
462.083	3226.57
462.456	3224.76
462.829	3234.03
463.201	3290.97
463.574	3323.51
463.947	3387.02
464.32	3413.23
464.692	3475.37
465.065	3500.91
465.438	3508.14
465.81	3580.68
466.183	3604.41
466.555	3676.73
466.928	3725.31
467.3	3713.79
467.672	3743.16
468.045	3865.42
468.417	3915.36
468.789	3884.18
469.161	3996.26
469.534	4028.13
469.906	4133.66
470.278	4139.99
470.65	4194.9
471.022	4235.58
471.394	4323.94
471.766	4374.56
472.138	4409.81
472.51	4483.48
472.882	4611.16
473.253	4620.66
473.625	4645.51
473.997	4774.78
474.369	4855.68
474.74	4858.84
475.112	4979.97
475.484	4988.1
475.855	5148.55
476.227	5178.83
476.598	5311.26
476.97	5371.82
477.341	5484.14
477.713	5565.04
478.084	5582.89
478.455	5739.27
478.827	5800.29
479.198	5918.02
479.569	5981.52
479.94	6112.37
480.311	6193.72
480.682	6290.22
481.053	6414.73
481.424	6508.29
481.795	6560.27
482.166	6682.52
482.537	6819.47
482.908	6933.36
483.279	6994.83
483.65	7152.11
484.021	7242.51
484.391	7328.83
484.762	7445.44
485.133	7489.28
485.503	7609.73
485.874	7787.8
486.244	7826.45
486.615	7978.08
486.985	8044.97
487.356	8268.7
487.726	8265.76
488.097	8486.09
488.467	8477.28
488.837	8663.94
489.207	8770.15
489.578	8963.59
489.948	8934.89
490.318	9109.8
490.688	9182.57
491.058	9315.9
491.428	9397.93
491.798	9454.88
492.168	9693.52
492.538	9749.56
492.908	9866.17
493.278	9966.5
493.648	9933.28
494.017	10122.66
494.387	10250.79
494.757	10285.59
495.126	10383.67
495.496	10458.92
495.866	10585.92
496.235	10682.87
496.605	10758.12
496.974	10869.08
497.344	10955.63
497.713	11024.55
498.082	11102.97
498.452	11222.74
498.821	11267.03
499.19	11336.86
499.559	11408.05
499.928	11503.41
500.298	11542.73
500.667	11686.68
501.036	11687.14
501.405	11854.36
501.774	11879.9
502.143	12001.03
502.512	12011.65
502.88	12141.14
503.249	12285.31
503.618	12297.97
503.987	12340.9
504.356	12479.88
504.724	12528.7
505.093	12553.78
505.462	12685.75
505.83	12725.08
506.199	12810.95
506.567	13018.17
506.936	13034.67
507.304	13182.92
507.672	13221.56
508.041	13344.04
508.409	13323.48
508.777	13572.96
509.145	13578.84
509.514	13654.77
509.882	13743.35
510.25	13850.02
510.618	14027.87
510.986	14032.84
511.354	14155.32
511.722	14329.55
512.09	14439.61
512.458	14464.69
512.826	14532.49
513.193	14708.53
513.561	14685.25
513.929	14899.93
514.297	14965.69
514.664	15111
515.032	15163.65
515.4	15260.83
515.767	15344.89
516.135	15462.18
516.502	15315.52
516.869	15774.94
517.237	15834.15
517.604	15767.93
517.972	15974.48
518.339	16116.85
518.706	16082.73
519.073	16328.14
519.44	16330.86
519.808	16560
520.175	16628.48
520.542	16833.89
520.909	16971.97
521.276	16957.51
521.643	17138.29
522.009	17270.27
522.376	17504.84
522.743	17521.11
523.11	17584.61
523.477	17932.85
523.843	17903.7
524.21	18197.93
524.577	18273.18
524.943	18395.89
525.31	18495.09
525.676	18741.41
526.043	18768.31
526.409	18824.35
526.776	19148.86
527.142	19101.86
527.508	19297.11
527.874	19422.07
528.241	19493.26
528.607	19622.29
528.973	19816.41
529.339	19866.36
529.705	20131.43
530.071	20269.06
530.437	20321.94
530.803	20421.37
531.169	20511.54
531.535	20484.19
531.901	20707.24
532.267	20706.11
532.632	20989.04
532.998	20913.56
533.364	21187.68
533.73	21083.5
534.095	21364.17
534.461	21410.95
534.826	21582.24
535.192	21582.92
535.557	21736.59
535.923	21769.36
536.288	21911.05
536.653	22052.74
537.019	21914.89
537.384	22104.26
537.749	22318.5
538.114	22380.41
538.479	22365.73
538.845	22497.47
539.21	22390.81
539.575	22650.01
539.94	22671.93
540.305	22882.55
540.67	22849.33
541.034	22991.47
541.399	23094.07
541.764	23166.61
542.129	23188.3
542.494	23355.98
542.858	23428.97
543.223	23431.01
543.587	23686.59
543.952	23633.94
544.316	23644.34
544.681	23710.1
545.045	23889.3
545.41	23950.54
545.774	24102.18
546.138	24088.17
546.503	24109.63
546.867	24291.55
547.231	24511.21
547.595	24574.93
547.959	24706.91
548.324	24718.66
548.688	24644.99
549.052	24806.34
549.416	24869.61
549.779	24956.84
550.143	25049.72
550.507	25249.04
550.871	25247.23
551.235	25216.72
551.599	25449.26
551.962	25473.67
552.326	25610.84
552.689	25756.82
553.053	25730.61
553.417	25842.92
553.78	26265.51
554.143	26099.86
554.507	26236.81
554.87	26364.26
555.234	26647.65
555.597	26514.54
555.96	26630.47
556.323	26797.25
556.686	26833.86
557.05	27038.14
557.413	27155.66
557.776	27202.66
558.139	27378.7
558.502	27429.32
558.865	27556.32
559.228	27825.24
559.59	27761.74
559.953	27780.27
560.316	28146.82
560.679	28100.94
561.041	28296.64
561.404	28503.64
561.767	28595.84
562.129	28596.52
562.492	28988.15
562.854	29000.81
563.217	28926.46
563.579	29319.44
563.941	29443.51
564.304	29420.46
564.666	29521.47
565.028	29655.03
565.39	29734.12
565.753	29956.49
566.115	30176.37
566.477	30002.81
566.839	30255.46
567.201	30490.26
567.563	30540.2
567.925	30716.47
568.287	30783.81
568.648	30831.72
569.01	31001.66
569.372	31073.97
569.734	31044.82
570.095	31292.72
570.457	31507.63
570.819	31354.42
571.18	31594.41
571.542	31662.66
571.903	31742.43
572.265	31942.42
572.626	31956.43
572.987	32118.69
573.349	32191.46
573.71	32307.84
574.071	32331.79
574.432	32461.05
574.794	32693.82
575.155	32501.73
575.516	32555.74
575.877	32809.29
576.238	32798.22
576.599	32866.24
576.96	32972.9
577.32	33030.76
577.681	33040.02
578.042	33220.13
578.403	33386.23
578.763	33193.01
579.124	33312.56
579.485	33405.89
579.845	33363.63
580.206	33282.5
580.566	33256.29
580.927	33416.06
581.287	33483.17
581.648	33275.95
582.008	33538.54
582.368	33589.16
582.728	33507.13
583.089	33600.68
583.449	33674.13
583.809	33604.98
584.169	33715.48
584.529	33616.05
584.889	34018.3
585.249	33775.37
585.609	33781.7
585.969	33905.76
586.329	33806.1
586.688	33920.45
587.048	33735.14
587.408	33805.65
587.768	33889.26
588.127	33821.02
588.487	33767.01
588.846	33948.25
589.206	33834.35
589.565	33887
589.925	33928.81
590.284	33856.27
590.643	33915.93
591.003	33962.48
591.362	34052.65
591.721	33900.56
592.08	33925.2
592.44	33934.46
592.799	34058.75
593.158	33913.67
593.517	34017.17
593.876	33953.22
594.235	34003.39
594.593	34043.61
594.952	34046.55
595.311	33998.87
595.67	34005.65
596.029	34295.81
596.387	34363.38
596.746	34321.8
597.104	34165.87
597.463	34214.23
597.822	34489.25
598.18	34297.39
598.538	34217.17
598.897	34502.58
599.255	34028.02
599.613	34597.72
599.972	34413.54
600.33	34446.09
600.688	34354.11
601.046	34531.96
601.404	34599.08
601.762	34561.34
602.12	34576.25
602.478	34633.65
602.836	34650.83
603.194	34439.98
603.552	34622.58
603.91	34530.6
604.268	34592.07
604.625	34630.94
604.983	34837.94
605.341	34644.72
605.698	34805.4
606.056	34901.89
606.413	34837.49
606.771	34911.61
607.128	34976.92
607.485	34932.63
607.843	34859.86
608.2	35113.41
608.557	35154.09
608.914	35016.69
609.272	35242.45
609.629	35322.9
609.986	35427.08
610.343	35181.89
610.7	35517.92
611.057	35453.52
611.414	35343.69
611.771	35347.08
612.127	35479.73
612.484	35407.42
612.841	35583.91
613.198	35424.59
613.554	35547.3
613.911	35726.05
614.267	35724.7
614.624	35528.32
614.98	35754.75
615.337	35891.02
615.693	35684.92
616.05	35862.77
616.406	35986.16
616.762	35823.45
617.118	35741.42
617.475	35939.83
617.831	35965.82
618.187	36056.21
618.543	36011.24
618.899	36183.44
619.255	36215.3
619.611	36182.31
619.967	36249.65
620.323	36368.07
620.678	36176.44
621.034	36160.62
621.39	36067.74
621.746	36150
622.101	36418.69
622.457	36185.48
622.812	36324
623.168	36550.66
623.523	36501.17
623.879	36421.4
624.234	36320.84
624.589	36400.38
624.945	36445.13
625.3	36452.81
625.655	36330.1
626.01	36488.97
626.365	36391.12
626.72	36436.99
627.075	36304.79
627.43	36338.01
627.785	36227.28
628.14	36403.77
628.495	36324.23
628.85	36461.63
629.205	36245.36
629.559	36488.07
629.914	36279.03
630.269	36413.04
630.623	36176.89
630.978	36044.01
631.332	36177.11
631.687	36264.34
632.041	36034.29
632.396	36157.91
632.75	35911.81
633.104	36006.95
633.459	35632.04
633.813	35996.55
634.167	35717.01
634.521	35704.81
634.875	35740.52
635.229	35696.22
635.583	35530.13
635.937	35596.11
636.291	35552.95
636.645	35611.25
636.999	35440.86
637.352	35539.39
637.706	35427.08
638.06	35456
638.413	35533.06
638.767	35365.16
639.121	35294.65
639.474	35140.76
639.828	35144.37
640.181	35291.71
640.534	35231.83
640.888	35114.99
641.241	34922.01
641.594	34966.3
641.947	34912.97
642.301	34840.88
642.654	34833.42
643.007	34760.88
643.36	34711.39
643.713	34712.29
644.066	34886.07
644.419	34661.67
644.771	34367.9
645.124	34005.65
645.477	33916.83
645.83	33657.86
646.182	33556.84
646.535	33514.36
646.888	33612.44
647.24	33473.23
647.593	33661.47
647.945	33603.17
648.298	33366.34
648.65	33253.12
649.002	33371.09
649.355	33378.54
649.707	33344.42
650.059	33362.27
650.411	33839.77
650.763	33752.32
651.115	34202.48
651.467	34035.48
651.819	34047.23
652.171	33997.96
652.523	33930.62
652.875	33784.18
653.227	33669.84
653.578	33874.58
653.93	33927.91
654.282	33556.62
654.633	33645.2
654.985	33647.24
655.337	33626.67
655.688	33832.77
656.039	33772.21
656.391	33447.69
656.742	33520.46
657.094	33634.13
657.445	33715.94
657.796	33639.78
658.147	33414.7
658.498	33472.1
658.849	33485.89
659.2	33584.87
659.551	33421.03
659.902	33483.4
660.253	33373.35
660.604	33331.31
660.955	33103.07
661.306	33343.97
661.656	33240.47
662.007	33264.65
662.358	33316.62
662.708	33139.68
663.059	33074.6
663.409	33014.49
663.76	33242.95
664.11	33083.18
664.461	33104.43
664.811	33104.2
665.161	32998.44
665.511	32975.62
665.862	33108.72
666.212	33087.48
666.562	33110.98
666.912	33096.97
667.262	32884.32
667.612	32932.45
667.962	32940.81
668.312	32774.27
668.662	32899.91
669.011	32815.17
669.361	32816.98
669.711	32917.54
670.06	32936.52
670.41	32834.6
670.76	32768.39
671.109	32958.22
671.459	32750.31
671.808	32622.63
672.157	32762.29
672.507	32580.15
672.856	32624.66
673.205	32640.26
673.554	32548.96
673.904	32416.99
674.253	32590.32
674.602	32427.38
674.951	31992.37
675.3	31784.69
675.649	32320.49
675.998	32325.92
676.346	32275.52
676.695	32379.02
677.044	32014.51
677.393	32129.54
677.741	32156.88
678.09	32080.72
678.438	31922.99
678.787	32036.88
679.135	32085.47
679.484	32000.95
679.832	32015.42
680.181	31784.91
680.529	31927.28
680.877	31800.51
681.225	31799.6
681.573	31981.07
681.922	31753.28
682.27	31632.83
682.618	31818.81
682.966	31655.65
683.314	31736.1
683.661	31652.26
684.009	31524.35
684.357	31511.47
684.705	31450.23
685.053	31494.52
685.4	31342.89
685.748	31233.51
686.095	31184.02
686.443	31005.72
686.79	30857.03
687.138	31104.25
687.485	30912.17
687.832	30836.92
688.18	30893.41
688.527	30678.05
688.874	30657.26
689.221	30546.3
689.568	30414.1
689.915	30309.02
690.262	30483.03
690.609	30300.43
690.956	30315.12
691.303	30262.24
691.65	30219.76
691.997	30053.66
692.344	29882.36
692.69	29937.5
693.037	29799.2
693.383	29678.75
693.73	29826.32
694.077	29546.55
694.423	29496.84
694.769	29537.29
695.116	29433.11
695.462	29365.54
695.808	29435.6
696.155	29424.07
696.501	29140.01
696.847	29068.83
697.193	29025.44
697.539	29059.11
697.885	28851.88
698.231	28603.98
698.577	28820.02
698.923	28629.74
699.269	28633.81
699.614	28384.32
699.96	28393.82
700.306	28331.44
700.651	28313.14
700.997	28089.64
701.342	28100.26
701.688	28125.57
702.033	27989.31
702.379	27876.77
702.724	27902.3
703.069	27820.27
703.415	27492.82
703.76	27626.15
704.105	27540.73
704.45	27364.69
704.795	27221.19
705.14	27318.82
705.485	27091.02
705.83	27052.38
706.175	27190.01
706.52	27009.45
706.865	26958.15
707.209	26869.56
707.554	26723.13
707.899	26862.33
708.243	26711.15
708.588	26735.33
708.932	26512.74
709.277	26578.95
709.621	26418.5
709.966	26392.06
710.31	26387.77
710.654	26190.26
710.998	26239.3
711.342	26310.48
711.687	26160.2
712.031	25999.3
712.375	25929.47
712.719	25978.74
713.063	25981.22
713.407	26029.13
713.75	25790.72
714.094	25845.18
714.438	25707.78
714.782	25722.02
715.125	25539.65
715.469	25568.35
715.812	25277.97
716.156	25244.29
716.499	25266.67
716.843	25236.84
717.186	25179.66
717.53	25308.92
717.873	25246.1
718.216	25251.98
718.559	25054.92
718.902	24870.52
719.246	24905.55
719.589	24793.68
719.932	24700.13
720.275	24682.27
720.617	24839.33
720.96	24833.23
721.303	24755.72
721.646	24741.26
721.989	24588.49
722.331	24631.88
722.674	24537.42
723.016	24679.56
723.359	24469.85
723.701	24652.45
724.044	24457.2
724.386	24272.12
724.729	24441.6
725.071	24364.09
725.413	24326.58
725.755	24328.16
726.097	24085.91
726.439	23997.32
726.782	24086.58
727.124	24127.04
727.465	23962.97
727.807	23958.45
728.149	23963.88
728.491	23842.07
728.833	23920.71
729.175	23810.66
729.516	23694.28
729.858	23616.31
730.199	23652.02
730.541	23679.82
730.882	23573.6
731.224	23737.21
731.565	23456.77
731.906	23570.89
732.248	23575.41
732.589	23351.91
732.93	23280.73
733.271	23417
733.612	23330.45
733.953	23377.45
734.294	23240.5
734.635	23171.58
734.976	23119.6
735.317	23162.31
735.658	23084.35
735.999	23063.79
736.339	23064.24
736.68	23163.44
737.021	23049.55
737.361	22873.96
737.702	23094.75
738.042	22948.76
738.383	22862.21
738.723	22833.28
739.063	22763.68
739.404	22810.91
739.744	22790.12
740.084	22707.86
740.424	22743.57
740.764	22724.36
741.104	22827.41
741.444	22502.67
741.784	22497.02
742.124	22676.45
742.464	22585.61
742.804	22527.53
743.143	22416.35
743.483	22577.02
743.823	22352.62
744.162	22406.4
744.502	22416.12
744.841	22254.54
745.181	22450.24
745.52	22291.6
745.86	22279.85
746.199	22236.69
746.538	22172.51
746.877	22268.78
747.216	22205.5
747.556	22077.6
747.895	22111.27
748.234	21999.86
748.573	22032.4
748.911	21912.86
749.25	21868.11
749.589	21732.52
749.928	21650.04
750.267	21753.54
750.605	21598.97
750.944	21569.81
751.283	21580.66
751.621	21565.29
751.96	21495.24
752.298	21473.09
752.636	21345.64
752.975	21344.96
753.313	21292.31
753.651	21317.84
753.989	21185.87
754.327	21156.49
754.666	21083.05
755.004	21177.96
755.342	21088.7
755.679	21013.44
756.017	20882.37
756.355	21025.2
756.693	20872.21
757.031	20794.92
757.368	20797.63
757.706	20578.88
758.044	20585.21
758.381	20596.05
758.719	20474.93
759.056	20597.41
759.394	20372.56
759.731	20300.7
760.068	20333.24
760.405	20195.61
760.743	20067.93
761.08	20168.5
761.417	20013.24
761.754	19975.96
762.091	20045.11
762.428	19854.38
762.765	19799.01
763.102	19869.07
763.438	19686.47
763.775	19591.79
764.112	19634.72
764.449	19703.87
764.785	19502.75
765.122	19371.91
765.458	19321.29
765.795	19295.98
766.131	19309.53
766.467	19235.86
766.804	19187.28
767.14	19024.12
767.476	19173.72
767.812	18941.86
768.148	18882.43
768.485	18848.3
768.821	18653.96
769.157	18713.17
769.492	18626.61
769.828	18568.99
770.164	18530.57
770.5	18386.4
770.836	18392.27
771.171	18368.32
771.507	18302.78
771.842	18131.03
772.178	18195.44
772.513	18143.69
772.849	18092.17
773.184	17995.9
773.519	18006.07
773.855	17922.45
774.19	17783.93
774.525	17701.67
774.86	17689.46
775.195	17678.84
775.53	17622.57
775.865	17475.91
776.2	17324.95
776.535	17272.3
776.87	17248.35
777.205	17076.82
777.539	17040.67
777.874	17061.68
778.209	16919.99
778.543	16879.77
778.878	16841.35
779.212	16849.94
779.547	16705.54
779.881	16772.65
780.215	16621.7
780.55	16663.5
780.884	16589.83
781.218	16518.42
781.552	16521.36
781.886	16363.4
782.22	16188.49
782.554	16246.34
782.888	16002.95
783.222	16048.38
783.556	15889.96
783.889	15874.14
784.223	15910.08
784.557	15835.28
784.89	15824.2
785.224	15663.53
785.557	15654.94
785.891	15567.26
786.224	15588.73
786.558	15529.75
786.891	15375.4
787.224	15419.92
787.557	15303.31
787.891	15308.74
788.224	15305.8
788.557	15243.43
788.89	15202.75
789.223	15213.37
789.556	15111.23
789.888	14986.26
790.221	15068.52
790.554	14896.54
790.887	14825.36
791.219	14839.6
791.552	14717.56
791.884	14721.63
792.217	14723.21
792.549	14586.72
792.882	14484.35
793.214	14449.78
793.546	14514.41
793.879	14326.16
794.211	14254.98
794.543	14350.79
794.875	14304.92
795.207	14273.06
795.539	14248.65
795.871	14190.8
796.203	14043.91
796.535	13933.63
796.867	13941.31
797.198	13903.58
797.53	13882.11
797.862	13798.72
798.193	13826.74
798.525	13800.3
798.856	13713.3
799.188	13633.53
799.519	13585.62
799.85	13445.51
800.182	13444.38
800.513	13432.18
800.844	13383.36
801.175	13413.19
801.506	13341.78
801.837	13313.31
802.168	13226.53
802.499	13254.55
802.83	13178.17
803.161	13239.41
803.491	13175.01
803.822	13139.75
804.153	13028.57
804.483	12922.13
804.814	12922.81
805.145	12938.85
805.475	12817.95
805.805	12802.14
806.136	12779.99
806.466	12847.11
806.796	12748.8
807.126	12715.13
807.457	12648.69
807.787	12700.22
808.117	12581.35
808.447	12544.51
808.777	12565.31
809.107	12469.49
809.436	12506.55
809.766	12453.67
810.096	12309.04
810.426	12363.95
810.755	12300.91
811.085	12280.11
811.414	12193.11
811.744	12207.12
812.073	12193.34
812.403	12216.16
812.732	12120.8
813.061	12062.27
813.39	12049.84
813.719	11941.37
814.049	12044.19
814.378	11985.21
814.707	11876.96
815.036	11806.68
815.365	11815.95
815.693	11681.03
816.022	11770.98
816.351	11710.86
816.68	11614.82
817.008	11683.07
817.337	11612.11
817.665	11604.2
817.994	11574.14
818.322	11608.49
818.651	11409.63
818.979	11455.05
819.307	11491.89
819.636	11547.03
819.964	11384.77
820.292	11480.59
820.62	11383.87
820.948	11340.93
821.276	11424.54
821.604	11401.04
821.932	11450.98
822.259	11453.7
822.587	11458.67
822.915	11360.59
823.243	11443.53
823.57	11410.31
823.898	11391.32
824.225	11340.25
824.553	11368.27
824.88	11354.72
825.207	11460.7
825.535	11355.39
825.862	11439.69
826.189	11387.26
826.516	11382.96
826.843	11457.09
827.17	11366.01
827.497	11410.08
827.824	11270.42
828.151	11440.36
828.478	11364.88
828.805	11422.74
829.131	11358.78
829.458	11436.07
829.785	11318.11
830.111	11348.16
830.438	11380.48
830.764	11341.83
831.09	11365.34
831.417	11272.01
831.743	11377.09
832.069	11329.63
832.395	11211.89
832.722	11310.42
833.048	11194.95
833.374	11258.9
833.7	11254.61
834.026	11197.43
834.351	11286.69
834.677	11182.29
835.003	11264.55
835.329	11207.37
835.654	11240.14
835.98	11100.48
836.306	11210.09
836.631	11157.66
836.956	11167.6
837.282	11199.69
837.607	11025.01
837.932	11056.42
838.258	11046.25
838.583	10979.36
838.908	10957.21
839.233	10999.7
839.558	10999.7
839.883	10944.33
840.208	10941.85
840.533	11013.71
840.858	10996.76
841.182	10912.69
841.507	10947.49
841.832	10830.66
842.156	10846.71
842.481	10948.85
842.805	10813.49
843.13	10849.64
843.454	10812.58
843.778	10787.95
844.103	10770.78
844.427	10742.08
844.751	10733.71
845.075	10633.6
845.399	10660.95
845.723	10603.77
846.047	10603.55
846.371	10512.93
846.695	10578.01
847.019	10474.29
847.343	10410.79
847.666	10283.33
847.99	10280.62
848.313	10266.38
848.637	10161.07
848.96	10184.58
849.284	10168.08
849.607	10032.04
849.931	10025.26
850.254	10000.63
850.577	9979.38
850.9	9818.94
851.223	9797.69
851.546	9795.66
851.869	9754.98
852.192	9789.11
852.515	9713.18
852.838	9662.56
853.161	9651.26
853.483	9629.56
853.806	9575.55
854.129	9520.87
854.451	9527.19
854.774	9467.99
855.096	9468.66
855.419	9441.55
855.741	9410.36
856.063	9352.96
856.385	9371.04
856.708	9269.8
857.03	9254.43
857.352	9324.03
857.674	9232.29
857.996	9247.65
858.318	9170.14
858.64	9181.21
858.961	9142.8
859.283	9172.85
859.605	9103.02
859.926	9149.58
860.248	9113.64
860.57	9043.14
860.891	9065.96
861.212	9044.72
861.534	9009.47
861.855	8949.13
862.176	8998.62
862.498	8930.37
862.819	8937.15
863.14	8915.23
863.461	8920.66
863.782	8909.81
864.103	8832.97
864.424	8782.81
864.745	8808.57
865.065	8779.19
865.386	8741.9
865.707	8726.76
866.027	8773.77
866.348	8736.25
866.668	8664.84
866.989	8763.37
867.309	8692.86
867.63	8692.19
867.95	8716.37
868.27	8618.97
868.59	8590.95
868.91	8636.14
869.23	8599.31
869.55	8563.6
869.87	8585.07
870.19	8559.76
870.51	8587.33
870.83	8554.34
871.15	8498.97
871.469	8493.1
871.789	8470.05
872.109	8483.6
872.428	8414.23
872.748	8448.35
873.067	8424.85
873.386	8393.44
873.706	8413.1
874.025	8356.6
874.344	8297.85
874.663	8406.09
874.982	8390.5
875.301	8350.05
875.62	8337.62
875.939	8280.9
876.258	8303.5
876.577	8255.59
876.896	8302.37
877.214	8229.83
877.533	8286.77
877.852	8200.22
878.17	8216.72
878.489	8221.69
878.807	8136.72
879.125	8197.96
879.444	8176.95
879.762	8130.17
880.08	8131.07
880.398	8029.83
880.716	8109.83
881.034	8022.15
881.352	8068.47
881.67	8072.54
881.988	8033.9
882.306	8060.34
882.624	8036.84
882.941	7989.38
883.259	7981.02
883.577	7990.74
883.894	7913.45
884.212	7887.01
884.529	7900.12
884.846	7871.64
885.164	7873.9
885.481	7863.51
885.798	7846.56
886.115	7814.47
886.432	7744.64
886.75	7746.67
887.067	7793.91
887.383	7743.96
887.7	7738.31
888.017	7676.39
888.334	7656.28
888.651	7656.73
888.967	7675.94
889.284	7570.18
889.6	7640.24
889.917	7525.66
890.233	7468.26
890.55	7518.66
890.866	7420.13
891.182	7470.3
891.498	7486.79
891.815	7434.37
892.131	7403.41
892.447	7387.14
892.763	7329.06
893.079	7389.62
893.395	7300.81
893.71	7319.79
894.026	7273.47
894.342	7197.54
894.657	7191.21
894.973	7134.94
895.289	7224.43
895.604	7214.26
895.92	7127.71
896.235	7089.52
896.55	7097.65
896.865	7086.81
897.181	7072.34
897.496	7029.18
897.811	7011.78
898.126	6971.55
898.441	6897.43
898.756	6912.8
899.071	6954.15
899.386	6930.43
899.7	6841.61
900.015	6752.35
900.33	6820.37
900.644	6769.53
900.959	6763.88
901.273	6770.43
901.588	6670.09
901.902	6661.96
902.216	6699.47
902.531	6648.17
902.845	6616.54
903.159	6621.73
903.473	6565.91
903.787	6511.91
904.101	6498.12
904.415	6517.78
904.729	6515.29
905.042	6450.21
905.356	6425.13
905.67	6469.65
905.984	6418.35
906.297	6391.46
906.611	6357.33
906.924	6336.99
907.237	6271.01
907.551	6312.59
907.864	6260.16
908.177	6302.65
908.491	6257.22
908.804	6165.25
909.117	6182.2
909.43	6138.13
909.743	6122.31
910.056	6082.76
910.368	6060.17
910.681	6103.78
910.994	6028.75
911.307	5948.76
911.619	5940.17
911.932	5962.99
912.244	5887.97
912.557	5944.91
912.869	5872.37
913.181	5849.78
913.494	5857.01
913.806	5835.54
914.118	5783.34
914.43	5711.7
914.742	5743.34
915.054	5713.51
915.366	5679.84
915.678	5655.2
915.99	5645.04
916.302	5615.21
916.613	5578.37
916.925	5558.03
917.236	5561.87
917.548	5476.23
917.859	5476.45
918.171	5463.35
918.482	5441.42
918.794	5389.67
919.105	5376.12
919.416	5349
919.727	5348.09
920.038	5369.34
920.349	5305.16
920.66	5279.4
920.971	5298.6
921.282	5296.12
921.593	5195.1
921.903	5217.02
922.214	5176.35
922.525	5149.45
922.835	5178.61
923.146	5081.66
923.456	5106.52
923.767	5081.43
924.077	4994.43
924.387	5013.87
924.697	5017.26
925.008	5026.07
925.318	4964.6
925.628	4976.35
925.938	4956.01
926.248	4847.77
926.558	4896.81
926.867	4874.66
927.177	4913.53
927.487	4877.37
927.796	4757.83
928.106	4768.9
928.416	4773.65
928.725	4737.49
929.034	4706.08
929.344	4739.97
929.653	4695.23
929.962	4660.65
930.271	4672.18
930.581	4685.74
930.89	4581.33
931.199	4581.33
931.508	4560.09
931.817	4554.67
932.125	4524.84
932.434	4507.44
932.743	4503.6
933.051	4464.5
933.36	4433.09
933.669	4368.01
933.977	4382.24
934.286	4412.3
934.594	4351.96
934.902	4350.38
935.21	4314.45
935.519	4399.64
935.827	4305.64
936.135	4262.92
936.443	4300.44
936.751	4227.22
937.059	4223.83
937.367	4172.31
937.674	4175.24
937.982	4191.29
938.29	4235.58
938.597	4175.92
938.905	4132.53
939.213	4117.84
939.52	4121.23
939.827	4056.38
940.135	4066.32
940.442	4057.05
940.749	4041.69
941.056	4028.13
941.363	3968.24
941.67	4008.47
941.977	3989.94
942.284	3964.18
942.591	3965.31
942.898	3920.11
943.205	3966.44
943.511	3891.86
943.818	3903.61
944.125	3852.54
944.431	3851.41
944.738	3833.78
945.044	3800.79
945.35	3806.89
945.657	3780
945.963	3738.19
946.269	3771.86
946.575	3756.27
946.881	3721.7
947.187	3742.49
947.493	3696.61
947.799	3688.93
948.105	3641.02
948.41	3598.08
948.716	3627.01
949.022	3597.41
949.327	3585.43
949.633	3575.94
949.938	3571.64
950.244	3561.93
950.549	3528.93
950.854	3533.23
951.16	3535.26
951.465	3496.39
951.77	3492.78
952.075	3438.99
952.38	3458.2
952.685	3460.69
952.99	3384.3
953.294	3393.79
953.599	3377.52
953.904	3377.3
954.209	3344.3
954.513	3312.44
954.818	3336.4
955.122	3309.96
955.426	3284.19
955.731	3279.9
956.035	3309.5
956.339	3275.61
956.643	3206.46
956.948	3229.51
957.252	3187.92
957.556	3210.97
957.86	3201.03
958.163	3213.69
958.467	3164.2
958.771	3154.48
959.075	3161.94
959.378	3102.05
959.682	3166.68
959.985	3104.99
960.289	3083.52
960.592	3064.76
960.896	3081.03
961.199	3068.61
961.502	3025.9
961.805	2999.91
962.108	2992.45
962.411	2963.3
962.714	2928.04
963.017	2980.02
963.32	3009.62
963.623	2938.89
963.926	2921.72
964.228	2935.73
964.531	2901.38
964.833	2889.63
965.136	2836.07
965.438	2862.06
965.741	2866.8
966.043	2871.32
966.345	2839.01
966.648	2806.47
966.95	2828.61
967.252	2796.75
967.554	2797.88
967.856	2786.58
968.158	2745.45
968.46	2786.35
968.761	2769.63
969.063	2690.99
969.365	2679.92
969.666	2734.38
969.968	2712.68
970.269	2666.81
970.571	2690.76
970.872	2689.18
971.174	2646.47
971.475	2630.2
971.776	2637.2
972.077	2611.22
972.378	2645.79
972.679	2577.77
972.98	2566.02
973.281	2621.39
973.582	2568.96
973.883	2559.01
974.183	2554.27
974.484	2536.19
974.785	2506.13
975.085	2515.17
975.386	2508.85
975.686	2519.24
975.986	2453.71
976.287	2450.32
976.587	2468.85
976.887	2453.48
977.187	2459.58
977.487	2412.35
977.787	2423.2
978.087	2404.67
978.387	2393.82
978.687	2400.15
978.987	2411.67
979.286	2352.92
979.586	2378
979.885	2379.81
980.185	2363.31
980.484	2335.74
980.784	2321.28
981.083	2333.48
981.382	2312.92
981.682	2286.03
981.981	2242.64
982.28	2260.04
982.579	2235.18
982.878	2251.68
983.177	2236.31
983.475	2222.75
983.774	2202.41
984.073	2201.28
984.372	2166.48
984.67	2193.37
984.969	2187.72
985.267	2193.6
985.566	2169.42
985.864	2185.69
986.162	2151.57
986.461	2138.69
986.759	2141.62
987.057	2117.44
987.355	2078.58
987.653	2109.08
987.951	2097.56
988.249	2079.25
988.547	2078.35
988.844	2070.67
989.142	2055.98
989.44	2038.58
989.737	2036.99
990.035	2040.61
990.332	2013.27
990.63	2017.11
990.927	2014.4
991.224	1996.54
991.521	1954.06
991.819	1957.67
992.116	1976.66
992.413	1945.7
992.71	1951.35
993.006	1926.94
993.303	1956.54
993.6	1905.47
993.897	1903.44
994.193	1901.63
994.49	1876.32
994.787	1877.9
995.083	1868.64
995.379	1876.55
995.676	1848.52
995.972	1831.58
996.268	1832.71
996.565	1821.18
996.861	1801.29
997.157	1800.84
997.453	1797.68
997.749	1797.68
998.044	1798.36
998.34	1782.99
998.636	1784.12
998.932	1796.55
999.227	1770.11
999.523	1726.72
999.818	1764.69
1000.114	1735.53
1000.409	1701.86
1000.704	1703.44
1001	1711.13
1001.295	1702.54
1001.59	1687.85
1001.885	1681.3
1002.18	1680.17
1002.475	1668.87
1002.77	1653.5
1003.065	1631.58
1003.359	1640.85
1003.654	1606.72
1003.949	1606.5
1004.243	1621.41
1004.538	1588.64
1004.832	1607.63
1005.127	1581.19
1005.421	1584.8
1005.715	1553.84
1006.009	1560.4
1006.304	1558.81
1006.598	1552.49
1006.892	1503.9
1007.186	1520.85
1007.48	1512.49
1007.773	1505.93
1008.067	1495.99
1008.361	1473.17
1008.655	1473.39
1008.948	1487.63
1009.242	1474.3
1009.535	1455.77
1009.829	1444.24
1010.122	1409.67
1010.415	1440.85
1010.708	1418.03
1011.001	1427.07
1011.295	1393.85
1011.588	1423
1011.881	1376.22
1012.173	1397.69
1012.466	1391.81
1012.759	1363.11
1013.052	1386.39
1013.344	1325.83
1013.637	1348.42
1013.93	1352.72
1014.222	1349.55
1014.514	1340.29
1014.807	1330.8
1015.099	1314.08
1015.391	1297.13
1015.683	1293.06
1015.976	1281.53
1016.268	1277.47
1016.56	1270.69
1016.851	1253.06
1017.143	1249.9
1017.435	1238.37
1017.727	1203.34
1018.018	1252.16
1018.31	1216.23
1018.602	1228.43
1018.893	1209.22
1019.185	1221.42
1019.476	1216.9
1019.767	1201.99
1020.058	1187.3
1020.35	1192.72
1020.641	1177.36
1020.932	1169.9
1021.223	1163.8
1021.514	1149.79
1021.804	1109.56
1022.095	1150.69
1022.386	1134.65
1022.677	1122.67
1022.967	1096.91
1023.258	1117.47
1023.548	1108.88
1023.839	1085.61
1024.129	1096.68
1024.419	1103.91
1024.709	1058.72
1025	1075.21
1025.29	1051.48
1025.58	1073.4
1025.87	1074.31
1026.16	1031.15
1026.449	1026.4
1026.739	1025.5
1027.029	1006.51
1027.319	1021.43
1027.608	1014.87
1027.898	1000.86
1028.187	1008.32
1028.477	953.41
1028.766	978.94
1029.055	985.04
1029.344	971.94
1029.634	970.58
1029.923	978.94
1030.212	952.96
1030.501	959.28
1030.79	922.67
1031.078	950.47
1031.367	937.81
1031.656	928.1
1031.945	925.61
1032.233	921.77
1032.522	915.89
1032.81	913.18
1033.099	896.91
1033.387	881.77
1033.675	899.17
1033.963	900.3
1034.251	907.98
1034.54	862.11
1034.828	864.37
1035.116	861.88
1035.403	854.2
1035.691	859.85
1035.979	838.83
1036.267	839.74
1036.554	834.99
1036.842	831.83
1037.129	849.68
1037.417	800.87
1037.704	830.7
1037.992	806.52
1038.279	811.04
1038.566	834.77
1038.853	834.77
1039.14	834.77
