Data from foam1_polythene_foam_FLMS001491_00086.txt Node
Date: Wed Feb 08 10:55:31 GMT 2017
User: dcchb
Spectrometer: FLMS00149
Trigger mode: 0
Integration Time (sec): 2.000000E-2
Scans to average: 10
Electric dark correction enabled: true
Nonlinearity correction enabled: false
Boxcar width: 0
XAxis mode: Wavelengths
Number of Pixels in Spectrum: 2048
>>>>>Begin Spectral Data<<<<<
341.393	-13.81
341.776	-13.81
342.16	-13.81
342.543	-57.2
342.927	-57.65
343.31	-63.98
343.693	-56.98
344.077	-66.69
344.46	-80.93
344.843	-43.64
345.226	-52.68
345.61	-30.08
345.993	-16.52
346.376	-14.72
346.759	17.6
347.142	15.56
347.525	56.24
347.908	66.41
348.291	67.99
348.674	97.82
349.057	104.6
349.44	105.51
349.823	151.61
350.206	170.36
350.588	180.53
350.971	202
351.354	212.17
351.737	228.21
352.119	224.37
352.502	249
352.884	258.72
353.267	262.34
353.65	281.09
354.032	272.73
354.414	296.46
354.797	304.14
355.179	301.66
355.562	310.92
355.944	315.9
356.326	321.77
356.709	304.14
357.091	326.74
357.473	308.89
357.855	308.66
358.238	343.92
358.62	324.71
359.002	328.55
359.384	327.42
359.766	327.87
360.148	340.98
360.53	340.08
360.912	322.9
361.294	345.05
361.676	347.53
362.057	327.19
362.439	327.19
362.821	316.12
363.203	316.35
363.584	321.32
363.966	311.83
364.348	311.38
364.729	313.86
365.111	311.38
365.493	311.83
365.874	316.57
366.256	296.01
366.637	309.57
367.019	302.34
367.4	313.18
367.781	313.41
368.163	296.46
368.544	303.92
368.925	320.42
369.306	317.25
369.688	320.42
370.069	292.62
370.45	291.26
370.831	311.15
371.212	311.6
371.593	322.68
371.974	305.95
372.355	310.7
372.736	311.38
373.117	310.7
373.498	315.44
373.879	319.96
374.26	299.17
374.641	296.91
375.021	289.23
375.402	312.51
375.783	321.32
376.163	317.03
376.544	313.18
376.925	326.97
377.305	315.67
377.686	342.56
378.066	321.09
378.447	323.35
378.827	315.22
379.208	331.04
379.588	341.66
379.968	320.64
380.349	334.2
380.729	338.04
381.109	310.02
381.489	335.56
381.87	325.61
382.25	349.79
382.63	327.42
383.01	341.66
383.39	355.22
383.77	344.6
384.15	334.88
384.53	359.51
384.91	339.62
385.29	343.24
385.67	323.13
386.049	322.68
386.429	354.76
386.809	334.43
387.189	353.18
387.568	342.56
387.948	356.35
388.328	354.76
388.707	348.89
389.087	369.23
389.466	363.13
389.846	366.52
390.225	367.19
390.605	368.78
390.984	354.76
391.363	366.29
391.743	365.16
392.122	354.76
392.501	376.91
392.881	377.14
393.26	384.59
393.639	363.58
394.018	362.22
394.397	382.11
394.776	376.23
395.155	404.03
395.534	374.88
395.913	398.61
396.292	392.96
396.671	400.64
397.05	383.69
397.429	381.66
397.808	386.18
398.186	403.58
398.565	418.72
398.944	402
399.323	378.72
399.701	400.87
400.08	390.02
400.458	401.32
400.837	406.06
401.215	409.23
401.594	404.03
401.972	397.93
402.351	393.63
402.729	410.58
403.107	422.56
403.486	409.68
403.864	417.59
404.242	414.65
404.62	432.28
404.999	410.81
405.377	401.32
405.755	433.41
406.133	437.93
406.511	425.72
406.889	446.97
407.267	424.37
407.645	437.93
408.023	429.11
408.401	444.48
408.779	454.65
409.156	445.38
409.534	456.68
409.912	458.72
410.29	465.04
410.667	448.55
411.045	481.54
411.422	482.44
411.8	458.94
412.178	464.37
412.555	485.61
412.933	470.92
413.31	470.47
413.687	467.98
414.065	496.46
414.442	479.96
414.819	506.17
415.197	487.19
415.574	503.01
415.951	519.28
416.328	497.36
416.705	499.62
417.082	507.53
417.46	498.49
417.837	527.87
418.214	515.66
418.591	524.93
418.967	548.66
419.344	543.46
419.721	527.64
420.098	525.16
420.475	547.75
420.852	560.41
421.228	561.54
421.605	552.5
421.982	540.97
422.358	562.89
422.735	587.07
423.111	557.02
423.488	553.4
423.864	571.71
424.241	596.11
424.617	598.6
424.994	591.82
425.37	583.01
425.746	589.11
426.123	606.74
426.499	572.16
426.875	620.29
427.251	610.13
427.627	634.76
428.003	631.82
428.379	633.63
428.756	613.51
429.132	635.21
429.507	631.59
429.883	647.41
430.259	636.79
430.635	654.42
431.011	664.59
431.387	668.65
431.763	664.81
432.138	672.04
432.514	697.58
432.89	673.4
433.265	698.48
433.641	710.01
434.016	721.76
434.392	717.24
434.767	727.18
435.143	738.94
435.518	724.7
435.894	754.08
436.269	737.35
436.644	755.66
437.02	765.6
437.395	778.93
437.77	784.81
438.145	779.61
438.52	779.84
438.895	782.1
439.271	780.06
439.646	820.52
440.021	804.02
440.395	800.63
440.77	833.4
441.145	806.28
441.52	844.92
441.895	826.84
442.27	839.72
442.645	832.27
443.019	869.1
443.394	851.02
443.769	867.52
444.143	874.75
444.518	920.85
444.892	912.26
445.267	888.76
445.641	926.5
446.016	928.99
446.39	927.86
446.764	928.76
447.139	908.87
447.513	958.14
447.887	951.36
448.262	949.33
448.636	964.69
449.01	966.05
449.384	975.77
449.758	958.14
450.132	978.25
450.506	980.28
450.88	972.15
451.254	990.45
451.628	1024.58
452.002	1000.62
452.376	1004.47
452.75	1023.9
453.123	1018.7
453.497	1037.23
453.871	1057.35
454.244	1080.62
454.618	1074.07
454.992	1104.12
455.365	1064.58
455.739	1114.07
456.112	1107.29
456.486	1126.95
456.859	1125.14
457.232	1148.64
457.606	1130.56
457.979	1154.97
458.352	1130.79
458.725	1145.25
459.099	1200.39
459.472	1200.84
459.845	1197.68
460.218	1215.76
460.591	1215.31
460.964	1196.55
461.337	1209.43
461.71	1229.54
462.083	1273.16
462.456	1250.11
462.829	1237.68
463.201	1281.52
463.574	1268.86
463.947	1313.61
464.32	1315.64
464.692	1315.19
465.065	1342.54
465.438	1382.31
465.81	1342.31
466.183	1380.27
466.555	1408.52
466.928	1390.9
467.3	1405.81
467.672	1429.09
468.045	1445.36
468.417	1441.29
468.789	1458.92
469.161	1474.06
469.534	1444
469.906	1511.57
470.278	1485.81
470.65	1542.98
471.022	1547.05
471.394	1594.28
471.766	1575.3
472.138	1607.16
472.51	1606.03
472.882	1652.58
473.253	1646.03
473.625	1664.79
473.997	1714.28
474.369	1738.46
474.74	1731.45
475.112	1718.57
475.484	1775.07
475.855	1824.33
476.227	1839.25
476.598	1833.82
476.97	1869.3
477.341	1936.42
477.713	1914.05
478.084	1942.29
478.455	1974.61
478.827	2026.59
479.198	2056.19
479.569	2065.45
479.94	2114.04
480.311	2097.54
480.682	2156.3
481.053	2200.59
481.424	2222.29
481.795	2267.93
482.166	2284.88
482.537	2289.86
482.908	2327.82
483.279	2360.36
483.65	2396.74
484.021	2431.77
484.391	2458.21
484.762	2509.74
485.133	2512.22
485.503	2566.68
485.874	2566.01
486.244	2583.18
486.615	2662.73
486.985	2700.01
487.356	2735.27
487.726	2759.22
488.097	2803.74
488.467	2754.48
488.837	2849.16
489.207	2882.83
489.578	2930.06
489.948	2971.65
490.318	3017.97
490.688	3030.63
491.058	3091.19
491.428	3065.65
491.798	3094.81
492.168	3189.04
492.538	3173
492.908	3222.03
493.278	3276.27
493.648	3265.42
494.017	3346.55
494.387	3329.15
494.757	3390.84
495.126	3396.27
495.496	3385.87
495.866	3450.95
496.235	3468.13
496.605	3510.61
496.974	3521.24
497.344	3555.13
497.713	3575.7
498.082	3601.68
498.452	3608.01
498.821	3677.39
499.19	3737.5
499.559	3739.76
499.928	3760.32
500.298	3778.63
500.667	3777.73
501.036	3809.82
501.405	3824.5
501.774	3822.02
502.143	3873.54
502.512	3878.29
502.88	3948.57
503.249	3992.64
503.618	4004.16
503.987	4049.58
504.356	4056.36
504.724	4118.28
505.093	4104.95
505.462	4069.7
505.83	4087.55
506.199	4098.4
506.567	4164.83
506.936	4162.12
507.304	4249.58
507.672	4302.01
508.041	4341.78
508.409	4360.08
508.777	4399.86
509.145	4409.12
509.514	4396.47
509.882	4432.85
510.25	4487.09
510.618	4451.38
510.986	4463.13
511.354	4550.59
511.722	4546.97
512.09	4603.01
512.458	4659.74
512.826	4693.86
513.193	4699.74
513.561	4750.36
513.929	4772.28
514.297	4826.29
514.664	4802.78
515.032	4873.06
515.4	4891.37
515.767	4932.05
516.135	4956
516.502	4890.92
516.869	5023.34
517.237	5050.69
517.604	5012.95
517.972	5134.75
518.339	5186.95
518.706	5252.04
519.073	5233.73
519.44	5289.1
519.808	5351.92
520.175	5332.94
520.542	5364.58
520.909	5382.43
521.276	5355.31
521.643	5447.29
522.009	5451.81
522.376	5522.09
522.743	5619.71
523.11	5646.83
523.477	5693.83
523.843	5744.45
524.21	5848.18
524.577	5868.74
524.943	5864.22
525.31	5897.9
525.676	5928.4
526.043	5960.27
526.409	5972.02
526.776	6041.85
527.142	6060.83
527.508	6086.59
527.874	6124.1
528.241	6240.49
528.607	6313.03
528.973	6348.05
529.339	6358.9
529.705	6390.76
530.071	6392.8
530.437	6492.46
530.803	6466.02
531.169	6508.95
531.535	6499.24
531.901	6493.81
532.267	6582.17
532.632	6600.02
532.998	6630.76
533.364	6684.09
533.73	6737.87
534.095	6823.07
534.461	6856.74
534.826	6895.61
535.192	6885.44
535.557	6886.34
535.923	6939.9
536.288	6909.85
536.653	7000.01
537.019	6926.12
537.384	7006.34
537.749	7008.15
538.114	7060.58
538.479	7095.15
538.845	7178.31
539.21	7161.82
539.575	7234.58
539.94	7246.56
540.305	7302.38
540.67	7263.06
541.034	7270.29
541.399	7331.08
541.764	7363.39
542.129	7364.52
542.494	7414.92
542.858	7380.12
543.223	7410.4
543.587	7482.03
543.952	7511.19
544.316	7517.06
544.681	7530.4
545.045	7658.3
545.41	7682.26
545.774	7667.57
546.138	7689.94
546.503	7696.72
546.867	7667.79
547.231	7747.56
547.595	7751.41
547.959	7814.91
548.324	7743.04
548.688	7865.53
549.052	7837.28
549.416	7901.01
549.779	7951.85
550.143	7933.55
550.507	8011.29
550.871	8077.05
551.235	8085.41
551.599	8154.11
551.962	8212.19
552.326	8172.41
552.689	8259.64
553.053	8193.88
553.417	8221
553.78	8261.68
554.143	8246.08
554.507	8337.38
554.87	8300.09
555.234	8423.48
555.597	8412.86
555.96	8451.95
556.323	8546.64
556.686	8610.59
557.05	8641.78
557.413	8673.42
557.776	8709.35
558.139	8675.45
558.502	8695.79
558.865	8658.73
559.228	8790.25
559.59	8810.14
559.953	8787.09
560.316	8900.3
560.679	8873.18
561.041	8944.6
561.404	9066.17
561.767	9196.79
562.129	9069.34
562.492	9261.88
562.854	9232.72
563.217	9180.52
563.579	9282.44
563.941	9310.46
564.304	9333.29
564.666	9354.08
565.028	9361.08
565.39	9333.29
565.753	9462.55
566.115	9487.41
566.477	9622.09
566.839	9615.09
567.201	9698.7
567.563	9684.24
567.925	9758.81
568.287	9835.42
568.648	9833.16
569.01	9895.53
569.372	9879.03
569.734	9903.89
570.095	9965.36
570.457	9935.98
570.819	10023.89
571.18	10053.04
571.542	10079.48
571.903	10034.51
572.265	10081.97
572.626	10128.29
572.987	10123.1
573.349	10165.13
573.71	10293.49
574.071	10292.81
574.432	10322.41
574.794	10414.39
575.155	10434.27
575.516	10460.94
575.877	10436.31
576.238	10454.16
576.599	10476.31
576.96	10355.18
577.32	10414.84
577.681	10462.75
578.042	10505.23
578.403	10474.27
578.763	10485.35
579.124	10534.84
579.485	10597.43
579.845	10674.72
580.206	10655.51
580.566	10673.14
580.927	10688.5
581.287	10680.82
581.648	10666.13
582.008	10808.95
582.368	10641.95
582.728	10662.52
583.089	10642.86
583.449	10667.94
583.809	10656.19
584.169	10722.4
584.529	10650.99
584.889	10822.51
585.249	10763.53
585.609	10655.96
585.969	10850.76
586.329	10835.62
586.688	10753.59
587.048	10781.84
587.408	10772.34
587.768	10756.75
588.127	10778.9
588.487	10713.59
588.846	10824.32
589.206	10668.17
589.565	10692.35
589.925	10700.48
590.284	10759.91
590.643	10729.18
591.003	10760.14
591.362	10728.05
591.721	10832.23
592.08	10772.57
592.44	10864.09
592.799	10903.19
593.158	10906.35
593.517	10839.46
593.876	10858.67
594.235	10865
594.593	10937.99
594.952	10921.04
595.311	10850.76
595.67	10823.64
596.029	10848.73
596.387	10783.42
596.746	10836.97
597.104	10793.36
597.463	10807.82
597.822	10932.11
598.18	10808.28
598.538	10881.27
598.897	10924.88
599.255	10874.04
599.613	11027.03
599.972	10959.01
600.33	10988.61
600.688	10919.01
601.046	10970.08
601.404	11029.51
601.762	10918.78
602.12	11070.64
602.478	10940.25
602.836	11020.7
603.194	10907.03
603.552	10862.96
603.91	10877.43
604.268	10959.23
604.625	10947.25
604.983	11029.51
605.341	10934.37
605.698	11001.49
606.056	11046.01
606.413	11069.29
606.771	11101.6
607.128	11120.36
607.485	11088.72
607.843	11188.15
608.2	11156.06
608.557	11188.83
608.914	11066.12
609.272	11053.47
609.629	11029.51
609.986	11098.21
610.343	11148.38
610.7	11163.29
611.057	11157.64
611.414	11200.13
611.771	11215.04
612.127	11255.5
612.484	11283.06
612.841	11327.36
613.198	11316.74
613.554	11278.77
613.911	11339.11
614.267	11362.16
614.624	11246.91
614.98	11230.64
615.337	11391.76
615.693	11340.01
616.05	11267.47
616.406	11384.31
616.762	11300.47
617.118	11286.45
617.475	11307.92
617.831	11318.54
618.187	11348.37
618.543	11398.09
618.899	11509.05
619.255	11463.4
619.611	11428.6
619.967	11507.69
620.323	11546.56
620.678	11450.29
621.034	11447.58
621.39	11489.61
621.746	11435.15
622.101	11606.67
622.457	11436.73
622.812	11439.22
623.168	11487.81
623.523	11412.55
623.879	11383.4
624.234	11363.97
624.589	11455.72
624.945	11358.77
625.3	11352.44
625.655	11377.75
626.01	11386.79
626.365	11465.21
626.72	11481.93
627.075	11413.68
627.43	11426.34
627.785	11474.02
628.14	11412.1
628.495	11517.41
628.85	11441.03
629.205	11386.79
629.559	11391.08
629.914	11410.29
630.269	11382.72
630.623	11270.18
630.978	11246.23
631.332	11391.54
631.687	11367.58
632.041	11245.33
632.396	11276.74
632.75	11214.82
633.104	11277.19
633.459	11185.89
633.813	11273.35
634.167	11210.75
634.521	11203.97
634.875	11270.86
635.229	11282.84
635.583	11168.27
635.937	11266.34
636.291	11207.59
636.645	11154.48
636.999	11075.39
637.352	11192.67
637.706	11047.82
638.06	11138.21
638.413	11006.46
638.767	11006.24
639.121	11027.25
639.474	10988.84
639.828	10882.85
640.181	10899.12
640.534	10920.81
640.888	10940.48
641.241	10869.29
641.594	10839.69
641.947	10997.65
642.301	11034.26
642.654	10922.85
643.007	10973.47
643.36	10942.96
643.713	10916.29
644.066	10929.18
644.419	10905.67
644.771	10767.82
645.124	10657.77
645.477	10678.11
645.83	10554.27
646.182	10539.81
646.535	10357.67
646.888	10395.86
647.24	10375.74
647.593	10452.13
647.945	10399.47
648.298	10366.93
648.65	10274.28
649.002	10283.09
649.355	10331.23
649.707	10361.06
650.059	10452.58
650.411	10481.96
650.763	10573.03
651.115	10681.72
651.467	10641.73
651.819	10648.28
652.171	10592.46
652.523	10652.57
652.875	10568.51
653.227	10544.55
653.578	10568.51
653.93	10536.64
654.282	10457.55
654.633	10428.85
654.985	10388.85
655.337	10352.24
655.688	10418.68
656.039	10443.76
656.391	10374.61
656.742	10379.59
657.094	10340.94
657.445	10389.76
657.796	10342.75
658.147	10348.85
658.498	10368.96
658.849	10433.6
659.2	10467.72
659.551	10375.52
659.902	10580.71
660.253	10427.72
660.604	10478.11
660.955	10312.02
661.306	10356.31
661.656	10367.83
662.007	10380.04
662.358	10342.75
662.708	10321.06
663.059	10263.2
663.409	10189.76
663.76	10239.93
664.11	10178.46
664.461	10182.98
664.811	10196.09
665.161	10181.62
665.511	10124.23
665.862	10189.31
666.212	10208.06
666.562	10239.25
666.912	10291.68
667.262	10254.84
667.612	10234.96
667.962	10298.68
668.312	10254.17
668.662	10259.36
669.011	10295.29
669.361	10204.9
669.711	10259.36
670.06	10232.92
670.41	10191.57
670.76	10057.33
671.109	10217.33
671.459	10121.97
671.808	10107.5
672.157	10111.8
672.507	9998.35
672.856	10073.83
673.205	10042.19
673.554	10062.08
673.904	10008.07
674.253	10077.22
674.602	10013.04
674.951	9894.63
675.3	9904.57
675.649	10039.26
675.998	10070.44
676.346	10064.79
676.695	10153.15
677.044	10087.39
677.393	10063.89
677.741	10103.21
678.09	10111.57
678.438	10020.95
678.787	10136.43
679.135	10067.96
679.484	9939.6
679.832	9943.44
680.181	9889.66
680.529	9953.83
680.877	9781.86
681.225	9862.76
681.573	9831.8
681.922	9734.18
682.27	9698.93
682.618	9761.07
682.966	9762.88
683.314	9723.11
683.661	9745.7
684.009	9740.51
684.357	9718.59
684.705	9672.26
685.053	9756.55
685.4	9773.5
685.748	9674.97
686.095	9712.26
686.443	9620.74
686.79	9699.38
687.138	9625.48
687.485	9666.16
687.832	9630.68
688.18	9619.83
688.527	9543.45
688.874	9538.03
689.221	9440.18
689.568	9429.1
689.915	9495.09
690.262	9365.38
690.609	9301.2
690.956	9286.28
691.303	9269.78
691.65	9304.36
691.997	9285.15
692.344	9150.69
692.69	9208.54
693.037	9226.62
693.383	9091.71
693.73	9150.01
694.077	9155.89
694.423	9164.48
694.769	9170.35
695.116	9155.21
695.462	9154.53
695.808	9166.06
696.155	9114.99
696.501	9089
696.847	9031.82
697.193	8962.9
697.539	8999.96
697.885	8956.35
698.231	8865.28
698.577	8830.47
698.923	8777.82
699.269	8773.07
699.614	8727.65
699.96	8702.79
700.306	8677.71
700.651	8672.06
700.997	8625.06
701.342	8586.64
701.688	8611.04
702.033	8550.26
702.379	8603.59
702.724	8551.39
703.069	8641.55
703.415	8527.88
703.76	8538.96
704.105	8556.58
704.45	8574.21
704.795	8565.4
705.14	8496.92
705.485	8540.76
705.83	8482.46
706.175	8510.48
706.52	8453.08
706.865	8403.82
707.209	8429.35
707.554	8406.53
707.899	8355.01
708.243	8295.35
708.588	8210.38
708.932	8125.18
709.277	8136.25
709.621	8123.37
709.966	8064.17
710.31	8135.35
710.654	8006.09
710.998	8004.51
711.342	8027.56
711.687	8039.99
712.031	7995.02
712.375	8009.03
712.719	8029.59
713.063	8028.69
713.407	8044.28
713.75	8005.18
714.094	8030.04
714.438	8021.91
714.782	7994.11
715.125	7986.65
715.469	8007.44
715.812	7985.98
716.156	7885.87
716.499	7938.97
716.843	7869.6
717.186	7826.43
717.53	7899.43
717.873	7838.86
718.216	7844.06
718.559	7723.61
718.902	7696.27
719.246	7686.55
719.589	7662.14
719.932	7583.95
720.275	7617.85
720.617	7581.92
720.96	7616.04
721.303	7554.12
721.646	7571.75
721.989	7523.62
722.331	7595.48
722.674	7490.85
723.016	7590.28
723.359	7608.81
723.701	7610.62
724.044	7547.57
724.386	7535.82
724.729	7584.63
725.071	7552.54
725.413	7588.02
725.755	7607.46
726.097	7512.09
726.439	7559.32
726.782	7547.57
727.124	7532.43
727.465	7436.39
727.807	7419.44
728.149	7373.11
728.491	7399.1
728.833	7360.68
729.175	7275.94
729.516	7256.5
729.858	7285.43
730.199	7232.32
730.541	7206.79
730.882	7219.89
731.224	7157.3
731.565	7175.6
731.906	7212.21
732.248	7211.76
732.589	7190.74
732.93	7249.27
733.271	7217.18
733.612	7289.95
733.953	7206.34
734.294	7193.23
734.635	7252.21
734.976	7221.02
735.317	7258.76
735.658	7239.78
735.999	7192.33
736.339	7226.9
736.68	7245.43
737.021	7112.33
737.361	7082.5
737.702	7130.86
738.042	7095.38
738.383	7129.28
738.723	7037.07
739.063	6985.1
739.404	7004.08
739.744	6968.6
740.084	6939.22
740.424	6904.65
740.764	6913.24
741.104	6912.11
741.444	6903.75
741.784	6879.79
742.124	6908.94
742.464	6883.18
742.804	6897.42
743.143	6903.07
743.483	6907.59
743.823	6864.65
744.162	6908.49
744.502	6857.64
744.841	6913.91
745.181	6934.7
745.52	6955.04
745.86	6943.29
746.199	6900.36
746.538	6864.42
746.877	6927.7
747.216	6866.01
747.556	6856.97
747.895	6822.39
748.234	6804.54
748.573	6731.55
748.911	6739.23
749.25	6682.73
749.589	6617.65
749.928	6697.42
750.267	6679.57
750.605	6658.33
750.944	6633.02
751.283	6565
751.621	6572.45
751.96	6546.01
752.298	6536.3
752.636	6560.25
752.975	6528.84
753.313	6512.79
753.651	6551.66
753.989	6477.32
754.327	6535.62
754.666	6478.9
755.004	6518.44
755.342	6478.45
755.679	6573.36
756.017	6492.68
756.355	6535.85
756.693	6481.84
757.031	6501.04
757.368	6483.19
757.706	6484.77
758.044	6409.75
758.381	6469.18
758.719	6392.8
759.056	6426.47
759.394	6361.61
759.731	6315.96
760.068	6295.85
760.405	6268.28
760.743	6227.6
761.08	6239.81
761.417	6180.6
761.754	6146.48
762.091	6128.62
762.428	6129.98
762.765	6061.51
763.102	6042.3
763.438	6043.65
763.775	6034.16
764.112	6046.59
764.449	6037.1
764.785	6021.73
765.122	6000.49
765.458	5986.71
765.795	5961.4
766.131	5985.58
766.467	5961.85
766.804	5939.25
767.14	5902.64
767.476	5991.68
767.812	5937.67
768.148	5916.88
768.485	5890.89
768.821	5844.79
769.157	5898.35
769.492	5805.92
769.828	5864.22
770.164	5805.02
770.5	5776.99
770.836	5733.15
771.171	5687.28
771.507	5658.81
771.842	5629.43
772.178	5581.97
772.513	5588.98
772.849	5544.01
773.184	5561.63
773.519	5585.36
773.855	5542.88
774.19	5504.01
774.525	5453.61
774.86	5412.71
775.195	5456.33
775.53	5446.83
775.865	5405.93
776.2	5367.29
776.535	5371.58
776.87	5404.58
777.205	5338.59
777.539	5399.83
777.874	5331.36
778.209	5308.76
778.543	5310.79
778.878	5324.8
779.212	5297.23
779.547	5278.93
779.881	5303.11
780.215	5247.74
780.55	5272.15
780.884	5173.62
781.218	5222.66
781.552	5170.68
781.886	5143.57
782.22	5182.21
782.554	5093.85
782.888	5058.37
783.222	5067.41
783.556	5016.79
783.889	4977.24
784.223	4926.4
784.557	4951.03
784.89	4939.28
785.224	4902.44
785.557	4887.07
785.891	4937.7
786.224	4840.3
786.558	4867.41
786.891	4854.31
787.224	4781.77
787.557	4796.46
787.891	4781.31
788.224	4820.86
788.557	4805.5
788.89	4793.74
789.223	4763.91
789.556	4752.62
789.888	4746.06
790.221	4716.91
790.554	4709.45
790.887	4741.32
791.219	4634.65
791.552	4710.81
791.884	4701.09
792.217	4619.96
792.549	4664.71
792.882	4622.9
793.214	4589.91
793.546	4620.19
793.879	4535.22
794.211	4522.11
794.543	4556.01
794.875	4506.52
795.207	4545.16
795.539	4490.48
795.871	4469.91
796.203	4405.51
796.535	4451.83
796.867	4392.62
797.198	4444.83
797.53	4338.84
797.862	4335
798.193	4285.73
798.525	4322.57
798.856	4323.02
799.188	4313.98
799.519	4304.72
799.85	4276.47
800.182	4258.39
800.513	4267.2
800.844	4293.42
801.175	4249.8
801.506	4295
801.837	4260.65
802.168	4200.31
802.499	4234.89
802.83	4254.78
803.161	4231.72
803.491	4236.24
803.822	4261.78
804.153	4193.76
804.483	4166.64
804.814	4212.29
805.145	4130.71
805.475	4180.65
805.805	4168.9
806.136	4114.89
806.466	4143.82
806.796	4105.4
807.126	4052.29
807.457	4056.36
807.787	4062.24
808.117	4011.84
808.447	3995.35
808.777	3991.51
809.107	3988.34
809.436	3942.24
809.766	3937.95
810.096	3938.85
810.426	3949.92
810.755	3929.36
811.085	3927.33
811.414	3914.9
811.744	3919.87
812.073	3875.35
812.403	3878.97
812.732	3912.19
813.061	3889.14
813.39	3883.71
813.719	3885.29
814.049	3886.65
814.378	3885.75
814.707	3855.01
815.036	3828.35
815.365	3840.1
815.693	3819.98
816.022	3786.31
816.351	3790.61
816.68	3837.38
817.008	3804.84
817.337	3785.86
817.665	3765.75
817.994	3752.19
818.322	3736.14
818.651	3732.53
818.979	3763.94
819.307	3747.22
819.636	3746.09
819.964	3693.43
820.292	3709.93
820.62	3704.51
820.948	3696.37
821.276	3644.4
821.604	3680.1
821.932	3631.51
822.259	3634.68
822.587	3686.2
822.915	3644.4
823.243	3652.31
823.57	3644.4
823.898	3625.87
824.225	3641.91
824.553	3665.64
824.88	3682.36
825.207	3676.03
825.535	3672.19
825.862	3670.16
826.189	3620.22
826.516	3645.75
826.843	3679.87
827.17	3666.77
827.497	3697.28
827.824	3649.14
828.151	3658.86
828.478	3696.15
828.805	3706.99
829.131	3709.03
829.458	3725.3
829.785	3688.69
830.111	3706.77
830.438	3749.03
830.764	3690.95
831.09	3738.18
831.417	3656.82
831.743	3699.31
832.069	3648.24
832.395	3645.75
832.722	3667.9
833.048	3656.37
833.374	3641.68
833.7	3659.76
834.026	3617.28
834.351	3630.61
834.677	3607.56
835.003	3612.08
835.329	3632.19
835.654	3566.21
835.98	3576.83
836.306	3571.4
836.631	3595.58
836.956	3544.96
837.282	3579.54
837.607	3535.47
837.932	3526.66
838.258	3532.76
838.583	3556.04
838.908	3506.55
839.233	3536.15
839.558	3527.79
839.883	3510.16
840.208	3521.24
840.533	3542.03
840.858	3523.04
841.182	3518.75
841.507	3562.59
841.832	3556.26
842.156	3539.54
842.481	3529.6
842.805	3517.85
843.13	3499.09
843.454	3498.41
843.778	3507.68
844.103	3502.03
844.427	3470.16
844.751	3450.73
845.075	3436.94
845.399	3442.37
845.723	3459.09
846.047	3423.84
846.371	3387.68
846.695	3372.76
847.019	3358.53
847.343	3322.82
847.666	3291.41
847.99	3310.39
848.313	3316.72
848.637	3288.7
848.96	3247.57
849.284	3264.07
849.607	3222.49
849.931	3236.5
850.254	3231.75
850.577	3202.6
850.9	3194.69
851.223	3144.07
851.546	3192.43
851.869	3154.24
852.192	3143.39
852.515	3149.04
852.838	3122.38
853.161	3112.66
853.483	3169.15
853.806	3079.66
854.129	3119.66
854.451	3123.73
854.774	3115.37
855.096	3114.24
855.419	3089.83
855.741	3085.99
856.063	3126.22
856.385	3074.47
856.708	3084.41
857.03	3102.94
857.352	3049.61
857.674	3071.08
857.996	3029.72
858.318	3041.7
858.64	3001.25
858.961	3007.58
859.283	3017.97
859.605	3003.28
859.926	3016.16
860.248	3006.45
860.57	2956.5
860.891	2956.96
861.212	2945.66
861.534	2936.62
861.855	2944.08
862.176	2906.11
862.498	2935.04
862.819	2932.78
863.14	2901.82
863.461	2904.75
863.782	2861.14
864.103	2883.74
864.424	2830.63
864.745	2875.15
865.065	2847.35
865.386	2838.09
865.707	2835.38
866.027	2824.76
866.348	2836.28
866.668	2862.04
866.989	2800.35
867.309	2851.65
867.63	2834.02
867.95	2812.1
868.27	2820.46
868.59	2818.88
868.91	2806.9
869.23	2829.95
869.55	2806.9
869.87	2825.66
870.19	2825.43
870.51	2815.72
870.83	2808.71
871.15	2776.4
871.469	2806.68
871.789	2827.92
872.109	2759.45
872.428	2778.43
872.748	2811.2
873.067	2807.13
873.386	2768.71
873.706	2775.94
874.025	2780.92
874.344	2792.21
874.663	2756.96
874.982	2791.76
875.301	2757.41
875.62	2721.48
875.939	2744.08
876.258	2758.32
876.577	2710.18
876.896	2674.03
877.214	2665.21
877.533	2688.04
877.852	2713.8
878.17	2687.13
878.489	2693.69
878.807	2659.11
879.125	2673.57
879.444	2709.28
879.762	2676.06
880.08	2693.91
880.398	2636.51
880.716	2677.87
881.034	2646.23
881.352	2645.33
881.67	2650.75
881.988	2633.57
882.306	2636.74
882.624	2650.98
882.941	2616.63
883.259	2602.84
883.577	2626.34
883.894	2640.35
884.212	2613.24
884.529	2653.46
884.846	2619.11
885.164	2600.36
885.481	2627.93
885.798	2646.23
886.115	2607.81
886.432	2594.48
886.75	2606.68
887.067	2597.42
887.383	2602.84
887.7	2597.42
888.017	2597.64
888.334	2562.84
888.651	2559.9
888.967	2533.69
889.284	2576.63
889.6	2520.81
889.917	2496.86
890.233	2550.41
890.55	2519.45
890.866	2486.01
891.182	2497.08
891.498	2513.8
891.815	2464.54
892.131	2467.48
892.447	2464.77
892.763	2438.33
893.079	2455.27
893.395	2479.91
893.71	2446.24
894.026	2417.99
894.342	2401.94
894.657	2406.01
894.973	2382.51
895.289	2383.41
895.604	2393.58
895.92	2387.93
896.235	2310.65
896.55	2343.19
896.865	2381.15
897.181	2340.25
897.496	2353.81
897.811	2372.79
898.126	2375.05
898.441	2358.1
898.756	2358.55
899.071	2338.67
899.386	2321.49
899.7	2326.24
900.015	2342.96
900.33	2331.89
900.644	2300.7
900.959	2342.28
901.273	2285.79
901.588	2308.16
901.902	2274.94
902.216	2319.91
902.531	2307.93
902.845	2283.75
903.159	2283.75
903.473	2275.84
903.787	2269.74
904.101	2276.75
904.415	2237.88
904.729	2215.28
905.042	2212.79
905.356	2191.33
905.67	2187.26
905.984	2177.77
906.297	2186.58
906.611	2193.13
906.924	2152.46
907.237	2155.85
907.551	2165.11
907.864	2162.4
908.177	2112.46
908.491	2108.16
908.804	2114.27
909.117	2096.41
909.43	2110.42
909.743	2098.67
910.056	2086.24
910.368	2065
910.681	2077.21
910.994	2051.22
911.307	2034.72
911.619	2062.52
911.932	2061.16
912.244	2018.9
912.557	2038.34
912.869	2019.13
913.181	2025
913.494	1994.5
913.806	1988.17
914.118	1996.3
914.43	2015.29
914.742	2008.51
915.054	1985.91
915.366	1981.84
915.678	1964.44
915.99	1965.8
916.302	1931.67
916.613	1958.56
916.925	1944.55
917.236	1930.99
917.548	1944.55
917.859	1940.94
918.171	1909.53
918.482	1924.21
918.794	1909.07
919.105	1896.87
919.416	1915.18
919.727	1873.82
920.038	1893.93
920.349	1854.84
920.66	1874.5
920.971	1876.76
921.282	1858.91
921.593	1864.33
921.903	1825.91
922.214	1841.28
922.525	1821.62
922.835	1811.22
923.146	1801.05
923.456	1817.78
923.767	1791.56
924.077	1759.25
924.387	1759.93
924.697	1776.65
925.008	1767.83
925.318	1754.95
925.628	1768.29
925.938	1705.24
926.248	1733.26
926.558	1721.06
926.867	1733.94
927.177	1678.35
927.487	1690.55
927.796	1680.83
928.106	1659.14
928.416	1703.66
928.725	1707.27
929.034	1660.04
929.344	1687.39
929.653	1691
929.962	1644.22
930.271	1639.48
930.581	1656.2
930.89	1640.83
931.199	1643.77
931.508	1631.57
931.817	1675.41
932.125	1659.59
932.434	1648.52
932.743	1640.38
933.051	1607.16
933.36	1612.81
933.669	1600.16
933.977	1619.59
934.286	1631.34
934.594	1620.95
934.902	1612.36
935.21	1570.55
935.519	1592.02
935.827	1577.78
936.135	1542.53
936.443	1553.38
936.751	1571
937.059	1562.42
937.367	1538.91
937.674	1552.25
937.982	1564
938.29	1531.91
938.597	1527.39
938.905	1520.84
939.213	1499.82
939.52	1465.92
939.827	1515.41
940.135	1500.05
940.442	1476.09
940.749	1470.44
941.056	1458.92
941.363	1470.22
941.67	1472.93
941.977	1445.58
942.284	1426.37
942.591	1435.19
942.898	1435.87
943.205	1462.76
943.511	1433.15
943.818	1433.15
944.125	1452.14
944.431	1431.12
944.738	1412.59
945.044	1411.23
945.35	1388.86
945.657	1418.92
945.963	1391.57
946.269	1415.98
946.575	1386.6
946.881	1407.17
947.187	1389.99
947.493	1348.41
947.799	1382.53
948.105	1385.25
948.41	1386.83
948.716	1356.55
949.022	1364.46
949.327	1331.24
949.633	1343.44
949.938	1326.72
950.244	1307.73
950.549	1340.05
950.854	1309.09
951.16	1357.45
951.465	1371.01
951.77	1323.55
952.075	1320.84
952.38	1312.48
952.685	1302.76
952.99	1293.95
953.294	1309.99
953.599	1275.64
953.904	1304.12
954.209	1272.03
954.513	1277
954.818	1268.86
955.122	1251.92
955.426	1269.77
955.731	1229.32
956.035	1255.98
956.339	1257.79
956.643	1232.71
956.948	1225.25
957.252	1239.49
957.556	1222.09
957.86	1232.93
958.163	1220.05
958.467	1215.31
958.771	1185.03
959.075	1210.11
959.378	1193.16
959.682	1204.23
959.985	1188.42
960.289	1196.78
960.592	1189.32
960.896	1196.78
961.199	1176.89
961.502	1183.22
961.805	1193.84
962.108	1161.07
962.411	1168.53
962.714	1157.91
963.017	1160.39
963.32	1160.39
963.623	1118.13
963.926	1139.6
964.228	1143.22
964.531	1148.87
964.833	1123.11
965.136	1146.16
965.438	1139.38
965.741	1137.57
966.043	1113.16
966.345	1102.99
966.648	1131.24
966.95	1131.69
967.252	1084.24
967.554	1110.23
967.856	1075.2
968.158	1078.59
968.46	1070.45
968.761	1088.3
969.063	1092.15
969.365	1100.28
969.666	1078.14
969.968	1067.06
970.269	1058.93
970.571	1056.67
970.872	1034.07
971.174	1044.92
971.475	1033.84
971.776	1058.25
972.077	1048.08
972.378	1038.59
972.679	1035.42
972.98	1040.62
973.281	1070.23
973.582	1034.97
973.883	1030.68
974.183	1010.79
974.484	1002.43
974.785	992.26
975.085	1015.99
975.386	987.97
975.686	1026.39
975.986	1013.28
976.287	988.19
976.587	985.03
976.887	994.97
977.187	983.67
977.487	988.42
977.787	959.49
978.087	985.93
978.387	980.06
978.687	955.43
978.987	965.14
979.286	982.77
979.586	955.2
979.885	979.83
980.185	964.01
980.484	944.58
980.784	931.7
981.083	959.49
981.382	955.43
981.682	946.61
981.981	949.55
982.28	929.89
982.579	944.13
982.878	929.89
983.177	930.34
983.475	923.56
983.774	937.35
984.073	915.88
984.372	929.44
984.67	907.07
984.969	919.5
985.267	917.91
985.566	910.68
985.864	918.37
986.162	901.42
986.461	898.71
986.759	882.89
987.057	892.83
987.355	922.66
987.653	902.09
987.951	893.96
988.249	896.22
988.547	883.56
988.844	856.67
989.142	872.04
989.44	887.86
989.737	863.23
990.035	854.86
990.332	862.55
990.63	851.02
990.927	875.88
991.224	845.15
991.521	859.61
991.819	843.57
992.116	841.53
992.413	843.57
992.71	831.36
993.006	838.59
993.303	852.6
993.6	809.44
993.897	811.7
994.193	834.07
994.49	812.83
994.787	830.01
995.083	814.41
995.379	801.98
995.676	808.31
995.972	786.62
996.268	773.96
996.565	792.72
996.861	784.58
997.157	789.56
997.453	771.25
997.749	769.9
998.044	779.61
998.34	788.43
998.636	781.87
998.932	798.37
999.227	778.71
999.523	790.23
999.818	788.2
1000.114	778.93
1000.409	769.9
1000.704	733.06
1001	773.06
1001.295	753.62
1001.59	746.39
1001.885	773.28
1002.18	750.23
1002.475	763.57
1002.77	755.66
1003.065	750.46
1003.359	734.64
1003.654	743.23
1003.949	768.99
1004.243	748.65
1004.538	753.4
1004.832	735.77
1005.127	729.67
1005.421	738.26
1005.715	723.79
1006.009	731.93
1006.304	694.87
1006.598	704.36
1006.892	690.12
1007.186	695.09
1007.48	693.29
1007.773	710.46
1008.067	686.28
1008.361	698.03
1008.655	662.33
1008.948	697.81
1009.242	683.34
1009.535	694.42
1009.829	693.29
1010.122	686.28
1010.415	700.07
1010.708	683.8
1011.001	655.55
1011.295	695.32
1011.588	655.77
1011.881	679.5
1012.173	648.32
1012.466	648.54
1012.759	646.28
1013.052	649.45
1013.344	665.49
1013.637	648.77
1013.93	677.69
1014.222	645.38
1014.514	632.95
1014.807	658.26
1015.099	629.33
1015.391	639.28
1015.683	630.24
1015.976	652.16
1016.268	623.68
1016.56	632.05
1016.851	626.17
1017.143	642.67
1017.435	629.11
1017.727	623.46
1018.018	643.12
1018.31	617.81
1018.602	625.49
1018.893	617.81
1019.185	629.79
1019.476	595.44
1019.767	601.76
1020.058	609.9
1020.35	621.2
1020.641	604.02
1020.932	580.75
1021.223	595.21
1021.514	606.28
1021.804	614.19
1022.095	611.93
1022.386	592.27
1022.677	603.57
1022.967	588.88
1023.258	585.49
1023.548	591.14
1023.839	581.88
1024.129	573.52
1024.419	542.33
1024.709	593.4
1025	569.22
1025.29	568.09
1025.58	569.22
1025.87	564.7
1026.16	552.05
1026.449	531.94
1026.739	548.66
1027.029	544.14
1027.319	546.62
1027.608	538.49
1027.898	552.73
1028.187	522.9
1028.477	532.39
1028.766	531.94
1029.055	530.35
1029.344	546.4
1029.634	521.54
1029.923	539.39
1030.212	531.26
1030.501	503.24
1030.79	527.42
1031.078	507.76
1031.367	516.34
1031.656	509.34
1031.945	503.69
1032.233	515.21
1032.522	525.83
1032.81	511.37
1033.099	513.18
1033.387	503.24
1033.675	496.91
1033.963	495.1
1034.251	498.49
1034.54	490.13
1034.828	513.18
1035.116	500.3
1035.403	505.5
1035.691	477.7
1035.979	489.45
1036.267	484.93
1036.554	481.99
1036.842	489.68
1037.129	505.04
1037.417	488.55
1037.704	478.6
1037.992	477.25
1038.279	491.71
1038.566	467.98
1038.853	467.98
1039.14	467.98
