Data from foam1_polythene_foam_FLMS001491_00016.txt Node
Date: Wed Feb 08 10:54:27 GMT 2017
User: dcchb
Spectrometer: FLMS00149
Trigger mode: 0
Integration Time (sec): 2.000000E-2
Scans to average: 10
Electric dark correction enabled: true
Nonlinearity correction enabled: false
Boxcar width: 0
XAxis mode: Wavelengths
Number of Pixels in Spectrum: 2048
>>>>>Begin Spectral Data<<<<<
341.393	-11.31
341.776	-11.31
342.16	-11.31
342.543	-64.19
342.927	-70.29
343.31	-82.05
343.693	-77.75
344.077	-57.87
344.46	-58.77
344.843	-50.18
345.226	-43.18
345.61	-29.62
345.993	-8.38
346.376	-1.37
346.759	-3.4
347.142	30.49
347.525	46.31
347.908	50.15
348.291	74.56
348.674	91.73
349.057	119.3
349.44	123.15
349.823	126.76
350.206	155.46
350.588	195.23
350.971	189.36
351.354	202.47
351.737	219.87
352.119	240.88
352.502	245.18
352.884	242.47
353.267	268.91
353.65	261.9
354.032	252.41
354.414	271.84
354.797	302.58
355.179	303.71
355.562	305.51
355.944	328.34
356.326	319.3
356.709	306.64
357.091	303.03
357.473	315.01
357.855	327.43
358.238	326.08
358.62	329.92
359.002	323.82
359.384	330.15
359.766	299.19
360.148	322.92
360.53	329.02
360.912	329.24
361.294	316.81
361.676	312.29
362.057	293.31
362.439	315.91
362.821	319.75
363.203	288.34
363.584	322.01
363.966	299.86
364.348	301.45
364.729	310.71
365.111	286.31
365.493	280.2
365.874	296.7
366.256	293.76
366.637	306.87
367.019	311.84
367.4	293.31
367.781	302.8
368.163	312.29
368.544	292.41
368.925	284.95
369.306	304.84
369.688	296.25
370.069	312.75
370.45	294.89
370.831	288.34
371.212	277.27
371.593	289.7
371.974	302.12
372.355	312.75
372.736	283.82
373.117	302.8
373.498	305.06
373.879	298.74
374.26	279.3
374.641	294.89
375.021	295.57
375.402	304.84
375.783	300.09
376.163	310.94
376.544	310.94
376.925	307.32
377.305	306.19
377.686	317.94
378.066	298.96
378.447	318.4
378.827	325.85
379.208	333.76
379.588	315.68
379.968	312.97
380.349	314.33
380.729	340.99
381.109	329.47
381.489	341.9
381.87	303.25
382.25	325.4
382.63	295.57
383.01	322.46
383.39	321.33
383.77	335.57
384.15	334.67
384.53	342.12
384.91	331.05
385.29	331.28
385.67	327.43
386.049	326.53
386.429	342.35
386.809	337.15
387.189	324.27
387.568	340.32
387.948	338.96
388.328	335.57
388.707	346.64
389.087	336.7
389.466	354.55
389.846	331.73
390.225	365.4
390.605	345.74
390.984	326.98
391.363	333.76
391.743	341.22
392.122	347.32
392.501	380.09
392.881	355.23
393.26	377.38
393.639	352.74
394.018	352.29
394.397	363.37
394.776	363.14
395.155	368.56
395.534	361.56
395.913	373.08
396.292	363.82
396.671	366.98
397.05	365.17
397.429	374.21
397.808	348.45
398.186	374.67
398.565	345.51
398.944	373.54
399.323	398.39
399.701	361.56
400.08	359.3
400.458	373.31
400.837	375.8
401.215	363.37
401.594	389.35
401.972	381.22
402.351	364.5
402.729	366.08
403.107	389.13
403.486	378.73
403.864	371.05
404.242	396.81
404.62	395.68
404.999	388.22
405.377	402.01
405.755	397.26
406.133	390.94
406.511	396.81
406.889	400.2
407.267	401.11
407.645	412.86
408.023	402.46
408.401	396.13
408.779	396.59
409.156	402.01
409.534	440.2
409.912	424.16
410.29	405.85
410.667	411.5
411.045	425.06
411.422	406.98
411.8	436.81
412.178	428.9
412.555	437.04
412.933	419.64
413.31	439.3
413.687	443.59
414.065	445.4
414.442	441.56
414.819	449.01
415.197	429.58
415.574	459.86
415.951	450.82
416.328	442.91
416.705	442.91
417.082	455.12
417.46	461.89
417.837	449.01
418.214	455.12
418.591	458.96
418.967	447.21
419.344	460.99
419.721	480.65
420.098	472.74
420.475	467.54
420.852	476.13
421.228	476.81
421.605	469.58
421.982	481.1
422.358	518.39
422.735	470.48
423.111	496.24
423.488	479.07
423.864	489.69
424.241	498.96
424.617	505.96
424.994	492.4
425.37	526.75
425.746	503.48
426.123	476.13
426.499	518.39
426.875	492.85
427.251	511.16
427.627	531.95
428.003	521.1
428.379	511.84
428.756	534.89
429.132	535.57
429.507	535.57
429.883	522.68
430.259	551.84
430.635	555
431.011	553.19
431.387	549.35
431.763	553.19
432.138	565.17
432.514	577.6
432.89	568.33
433.265	580.31
433.641	580.99
434.016	594.55
434.392	592.51
434.767	594.09
435.143	587.32
435.518	576.92
435.894	627.31
436.269	618.05
436.644	633.42
437.02	626.18
437.395	621.89
437.77	646.97
438.145	614.21
438.52	646.3
438.895	649.46
439.271	652.4
439.646	661.89
440.021	651.72
440.395	654.66
440.77	665.96
441.145	652.85
441.52	682.68
441.895	661.89
442.27	682.91
442.645	676.58
443.019	709.57
443.394	704.6
443.769	700.76
444.143	703.47
444.518	730.36
444.892	738.5
445.267	712.06
445.641	715.22
446.016	711.83
446.39	731.49
446.764	715
447.139	734.66
447.513	729.68
447.887	769.01
448.262	761.55
448.636	766.52
449.01	767.88
449.384	787.99
449.758	777.82
450.132	786.86
450.506	787.08
450.88	776.24
451.254	787.08
451.628	807.65
452.002	792.96
452.376	790.25
452.75	799.06
453.123	802.9
453.497	833.86
453.871	820.08
454.244	836.57
454.618	871.38
454.992	866.18
455.365	842.68
455.739	870.47
456.112	845.84
456.486	863.01
456.859	846.29
457.232	868.44
457.606	876.12
457.979	860.08
458.352	846.52
458.725	870.92
459.099	888.32
459.472	906.85
459.845	915.89
460.218	905.72
460.591	912.05
460.964	905.72
461.337	929.68
461.71	936.68
462.083	945.27
462.456	933.52
462.829	922
463.201	940.53
463.574	937.59
463.947	934.65
464.32	984.82
464.692	953.18
465.065	970.13
465.438	995.21
465.81	992.95
466.183	976.01
466.555	1025.72
466.928	998.6
467.3	1022.56
467.672	1006.74
468.045	1022.56
468.417	1054.2
468.789	1048.77
469.161	1055.1
469.534	1050.81
469.906	1074.08
470.278	1071.37
470.65	1075.89
471.022	1103.46
471.394	1103.46
471.766	1109.56
472.138	1122.22
472.51	1149.33
472.882	1158.6
473.253	1171.25
473.625	1160.63
473.997	1181.42
474.369	1222.55
474.74	1194.3
475.112	1197.92
475.484	1226.62
475.855	1232.04
476.227	1241.08
476.598	1284.02
476.97	1301.19
477.341	1299.39
477.713	1297.35
478.084	1327.41
478.455	1356.79
478.827	1344.81
479.198	1369.89
479.569	1406.05
479.94	1403.56
480.311	1426.62
480.682	1455.54
481.053	1461.42
481.424	1480.4
481.795	1469.78
482.166	1495.77
482.537	1500.74
482.908	1538.7
483.279	1550.91
483.65	1592.26
484.021	1614.63
484.391	1625.93
484.762	1626.61
485.133	1643.33
485.503	1686.27
485.874	1695.99
486.244	1728.3
486.615	1704.8
486.985	1746.83
487.356	1768.07
487.726	1761.3
488.097	1797
488.467	1807.17
488.837	1847.39
489.207	1851.69
489.578	1857.56
489.948	1882.65
490.318	1911.35
490.688	1956.09
491.058	1963.1
491.428	1948.86
491.798	2002.42
492.168	1987.28
492.538	2036.99
492.908	2046.49
493.278	2037.22
493.648	2072.93
494.017	2105.02
494.387	2075.86
494.757	2135.07
495.126	2109.99
495.496	2124.68
495.866	2182.98
496.235	2169.42
496.605	2174.17
496.974	2214.84
497.344	2234.96
497.713	2223.43
498.082	2295.97
498.452	2276.08
498.821	2291
499.19	2309.08
499.559	2309.08
499.928	2360.38
500.298	2347.72
500.667	2381.84
501.036	2365.8
501.405	2386.14
501.774	2342.75
502.143	2407.83
502.512	2398.79
502.88	2417.32
503.249	2413.93
503.618	2458.23
503.987	2506.59
504.356	2447.61
504.724	2486.93
505.093	2520.82
505.462	2521.95
505.83	2547.26
506.199	2567.83
506.567	2553.14
506.936	2580.93
507.304	2601.05
507.672	2638.11
508.041	2631.56
508.409	2638.33
508.777	2683.31
509.145	2655.28
509.514	2674.27
509.882	2701.61
510.25	2698.67
510.618	2714.94
510.986	2723.53
511.354	2744.55
511.722	2784.77
512.09	2802.4
512.458	2815.96
512.826	2819.57
513.193	2830.42
513.561	2845.79
513.929	2898.21
514.297	2904.77
514.664	2984.77
515.032	2976.86
515.4	2950.64
515.767	2964.43
516.135	2955.84
516.502	2972.34
516.869	3029.96
517.237	3036.06
517.604	3048.27
517.972	3085.78
518.339	3141.6
518.706	3108.15
519.073	3150.41
519.44	3154.48
519.808	3184.31
520.175	3165.78
520.542	3215.27
520.909	3214.36
521.276	3210.3
521.643	3297.98
522.009	3318.77
522.376	3297.75
522.743	3369.61
523.11	3385.21
523.477	3356.06
523.843	3383.4
524.21	3437.86
524.577	3436.73
524.943	3491.87
525.31	3482.15
525.676	3525.32
526.043	3530.97
526.409	3531.42
526.776	3622.26
527.142	3592.66
527.508	3596.95
527.874	3669.27
528.241	3680.79
528.607	3658.42
528.973	3746.55
529.339	3721.7
529.705	3722.83
530.071	3774.8
530.437	3751.53
530.803	3841.47
531.169	3814.12
531.535	3862.94
531.901	3882.6
532.267	3898.87
532.632	3914.69
532.998	3916.27
533.364	3927.57
533.73	3941.58
534.095	3984.74
534.461	4018.86
534.826	3990.16
535.192	4007.34
535.557	4074.91
535.923	4069.48
536.288	4072.2
536.653	4075.81
537.019	4061.8
537.384	4068.35
537.749	4116.26
538.114	4091.86
538.479	4155.36
538.845	4158.75
539.21	4203.27
539.575	4227.9
539.94	4244.39
540.305	4216.15
540.67	4209.37
541.034	4250.04
541.399	4255.47
541.764	4262.7
542.129	4330.49
542.494	4320.32
542.858	4344.5
543.223	4368.23
543.587	4399.87
543.952	4399.19
544.316	4378.85
544.681	4376.82
545.045	4381.79
545.41	4438.06
545.774	4453.43
546.138	4475.12
546.503	4466.08
546.867	4510.6
547.231	4511.73
547.595	4510.38
547.959	4546.08
548.324	4554.67
548.688	4549.02
549.052	4585.85
549.416	4613.2
549.779	4589.7
550.143	4635.8
550.507	4674.44
550.871	4681.9
551.235	4678.51
551.599	4674.21
551.962	4645.74
552.326	4725.51
552.689	4785.4
553.053	4681.22
553.417	4745.17
553.78	4828.56
554.143	4846.64
554.507	4856.81
554.87	4857.03
555.234	4898.39
555.597	4864.04
555.96	4887.31
556.323	4882.12
556.686	4948.78
557.05	4991.49
557.413	5003.02
557.776	5019.51
558.139	5040.08
558.502	5071.26
558.865	5096.35
559.228	5115.11
559.59	5149.91
559.953	5121.21
560.316	5184.93
560.679	5218.38
561.041	5249.34
561.404	5299.96
561.767	5364.14
562.129	5315.55
562.492	5381.99
562.854	5348.55
563.217	5302.67
563.579	5316.46
563.941	5427.64
564.304	5453.85
564.666	5436.91
565.028	5506.51
565.39	5554.42
565.753	5563.91
566.115	5524.13
566.477	5600.74
566.839	5643.23
567.201	5697.01
567.563	5627.41
567.925	5668.54
568.287	5702.66
568.648	5708.99
569.01	5803.9
569.372	5835.09
569.734	5790.79
570.095	5821.08
570.457	5854.52
570.819	5861.3
571.18	5858.14
571.542	5858.36
571.903	5875.09
572.265	5943.56
572.626	5996.44
572.987	5995.99
573.349	6015.87
573.71	5985.82
574.071	6021.97
574.432	5999.6
574.794	6068.75
575.155	6067.4
575.516	6062.2
575.877	6031.47
576.238	6100.84
576.599	6175.87
576.96	6150.56
577.32	6195.53
577.681	6231.69
578.042	6134.97
578.403	6240.73
578.763	6186.49
579.124	6223.1
579.485	6197.56
579.845	6203.44
580.206	6245.25
580.566	6270.33
580.927	6268.52
581.287	6295.41
581.648	6223.78
582.008	6259.48
582.368	6216.77
582.728	6233.27
583.089	6240.05
583.449	6252.25
583.809	6354.4
584.169	6264.23
584.529	6311.01
584.889	6308.75
585.249	6310.55
585.609	6283.89
585.969	6342.64
586.329	6328.41
586.688	6327.96
587.048	6376.77
587.408	6275.75
587.768	6287.5
588.127	6307.62
588.487	6279.14
588.846	6361.4
589.206	6341.51
589.565	6312.59
589.925	6364.11
590.284	6307.62
590.643	6283.66
591.003	6324.79
591.362	6321.4
591.721	6398.01
592.08	6356.2
592.44	6282.76
592.799	6318.92
593.158	6414.51
593.517	6368.63
593.876	6378.12
594.235	6328.18
594.593	6341.74
594.952	6404.11
595.311	6386.94
595.67	6385.13
596.029	6409.76
596.387	6419.93
596.746	6378.35
597.104	6386.26
597.463	6386.71
597.822	6457.22
598.18	6339.71
598.538	6423.77
598.897	6407.95
599.255	6400.04
599.613	6433.26
599.972	6424
600.33	6394.17
600.688	6449.08
601.046	6435.52
601.404	6499.25
601.762	6427.84
602.12	6452.7
602.478	6417.67
602.836	6435.75
603.194	6417.44
603.552	6440.04
603.91	6488.18
604.268	6460.83
604.625	6426.94
604.983	6519.59
605.341	6543.32
605.698	6518.91
606.056	6546.25
606.413	6495.18
606.771	6505.58
607.128	6495.86
607.485	6498.8
607.843	6520.27
608.2	6557.1
608.557	6555.75
608.914	6579.02
609.272	6566.37
609.629	6541.28
609.986	6607.72
610.343	6544.67
610.7	6618.79
611.057	6542.64
611.414	6542.41
611.771	6582.41
612.127	6550.77
612.484	6602.75
612.841	6681.17
613.198	6583.09
613.554	6583.99
613.911	6642.52
614.267	6668.96
614.624	6663.54
614.98	6678
615.337	6661.96
615.693	6668.96
616.05	6630.09
616.406	6653.37
616.762	6621.28
617.118	6644.56
617.475	6600.49
617.831	6678.91
618.187	6668.29
618.543	6647.72
618.899	6696.76
619.255	6729.3
619.611	6672.13
619.967	6660.15
620.323	6727.72
620.678	6681.17
621.034	6655.86
621.39	6689.3
621.746	6609.3
622.101	6718
622.457	6681.84
622.812	6657.21
623.168	6705.57
623.523	6665.57
623.879	6727.04
624.234	6666.93
624.589	6689.3
624.945	6683.65
625.3	6698.11
625.655	6590.32
626.01	6703.76
626.365	6690.21
626.72	6663.54
627.075	6653.37
627.43	6669.64
627.785	6645.69
628.14	6619.7
628.495	6675.97
628.85	6600.26
629.205	6651.56
629.559	6680.94
629.914	6648.62
630.269	6628.29
630.623	6562.98
630.978	6573.6
631.332	6605.01
631.687	6624.67
632.041	6549.64
632.396	6583.99
632.75	6628.51
633.104	6604.11
633.459	6536.76
633.813	6575.41
634.167	6543.32
634.521	6521.4
634.875	6544.67
635.229	6536.99
635.583	6489.53
635.937	6500.83
636.291	6496.99
636.645	6494.05
636.999	6480.49
637.352	6459.93
637.706	6428.74
638.06	6488.18
638.413	6412.92
638.767	6407.5
639.121	6411.34
639.474	6395.07
639.828	6445.47
640.181	6434.84
640.534	6389.2
640.888	6383.32
641.241	6352.14
641.594	6370.21
641.947	6343.1
642.301	6321.63
642.654	6355.52
643.007	6334.73
643.36	6327.73
643.713	6299.48
644.066	6377.9
644.419	6313.94
644.771	6198.69
645.124	6100.62
645.477	6015.87
645.83	6066.27
646.182	6015.65
646.535	6128.64
646.888	6118.24
647.24	6117.11
647.593	6138.58
647.945	6167.06
648.298	6122.31
648.65	6065.59
649.002	6096.1
649.355	6091.13
649.707	6041.41
650.059	6112.14
650.411	6093.16
650.763	6098.13
651.115	6179.94
651.467	6152.14
651.819	6147.39
652.171	6158.69
652.523	6090.22
652.875	6069.66
653.227	6092.26
653.578	6137.68
653.93	6105.14
654.282	6115.31
654.633	6095.19
654.985	6128.86
655.337	6085.7
655.688	6055.87
656.039	6079.15
656.391	6042.54
656.742	6057.23
657.094	6028.3
657.445	6085.02
657.796	6015.42
658.147	6014.52
658.498	6021.3
658.849	6054.97
659.2	6019.04
659.551	6037.79
659.902	6048.19
660.253	6023.33
660.604	6056.78
660.955	5960.96
661.306	6017.45
661.656	5974.74
662.007	6028.75
662.358	5992.6
662.708	5981.98
663.059	5990.56
663.409	5927.51
663.76	5994.86
664.11	6002.77
664.461	5982.2
664.811	6009.55
665.161	5996.66
665.511	5952.15
665.862	5931.36
666.212	5979.94
666.562	5944.91
666.912	5864.69
667.262	5967.51
667.612	5885.03
667.962	5925.48
668.312	5908.98
668.662	5913.95
669.011	5940.17
669.361	5936.33
669.711	5920.28
670.06	5939.72
670.41	5947.85
670.76	5867.63
671.109	5918.02
671.459	5925.93
671.808	5851.58
672.157	5922.09
672.507	5915.08
672.856	5823.34
673.205	5843.22
673.554	5862.88
673.904	5867.85
674.253	5873.28
674.602	5825.14
674.951	5820.17
675.3	5741.53
675.649	5814.3
675.998	5854.97
676.346	5861.53
676.695	5819.72
677.044	5798.03
677.393	5830.79
677.741	5772.04
678.09	5808.87
678.438	5793.96
678.787	5801.87
679.135	5787.63
679.484	5735.2
679.832	5763.45
680.181	5698.37
680.529	5755.99
680.877	5750.12
681.225	5718.48
681.573	5727.52
681.922	5682.32
682.27	5728.42
682.618	5717.12
682.966	5756.9
683.314	5725.03
683.661	5654.07
684.009	5648.88
684.357	5693.4
684.705	5630.12
685.053	5618.37
685.4	5598.26
685.748	5561.87
686.095	5620.86
686.443	5582.66
686.79	5605.71
687.138	5576.34
687.485	5592.16
687.832	5579.27
688.18	5556.9
688.527	5551.25
688.874	5562.55
689.221	5535.66
689.568	5503.57
689.915	5513.06
690.262	5479.62
690.609	5506.73
690.956	5463.12
691.303	5459.96
691.65	5415.44
691.997	5420.41
692.344	5406.4
692.69	5446.85
693.037	5428.77
693.383	5350.81
693.73	5375.89
694.077	5335.21
694.423	5319.62
694.769	5350.58
695.116	5323.24
695.462	5292.28
695.808	5230.58
696.155	5278.72
696.501	5306.96
696.847	5235.55
697.193	5230.36
697.539	5197.82
697.885	5151.04
698.231	5176.35
698.577	5150.36
698.923	5168.44
699.269	5127.53
699.614	5101.09
699.96	5159.4
700.306	5149.91
700.651	5096.12
700.997	5044.82
701.342	5091.83
701.688	5082.79
702.033	5030.81
702.379	5029.91
702.724	5021.55
703.069	5003.47
703.415	4944.71
703.76	4924.83
704.105	4914.43
704.45	4942.23
704.795	4944.94
705.14	4937.94
705.485	4953.98
705.83	4909.91
706.175	4935
706.52	4931.61
706.865	4903.81
707.209	4886.64
707.554	4878.05
707.899	4880.08
708.243	4879.86
708.588	4834.44
708.932	4751.27
709.277	4767.09
709.621	4830.59
709.966	4758.73
710.31	4747.21
710.654	4756.7
710.998	4745.4
711.342	4766.87
711.687	4748.79
712.031	4750.37
712.375	4693.87
712.719	4722.57
713.063	4749.24
713.407	4784.27
713.75	4727.32
714.094	4669.92
714.438	4702.46
714.782	4668.79
715.125	4640.09
715.469	4667.66
715.812	4642.58
716.156	4629.69
716.499	4609.58
716.843	4649.13
717.186	4570.94
717.53	4624.27
717.873	4652.52
718.216	4629.24
718.559	4595.8
718.902	4595.35
719.246	4561.9
719.589	4585.63
719.932	4539.3
720.275	4536.36
720.617	4571.84
720.96	4500.66
721.303	4565.52
721.646	4513.54
721.989	4484.39
722.331	4469.7
722.674	4433.32
723.016	4476.25
723.359	4462.24
723.701	4442.35
724.044	4408.23
724.386	4479.19
724.729	4404.84
725.071	4439.42
725.413	4460.21
725.755	4425.18
726.097	4421.11
726.439	4428.12
726.782	4364.16
727.124	4377.95
727.465	4371.4
727.807	4378.4
728.149	4339.98
728.491	4339.53
728.833	4358.52
729.175	4318.52
729.516	4338.85
729.858	4323.94
730.199	4330.49
730.541	4345.63
730.882	4357.61
731.224	4342.47
731.565	4321
731.906	4307.9
732.248	4297.73
732.589	4277.39
732.93	4262.92
733.271	4294.11
733.612	4277.16
733.953	4299.53
734.294	4234.45
734.635	4254.11
734.976	4267.22
735.317	4222.93
735.658	4215.92
735.999	4214.34
736.339	4209.14
736.68	4248.24
737.021	4248.24
737.361	4178.18
737.702	4217.05
738.042	4219.54
738.383	4225.64
738.723	4187.67
739.063	4184.96
739.404	4194.68
739.744	4210.5
740.084	4180.89
740.424	4168.24
740.764	4139.09
741.104	4194
741.444	4157.62
741.784	4129.14
742.124	4173.89
742.464	4133.89
742.804	4107.22
743.143	4076.49
743.483	4110.61
743.823	4087.34
744.162	4056.6
744.502	4113.32
744.841	4120.78
745.181	4153.1
745.52	4082.36
745.86	4118.3
746.199	4118.75
746.538	4086.43
746.877	4116.26
747.216	4086.88
747.556	4078.97
747.895	4071.07
748.234	4011.63
748.573	3997.62
748.911	4028.58
749.25	3975.47
749.589	3963.5
749.928	3991.07
750.267	4022.7
750.605	3996.94
750.944	3997.39
751.283	3936.15
751.621	3963.72
751.96	3923.95
752.298	4005.3
752.636	3948.58
752.975	3899.77
753.313	3929.15
753.651	3923.5
753.989	3910.39
754.327	3926.44
754.666	3875.36
755.004	3917.4
755.342	3838.53
755.679	3851.86
756.017	3808.25
756.355	3860.68
756.693	3854.8
757.031	3852.77
757.368	3789.72
757.706	3789.49
758.044	3759.44
758.381	3815.93
758.719	3803.05
759.056	3833.78
759.394	3777.74
759.731	3739.1
760.068	3736.16
760.405	3747.01
760.743	3742.49
761.08	3722.6
761.417	3784.07
761.754	3725.54
762.091	3723.96
762.428	3707.23
762.765	3675.6
763.102	3644.18
763.438	3663.84
763.775	3603.51
764.112	3657.97
764.449	3651.64
764.785	3598.54
765.122	3585.65
765.458	3591.08
765.795	3558.76
766.131	3597.63
766.467	3592.43
766.804	3586.56
767.14	3589.27
767.476	3565.99
767.812	3533.45
768.148	3537.29
768.485	3550.18
768.821	3490.06
769.157	3520.12
769.492	3490.06
769.828	3449.39
770.164	3437.41
770.5	3451.42
770.836	3456.62
771.171	3443.74
771.507	3372.78
771.842	3392.44
772.178	3394.7
772.513	3370.74
772.849	3374.36
773.184	3372.55
773.519	3387.24
773.855	3359.45
774.19	3363.74
774.525	3328.94
774.86	3337.07
775.195	3326.23
775.53	3373
775.865	3280.8
776.2	3251.88
776.535	3303.4
776.87	3232.44
777.205	3258.21
777.539	3225.21
777.874	3283.74
778.209	3206.23
778.543	3231.54
778.878	3205.33
779.212	3183.18
779.547	3149.51
779.881	3184.76
780.215	3169.62
780.55	3161.03
780.884	3192.44
781.218	3154.25
781.552	3126.91
781.886	3122.62
782.22	3118.32
782.554	3107.25
782.888	3109.28
783.222	3097.08
783.556	3024.77
783.889	3059.34
784.223	3004.65
784.557	3017.31
784.89	3012.34
785.224	3004.43
785.557	3006.91
785.891	2963.98
786.224	2968.27
786.558	2973.02
786.891	2952.9
787.224	2957.87
787.557	2951.77
787.891	2942.96
788.224	2912.45
788.557	2956.74
788.89	2950.19
789.223	2942.06
789.556	2945.22
789.888	2890.08
790.221	2875.16
790.554	2872.23
790.887	2875.62
791.219	2867.48
791.552	2852.57
791.884	2842.17
792.217	2813.92
792.549	2825.9
792.882	2801.27
793.214	2766.01
793.546	2743.42
793.879	2770.53
794.211	2771.21
794.543	2766.47
794.875	2765.56
795.207	2737.54
795.539	2746.81
795.871	2779.12
796.203	2747.03
796.535	2736.86
796.867	2722.85
797.198	2698.67
797.53	2735.28
797.862	2722.4
798.193	2703.19
798.525	2659.35
798.856	2711.1
799.188	2663.42
799.519	2630.65
799.85	2652.57
800.182	2650.99
800.513	2608.73
800.844	2594.04
801.175	2628.17
801.506	2599.92
801.837	2551.33
802.168	2619.13
802.499	2618.45
802.83	2556.53
803.161	2572.57
803.491	2579.35
803.822	2596.08
804.153	2563.76
804.483	2541.84
804.814	2556.53
805.145	2577.55
805.475	2566.7
805.805	2555.4
806.136	2521.95
806.466	2533.25
806.796	2470.2
807.126	2493.25
807.457	2525.8
807.787	2494.61
808.117	2453.03
808.447	2474.27
808.777	2492.35
809.107	2490.54
809.436	2477.66
809.766	2469.53
810.096	2457.1
810.426	2421.17
810.755	2442.18
811.085	2429.98
811.414	2411.45
811.744	2419.81
812.073	2410.54
812.403	2434.95
812.732	2428.85
813.061	2431.33
813.39	2400.83
813.719	2415.29
814.049	2439.92
814.378	2387.04
814.707	2388.4
815.036	2385.91
815.365	2404.44
815.693	2383.65
816.022	2375.97
816.351	2394.05
816.68	2327.38
817.008	2337.33
817.337	2274.73
817.665	2308.17
817.994	2319.7
818.322	2302.3
818.651	2286.71
818.979	2310.21
819.307	2307.27
819.636	2299.59
819.964	2294.61
820.292	2278.8
820.62	2308.85
820.948	2314.05
821.276	2320.83
821.604	2304.33
821.932	2301.62
822.259	2321.51
822.587	2328.74
822.915	2282.19
823.243	2313.15
823.57	2278.34
823.898	2289.42
824.225	2263.2
824.553	2268.85
824.88	2298.46
825.207	2265.24
825.535	2262.07
825.862	2251.45
826.189	2258.01
826.516	2275.63
826.843	2258.68
827.17	2267.72
827.497	2294.61
827.824	2267.27
828.151	2295.97
828.478	2266.14
828.805	2297.78
829.131	2278.57
829.458	2309.3
829.785	2258.46
830.111	2278.34
830.438	2321.96
830.764	2288.51
831.09	2296.42
831.417	2266.37
831.743	2283.77
832.069	2298.68
832.395	2280.38
832.722	2308.17
833.048	2247.61
833.374	2295.97
833.7	2281.51
834.026	2273.37
834.351	2264.56
834.677	2258.01
835.003	2235.86
835.329	2241.51
835.654	2254.84
835.98	2230.66
836.306	2237.44
836.631	2269.53
836.956	2271.11
837.282	2236.99
837.607	2253.03
837.932	2233.37
838.258	2281.96
838.583	2258.01
838.908	2230.21
839.233	2232.24
839.558	2265.69
839.883	2223.66
840.208	2211.91
840.533	2252.36
840.858	2225.46
841.182	2229.53
841.507	2245.58
841.832	2189.76
842.156	2175.3
842.481	2152.7
842.805	2186.6
843.13	2163.32
843.454	2138.69
843.778	2162.41
844.103	2142.53
844.427	2129.65
844.751	2161.51
845.075	2131.68
845.399	2161.51
845.723	2157.67
846.047	2190.66
846.371	2180.72
846.695	2145.47
847.019	2142.08
847.343	2150.89
847.666	2125.35
847.99	2091.23
848.313	2113.83
848.637	2126.48
848.96	2114.73
849.284	2109.76
849.607	2101.4
849.931	2074.51
850.254	2063.43
850.577	2028.41
850.9	2033.15
851.223	2027.05
851.546	1999.48
851.869	1976.43
852.192	1979.14
852.515	1997.45
852.838	1981.18
853.161	1973.49
853.483	1935.98
853.806	1985.02
854.129	1987.5
854.451	1980.95
854.774	1979.82
855.096	1986.15
855.419	2021.63
855.741	1964
856.063	1960.61
856.385	1983.21
856.708	1972.14
857.03	1952.93
857.352	2005.58
857.674	1963.55
857.996	1916.55
858.318	1969.43
858.64	1898.24
858.961	1924.68
859.283	1914.51
859.605	1909.77
859.926	1883.55
860.248	1885.81
860.57	1883.78
860.891	1869.99
861.212	1843.55
861.534	1844.68
861.855	1856.43
862.176	1876.55
862.498	1863.44
862.819	1846.72
863.14	1851.01
863.461	1877
863.782	1846.27
864.103	1844.91
864.424	1865.02
864.745	1872.48
865.065	1865.93
865.386	1811.46
865.707	1847.39
866.027	1876.09
866.348	1843.78
866.668	1836.55
866.989	1862.08
867.309	1837.9
867.63	1816.66
867.95	1831.8
868.27	1794.06
868.59	1826.6
868.91	1832.71
869.23	1790.67
869.55	1795.42
869.87	1819.83
870.19	1793.16
870.51	1770.33
870.83	1792.93
871.15	1787.74
871.469	1779.15
871.789	1781.63
872.109	1761.07
872.428	1781.41
872.748	1804.01
873.067	1792.71
873.386	1771.92
873.706	1797
874.025	1798.36
874.344	1782.09
874.663	1772.14
874.982	1781.63
875.301	1791.13
875.62	1769.88
875.939	1791.13
876.258	1767.4
876.577	1759.94
876.896	1752.03
877.214	1763.78
877.533	1731.24
877.852	1752.03
878.17	1713.39
878.489	1690.56
878.807	1698.92
879.125	1738.25
879.444	1711.13
879.762	1703.67
880.08	1745.02
880.398	1696.66
880.716	1712.71
881.034	1713.61
881.352	1719.04
881.67	1694.4
881.988	1739.15
882.306	1733.73
882.624	1731.47
882.941	1697.12
883.259	1702.77
883.577	1693.5
883.894	1700.05
884.212	1710.68
884.529	1680.17
884.846	1696.21
885.164	1704.12
885.481	1680.39
885.798	1687.4
886.115	1702.99
886.432	1663.44
886.75	1705.48
887.067	1710.68
887.383	1637.91
887.7	1668.64
888.017	1637.68
888.334	1680.17
888.651	1624.12
888.967	1647.17
889.284	1594.75
889.6	1614.41
889.917	1618.47
890.233	1638.13
890.55	1648.76
890.866	1645.82
891.182	1620.51
891.498	1606.05
891.815	1607.85
892.131	1616.44
892.447	1611.47
892.763	1620.06
893.079	1614.18
893.395	1601.53
893.71	1607.63
894.026	1615.76
894.342	1618.25
894.657	1597.46
894.973	1615.99
895.289	1592.94
895.604	1589.32
895.92	1591.81
896.235	1565.59
896.55	1555.43
896.865	1572.6
897.181	1554.3
897.496	1557.01
897.811	1528.31
898.126	1532.15
898.441	1514.3
898.756	1516.33
899.071	1514.07
899.386	1506.84
899.7	1504.13
900.015	1510
900.33	1477.01
900.644	1471.81
900.959	1460.96
901.273	1463.9
901.588	1459.61
901.902	1490.34
902.216	1491.47
902.531	1478.82
902.845	1495.31
903.159	1470.91
903.473	1473.85
903.787	1460.06
904.101	1467.97
904.415	1477.24
904.729	1477.46
905.042	1451.25
905.356	1418.03
905.67	1472.26
905.984	1457.12
906.297	1442.89
906.611	1427.74
906.924	1405.15
907.237	1401.53
907.551	1403.56
907.864	1396.79
908.177	1407.86
908.491	1374.86
908.804	1391.59
909.117	1371.25
909.43	1344.81
909.743	1353.17
910.056	1361.53
910.368	1383
910.681	1330.12
910.994	1349.78
911.307	1344.36
911.619	1338.48
911.932	1321.53
912.244	1347.3
912.557	1366.05
912.869	1335.54
913.181	1325.6
913.494	1338.93
913.806	1318.82
914.118	1339.39
914.43	1319.05
914.742	1317.24
915.054	1364.47
915.366	1320.86
915.678	1299.61
915.99	1319.73
916.302	1274.3
916.613	1281.76
916.925	1301.87
917.236	1280.18
917.548	1288.54
917.859	1262.78
918.171	1269.78
918.482	1256.22
918.794	1258.94
919.105	1244.02
919.416	1223
919.727	1201.76
920.038	1247.86
920.349	1210.8
920.66	1211.25
920.971	1219.61
921.282	1211.71
921.593	1204.7
921.903	1175.32
922.214	1214.87
922.525	1225.26
922.835	1201.31
923.146	1172.84
923.456	1210.12
923.767	1200.18
924.077	1166.51
924.387	1190.92
924.697	1186.62
925.008	1201.76
925.318	1192.5
925.628	1173.06
925.938	1213.51
926.248	1183.46
926.558	1169.45
926.867	1164.02
927.177	1154.76
927.487	1126.28
927.796	1116.11
928.106	1155.21
928.416	1139.16
928.725	1128.54
929.034	1144.36
929.344	1120.63
929.653	1112.95
929.962	1131.26
930.271	1065.95
930.581	1079.96
930.89	1071.14
931.199	1099.84
931.508	1103.23
931.817	1095.1
932.125	1099.39
932.434	1074.31
932.743	1086.06
933.051	1096.91
933.36	1078.83
933.669	1063.69
933.977	1061.88
934.286	1047.42
934.594	1061.2
934.902	1067.98
935.21	1074.53
935.519	1040.18
935.827	1082.44
936.135	1071.14
936.443	1064.14
936.751	1038.15
937.059	1054.87
937.367	1044.03
937.674	1047.64
937.982	1016
938.29	1030.24
938.597	1029.56
938.905	1005.16
939.213	1035.89
939.52	1040.86
939.827	1022.11
940.135	1015.1
940.442	1001.77
940.749	1009.45
941.056	972.39
941.363	962.9
941.67	997.25
941.977	969
942.284	965.61
942.591	964.48
942.898	974.65
943.205	961.32
943.511	953.18
943.818	952.28
944.125	951.6
944.431	946.4
944.738	945.95
945.044	985.95
945.35	949.57
945.657	947.76
945.963	971.49
946.269	926.52
946.575	963.8
946.881	941.43
947.187	910.92
947.493	953.18
947.799	942.11
948.105	938.72
948.41	923.8
948.716	949.79
949.022	919.28
949.327	936.68
949.633	919.96
949.938	939.4
950.244	884.48
950.549	922.67
950.854	914.54
951.16	912.5
951.465	887.65
951.77	891.26
952.075	882.67
952.38	883.58
952.685	878.15
952.99	857.36
953.294	869.34
953.599	868.89
953.904	873.41
954.209	849.91
954.513	849.46
954.818	853.07
955.122	853.3
955.426	835.22
955.731	855.56
956.035	884.26
956.339	838.83
956.643	838.16
956.948	829.57
957.252	855.1
957.556	842.45
957.86	845.61
958.163	848.1
958.467	854.43
958.771	844.71
959.075	837.48
959.378	833.86
959.682	842.45
959.985	803.81
960.289	830.92
960.592	816.91
960.896	822.11
961.199	825.73
961.502	795.45
961.805	794.77
962.108	783.47
962.411	819.63
962.714	812.39
963.017	769.23
963.32	813.3
963.623	773.75
963.926	768.33
964.228	769.46
964.531	783.02
964.833	796.58
965.136	780.3
965.438	767.88
965.741	767.2
966.043	771.27
966.345	755.22
966.648	787.54
966.95	785.28
967.252	769.46
967.554	759.51
967.856	771.72
968.158	739.18
968.46	769.01
968.761	755.45
969.063	774.88
969.365	747.54
969.666	761.77
969.968	744.37
970.269	758.16
970.571	747.54
970.872	760.19
971.174	731.49
971.475	739.63
971.776	755.22
972.077	749.57
972.378	731.27
972.679	737.59
972.98	741.21
973.281	714.09
973.582	727.65
973.883	715.22
974.183	719.97
974.484	700.53
974.785	705.5
975.085	700.98
975.386	697.82
975.686	721.77
975.986	699.85
976.287	710.02
976.587	685.39
976.887	696.69
977.187	700.31
977.487	682.45
977.787	697.82
978.087	679.52
978.387	707.31
978.687	676.58
978.987	729.68
979.286	675.67
979.586	679.06
979.885	686.97
980.185	685.17
980.484	687.65
980.784	667.09
981.083	692.85
981.382	685.39
981.682	679.74
981.981	677.93
982.28	665.28
982.579	669.57
982.878	658.95
983.177	660.53
983.475	678.39
983.774	669.12
984.073	658.27
984.372	653.75
984.67	660.31
984.969	649.01
985.267	655.79
985.566	651.27
985.864	646.75
986.162	638.39
986.461	633.42
986.759	663.47
987.057	640.87
987.355	643.58
987.653	624.15
987.951	633.64
988.249	635
988.547	634.55
988.844	617.14
989.142	630.7
989.44	599.74
989.737	610.37
990.035	618.05
990.332	610.37
990.63	613.76
990.927	614.43
991.224	599.07
991.521	613.08
991.819	599.07
992.116	627.31
992.413	602.46
992.71	599.07
993.006	584.15
993.303	588.9
993.6	620.76
993.897	609.91
994.193	599.74
994.49	581.67
994.787	599.74
995.083	592.96
995.379	596.81
995.676	598.61
995.972	597.94
996.268	593.87
996.565	601.1
996.861	586.41
997.157	570.14
997.453	575.34
997.749	597.03
998.044	576.47
998.34	575.79
998.636	571.5
998.932	574.21
999.227	560.42
999.523	558.84
999.818	580.31
1000.114	547.32
1000.409	562.68
1000.704	576.69
1001	543.93
1001.295	577.82
1001.59	565.39
1001.885	562.46
1002.18	548.45
1002.475	546.41
1002.77	544.38
1003.065	564.72
1003.359	557.49
1003.654	574.66
1003.949	544.6
1004.243	546.64
1004.538	536.92
1004.832	541.89
1005.127	539.41
1005.421	542.34
1005.715	557.26
1006.009	558.16
1006.304	514.55
1006.598	537.37
1006.892	541.67
1007.186	533.76
1007.48	532.18
1007.773	518.62
1008.067	536.47
1008.361	531.5
1008.655	550.48
1008.948	532.4
1009.242	515.68
1009.535	526.53
1009.829	524.49
1010.122	519.75
1010.415	518.62
1010.708	517.03
1011.001	529.01
1011.295	520.65
1011.588	528.33
1011.881	502.57
1012.173	501.22
1012.466	499.63
1012.759	495.57
1013.052	490.37
1013.344	486.07
1013.637	495.57
1013.93	491.95
1014.222	498.05
1014.514	483.59
1014.807	482.91
1015.099	471.16
1015.391	499.86
1015.683	492.63
1015.976	482.69
1016.268	473.87
1016.56	490.82
1016.851	485.62
1017.143	472.97
1017.435	477.94
1017.727	481.1
1018.018	465.06
1018.31	482.91
1018.602	484.04
1018.893	471.16
1019.185	443.14
1019.476	471.39
1019.767	467.32
1020.058	477.26
1020.35	481.56
1020.641	468.9
1020.932	460.76
1021.223	465.96
1021.514	482.01
1021.804	447.43
1022.095	453.08
1022.386	470.71
1022.677	452.63
1022.967	457.37
1023.258	464.38
1023.548	453.76
1023.839	432.29
1024.129	442.91
1024.419	430.93
1024.709	432.06
1025	440.43
1025.29	428.22
1025.58	450.14
1025.87	441.56
1026.16	430.48
1026.449	422.8
1026.739	442.23
1027.029	433.65
1027.319	416.02
1027.608	449.01
1027.898	447.88
1028.187	421.44
1028.477	430.03
1028.766	418.51
1029.055	444.04
1029.344	421.9
1029.634	437.04
1029.923	425.51
1030.212	402.01
1030.501	434.1
1030.79	385.29
1031.078	435.91
1031.367	399.75
1031.656	431.61
1031.945	403.59
1032.233	419.18
1032.522	434.32
1032.81	399.75
1033.099	419.18
1033.387	412.63
1033.675	435.23
1033.963	394.1
1034.251	410.6
1034.54	402.69
1034.828	401.78
1035.116	408.56
1035.403	403.59
1035.691	402.24
1035.979	394.1
1036.267	401.78
1036.554	397.26
1036.842	397.94
1037.129	406.3
1037.417	391.84
1037.704	390.48
1037.992	389.35
1038.279	398.85
1038.566	387.77
1038.853	387.77
1039.14	387.77
