Data from foam1_polythene_foam_FLMS001491_00056.txt Node
Date: Wed Feb 08 10:55:03 GMT 2017
User: dcchb
Spectrometer: FLMS00149
Trigger mode: 0
Integration Time (sec): 2.000000E-2
Scans to average: 10
Electric dark correction enabled: true
Nonlinearity correction enabled: false
Boxcar width: 0
XAxis mode: Wavelengths
Number of Pixels in Spectrum: 2048
>>>>>Begin Spectral Data<<<<<
341.393	-2.39
341.776	-2.39
342.16	-2.39
342.543	-50.75
342.927	-55.72
343.31	-56.62
343.693	-88.26
344.077	-64.31
344.46	-55.04
344.843	-66.57
345.226	-24.76
345.61	-46.68
345.993	-12.33
346.376	-17.53
346.759	6.2
347.142	16.6
347.525	60.66
347.908	51.4
348.291	76.03
348.674	100.21
349.057	121
349.44	118.06
349.823	138.85
350.206	176.37
350.588	188.57
350.971	191.28
351.354	215.46
351.737	244.16
352.119	240.09
352.502	256.82
352.884	252.07
353.267	225.18
353.65	273.31
354.032	296.81
354.414	290.71
354.797	307.44
355.179	298.85
355.562	297.94
355.944	298.85
356.326	316.02
356.709	306.76
357.091	312.63
357.473	330.94
357.855	332.29
358.238	317.15
358.62	328
359.002	335.91
359.384	337.27
359.766	310.83
360.148	328.23
360.53	319.19
360.912	318.06
361.294	315.34
361.676	306.08
362.057	323.03
362.439	324.16
362.821	321.45
363.203	323.03
363.584	316.7
363.966	306.53
364.348	333.2
364.729	327.77
365.111	318.51
365.493	309.02
365.874	305.18
366.256	285.97
366.637	261.33
367.019	309.92
367.4	291.16
367.781	296.81
368.163	312.86
368.544	307.44
368.925	326.42
369.306	327.32
369.688	290.03
370.069	302.92
370.45	303.82
370.831	299.98
371.212	282.13
371.593	312.41
371.974	308.11
372.355	290.26
372.736	319.41
373.117	302.69
373.498	305.4
373.879	314.89
374.26	314.21
374.641	306.08
375.021	322.58
375.402	313.99
375.783	299.07
376.163	323.03
376.544	311.73
376.925	292.52
377.305	319.86
377.686	339.52
378.066	317.15
378.447	326.42
378.827	337.27
379.208	318.28
379.588	329.13
379.968	326.42
380.349	330.03
380.729	317.83
381.109	304.5
381.489	337.72
381.87	324.38
382.25	350.37
382.63	322.12
383.01	326.64
383.39	330.03
383.77	326.64
384.15	338.4
384.53	349.92
384.91	340.88
385.29	338.85
385.67	351.73
386.049	344.72
386.429	331.16
386.809	328.9
387.189	346.76
387.568	346.98
387.948	362.12
388.328	352.63
388.707	358.06
389.087	378.39
389.466	335.23
389.846	349.02
390.225	363.25
390.605	356.02
390.984	360.09
391.363	351.73
391.743	359.41
392.122	348.11
392.501	375.68
392.881	371.61
393.26	377.72
393.639	384.72
394.018	375.68
394.397	378.17
394.776	369.35
395.155	375.46
395.534	388.11
395.913	403.25
396.292	360.54
396.671	387.89
397.05	402.57
397.429	387.43
397.808	385.85
398.186	386.53
398.565	384.95
398.944	396.92
399.323	376.36
399.701	388.11
400.08	369.58
400.458	397.6
400.837	401.9
401.215	410.94
401.594	387.21
401.972	410.94
402.351	410.03
402.729	407.77
403.107	424.95
403.486	411.61
403.864	402.35
404.242	414.55
404.62	417.26
404.999	425.17
405.377	397.6
405.755	417.04
406.133	427.43
406.511	412.52
406.889	445.06
407.267	434.21
407.645	466.75
408.023	467.43
408.401	428.79
408.779	435.79
409.156	437.83
409.534	444.61
409.912	444.83
410.29	446.64
410.667	470.59
411.045	465.4
411.422	465.17
411.8	458.17
412.178	490.03
412.555	495.91
412.933	462.23
413.31	484.83
413.687	471.72
414.065	496.13
414.442	497.71
414.819	481.89
415.197	490.48
415.574	514.44
415.951	515.79
416.328	521.89
416.705	532.06
417.082	511.05
417.46	520.54
417.837	536.58
418.214	535.68
418.591	526.86
418.967	537.71
419.344	538.62
419.721	562.8
420.098	549.91
420.475	524.6
420.852	550.14
421.228	567.77
421.605	560.31
421.982	592.4
422.358	560.08
422.735	601.44
423.111	584.72
423.488	583.36
423.864	590.82
424.241	601.66
424.617	598.28
424.994	598.5
425.37	586.07
425.746	625.62
426.123	610.25
426.499	609.12
426.875	618.84
427.251	612.74
427.627	624.49
428.003	622.23
428.379	649.57
428.756	654.54
429.132	646.86
429.507	657.93
429.883	661.32
430.259	656.13
430.635	687.99
431.011	678.95
431.387	677.6
431.763	682.79
432.138	736.58
432.514	709.91
432.89	721.89
433.265	729.12
433.641	725.28
434.016	742.9
434.392	757.14
434.767	746.75
435.143	748.1
435.518	777.25
435.894	769.8
436.269	784.49
436.644	798.5
437.02	781.32
437.395	841.43
437.77	807.99
438.145	848.89
438.52	814.31
438.895	837.36
439.271	846.18
439.646	846.4
440.021	840.53
440.395	858.61
440.77	869.91
441.145	862.68
441.52	883.01
441.895	873.3
442.27	898.38
442.645	868.32
443.019	902.45
443.394	907.87
443.769	934.54
444.143	907.65
444.518	955.33
444.892	961.43
445.267	940.87
445.641	946.97
446.016	975.44
446.39	977.93
446.764	949.23
447.139	1006.17
447.513	980.86
447.887	979.06
448.262	994.42
448.636	1022.22
449.01	1007.08
449.384	1040.07
449.758	1034.2
450.132	1036.23
450.506	1033.29
450.88	1056.57
451.254	1079.17
451.628	1075.78
452.002	1105.38
452.376	1078.26
452.75	1120.97
453.123	1090.92
453.497	1088.66
453.871	1119.84
454.244	1153.97
454.618	1116.91
454.992	1161.65
455.365	1169.33
455.739	1203.01
456.112	1168.88
456.486	1210.01
456.859	1197.58
457.232	1238.03
457.606	1227.64
457.979	1262.21
458.352	1261.76
458.725	1247.52
459.099	1291.59
459.472	1270.12
459.845	1281.42
460.218	1293.62
460.591	1314.87
460.964	1346.96
461.337	1364.13
461.71	1346.5
462.083	1353.96
462.456	1388.76
462.829	1359.39
463.201	1393.28
463.574	1398.03
463.947	1416.33
464.32	1417.91
464.692	1441.87
465.065	1435.54
465.438	1476.67
465.81	1488.87
466.183	1501.53
466.555	1510.34
466.928	1510.57
467.3	1535.43
467.672	1531.58
468.045	1595.54
468.417	1609.32
468.789	1610
469.161	1628.98
469.534	1626.72
469.906	1657
470.278	1680.73
470.65	1704.23
471.022	1699.72
471.394	1742.43
471.766	1742.2
472.138	1751.47
472.51	1802.31
472.882	1838.69
473.253	1786.94
473.625	1867.62
473.997	1891.57
474.369	1908.3
474.74	1913.95
475.112	1945.36
475.484	1972.02
475.855	1993.72
476.227	2001.4
476.598	2090.67
476.97	2073.49
477.341	2109.87
477.713	2184.67
478.084	2179.48
478.455	2230.32
478.827	2219.93
479.198	2263.32
479.569	2294.5
479.94	2383.77
480.311	2403.88
480.682	2413.37
481.053	2498.34
481.424	2482.97
481.795	2533.14
482.166	2557.77
482.537	2631.67
482.908	2672.34
483.279	2665.79
483.65	2723.64
484.021	2753.7
484.391	2777.43
484.762	2824.66
485.133	2893.81
485.503	2870.53
485.874	2936.97
486.244	2954.82
486.615	3026.69
486.985	3057.19
487.356	3088.61
487.726	3108.72
488.097	3213.35
488.467	3213.57
488.837	3235.27
489.207	3281.14
489.578	3326.57
489.948	3349.62
490.318	3418.54
490.688	3428.26
491.058	3530.4
491.428	3534.02
491.798	3594.35
492.168	3622.15
492.538	3628.48
492.908	3683.39
493.278	3717.06
493.648	3740.57
494.017	3787.34
494.387	3812.88
494.757	3837.96
495.126	3831.41
495.496	3892.43
495.866	3971.75
496.235	3997.96
496.605	4003.84
496.974	3990.95
497.344	4044.74
497.713	4158.63
498.082	4142.36
498.452	4185.75
498.821	4200.21
499.19	4202.47
499.559	4281.34
499.928	4247.44
500.298	4309.59
500.667	4352.53
501.036	4379.64
501.405	4462.81
501.774	4437.04
502.143	4501.22
502.512	4501.22
502.88	4496.93
503.249	4547.1
503.618	4575.35
503.987	4596.14
504.356	4680.88
504.724	4650.15
505.093	4718.84
505.462	4725.17
505.83	4754.1
506.199	4766.08
506.567	4886.3
506.936	4850.59
507.304	4966.75
507.672	4914.09
508.041	4988.22
508.409	5022.34
508.777	5059.63
509.145	5103.02
509.514	5093.3
509.882	5172.39
510.25	5169.68
510.618	5190.02
510.986	5281.99
511.354	5315.44
511.722	5360.41
512.09	5401.31
512.458	5388.43
512.826	5428.43
513.193	5446.96
513.561	5505.04
513.929	5541.65
514.297	5594.3
514.664	5578.48
515.032	5678.82
515.4	5696.67
515.767	5740.29
516.135	5782.32
516.502	5766.73
516.869	5850.34
517.237	5888.31
517.604	5844.92
517.972	5982.99
518.339	6001.97
518.706	6016.21
519.073	6092.82
519.44	6129.43
519.808	6145.47
520.175	6165.81
520.542	6248.75
520.909	6288.97
521.276	6303.21
521.643	6338.01
522.009	6409.2
522.376	6383.21
522.743	6532.58
523.11	6549.31
523.477	6602.64
523.843	6684.22
524.21	6743.42
524.577	6835.17
524.943	6848.96
525.31	6853.03
525.676	6919.69
526.043	6947.49
526.409	7044.66
526.776	7052.57
527.142	7123.98
527.508	7160.59
527.874	7229.29
528.241	7257.54
528.607	7260.92
528.973	7406.23
529.339	7369.4
529.705	7413.46
530.071	7455.72
530.437	7524.87
530.803	7592.44
531.169	7605.77
531.535	7636.73
531.901	7681.48
532.267	7649.39
532.632	7782.27
532.998	7802.61
533.364	7855.94
533.73	7895.48
534.095	7979.55
534.461	8037.85
534.826	7991.3
535.192	8068.81
535.557	8115.82
535.923	8021.58
536.288	8121.69
536.653	8210.05
537.019	8218.41
537.384	8259.99
537.749	8316.04
538.114	8321.91
538.479	8323.04
538.845	8353.33
539.21	8355.13
539.575	8359.43
539.94	8368.24
540.305	8424.51
540.67	8507.45
541.034	8546.77
541.399	8546.31
541.764	8591.74
542.129	8590.38
542.494	8622.47
542.858	8624.5
543.223	8697.05
543.587	8743.15
543.952	8694.56
544.316	8680.1
544.681	8762.13
545.045	8806.42
545.41	8884.84
545.774	8863.37
546.138	8953.54
546.503	9029.69
546.867	8957.38
547.231	9006.64
547.595	9070.82
547.959	9080.09
548.324	9073.98
548.688	9163.02
549.052	9179.97
549.416	9190.14
549.779	9222.23
550.143	9175.68
550.507	9314.43
550.871	9425.16
551.235	9342.68
551.599	9425.84
551.962	9415.44
552.326	9474.88
552.689	9514.42
553.053	9423.81
553.417	9517.59
553.78	9720.52
554.143	9664.7
554.507	9716.23
554.87	9705.15
555.234	9765.49
555.597	9797.36
555.96	9833.29
556.323	9842.55
556.686	9913.51
557.05	9928.43
557.413	10015.2
557.776	10053.17
558.139	10081.87
558.502	10167.06
558.865	10158.02
559.228	10219.27
559.59	10263.56
559.953	10218.81
560.316	10375.19
560.679	10327.06
561.041	10395.08
561.404	10489.54
561.767	10524.57
562.129	10515.53
562.492	10659.03
562.854	10614.96
563.217	10666.03
563.579	10760.27
563.941	10741.29
564.304	10814.5
564.666	10872.13
565.028	10907.16
565.39	10872.13
565.753	10988.74
566.115	11029.19
566.477	11106.25
566.839	11152.35
567.201	11182.18
567.563	11217.21
567.925	11282.74
568.287	11342.63
568.648	11315.73
569.01	11374.26
569.372	11456.52
569.734	11433.47
570.095	11507.37
570.457	11549.17
570.819	11598.44
571.18	11678.44
571.542	11719.11
571.903	11675.05
572.265	11677.76
572.626	11780.81
572.987	11708.27
573.349	11804.76
573.71	11817.64
574.071	11882.72
574.432	11921.14
574.794	12028.71
575.155	12028.03
575.516	11962.5
575.877	12051.99
576.238	12099.22
576.599	12140.34
576.96	12146.45
577.32	12110.51
577.681	12205.2
578.042	12164.07
578.403	12206.78
578.763	12184.64
579.124	12239.1
579.485	12323.84
579.845	12291.08
580.206	12305.54
580.566	12307.8
580.927	12407.23
581.287	12451.3
581.648	12359.32
582.008	12453.56
582.368	12423.95
582.728	12510.05
583.089	12380.11
583.449	12371.07
583.809	12508.47
584.169	12477.28
584.529	12373.33
584.889	12454.46
585.249	12473.44
585.609	12493.1
585.969	12495.14
586.329	12498.75
586.688	12545.98
587.048	12534.46
587.408	12521.35
587.768	12465.08
588.127	12422.82
588.487	12397.29
588.846	12535.36
589.206	12330.4
589.565	12515.48
589.925	12475.93
590.284	12481.8
590.643	12546.89
591.003	12587.11
591.362	12624.85
591.721	12554.57
592.08	12637.05
592.44	12650.61
592.799	12590.73
593.158	12541.46
593.517	12549.37
593.876	12514.57
594.235	12509.15
594.593	12607.23
594.952	12614
595.311	12526.78
595.67	12567
596.029	12758.63
596.387	12701.91
596.746	12762.93
597.104	12649.03
597.463	12696.94
597.822	12694.23
598.18	12696.26
598.538	12638.64
598.897	12667.79
599.255	12594.34
599.613	12727
599.972	12665.75
600.33	12771.74
600.688	12677.73
601.046	12824.39
601.404	12788.92
601.762	12848.8
602.12	12859.65
602.478	12805.64
602.836	12870.27
603.194	12735.58
603.552	12833.21
603.91	12758.63
604.268	12795.02
604.625	12711.86
604.983	12825.75
605.341	12769.48
605.698	12897.39
606.056	12948.23
606.413	12995.01
606.771	13034.11
607.128	13004.73
607.485	12960.89
607.843	12950.04
608.2	12978.06
608.557	12983.26
608.914	12995.92
609.272	12970.61
609.629	12992.98
609.986	13067.33
610.343	13021.23
610.7	13146.65
611.057	13034.11
611.414	13062.81
611.771	13122.92
612.127	13089.25
612.484	13144.84
612.841	13270.48
613.198	13223.93
613.554	13216.25
613.911	13229.13
614.267	13169.92
614.624	13160.2
614.98	13176.7
615.337	13275
615.693	13196.59
616.05	13221.45
616.406	13344.15
616.762	13310.71
617.118	13224.84
617.475	13292.63
617.831	13322.69
618.187	13380.99
618.543	13288.34
618.899	13410.14
619.255	13386.41
619.611	13364.04
619.967	13410.37
620.323	13407.88
620.678	13312.97
621.034	13285.63
621.39	13366.53
621.746	13357.71
622.101	13448.56
622.457	13354.78
622.812	13357.04
623.168	13443.14
623.523	13440.88
623.879	13400.88
624.234	13356.13
624.589	13389.8
624.945	13429.58
625.3	13404.49
625.655	13413.76
626.01	13371.72
626.365	13412.85
626.72	13346.41
627.075	13348.9
627.43	13380.31
627.785	13436.36
628.14	13409.69
628.495	13390.93
628.85	13425.73
629.205	13340.54
629.559	13463.25
629.914	13336.47
630.269	13312.74
630.623	13213.99
630.978	13319.52
631.332	13260.99
631.687	13365.62
632.041	13234.78
632.396	13248.11
632.75	13245.63
633.104	13241.78
633.459	13154.56
633.813	13182.13
634.167	13145.74
634.521	13186.64
634.875	13193.2
635.229	13215.57
635.583	13083.6
635.937	13084.73
636.291	13079.3
636.645	13099.19
636.999	13097.16
637.352	13126.99
637.706	13004.28
638.06	13050.83
638.413	12963.6
638.767	13047.21
639.121	13042.69
639.474	12898.06
639.828	12946.43
640.181	12941.45
640.534	12937.84
640.888	12972.64
641.241	12848.57
641.594	12878.63
641.947	12904.39
642.301	12872.08
642.654	12870.04
643.007	12880.89
643.36	12815.13
643.713	12750.05
644.066	12844.73
644.419	12768.35
644.771	12682.48
645.124	12657.17
645.477	12638.41
645.83	12524.74
646.182	12416.27
646.535	12321.13
646.888	12294.46
647.24	12299.89
647.593	12308.02
647.945	12274.13
648.298	12301.24
648.65	12183.28
649.002	12182.6
649.355	12154.36
649.707	12243.39
650.059	12357.74
650.411	12406.55
650.763	12373.56
651.115	12528.13
651.467	12460.56
651.819	12524.06
652.171	12504.4
652.523	12414.01
652.875	12495.59
653.227	12423.05
653.578	12420.11
653.93	12381.24
654.282	12389.83
654.633	12276.61
654.985	12398.19
655.337	12416.95
655.688	12332.88
656.039	12422.37
656.391	12314.8
656.742	12276.61
657.094	12280.91
657.445	12362.26
657.796	12386.89
658.147	12261.47
658.498	12245.2
658.849	12252.88
659.2	12262.15
659.551	12224.86
659.902	12281.58
660.253	12327.46
660.604	12313
660.955	12193.68
661.306	12258.99
661.656	12242.49
662.007	12312.77
662.358	12194.81
662.708	12195.26
663.059	12259.21
663.409	12078.65
663.76	12137.41
664.11	12120.01
664.461	12148.25
664.811	12171.98
665.161	12211.3
665.511	12171.53
665.862	12148.03
666.212	12198.65
666.562	12224.64
666.912	12123.4
667.262	12171.53
667.612	12109.38
667.962	12134.24
668.312	12152.1
668.662	12162.72
669.011	12168.14
669.361	12092.44
669.711	12080.01
670.06	12056.73
670.41	11984.19
670.76	11921.37
671.109	12126.33
671.459	12009.73
671.808	11960.01
672.157	12054.47
672.507	11975.15
672.856	11952.33
673.205	11990.52
673.554	12033.68
673.904	11919.33
674.253	12109.84
674.602	12057.86
674.951	11910.75
675.3	11791.88
675.649	11992.1
675.998	11898.54
676.346	11961.82
676.695	11987.13
677.044	11904.87
677.393	11863.29
677.741	11893.35
678.09	11882.05
678.438	11795.04
678.787	11905.77
679.135	11820.13
679.484	11807.92
679.832	11842.5
680.181	11765.89
680.529	11833.91
680.877	11754.14
681.225	11814.25
681.573	11903.06
681.922	11685.22
682.27	11695.84
682.618	11766.12
682.966	11711.66
683.314	11762.73
683.661	11619.23
684.009	11555.95
684.357	11570.87
684.705	11501.27
685.053	11545.11
685.4	11468.05
685.748	11435.5
686.095	11483.64
686.443	11401.16
686.79	11378.33
687.138	11448.16
687.485	11466.92
687.832	11414.49
688.18	11365.45
688.527	11326.13
688.874	11389.63
689.221	11341.27
689.568	11325.68
689.915	11274.38
690.262	11287.03
690.609	11196.87
690.956	11130.65
691.303	11132.91
691.65	11044.55
691.997	11053.59
692.344	10984.22
692.69	10930.43
693.037	11012.92
693.383	10919.36
693.73	10939.92
694.077	10896.54
694.423	10891.34
694.769	10891.79
695.116	10805.46
695.462	10852.69
695.808	10849.98
696.155	10852.92
696.501	10707.61
696.847	10712.36
697.193	10676.43
697.539	10683.66
697.885	10611.8
698.231	10586.04
698.577	10525.47
698.923	10537.67
699.269	10490.67
699.614	10344.01
699.96	10418.81
700.306	10414.06
700.651	10330.22
700.997	10344.91
701.342	10344.69
701.688	10338.58
702.033	10271.02
702.379	10311.01
702.724	10311.92
703.069	10333.61
703.415	10146.05
703.76	10214.52
704.105	10167.52
704.45	10091.36
704.795	10123.9
705.14	10057.69
705.485	10020.4
705.83	9991.7
706.175	9974.98
706.52	9982.66
706.865	9920.29
707.209	9944.92
707.554	9937.46
707.899	9897.92
708.243	9944.02
708.588	9865.38
708.932	9822.44
709.277	9850.91
709.621	9820.18
709.966	9745.61
710.31	9795.55
710.654	9702.22
710.998	9666.74
711.342	9614.08
711.687	9606.85
712.031	9540.19
712.375	9581.09
712.719	9515.78
713.063	9511.26
713.407	9539.06
713.75	9513.52
714.094	9513.75
714.438	9428.1
714.782	9434.2
715.125	9470.13
715.469	9463.58
715.812	9414.54
716.156	9378.61
716.499	9378.38
716.843	9376.58
717.186	9359.4
717.53	9442.56
717.873	9359.17
718.216	9387.42
718.559	9257.48
718.902	9246.18
719.246	9214.77
719.589	9197.15
719.932	9150.14
720.275	9197.37
720.617	9117.6
720.96	9150.59
721.303	9172.74
721.646	9100.2
721.989	9100.2
722.331	9094.32
722.674	9137.71
723.016	9123.7
723.359	9047.77
723.701	9111.95
724.044	9026.08
724.386	9003.25
724.729	9054.1
725.071	9060.65
725.413	8976.36
725.755	9001.9
726.097	8968.22
726.439	8857.72
726.782	8849.58
727.124	8959.19
727.465	8794.67
727.807	8805.52
728.149	8797.16
728.491	8775.01
728.833	8821.34
729.175	8753.99
729.516	8687.1
729.858	8722.81
730.199	8792.18
730.541	8737.04
730.882	8727.55
731.224	8777.27
731.565	8728.91
731.906	8705.63
732.248	8728
732.589	8736.82
732.93	8694.79
733.271	8669.93
733.612	8749.93
733.953	8697.05
734.294	8590.61
734.635	8603.26
734.976	8660.44
735.317	8611.17
735.658	8570.49
735.999	8607.1
736.339	8494.79
736.68	8481.91
737.021	8498.63
737.361	8444.62
737.702	8458.41
738.042	8462.02
738.383	8510.38
738.723	8427.9
739.063	8465.86
739.404	8525.75
739.744	8457.73
740.084	8451.18
740.424	8472.19
740.764	8391.52
741.104	8457.73
741.444	8365.98
741.784	8327.79
742.124	8314.68
742.464	8350.16
742.804	8278.98
743.143	8315.59
743.483	8286.89
743.823	8207.57
744.162	8261.12
744.502	8249.83
744.841	8151.75
745.181	8202.82
745.52	8198.75
745.86	8207.11
746.199	8175.48
746.538	8202.14
746.877	8191.97
747.216	8137.74
747.556	8161.01
747.895	8094.58
748.234	8120.34
748.573	8109.04
748.911	8071.75
749.25	8108.81
749.589	8044.86
749.928	8092.09
750.267	8087.57
750.605	7978.19
750.944	8033.79
751.283	7988.59
751.621	8001.92
751.96	7914.47
752.298	7847.35
752.636	7922.6
752.975	7888.25
753.313	7812.1
753.651	7828.82
753.989	7816.16
754.327	7845.99
754.666	7782.72
755.004	7803.74
755.342	7810.29
755.679	7863.62
756.017	7771.19
756.355	7823.85
756.693	7738.43
757.031	7779.33
757.368	7758.09
757.706	7648.71
758.044	7686.9
758.381	7716.51
758.719	7633.34
759.056	7678.32
759.394	7681.7
759.731	7531.43
760.068	7547.25
760.405	7469.28
760.743	7450.75
761.08	7505.21
761.417	7485.78
761.754	7402.39
762.091	7426.8
762.428	7370.07
762.765	7349.96
763.102	7356.29
763.438	7364.88
763.775	7287.14
764.112	7308.38
764.449	7311.55
764.785	7277.87
765.122	7261.15
765.458	7257.54
765.795	7227.93
766.131	7200.81
766.467	7160.59
766.804	7122.62
767.14	7099.8
767.476	7164.66
767.812	7076.07
768.148	7034.72
768.485	7071.1
768.821	6980.93
769.157	6923.76
769.492	6947.03
769.828	6958.56
770.164	6867.71
770.5	6906.13
770.836	6884.21
771.171	6807.6
771.507	6846.47
771.842	6756.08
772.178	6749.07
772.513	6728.28
772.849	6758.11
773.184	6671.34
773.519	6727.38
773.855	6688.51
774.19	6669.75
774.525	6631.11
774.86	6619.59
775.195	6609.64
775.53	6604.67
775.865	6563.09
776.2	6522.64
776.535	6507.72
776.87	6454.39
777.205	6456.2
777.539	6448.74
777.874	6442.64
778.209	6390.21
778.543	6328.07
778.878	6292.81
779.212	6306.6
779.547	6262.31
779.881	6238.35
780.215	6204.46
780.55	6242.65
780.884	6186.15
781.218	6196.55
781.552	6167.39
781.886	6093.05
782.22	6087.4
782.554	6110.67
782.888	6077.91
783.222	6047.4
783.556	6080.62
783.889	6035.87
784.223	5958.13
784.557	5922.66
784.89	5917.46
785.224	5952.03
785.557	5955.65
785.891	5887.4
786.224	5893.5
786.558	5872.94
786.891	5804.92
787.224	5825.71
787.557	5762.66
787.891	5843.34
788.224	5725.37
788.557	5727.63
788.89	5726.28
789.223	5732.83
789.556	5658.03
789.888	5681.08
790.221	5657.13
790.554	5589.78
790.887	5607.41
791.219	5564.7
791.552	5566.73
791.884	5517.92
792.217	5536.22
792.549	5525.6
792.882	5518.15
793.214	5454.64
793.546	5471.82
793.879	5450.35
794.211	5413.06
794.543	5392.5
794.875	5418.71
795.207	5436.34
795.539	5359.96
795.871	5355.66
796.203	5338.26
796.535	5291.49
796.867	5287.64
797.198	5293.97
797.53	5339.39
797.862	5274.08
798.193	5259.62
798.525	5186.63
798.856	5203.58
799.188	5236.12
799.519	5110.47
799.85	5177.82
800.182	5122.9
800.513	5133.3
800.844	5059.85
801.175	5104.15
801.506	5141.66
801.837	5066.86
802.168	5059.85
802.499	5056.01
802.83	5025.5
803.161	5014.88
803.491	5000.19
803.822	5002.23
804.153	4981.89
804.483	4942.79
804.814	4969.46
805.145	4978.5
805.475	4963.58
805.805	4927.43
806.136	4923.81
806.466	4939.63
806.796	4907.31
807.126	4876.81
807.457	4809.24
807.787	4825.96
808.117	4841.1
808.447	4805.17
808.777	4774.89
809.107	4760.43
809.436	4787.77
809.766	4732.86
810.096	4721.56
810.426	4710.26
810.755	4698.96
811.085	4723.36
811.414	4707.32
811.744	4668.9
812.073	4654.67
812.403	4660.54
812.732	4617.38
813.061	4699.64
813.39	4631.84
813.719	4620.09
814.049	4644.72
814.378	4602.46
814.707	4599.53
815.036	4562.69
815.365	4597.04
815.693	4549.13
816.022	4515.69
816.351	4501
816.68	4526.31
817.008	4541
817.337	4476.37
817.665	4448.57
817.994	4468.68
818.322	4478.63
818.651	4439.08
818.979	4421.9
819.307	4429.81
819.636	4400.66
819.964	4413.54
820.292	4411.96
820.62	4393.43
820.948	4353.43
821.276	4350.94
821.604	4385.07
821.932	4369.48
822.259	4421
822.587	4368.8
822.915	4388.01
823.243	4405.86
823.57	4414.22
823.898	4427.33
824.225	4381.45
824.553	4384.39
824.88	4386.42
825.207	4392.75
825.535	4378.29
825.862	4423.03
826.189	4430.49
826.516	4456.93
826.843	4400.89
827.17	4413.32
827.497	4369.93
827.824	4340.32
828.151	4367.89
828.478	4359.76
828.805	4346.43
829.131	4383.03
829.458	4386.42
829.785	4330.38
830.111	4352.53
830.438	4394.79
830.764	4378.51
831.09	4378.29
831.417	4324.5
831.743	4365.63
832.069	4346.43
832.395	4349.36
832.722	4384.39
833.048	4364.73
833.374	4329.25
833.7	4328.57
834.026	4342.58
834.351	4367.89
834.677	4361.79
835.003	4381.9
835.329	4331.96
835.654	4345.97
835.98	4333.32
836.306	4303.04
836.631	4283.83
836.956	4310.27
837.282	4335.13
837.607	4261
837.932	4257.84
838.258	4241.8
838.583	4277.73
838.908	4226.2
839.233	4220.78
839.558	4200.67
839.883	4190.5
840.208	4192.31
840.533	4181.46
840.858	4215.36
841.182	4223.72
841.507	4228.91
841.832	4171.51
842.156	4174
842.481	4194.11
842.805	4188.01
843.13	4145.3
843.454	4169.03
843.778	4137.17
844.103	4144.17
844.427	4182.14
844.751	4126.32
845.075	4103.95
845.399	4077.96
845.723	4081.8
846.047	4105.75
846.371	4048.13
846.695	4065.75
847.019	4025.76
847.343	4016.72
847.666	3993.44
847.99	3967.45
848.313	3958.19
848.637	3944.85
848.96	3911.86
849.284	3920.9
849.607	3905.08
849.931	3884.97
850.254	3885.87
850.577	3846.55
850.9	3781.92
851.223	3805.87
851.546	3786.67
851.869	3782.6
852.192	3821.47
852.515	3785.99
852.838	3761.13
853.161	3768.59
853.483	3778.53
853.806	3786.44
854.129	3713.9
854.451	3709.15
854.774	3701.7
855.096	3709.38
855.419	3702.37
855.741	3665.77
856.063	3696.72
856.385	3643.17
856.708	3643.84
857.03	3650.85
857.352	3600.23
857.674	3584.41
857.996	3567.46
858.318	3528.14
858.64	3574.92
858.961	3527.92
859.283	3549.16
859.605	3489.95
859.926	3523.4
860.248	3508.26
860.57	3454.25
860.891	3473
861.212	3502.83
861.534	3492.21
861.855	3417.64
862.176	3454.47
862.498	3466.22
862.819	3443.4
863.14	3454.92
863.461	3444.98
863.782	3473.23
864.103	3477.75
864.424	3444.53
864.745	3503.96
865.065	3443.4
865.386	3450.63
865.707	3463.06
866.027	3417.64
866.348	3441.14
866.668	3429.16
866.989	3403.85
867.309	3383.74
867.63	3421.93
867.95	3377.86
868.27	3392.55
868.59	3376.73
868.91	3357.07
869.23	3358.2
869.55	3316.4
869.87	3376.73
870.19	3314.81
870.51	3336.06
870.83	3308.03
871.15	3293.35
871.469	3279.56
871.789	3322.05
872.109	3292.67
872.428	3288.37
872.748	3312.78
873.067	3295.83
873.386	3312.55
873.706	3314.36
874.025	3314.14
874.344	3322.5
874.663	3314.81
874.982	3299.22
875.301	3285.66
875.62	3313.91
875.939	3318.43
876.258	3286.79
876.577	3273.01
876.896	3276.62
877.214	3273.23
877.533	3246.79
877.852	3292.67
878.17	3270.3
878.489	3234.82
878.807	3223.97
879.125	3234.59
879.444	3187.13
879.762	3202.95
880.08	3207.7
880.398	3182.16
880.716	3178.55
881.034	3188.94
881.352	3149.85
881.67	3159.79
881.988	3185.1
882.306	3149.17
882.624	3138.55
882.941	3132.45
883.259	3113.92
883.577	3124.76
883.894	3111.2
884.212	3143.07
884.529	3161.6
884.846	3127.02
885.164	3109.4
885.481	3100.81
885.798	3115.05
886.115	3079.79
886.432	3107.14
886.75	3107.59
887.067	3074.59
887.383	3067.59
887.7	3090.19
888.017	3098.1
888.334	3061.94
888.651	3022.62
888.967	3071.43
889.284	3037.53
889.6	3023.3
889.917	3001.38
890.233	2987.14
890.55	2961.6
890.866	2997.99
891.182	2964.31
891.498	2983.75
891.815	2949.17
892.131	2945.78
892.447	2950.3
892.763	2934.94
893.079	2892
893.395	2907.59
893.71	2876.63
894.026	2891.1
894.342	2883.86
894.657	2861.27
894.973	2870.98
895.289	2866.69
895.604	2829.63
895.92	2819.91
896.235	2822.62
896.55	2840.93
896.865	2838.44
897.181	2803.87
897.496	2805.67
897.811	2844.54
898.126	2809.29
898.441	2817.2
898.756	2780.14
899.071	2779.23
899.386	2782.85
899.7	2761.38
900.015	2733.13
900.33	2748.28
900.644	2728.61
900.959	2723.19
901.273	2717.54
901.588	2714.6
901.902	2731.55
902.216	2702.4
902.531	2704.66
902.845	2661.72
903.159	2696.75
903.473	2657.2
903.787	2641.39
904.101	2619.01
904.415	2628.28
904.729	2596.87
905.042	2591.22
905.356	2597.77
905.67	2600.48
905.984	2574.27
906.297	2592.12
906.611	2558.45
906.924	2579.01
907.237	2566.13
907.551	2559.35
907.864	2527.94
908.177	2528.85
908.491	2500.37
908.804	2512.35
909.117	2504.67
909.43	2513.03
909.743	2506.47
910.056	2482.97
910.368	2473.71
910.681	2479.58
910.994	2478.23
911.307	2474.61
911.619	2447.72
911.932	2443.2
912.244	2403.43
912.557	2429.41
912.869	2421.5
913.181	2408.85
913.494	2381.05
913.806	2398
914.118	2377.66
914.43	2372.92
914.742	2360.71
915.054	2337.44
915.366	2307.61
915.678	2272.81
915.99	2317.1
916.302	2338.12
916.613	2326.37
916.925	2279.81
917.236	2269.42
917.548	2269.19
917.859	2268.29
918.171	2259.93
918.482	2233.03
918.794	2249.31
919.105	2246.14
919.416	2222.19
919.727	2226.03
920.038	2249.08
920.349	2231.45
920.66	2207.5
920.971	2218.8
921.282	2216.09
921.593	2187.84
921.903	2155.07
922.214	2173.83
922.525	2144.45
922.835	2143.32
923.146	2165.24
923.456	2133.15
923.767	2106.03
924.077	2102.64
924.387	2111
924.697	2108.29
925.008	2103.09
925.318	2089.54
925.628	2062.42
925.938	2106.03
926.248	2097.67
926.558	2083.89
926.867	2040.5
927.177	2021.97
927.487	2054.28
927.796	2019.48
928.106	2009.99
928.416	2012.93
928.725	1988.75
929.034	1973.15
929.344	1994.17
929.653	1974.74
929.962	1955.3
930.271	1989.2
930.581	1972.7
930.89	1931.12
931.199	1941.74
931.508	1913.72
931.817	1939.03
932.125	1895.42
932.434	1911.24
932.743	1878.69
933.051	1864
933.36	1883.21
933.669	1838.24
933.977	1891.35
934.286	1860.16
934.594	1865.59
934.902	1878.24
935.21	1896.32
935.519	1863.1
935.827	1857.9
936.135	1836.66
936.443	1819.26
936.751	1805.93
937.059	1821.07
937.367	1813.61
937.674	1777.45
937.982	1817.9
938.29	1779.71
938.597	1801.86
938.905	1775.19
939.213	1774.29
939.52	1769.32
939.827	1767.96
940.135	1794.85
940.442	1734.97
940.749	1723.67
941.056	1737
941.363	1739.49
941.67	1698.59
941.977	1699.94
942.284	1686.16
942.591	1680.05
942.898	1682.77
943.205	1682.77
943.511	1679.6
943.818	1654.07
944.125	1681.18
944.431	1690.45
944.738	1647.06
945.044	1658.36
945.35	1667.85
945.657	1600.28
945.963	1616.78
946.269	1628.98
946.575	1605.48
946.881	1588.98
947.187	1608.64
947.493	1598.7
947.799	1563.9
948.105	1597.35
948.41	1574.07
948.716	1599.15
949.022	1591.02
949.327	1585.14
949.633	1572.03
949.938	1538.36
950.244	1563
950.549	1562.77
950.854	1549.66
951.16	1540.85
951.465	1535.65
951.77	1515.31
952.075	1526.84
952.38	1513.51
952.685	1531.81
952.99	1520.06
953.294	1468.76
953.599	1491.81
953.904	1501.53
954.209	1503.34
954.513	1497.23
954.818	1502.43
955.122	1457.01
955.426	1477.57
955.731	1478.48
956.035	1450.68
956.339	1439.61
956.643	1448.87
956.948	1450.46
957.252	1435.77
957.556	1448.65
957.86	1406.16
958.163	1410.68
958.467	1413.4
958.771	1428.76
959.075	1405.26
959.378	1434.86
959.682	1365.94
959.985	1390.8
960.289	1390.12
960.592	1387.63
960.896	1391.02
961.199	1361.87
961.502	1321.65
961.805	1374.75
962.108	1364.81
962.411	1346.05
962.714	1360.97
963.017	1348.76
963.32	1365.26
963.623	1361.19
963.926	1337.69
964.228	1330.01
964.531	1319.84
964.833	1326.39
965.136	1307.18
965.438	1300.86
965.741	1298.14
966.043	1287.52
966.345	1303.12
966.648	1285.94
966.95	1275.09
967.252	1283.68
967.554	1278.48
967.856	1269.9
968.158	1266.05
968.46	1244.36
968.761	1257.69
969.063	1275.09
969.365	1244.59
969.666	1233.74
969.968	1234.64
970.269	1240.52
970.571	1224.25
970.872	1233.51
971.174	1196.23
971.475	1206.85
971.776	1189.45
972.077	1248.43
972.378	1217.02
972.679	1208.43
972.98	1205.49
973.281	1183.8
973.582	1198.03
973.883	1177.92
974.183	1171.82
974.484	1175.89
974.785	1167.98
975.085	1164.59
975.386	1149.9
975.686	1153.97
975.986	1188.54
976.287	1169.33
976.587	1154.19
976.887	1146.74
977.187	1163.01
977.487	1133.4
977.787	1118.26
978.087	1141.99
978.387	1142.44
978.687	1108.54
978.987	1098.15
979.286	1130.01
979.586	1102.44
979.885	1108.54
980.185	1111.93
980.484	1090.24
980.784	1105.38
981.083	1080.75
981.382	1080.75
981.682	1073.52
981.981	1078.71
982.28	1081.2
982.579	1053.18
982.878	1062.67
983.177	1064.25
983.475	1073.29
983.774	1072.16
984.073	1067.64
984.372	1044.14
984.67	1043.46
984.969	1056.79
985.267	1050.69
985.566	1054.53
985.864	1033.52
986.162	1031.26
986.461	1040.98
986.759	1023.35
987.057	1021.09
987.355	1000.75
987.653	1022.44
987.951	994.87
988.249	1015.89
988.547	1001.43
988.844	983.58
989.142	986.74
989.44	1004.14
989.737	959.4
990.035	969.79
990.332	983.12
990.63	978.38
990.927	976.57
991.224	952.16
991.521	969.11
991.819	965.27
992.116	953.52
992.413	950.81
992.71	969.56
993.006	948.77
993.303	930.02
993.6	942.67
993.897	956.91
994.193	942.9
994.49	922.11
994.787	936.8
995.083	914.65
995.379	928.44
995.676	918.72
995.972	951.49
996.268	902.45
996.565	909.23
996.861	877.14
997.157	910.36
997.453	900.87
997.749	878.95
998.044	887.53
998.34	897.25
998.636	896.35
998.932	881.21
999.227	866.74
999.523	905.16
999.818	882.34
1000.114	875.78
1000.409	857.93
1000.704	882.11
1001	860.87
1001.295	848.21
1001.59	838.72
1001.885	870.58
1002.18	871.49
1002.475	844.14
1002.77	848.66
1003.065	858.38
1003.359	814.77
1003.654	852.28
1003.949	813.86
1004.243	825.84
1004.538	805.73
1004.832	808.21
1005.127	812.96
1005.421	792.85
1005.715	820.19
1006.009	806.63
1006.304	840.98
1006.598	785.61
1006.892	789.91
1007.186	781.77
1007.48	786.52
1007.773	777.71
1008.067	791.49
1008.361	796.24
1008.655	775.45
1008.948	760.76
1009.242	745.16
1009.535	778.84
1009.829	786.52
1010.122	783.36
1010.415	748.33
1010.708	759.63
1011.001	763.92
1011.295	742
1011.588	771.38
1011.881	738.38
1012.173	740.64
1012.466	758.95
1012.759	733.86
1013.052	740.64
1013.344	736.35
1013.637	738.16
1013.93	736.35
1014.222	738.61
1014.514	700.42
1014.807	706.75
1015.099	704.71
1015.391	695.22
1015.683	698.39
1015.976	701.78
1016.268	703.36
1016.56	689.57
1016.851	709.91
1017.143	704.04
1017.435	672.17
1017.727	704.71
1018.018	681.21
1018.31	676.01
1018.602	659.97
1018.893	677.82
1019.185	655.9
1019.476	637.37
1019.767	670.36
1020.058	674.66
1020.35	690.48
1020.641	670.36
1020.932	648.44
1021.223	671.49
1021.514	651.38
1021.804	655.67
1022.095	641.21
1022.386	643.92
1022.677	641.89
1022.967	638.5
1023.258	631.49
1023.548	622.68
1023.839	626.75
1024.129	633.53
1024.419	618.61
1024.709	624.94
1025	623.81
1025.29	631.27
1025.58	622.68
1025.87	573.64
1026.16	620.87
1026.449	605.05
1026.739	612.29
1027.029	603.47
1027.319	594.43
1027.608	592.63
1027.898	590.82
1028.187	611.16
1028.477	604.38
1028.766	602.79
1029.055	572.51
1029.344	575.45
1029.634	579.74
1029.923	573.87
1030.212	569.12
1030.501	570.25
1030.79	560.99
1031.078	560.08
1031.367	548.11
1031.656	555.11
1031.945	564.6
1032.233	555.11
1032.522	573.19
1032.81	577.26
1033.099	567.99
1033.387	539.07
1033.675	530.48
1033.963	552.63
1034.251	539.29
1034.54	541.1
1034.828	545.17
1035.116	552.63
1035.403	543.14
1035.691	541.55
1035.979	529.35
1036.267	513.53
1036.554	527.54
1036.842	508.11
1037.129	525.96
1037.417	515.79
1037.704	529.8
1037.992	527.54
1038.279	499.07
1038.566	508.79
1038.853	508.79
1039.14	508.79
