Data from foam_black_FLMS001491_00072.txt Node
Date: Wed Feb 08 10:44:36 GMT 2017
User: dcchb
Spectrometer: FLMS00149
Trigger mode: 0
Integration Time (sec): 2.000000E-2
Scans to average: 10
Electric dark correction enabled: true
Nonlinearity correction enabled: false
Boxcar width: 0
XAxis mode: Wavelengths
Number of Pixels in Spectrum: 2048
>>>>>Begin Spectral Data<<<<<
341.393	5.27
341.776	5.27
342.16	5.27
342.543	-63.2
342.927	-70.66
343.31	-64.79
343.693	-63.2
344.077	-56.43
344.46	-36.99
344.843	-54.84
345.226	-38.12
345.61	-1.74
345.993	-14.39
346.376	-13.49
346.759	4.36
347.142	19.05
347.525	16.34
347.908	53.63
348.291	64.48
348.674	83.01
349.057	103.12
349.44	132.27
349.823	144.47
350.206	132.95
350.588	177.47
350.971	198.03
351.354	197.81
351.737	207.07
352.119	214.08
352.502	246.84
352.884	248.65
353.267	245.49
353.65	278.48
354.032	277.35
354.414	275.32
354.797	296.56
355.179	306.05
355.562	286.39
355.944	323.9
356.326	312.15
356.709	298.37
357.091	294.75
357.473	306.96
357.855	318.03
358.238	319.38
358.62	328.42
359.002	328.88
359.384	320.51
359.766	322.32
360.148	317.35
360.53	330.46
360.912	322.77
361.294	334.75
361.676	318.25
362.057	321.19
362.439	335.88
362.821	311.7
363.203	297.69
363.584	309.67
363.966	312.38
364.348	319.61
364.729	316.45
365.111	292.94
365.493	298.37
365.874	298.82
366.256	298.37
366.637	284.81
367.019	308.31
367.4	289.55
367.781	291.14
368.163	283.45
368.544	295.66
368.925	307.18
369.306	283.68
369.688	280.74
370.069	272.38
370.45	285.71
370.831	282.1
371.212	306.96
371.593	289.1
371.974	294.98
372.355	300.18
372.736	316.45
373.117	283.23
373.498	311.7
373.879	286.39
374.26	310.8
374.641	280.06
375.021	291.81
375.402	290.46
375.783	289.78
376.163	313.06
376.544	290.46
376.925	289.78
377.305	307.41
377.686	312.83
378.066	312.6
378.447	317.58
378.827	297.46
379.208	321.64
379.588	305.6
379.968	302.89
380.349	310.12
380.729	313.06
381.109	296.56
381.489	331.14
381.87	328.65
382.25	327.29
382.63	312.6
383.01	334.75
383.39	331.14
383.77	337.01
384.15	310.12
384.53	323
384.91	341.08
385.29	355.09
385.67	341.76
386.049	318.25
386.429	343.11
386.809	334.98
387.189	331.59
387.568	328.42
387.948	336.78
388.328	327.07
388.707	330.46
389.087	324.13
389.466	337.91
389.846	342.66
390.225	338.14
390.605	352.83
390.984	344.24
391.363	344.47
391.743	353.96
392.122	353.28
392.501	342.21
392.881	367.29
393.26	354.19
393.639	381.53
394.018	341.76
394.397	360.29
394.776	357.12
395.155	371.81
395.534	378.82
395.913	390.57
396.292	359.61
396.671	353.73
397.05	376.11
397.429	379.04
397.808	369.55
398.186	378.14
398.565	395.77
398.944	375.43
399.323	400.96
399.701	386.73
400.08	383.34
400.458	390.34
400.837	399.38
401.215	388.76
401.594	402.55
401.972	387.63
402.351	377.91
402.729	394.18
403.107	403.45
403.486	381.08
403.864	388.08
404.242	402.09
404.62	399.38
404.999	400.06
405.377	405.71
405.755	395.31
406.133	398.93
406.511	400.06
406.889	405.71
407.267	406.61
407.645	417.69
408.023	438.7
408.401	412.72
408.779	424.01
409.156	426.05
409.534	429.66
409.912	423.34
410.29	427.86
410.667	456.78
411.045	456.1
411.422	450
411.8	431.02
412.178	451.58
412.555	468.53
412.933	479.15
413.31	451.13
413.687	476.67
414.065	485.26
414.442	460.17
414.819	466.05
415.197	487.97
415.574	463.56
415.951	489.78
416.328	475.31
416.705	469.21
417.082	492.04
417.46	488.87
417.837	505.37
418.214	490.45
418.591	496.1
418.967	498.36
419.344	503.11
419.721	491.13
420.098	493.39
420.475	498.81
420.852	502.43
421.228	509.44
421.605	506.95
421.982	501.07
422.358	527.97
422.735	508.76
423.111	511.24
423.488	531.81
423.864	546.95
424.241	540.17
424.617	520.96
424.994	550.11
425.37	523.22
425.746	552.6
426.123	539.04
426.499	538.36
426.875	558.93
427.251	554.18
427.627	560.73
428.003	563.45
428.379	583.33
428.756	560.06
429.132	564.8
429.507	583.11
429.883	574.74
430.259	592.37
430.635	620.39
431.011	598.25
431.387	602.09
431.763	609.77
432.138	620.17
432.514	620.85
432.89	618.13
433.265	636.66
433.641	640.05
434.016	641.18
434.392	661.75
434.767	657.68
435.143	655.65
435.518	660.84
435.894	683.44
436.269	677.79
436.644	680.73
437.02	687.51
437.395	707.17
437.77	719.15
438.145	676.66
438.52	696.78
438.895	709.66
439.271	716.21
439.646	716.44
440.021	713.72
440.395	734.06
440.77	700.17
441.145	706.49
441.52	739.94
441.895	738.58
442.27	734.74
442.645	725.48
443.019	747.4
443.394	740.16
443.769	767.28
444.143	741.97
444.518	759.15
444.892	760.95
445.267	763.21
445.641	766.38
446.016	777.68
446.39	761.86
446.764	774.97
447.139	779.94
447.513	794.17
447.887	799.15
448.262	793.04
448.636	809.54
449.01	805.7
449.384	786.26
449.758	830.56
450.132	818.81
450.506	832.14
450.88	843.66
451.254	821.74
451.628	834.62
452.002	856.09
452.376	859.48
452.75	843.21
453.123	868.97
453.497	878.47
453.871	870.33
454.244	897.9
454.618	887.96
454.992	893.38
455.365	901.97
455.739	924.34
456.112	949.65
456.486	924.57
456.859	925.47
457.232	977.22
457.606	953.49
457.979	974.06
458.352	958.01
458.725	991.23
459.099	1005.47
459.472	1009.31
459.845	1018.8
460.218	1005.69
460.591	1003.89
460.964	1010.44
461.337	1029.2
461.71	1027.61
462.083	1058.35
462.456	1077.33
462.829	1066.94
463.201	1083.21
463.574	1086.82
463.947	1102.41
464.32	1112.81
464.692	1134.28
465.065	1122.3
465.438	1158.68
465.81	1171.34
466.183	1171.57
466.555	1198.68
466.928	1200.94
467.3	1192.36
467.672	1205.91
468.045	1253.15
468.417	1262.86
468.789	1248.17
469.161	1265.12
469.534	1312.35
469.906	1318.45
470.278	1293.37
470.65	1318.45
471.022	1340.83
471.394	1355.74
471.766	1373.82
472.138	1384.44
472.51	1403.88
472.882	1438
473.253	1427.15
473.625	1450.88
473.997	1484.1
474.369	1494.04
474.74	1500.14
475.112	1532.69
475.484	1533.36
475.855	1548.73
476.227	1583.31
476.598	1612.91
476.97	1651.1
477.341	1672.79
477.713	1674.15
478.084	1712.57
478.455	1721.61
478.827	1750.99
479.198	1791.66
479.569	1783.75
479.94	1808.84
480.311	1809.74
480.682	1857.2
481.053	1928.38
481.424	1951.21
481.795	1920.7
482.166	1978.55
482.537	1994.82
482.908	2043.18
483.279	2031.2
483.65	2073.01
484.021	2146.45
484.391	2101.94
484.762	2129.51
485.133	2123.86
485.503	2216.74
485.874	2232.78
486.244	2254.7
486.615	2284.08
486.985	2317.98
487.356	2336.96
487.726	2330.86
488.097	2402.49
488.467	2404.3
488.837	2454.24
489.207	2511.19
489.578	2518.2
489.948	2522.94
490.318	2562.94
490.688	2558.2
491.058	2595.93
491.428	2616.05
491.798	2656.95
492.168	2712.32
492.538	2725.42
492.908	2719.32
493.278	2770.85
493.648	2784.4
494.017	2836.61
494.387	2828.92
494.757	2856.72
495.126	2882.25
495.496	2876.15
495.866	2916.15
496.235	2924.06
496.605	2960.67
496.974	2971.07
497.344	2976.72
497.713	3023.04
498.082	3073.66
498.452	3065.3
498.821	3110.5
499.19	3109.59
499.559	3135.81
499.928	3131.29
500.298	3164.73
500.667	3187.56
501.036	3188.91
501.405	3255.13
501.774	3252.41
502.143	3285.86
502.512	3300.32
502.88	3313.66
503.249	3276.14
503.618	3325.63
503.987	3410.15
504.356	3397.04
504.724	3408.12
505.093	3453.99
505.462	3434.1
505.83	3487.66
506.199	3499.41
506.567	3555.01
506.936	3556.14
507.304	3578.73
507.672	3568.11
508.041	3628.68
508.409	3658.05
508.777	3664.16
509.145	3655.57
509.514	3697.37
509.882	3747.77
510.25	3698.05
510.618	3749.8
510.986	3773.53
511.354	3830.03
511.722	3780.54
512.09	3889.23
512.458	3863.47
512.826	3915
513.193	3929.23
513.561	3927.88
513.929	3950.48
514.297	3998.16
514.664	4009.91
515.032	4001.32
515.4	4085.84
515.767	4040.87
516.135	4085.84
516.502	4098.49
516.869	4173.07
517.237	4172.16
517.604	4189.11
517.972	4235.67
518.339	4237.47
518.706	4257.81
519.073	4314.76
519.44	4364.48
519.808	4407.41
520.175	4401.99
520.542	4441.31
520.909	4451.48
521.276	4476.79
521.643	4495.77
522.009	4556.79
522.376	4588.88
522.743	4615.09
523.11	4634.98
523.477	4656.9
523.843	4699.61
524.21	4788.42
524.577	4801.07
524.943	4846.95
525.31	4880.17
525.676	4887.63
526.043	4975.76
526.409	4923.78
526.776	5023.89
527.142	4992.71
527.508	5000.84
527.874	5106.6
528.241	5139.6
528.607	5154.06
528.973	5223.44
529.339	5144.79
529.705	5224.34
530.071	5259.37
530.437	5368.29
530.803	5334.85
531.169	5358.8
531.535	5408.74
531.901	5435.18
532.267	5448.51
532.632	5477.21
532.998	5499.81
533.364	5595.63
533.73	5536.65
534.095	5586.14
534.461	5640.6
534.826	5619.36
535.192	5687.15
535.557	5699.81
535.923	5717.66
536.288	5716.76
536.653	5733.93
537.019	5778.9
537.384	5810.99
537.749	5865.68
538.114	5867.03
538.479	5839.47
538.845	5899.12
539.21	5889.86
539.575	5919.91
539.94	5964.89
540.305	5945.23
540.67	5956.52
541.034	6008.73
541.399	5960.14
541.764	6032.91
542.129	6045.34
542.494	6036.52
542.858	6049.4
543.223	6130.98
543.587	6148.38
543.952	6107.03
544.316	6083.98
544.681	6158.1
545.045	6168.5
545.41	6202.39
545.774	6205.11
546.138	6198.1
546.503	6255.5
546.867	6180.47
547.231	6314.03
547.595	6226.57
547.959	6298.66
548.324	6293.24
548.688	6338.21
549.052	6402.84
549.416	6404.2
549.779	6396.06
550.143	6423.63
550.507	6481.03
550.871	6483.52
551.235	6460.92
551.599	6532.78
551.962	6554.93
552.326	6585.43
552.689	6578.88
553.053	6598.99
553.417	6641.48
553.78	6736.84
554.143	6668.82
554.507	6709.05
554.87	6755.15
555.234	6856.84
555.597	6787.91
555.96	6882.6
556.323	6908.59
556.686	6941.58
557.05	6934.58
557.413	6974.35
557.776	7023.84
558.139	7080.79
558.502	7088.02
558.865	7111.75
559.228	7181.35
559.59	7205.3
559.953	7255.25
560.316	7250.5
560.679	7323.95
561.041	7302.93
561.404	7364.62
561.767	7480.1
562.129	7399.65
562.492	7499.08
562.854	7464.28
563.217	7509.25
563.579	7588.12
563.941	7541.34
564.304	7653.2
564.666	7662.02
565.028	7751.51
565.39	7747.66
565.753	7745.18
566.115	7786.08
566.477	7831.28
566.839	7893.2
567.201	7961.9
567.563	7902.69
567.925	7956.47
568.287	7996.92
568.648	7949.24
569.01	8031.05
569.372	8077.6
569.734	8043.7
570.095	8081.44
570.457	8172.51
570.819	8129.8
571.18	8128.67
571.542	8206.63
571.903	8220.42
572.265	8247.54
572.626	8272.85
572.987	8324.6
573.349	8367.99
573.71	8416.8
574.071	8363.24
574.432	8446.63
574.794	8513.29
575.155	8532.5
575.516	8490.47
575.877	8579.51
576.238	8615.44
576.599	8570.92
576.96	8612.5
577.32	8631.26
577.681	8589.45
578.042	8711.25
578.403	8675.77
578.763	8742.44
579.124	8681.42
579.485	8784.02
579.845	8795.77
580.206	8781.08
580.566	8831.02
580.927	8813.85
581.287	8881.64
581.648	8764.59
582.008	8858.14
582.368	8810.46
582.728	8856.33
583.089	8870.35
583.449	8822.21
583.809	8894.75
584.169	8886.62
584.529	8856.56
584.889	8984.02
585.249	8853.85
585.609	8900.85
585.969	8899.27
586.329	8888.88
586.688	8886.62
587.048	8918.93
587.408	8882.1
587.768	8846.17
588.127	8864.47
588.487	8846.17
588.846	8955.99
589.206	8879.84
589.565	8872.83
589.925	8907.63
590.284	8926.84
590.643	8852.95
591.003	8899.5
591.362	8913.06
591.721	8915.32
592.08	8938.37
592.44	8973.62
592.799	8859.95
593.158	8834.64
593.517	8862.44
593.876	8935.88
594.235	8946.28
594.593	8922.77
594.952	8885.26
595.311	8896.79
595.67	8881.64
596.029	8951.25
596.387	9004.58
596.746	8932.49
597.104	8901.76
597.463	8943.79
597.822	8974.52
598.18	8915.77
598.538	8907.63
598.897	8973.62
599.255	8892.94
599.613	9033.73
599.972	8993.96
600.33	9004.35
600.688	8928.65
601.046	9038.93
601.404	9021.53
601.762	9015.65
602.12	9104.24
602.478	9040.28
602.836	9099.72
603.194	8992.38
603.552	9049.1
603.91	9058.14
604.268	9114.86
604.625	9028.08
604.983	9114.86
605.341	9027.18
605.698	9092.49
606.056	9151.69
606.413	9159.38
606.771	9214.97
607.128	9171.81
607.485	9111.47
607.843	9189.21
608.2	9259.94
608.557	9179.49
608.914	9162.77
609.272	9200.05
609.629	9226.49
609.986	9274.85
610.343	9135.2
610.7	9332.48
611.057	9233.73
611.414	9221.07
611.771	9308.98
612.127	9312.14
612.484	9260.84
612.841	9298.81
613.198	9301.29
613.554	9268.08
613.911	9282.09
614.267	9305.59
614.624	9310.79
614.98	9330.9
615.337	9406.6
615.693	9323.44
616.05	9254.74
616.406	9348.98
616.762	9339.94
617.118	9382.42
617.475	9327.06
617.831	9304.01
618.187	9376.1
618.543	9434.85
618.899	9405.25
619.255	9472.14
619.611	9455.87
619.967	9367.06
620.323	9454.51
620.678	9380.61
621.034	9405.7
621.39	9375.87
621.746	9436.88
622.101	9504.91
622.457	9440.73
622.812	9419.71
623.168	9447.96
623.523	9470.33
623.879	9472.82
624.234	9386.94
624.589	9444.79
624.945	9464.68
625.3	9555.98
625.655	9471.46
626.01	9497.45
626.365	9507.17
626.72	9515.07
627.075	9454.74
627.43	9508.97
627.785	9488.18
628.14	9516.88
628.495	9491.8
628.85	9525.24
629.205	9520.95
629.559	9453.83
629.914	9455.64
630.269	9567.73
630.623	9436.43
630.978	9516.88
631.332	9593.94
631.687	9605.69
632.041	9545.36
632.396	9569.54
632.75	9499.71
633.104	9500.61
633.459	9507.84
633.813	9496.77
634.167	9433.72
634.521	9504.91
634.875	9521.18
635.229	9457.68
635.583	9438.92
635.937	9448.41
636.291	9477.56
636.645	9440.95
636.999	9469.88
637.352	9452.7
637.706	9398.92
638.06	9448.41
638.413	9362.99
638.767	9386.04
639.121	9458.58
639.474	9348.98
639.828	9299.04
640.181	9360.5
640.534	9328.19
640.888	9299.94
641.241	9203.9
641.594	9372.03
641.947	9326.15
642.301	9331.8
642.654	9255.65
643.007	9321.63
643.36	9243.9
643.713	9216.78
644.066	9214.07
644.419	9165.93
644.771	9054.75
645.124	8997.12
645.477	9007.97
645.83	8905.6
646.182	8931.36
646.535	8847.3
646.888	8853.17
647.24	8823.12
647.593	8861.76
647.945	8839.39
648.298	8806.84
648.65	8796.9
649.002	8798.94
649.355	8792.83
649.707	8751.25
650.059	8744.47
650.411	8877.58
650.763	8904.47
651.115	8953.51
651.467	8920.29
651.819	8922.1
652.171	8967.07
652.523	8916.45
652.875	8878.26
653.227	8890.68
653.578	8875.54
653.93	8889.78
654.282	8914.19
654.633	8813.17
654.985	8835.09
655.337	8837.58
655.688	8901.08
656.039	8939.27
656.391	8918.25
656.742	8871.25
657.094	8818.14
657.445	8876.9
657.796	8807.52
658.147	8812.95
658.498	8850.23
658.849	8871.25
659.2	8878.03
659.551	8865.6
659.902	8890.91
660.253	8824.7
660.604	8856.56
660.955	8807.75
661.306	8840.52
661.656	8827.86
662.007	8898.59
662.358	8856.11
662.708	8857.01
663.059	8816.11
663.409	8832.38
663.76	8854.98
664.11	8876.22
664.461	8832.61
664.811	8891.81
665.161	8855.88
665.511	8842.55
665.862	8791.25
666.212	8833.96
666.562	8814.08
666.912	8707.86
667.262	8794.19
667.612	8735.21
667.962	8701.54
668.312	8721.88
668.662	8764.81
669.011	8719.16
669.361	8732.5
669.711	8720.07
670.06	8712.16
670.41	8691.37
670.76	8688.2
671.109	8726.62
671.459	8667.87
671.808	8706.06
672.157	8743.34
672.507	8608.21
672.856	8635.55
673.205	8604.36
673.554	8680.07
673.904	8561.2
674.253	8592.61
674.602	8571.6
674.951	8485.05
675.3	8469
675.649	8540.64
675.998	8556.91
676.346	8474.88
676.695	8563.69
677.044	8450.02
677.393	8457.48
677.741	8396.23
678.09	8425.39
678.438	8400.3
678.787	8466.51
679.135	8479.17
679.484	8352.85
679.832	8419.96
680.181	8354.88
680.529	8380.19
680.877	8380.42
681.225	8333.18
681.573	8383.58
681.922	8272.62
682.27	8289.8
682.618	8305.39
682.966	8298.16
683.314	8284.6
683.661	8349.91
684.009	8208.89
684.357	8227.42
684.705	8245.28
685.053	8279.63
685.4	8280.53
685.748	8219.97
686.095	8221.32
686.443	8172.06
686.79	8123.92
687.138	8212.06
687.485	8154.66
687.832	8197.6
688.18	8128.22
688.527	8109.24
688.874	8098.61
689.221	8080.76
689.568	8054.55
689.915	8009.13
690.262	8071.04
690.609	8051.38
690.956	8006.19
691.303	8110.14
691.65	7911.28
691.997	8047.32
692.344	7961.9
692.69	8031.05
693.037	7995.34
693.383	7948.11
693.73	7921.44
694.077	7892.52
694.423	7864.72
694.769	7870.6
695.116	7866.53
695.462	7801.67
695.808	7819.98
696.155	7821.33
696.501	7826.53
696.847	7734.33
697.193	7723.03
697.539	7735.23
697.885	7696.59
698.231	7652.98
698.577	7631.96
698.923	7613.88
699.269	7661.11
699.614	7530.95
699.96	7520.1
700.306	7618.63
700.651	7528.69
700.997	7542.47
701.342	7515.81
701.688	7472.87
702.033	7409.59
702.379	7514.45
702.724	7401.46
703.069	7454.34
703.415	7342.93
703.76	7344.74
704.105	7401.23
704.45	7315.13
704.795	7261.35
705.14	7279.2
705.485	7259.54
705.83	7201.46
706.175	7222.93
706.52	7175.25
706.865	7195.14
707.209	7225.64
707.554	7128.47
707.899	7191.52
708.243	7047.34
708.588	7059.32
708.932	7034.46
709.277	7038.53
709.621	7013.9
709.966	6914.92
710.31	6994.01
710.654	6933.45
710.998	6963.05
711.342	6928.25
711.687	6952.2
712.031	6882.15
712.375	6884.86
712.719	6846.67
713.063	6841.7
713.407	6883.05
713.75	6796.73
714.094	6825.65
714.438	6764.86
714.782	6739.1
715.125	6732.55
715.469	6739.55
715.812	6676.51
716.156	6613.91
716.499	6690.52
716.843	6718.99
717.186	6665.66
717.53	6653.91
717.873	6628.6
718.216	6644.64
718.559	6594.7
718.902	6552.21
719.246	6576.17
719.589	6567.36
719.932	6544.76
720.275	6550.86
720.617	6550.41
720.96	6528.94
721.303	6540.01
721.646	6523.74
721.989	6486.68
722.331	6536.4
722.674	6504.08
723.016	6460.69
723.359	6504.76
723.701	6515.61
724.044	6452.78
724.386	6405.55
724.729	6441.94
725.071	6418.66
725.413	6451.2
725.755	6450.07
726.097	6381.6
726.439	6392.9
726.782	6427.92
727.124	6420.69
727.465	6397.64
727.807	6401.48
728.149	6408.04
728.491	6373.91
728.833	6413.24
729.175	6371.65
729.516	6405.33
729.858	6410.52
730.199	6367.81
730.541	6392.22
730.882	6333.24
731.224	6364.2
731.565	6348.83
731.906	6351.99
732.248	6366.68
732.589	6339.79
732.93	6296.63
733.271	6286.68
733.612	6362.62
733.953	6357.64
734.294	6362.16
734.635	6292.33
734.976	6293.69
735.317	6252.56
735.658	6269.96
735.999	6352.9
736.339	6251.43
736.68	6300.47
737.021	6225.9
737.361	6229.29
737.702	6286.46
738.042	6204.88
738.383	6186.35
738.723	6226.12
739.063	6256.4
739.404	6274.71
739.744	6192
740.084	6224.77
740.424	6197.87
740.764	6229.74
741.104	6218.21
741.444	6173.24
741.784	6142.51
742.124	6163.98
742.464	6105.67
742.804	6127.37
743.143	6120.59
743.483	6111.32
743.823	6108.38
744.162	6086.69
744.502	6133.47
744.841	6053.47
745.181	6053.02
745.52	6062.74
745.86	6036.3
746.199	5985
746.538	6045.34
746.877	6039.23
747.216	6057.31
747.556	5979.8
747.895	6010.99
748.234	5910.88
748.573	5938.9
748.911	5950.65
749.25	5992.91
749.589	5897.99
749.928	5897.32
750.267	5953.36
750.605	5866.36
750.944	5909.07
751.283	5817.54
751.621	5843.76
751.96	5777.32
752.298	5790.65
752.636	5808.73
752.975	5731.9
753.313	5723.99
753.651	5741.39
753.989	5743.2
754.327	5717.89
754.666	5696.42
755.004	5662.52
755.342	5656.42
755.679	5635.85
756.017	5606.25
756.355	5648.74
756.693	5595.86
757.031	5638.34
757.368	5594.27
757.706	5606.7
758.044	5557.21
758.381	5603.31
758.719	5509.98
759.056	5484.45
759.394	5513.6
759.731	5445.35
760.068	5481.96
760.405	5459.81
760.743	5413.26
761.08	5458.23
761.417	5422.98
761.754	5370.32
762.091	5372.13
762.428	5382.98
762.765	5395.86
763.102	5380.04
763.438	5292.59
763.775	5336.65
764.112	5295.75
764.449	5346.6
764.785	5272.25
765.122	5224.57
765.458	5235.19
765.795	5241.29
766.131	5240.84
766.467	5222.76
766.804	5199.48
767.14	5152.7
767.476	5176.43
767.812	5119.71
768.148	5134.62
768.485	5074.29
768.821	5145.7
769.157	5134.62
769.492	5021.86
769.828	5044.46
770.164	5010.56
770.5	4982.54
770.836	4989.09
771.171	4976.89
771.507	5008.3
771.842	4913.84
772.178	4900.73
772.513	4902.54
772.849	4906.16
773.184	4899.83
773.519	4911.81
773.855	4878.59
774.19	4887.17
774.525	4819.15
774.86	4841.53
775.195	4827.06
775.53	4851.69
775.865	4788.87
776.2	4756.1
776.535	4696.67
776.87	4731.02
777.205	4666.39
777.539	4685.6
777.874	4693.05
778.209	4617.35
778.543	4613.73
778.878	4663.68
779.212	4622.32
779.547	4583
779.881	4610.8
780.215	4577.35
780.55	4611.7
780.884	4532.83
781.218	4583.68
781.552	4574.19
781.886	4538.48
782.22	4488.77
782.554	4509.1
782.888	4448.09
783.222	4434.76
783.556	4439.95
783.889	4419.16
784.223	4336.45
784.557	4358.37
784.89	4356.11
785.224	4296.23
785.557	4278.83
785.891	4315.66
786.224	4314.76
786.558	4289.9
786.891	4251.94
787.224	4236.57
787.557	4163.58
787.891	4177.14
788.224	4177.14
788.557	4178.27
788.89	4150.7
789.223	4126.52
789.556	4168.32
789.888	4163.35
790.221	4112.28
790.554	4056.91
790.887	4046.74
791.219	4083.81
791.552	3999.06
791.884	4003.58
792.217	4009.46
792.549	3999.74
792.882	3972.17
793.214	3933.53
793.546	3926.07
793.879	3918.61
794.211	3879.06
794.543	3866.86
794.875	3878.39
795.207	3888.33
795.539	3873.42
795.871	3818.28
796.203	3802.46
796.535	3797.26
796.867	3813.53
797.198	3766.98
797.53	3722.91
797.862	3778.05
798.193	3713.19
798.525	3725.4
798.856	3738.5
799.188	3661.9
799.519	3671.39
799.85	3683.59
800.182	3645.17
800.513	3684.27
800.844	3621.44
801.175	3636.13
801.506	3643.82
801.837	3612.86
802.168	3603.82
802.499	3613.99
802.83	3598.62
803.161	3545.97
803.491	3590.26
803.822	3557.04
804.153	3541.22
804.483	3554.78
804.814	3503.26
805.145	3454.44
805.475	3483.14
805.805	3518.62
806.136	3470.71
806.466	3523.59
806.796	3461.67
807.126	3439.98
807.457	3456.48
807.787	3441.79
808.117	3457.15
808.447	3436.59
808.777	3413.77
809.107	3456.02
809.436	3436.82
809.766	3419.42
810.096	3396.59
810.426	3436.59
810.755	3437.27
811.085	3378.74
811.414	3402.47
811.744	3375.35
812.073	3402.69
812.403	3380.09
812.732	3358.17
813.061	3372.41
813.39	3344.39
813.719	3355.91
814.049	3344.39
814.378	3366.08
814.707	3374.45
815.036	3352.52
815.365	3357.04
815.693	3266.65
816.022	3309.14
816.351	3325.18
816.68	3312.07
817.008	3319.31
817.337	3289.48
817.665	3317.95
817.994	3291.74
818.322	3275.46
818.651	3271.85
818.979	3283.37
819.307	3292.41
819.636	3247.44
819.964	3200.66
820.292	3225.52
820.62	3225.07
820.948	3221.45
821.276	3198.4
821.604	3215.58
821.932	3234.11
822.259	3189.37
822.587	3264.39
822.915	3228.01
823.243	3229.59
823.57	3198.18
823.898	3252.41
824.225	3207.22
824.553	3206.09
824.88	3240.89
825.207	3205.18
825.535	3235.47
825.862	3246.31
826.189	3231.17
826.516	3219.42
826.843	3225.07
827.17	3228.23
827.497	3219.65
827.824	3234.34
828.151	3230.49
828.478	3225.97
828.805	3221.91
829.131	3238.18
829.458	3221
829.785	3223.26
830.111	3210.38
830.438	3226.43
830.764	3248.8
831.09	3256.71
831.417	3242.47
831.743	3222.58
832.069	3197.73
832.395	3250.61
832.722	3244.05
833.048	3192.98
833.374	3188.69
833.7	3184.17
834.026	3166.32
834.351	3190.04
834.677	3171.51
835.003	3195.92
835.329	3157.28
835.654	3183.04
835.98	3152.98
836.306	3151.85
836.631	3187.56
836.956	3233.21
837.282	3163.83
837.607	3109.37
837.932	3127.67
838.258	3126.77
838.583	3177.39
838.908	3112.08
839.233	3157.05
839.558	3109.82
839.883	3134
840.208	3097.84
840.533	3153.21
840.858	3096.94
841.182	3169.03
841.507	3110.27
841.832	3065.98
842.156	3104.62
842.481	3116.82
842.805	3115.92
843.13	3100.33
843.454	3109.82
843.778	3075.92
844.103	3019.65
844.427	3036.83
844.751	3065.98
845.075	3058.97
845.399	3028.92
845.723	3006.09
846.047	3017.84
846.371	3001.35
846.695	2992.53
847.019	2964.06
847.343	2939.88
847.666	2950.73
847.99	2944.85
848.313	2971.74
848.637	2921.8
848.96	2928.36
849.284	2921.12
849.607	2915.25
849.931	2903.05
850.254	2886.77
850.577	2875.93
850.9	2837.96
851.223	2826.21
851.546	2841.13
851.869	2834.57
852.192	2799.77
852.515	2834.8
852.838	2839.77
853.161	2839.09
853.483	2818.75
853.806	2826.89
854.129	2796.16
854.451	2728.81
854.774	2778.75
855.096	2738.53
855.419	2745.76
855.741	2709.83
856.063	2738.53
856.385	2769.94
856.708	2697.4
857.03	2741.02
857.352	2768.13
857.674	2717.06
857.996	2703.5
858.318	2679.55
858.64	2686.33
858.961	2645.42
859.283	2699.21
859.605	2660.57
859.926	2669.38
860.248	2647.01
860.57	2668.48
860.891	2691.98
861.212	2652.88
861.534	2642.04
861.855	2619.66
862.176	2644.97
862.498	2654.46
862.819	2640.45
863.14	2617.63
863.461	2597.97
863.782	2607.91
864.103	2625.54
864.424	2617.18
864.745	2597.06
865.065	2623.5
865.386	2585.99
865.707	2581.47
866.027	2609.27
866.348	2598.87
866.668	2592.77
866.989	2622.15
867.309	2599.32
867.63	2562.72
867.95	2550.29
868.27	2564.75
868.59	2565.88
868.91	2554.81
869.23	2581.25
869.55	2580.79
869.87	2577.4
870.19	2524.75
870.51	2530.85
870.83	2539.89
871.15	2527.01
871.469	2521.59
871.789	2496.95
872.109	2536.5
872.428	2494.24
872.748	2509.38
873.067	2551.42
873.386	2499.44
873.706	2514.58
874.025	2499.44
874.344	2476.16
874.663	2490.85
874.982	2482.04
875.301	2490.4
875.62	2479.78
875.939	2473.9
876.258	2456.05
876.577	2476.16
876.896	2510.06
877.214	2463.51
877.533	2454.7
877.852	2451.76
878.17	2451.76
878.489	2450.63
878.807	2471.64
879.125	2439.55
879.444	2437.52
879.762	2425.32
880.08	2424.64
880.398	2418.54
880.716	2369.27
881.034	2393.45
881.352	2384.64
881.67	2383.74
881.988	2374.25
882.306	2354.81
882.624	2362.49
882.941	2310.29
883.259	2348.71
883.577	2347.35
883.894	2308.48
884.212	2306.9
884.529	2322.27
884.846	2306.22
885.164	2324.76
885.481	2301.25
885.798	2306.68
886.115	2293.12
886.432	2329.27
886.75	2241.82
887.067	2322.95
887.383	2269.16
887.7	2259.67
888.017	2278.2
888.334	2271.42
888.651	2245.21
888.967	2219.67
889.284	2219.9
889.6	2235.72
889.917	2228.71
890.233	2230.97
890.55	2217.41
890.866	2187.36
891.182	2205.66
891.498	2221.03
891.815	2151.65
892.131	2182.61
892.447	2198.43
892.763	2165.66
893.079	2196.85
893.395	2155.27
893.71	2129.73
894.026	2138.09
894.342	2167.02
894.657	2114.82
894.973	2106.91
895.289	2112.78
895.604	2085.67
895.92	2108.49
896.235	2099.22
896.55	2065.78
896.865	2105.55
897.181	2073.69
897.496	2108.49
897.811	2046.12
898.126	2069.85
898.441	2078.43
898.756	2017.42
899.071	2032.79
899.386	2068.94
899.7	2007.02
900.015	2011.32
900.33	1988.72
900.644	2016.29
900.959	1977.65
901.273	1970.87
901.588	1984.43
901.902	1979
902.216	1986.69
902.531	1984.2
902.845	1957.53
903.159	1927.93
903.473	1971.32
903.787	1933.13
904.101	1946.69
904.415	1943.97
904.729	1923.64
905.042	1922.28
905.356	1924.99
905.67	1939.45
905.984	1910.3
906.297	1900.81
906.611	1909.85
906.924	1904.2
907.237	1895.16
907.551	1896.52
907.864	1871.21
908.177	1887.93
908.491	1877.08
908.804	1859.23
909.117	1870.53
909.43	1853.58
909.743	1812.45
910.056	1860.13
910.368	1840.93
910.681	1806.35
910.994	1787.59
911.307	1831.43
911.619	1787.37
911.932	1790.53
912.244	1790.08
912.557	1802.74
912.869	1781.27
913.181	1772.23
913.494	1775.84
913.806	1778.55
914.118	1767.71
914.43	1773.13
914.742	1773.36
915.054	1767.93
915.366	1755.73
915.678	1728.84
915.99	1712.12
916.302	1680.25
916.613	1687.71
916.925	1687.03
917.236	1680.25
917.548	1687.71
917.859	1681.38
918.171	1681.61
918.482	1664.43
918.794	1686.35
919.105	1671.44
919.416	1669.41
919.727	1653.81
920.038	1637.09
920.349	1628.95
920.66	1663.08
920.971	1625.56
921.282	1635.51
921.593	1646.58
921.903	1614.04
922.214	1644.32
922.525	1614.94
922.835	1619.01
923.146	1578.56
923.456	1603.42
923.767	1593.25
924.077	1582.18
924.387	1565
924.697	1535.85
925.008	1561.39
925.318	1572.46
925.628	1559.58
925.938	1524.1
926.248	1569.07
926.558	1554.15
926.867	1569.52
927.177	1534.04
927.487	1539.01
927.796	1553.02
928.106	1503.31
928.416	1553.93
928.725	1541.27
929.034	1487.04
929.344	1528.39
929.653	1469.64
929.962	1473.03
930.271	1486.59
930.581	1469.64
930.89	1483.2
931.199	1450.2
931.508	1470.09
931.817	1464.21
932.125	1454.95
932.434	1461.28
932.743	1416.98
933.051	1446.81
933.36	1423.99
933.669	1410.65
933.977	1406.14
934.286	1430.54
934.594	1382.18
934.902	1430.32
935.21	1437.55
935.519	1381.96
935.827	1395.97
936.135	1378.11
936.443	1361.84
936.751	1378.79
937.059	1370.43
937.367	1395.06
937.674	1351.9
937.982	1367.72
938.29	1358.9
938.597	1350.77
938.905	1358.68
939.213	1341.5
939.52	1325.69
939.827	1317.32
940.135	1349.19
940.442	1333.59
940.749	1321.39
941.056	1308.96
941.363	1329.53
941.67	1305.35
941.977	1307.61
942.284	1278.23
942.591	1267.16
942.898	1275.97
943.205	1287.72
943.511	1265.35
943.818	1250.89
944.125	1272.81
944.431	1270.09
944.738	1258.57
945.044	1253.15
945.35	1246.14
945.657	1245.46
945.963	1261.51
946.269	1242.98
946.575	1216.31
946.881	1203.43
947.187	1236.65
947.493	1204.78
947.799	1216.99
948.105	1211.11
948.41	1211.34
948.716	1214.28
949.022	1191.45
949.327	1204.56
949.633	1228.74
949.938	1198.46
950.244	1205.69
950.549	1184.22
950.854	1197.55
951.16	1191
951.465	1148.29
951.77	1170.21
952.075	1142.41
952.38	1169.53
952.685	1163.43
952.99	1177.21
953.294	1154.84
953.599	1126.82
953.904	1117.56
954.209	1123.66
954.513	1132.02
954.818	1120.49
955.122	1125.46
955.426	1127.95
955.731	1115.97
956.035	1115.75
956.339	1099.48
956.643	1134.05
956.948	1130.44
957.252	1085.69
957.556	1086.37
957.86	1075.3
958.163	1102.41
958.467	1096.09
958.771	1074.84
959.075	1074.62
959.378	1079.59
959.682	1061.96
959.985	1092.02
960.289	1056.09
960.592	1052.47
960.896	1055.18
961.199	1078.91
961.502	1041.4
961.805	1042.98
962.108	1062.87
962.411	1046.6
962.714	1033.26
963.017	1029.42
963.32	1053.38
963.623	1039.14
963.926	1017.9
964.228	1012.47
964.531	1016.32
964.833	1009.99
965.136	1000.27
965.438	995.98
965.741	1007.5
966.043	1002.98
966.345	981.74
966.648	989.88
966.95	998.24
967.252	979.25
967.554	1000.27
967.856	974.51
968.158	988.97
968.46	965.69
968.761	971.34
969.063	981.29
969.365	970.89
969.666	1000.5
969.968	970.21
970.269	963.44
970.571	974.51
970.872	964.11
971.174	942.87
971.475	928.86
971.776	967.5
972.077	929.09
972.378	942.42
972.679	939.93
972.98	927.96
973.281	949.42
973.582	934.28
973.883	940.16
974.183	916.43
974.484	928.86
974.785	941.51
975.085	913.49
975.386	896.54
975.686	905.58
975.986	914.85
976.287	885.92
976.587	921.18
976.887	923.44
977.187	895.41
977.487	875.53
977.787	899.03
978.087	897.45
978.387	854.29
978.687	880.5
978.987	869.43
979.286	897.9
979.586	875.98
979.885	875.53
980.185	862.87
980.484	849.09
980.784	850.44
981.083	880.73
981.382	859.94
981.682	851.12
981.981	826.72
982.28	845.25
982.579	845.47
982.878	857.45
983.177	834.4
983.475	849.54
983.774	844.57
984.073	830.56
984.372	847.28
984.67	843.44
984.969	831.01
985.267	854.51
985.566	835.98
985.864	821.74
986.162	810.67
986.461	816.77
986.759	823.55
987.057	832.14
987.355	798.24
987.653	808.64
987.951	801.18
988.249	807.28
988.547	824
988.844	795.08
989.142	808.18
989.44	784
989.737	761.41
990.035	792.14
990.332	773.84
990.63	771.58
990.927	781.29
991.224	769.77
991.521	765.93
991.819	781.29
992.116	772.48
992.413	780.62
992.71	757.79
993.006	768.41
993.303	765.93
993.6	767.51
993.897	750.11
994.193	755.98
994.49	758.47
994.787	749.2
995.083	780.84
995.379	734.06
995.676	751.92
995.972	708.75
996.268	725.93
996.565	726.83
996.861	742.65
997.157	731.35
997.453	744.23
997.749	730.22
998.044	758.02
998.34	718.92
998.636	729.77
998.932	708.75
999.227	704.46
999.523	711.69
999.818	707.4
1000.114	695.19
1000.409	705.59
1000.704	697.68
1001	680.96
1001.295	671.47
1001.59	690.9
1001.885	702.65
1002.18	666.95
1002.475	667.17
1002.77	660.17
1003.065	661.75
1003.359	671.92
1003.654	644.8
1003.949	696.1
1004.243	669.43
1004.538	685.48
1004.832	668.75
1005.127	656.1
1005.421	652.93
1005.715	675.53
1006.009	663.33
1006.304	650.22
1006.598	661.75
1006.892	645.03
1007.186	671.24
1007.48	682.99
1007.773	657.23
1008.067	652.03
1008.361	638.47
1008.655	649.32
1008.948	626.49
1009.242	631.69
1009.535	615.65
1009.829	613.39
1010.122	626.72
1010.415	615.87
1010.708	614.29
1011.001	609.09
1011.295	605.7
1011.588	603.44
1011.881	610.9
1012.173	594.18
1012.466	603.67
1012.759	613.16
1013.052	599.83
1013.344	588.08
1013.637	582.2
1013.93	599.15
1014.222	604.57
1014.514	604.8
1014.807	570.9
1015.099	593.95
1015.391	578.13
1015.683	561.19
1015.976	581.3
1016.268	557.57
1016.56	595.99
1016.851	559.6
1017.143	555.76
1017.435	566.16
1017.727	547.85
1018.018	536.78
1018.31	540.4
1018.602	548.76
1018.893	555.08
1019.185	550.79
1019.476	542.88
1019.767	551.47
1020.058	553.73
1020.35	541.53
1020.641	543.33
1020.932	555.31
1021.223	532.94
1021.514	531.13
1021.804	531.36
1022.095	526.61
1022.386	530
1022.677	537.01
1022.967	528.64
1023.258	524.58
1023.548	527.74
1023.839	541.75
1024.129	537.68
1024.419	535.88
1024.709	516.89
1025	507.85
1025.29	501.3
1025.58	514.63
1025.87	497.91
1026.16	502.88
1026.449	504.46
1026.739	519.6
1027.029	505.59
1027.319	500.4
1027.608	503.79
1027.898	501.07
1028.187	484.8
1028.477	482.09
1028.766	472.37
1029.055	480.06
1029.344	490.45
1029.634	496.55
1029.923	458.36
1030.212	470.34
1030.501	466.73
1030.79	483
1031.078	493.84
1031.367	491.58
1031.656	486.84
1031.945	488.42
1032.233	465.82
1032.522	476.89
1032.81	468.76
1033.099	465.82
1033.387	456.33
1033.675	458.14
1033.963	444.13
1034.251	460.4
1034.54	458.82
1034.828	453.62
1035.116	470.57
1035.403	466.05
1035.691	467.4
1035.979	453.39
1036.267	464.47
1036.554	451.13
1036.842	449.1
1037.129	448.42
1037.417	440.06
1037.704	431.02
1037.992	438.48
1038.279	459.04
1038.566	445.03
1038.853	445.03
1039.14	445.03
