Data from foam_black_FLMS001491_00048.txt Node
Date: Wed Feb 08 10:43:57 GMT 2017
User: dcchb
Spectrometer: FLMS00149
Trigger mode: 0
Integration Time (sec): 2.000000E-2
Scans to average: 10
Electric dark correction enabled: true
Nonlinearity correction enabled: false
Boxcar width: 0
XAxis mode: Wavelengths
Number of Pixels in Spectrum: 2048
>>>>>Begin Spectral Data<<<<<
341.393	-5.68
341.776	-5.68
342.16	-5.68
342.543	-52.91
342.927	-65.79
343.31	-88.61
343.693	-58.56
344.077	-75.28
344.46	-67.37
344.843	-45.22
345.226	-34.38
345.61	-19.46
345.993	-9.07
346.376	-16.52
346.759	15.34
347.142	28.67
347.525	35.45
347.908	58.73
348.291	69.12
348.674	107.31
349.057	99.86
349.44	120.42
349.823	159.52
350.206	168.33
350.588	208.1
350.971	198.61
351.354	232.73
351.737	223.24
352.119	232.51
352.502	253.07
352.884	263.92
353.267	288.55
353.65	293.52
354.032	272.05
354.414	302.34
354.797	310.7
355.179	309.57
355.562	313.86
355.944	319.96
356.326	319.51
356.709	316.12
357.091	316.35
357.473	335.33
357.855	335.56
358.238	342.34
358.62	322.45
359.002	338.49
359.384	331.49
359.766	344.6
360.148	344.6
360.53	341.21
360.912	350.7
361.294	334.88
361.676	332.62
362.057	350.02
362.439	322.22
362.821	321.09
363.203	299.62
363.584	307.76
363.966	319.74
364.348	322.9
364.729	332.17
365.111	298.72
365.493	316.8
365.874	319.96
366.256	321.77
366.637	310.7
367.019	301.21
367.4	312.05
367.781	310.92
368.163	310.92
368.544	328.78
368.925	312.05
369.306	335.1
369.688	307.53
370.069	308.66
370.45	308.44
370.831	323.13
371.212	312.51
371.593	328.78
371.974	308.66
372.355	333.07
372.736	307.99
373.117	311.83
373.498	296.24
373.879	316.57
374.26	335.33
374.641	318.16
375.021	334.2
375.402	321.55
375.783	326.97
376.163	336.91
376.544	328.78
376.925	334.88
377.305	350.47
377.686	322.45
378.066	343.47
378.447	322.9
378.827	347.99
379.208	373.97
379.588	331.04
379.968	355.67
380.349	358.83
380.729	360.87
381.109	350.25
381.489	347.53
381.87	357.7
382.25	350.25
382.63	346.18
383.01	354.99
383.39	361.09
383.77	356.35
384.15	364.03
384.53	352.96
384.91	362
385.29	371.26
385.67	382.33
386.049	351.15
386.429	380.98
386.809	367.42
387.189	383.92
387.568	369.91
387.948	381.88
388.328	380.07
388.707	374.88
389.087	368.32
389.466	388.21
389.846	380.07
390.225	383.24
390.605	400.41
390.984	373.3
391.363	390.47
391.743	382.33
392.122	403.8
392.501	370.58
392.881	417.59
393.26	395.22
393.639	420.3
394.018	422.56
394.397	413.07
394.776	413.29
395.155	412.16
395.534	403.35
395.913	420.07
396.292	430.24
396.671	416.91
397.05	419.4
397.429	439.28
397.808	417.14
398.186	407.87
398.565	430.69
398.944	423.01
399.323	434.76
399.701	432.5
400.08	437.47
400.458	433.18
400.837	439.28
401.215	450.58
401.594	426.18
401.972	437.47
402.351	465.04
402.729	436.34
403.107	438.15
403.486	471.82
403.864	474.76
404.242	468.66
404.62	458.26
404.999	459.17
405.377	476.12
405.755	462.78
406.133	487.87
406.511	484.25
406.889	458.26
407.267	484.48
407.645	467.53
408.023	499.85
408.401	500.3
408.779	491.03
409.156	501.65
409.534	514.31
409.912	524.03
410.29	530.58
410.667	505.27
411.045	536.68
411.422	527.64
411.8	541.43
412.178	544.14
412.555	533.07
412.933	537.36
413.31	550.69
413.687	551.14
414.065	588.88
414.442	567.41
414.819	552.73
415.197	576.68
415.574	572.39
415.951	592.05
416.328	561.31
416.705	554.99
417.082	608.77
417.46	587.98
417.837	576.23
418.214	602.89
418.591	616.45
418.967	591.14
419.344	611.03
419.721	601.31
420.098	623.23
420.475	620.75
420.852	620.07
421.228	620.97
421.605	630.24
421.982	650.8
422.358	627.3
422.735	660.29
423.111	621.65
423.488	663.01
423.864	648.09
424.241	679.28
424.617	668.43
424.994	656.45
425.37	668.43
425.746	687.86
426.123	677.02
426.499	687.41
426.875	671.59
427.251	714.53
427.627	710.46
428.003	726.51
428.379	714.98
428.756	709.78
429.132	737.81
429.507	738.48
429.883	738.94
430.259	731.25
430.635	779.16
431.011	758.6
431.387	765.38
431.763	796.79
432.138	778.26
432.514	777.13
432.89	799.05
433.265	797.01
433.641	793.62
434.016	817.13
434.392	816.9
434.767	824.81
435.143	832.49
435.518	832.94
435.894	839.72
436.269	884.69
436.644	873.17
437.02	858.93
437.395	863.23
437.77	860.51
438.145	894.19
438.52	896.45
438.895	893.51
439.271	914.52
439.646	940.74
440.021	937.8
440.395	946.61
440.77	918.82
441.145	928.31
441.52	945.71
441.895	940.74
442.27	959.04
442.645	943.68
443.019	959.95
443.394	952.26
443.769	983.22
444.143	985.26
444.518	975.99
444.892	992.04
445.267	987.29
445.641	1001.75
446.016	999.72
446.39	987.06
446.764	998.14
447.139	1015.09
447.513	1045.37
447.887	1042.2
448.262	1054.86
448.636	1029.1
449.01	1055.99
449.384	1067.51
449.758	1059.38
450.132	1070.9
450.506	1060.73
450.88	1108.42
451.254	1099.83
451.628	1105.03
452.002	1095.31
452.376	1126.72
452.75	1126.95
453.123	1144.12
453.497	1181.64
453.871	1151.58
454.244	1159.26
454.618	1168.53
454.992	1186.38
455.365	1186.83
455.739	1243.33
456.112	1243.1
456.486	1233.39
456.859	1256.44
457.232	1243.55
457.606	1241.97
457.979	1277.68
458.352	1321.07
458.725	1329.65
459.099	1324.91
459.472	1318.81
459.845	1345.02
460.218	1382.99
460.591	1405.36
460.964	1366.04
461.337	1439.03
461.71	1438.8
462.083	1446.94
462.456	1442.87
462.829	1439.93
463.201	1473.83
463.574	1456.2
463.947	1479.93
464.32	1517.9
464.692	1541.17
465.065	1546.15
465.438	1531.23
465.81	1591.34
466.183	1600.38
466.555	1583.88
466.928	1600.83
467.3	1596.54
467.672	1649.19
468.045	1685.35
468.417	1651.23
468.789	1687.39
469.161	1683.77
469.534	1725.12
469.906	1762.64
470.278	1790.21
470.65	1789.53
471.022	1808.06
471.394	1848.74
471.766	1872.69
472.138	1887.15
472.51	1928.73
472.882	1961.5
473.253	1964.89
473.625	2022.29
473.997	2032.91
474.369	2059.58
474.74	2071.56
475.112	2112.01
475.484	2107.71
475.855	2177.32
476.227	2179.8
476.598	2229.97
476.97	2229.29
477.341	2269.97
477.713	2336.41
478.084	2317.42
478.455	2380.25
478.827	2368.95
479.198	2439.91
479.569	2445.78
479.94	2497.53
480.311	2539.11
480.682	2563.97
481.053	2626.12
481.424	2659.34
481.795	2732.1
482.166	2720.8
482.537	2716.96
482.908	2797.19
483.279	2862.72
483.65	2875.15
484.021	2977.07
484.391	3005.99
484.762	3027.46
485.133	3041.25
485.503	3046.45
485.874	3113.79
486.244	3152.43
486.615	3208.02
486.985	3225.2
487.356	3277.17
487.726	3298.42
488.097	3370.96
488.467	3350.62
488.837	3447.79
489.207	3477.17
489.578	3559.2
489.948	3552.42
490.318	3596.04
490.688	3610.95
491.058	3654.56
491.428	3706.54
491.798	3712.42
492.168	3763.49
492.538	3809.59
492.908	3817.72
493.278	3897.27
493.648	3910.15
494.017	3966.87
494.387	3972.3
494.757	4008.23
495.126	4036.7
495.496	4081.67
495.866	4100.65
496.235	4165.06
496.605	4179.07
496.974	4215.68
497.344	4238.5
497.713	4308.33
498.082	4321.89
498.452	4344.26
498.821	4373.42
499.19	4429.69
499.559	4464.26
499.928	4527.08
500.298	4492.96
500.667	4524.6
501.036	4535.9
501.405	4600.53
501.774	4618.38
502.143	4611.83
502.512	4662.9
502.88	4727.08
503.249	4726.85
503.618	4734.76
503.987	4740.41
504.356	4798.04
504.724	4820.86
505.093	4816.34
505.462	4881.88
505.83	4870.8
506.199	4967.52
506.567	4980.18
506.936	4983.34
507.304	4978.15
507.672	5039.16
508.041	5094.53
508.409	5088.2
508.777	5114.64
509.145	5195.09
509.514	5192.15
509.882	5255.2
510.25	5209.78
510.618	5311.47
510.986	5341.07
511.354	5360.51
511.722	5413.61
512.09	5503.78
512.458	5547.17
512.826	5515.53
513.193	5603.89
513.561	5604.57
513.929	5669.2
514.297	5716.21
514.664	5747.84
515.032	5773.83
515.4	5828.75
515.767	5881.17
516.135	5874.17
516.502	5937.67
516.869	5966.82
517.237	5989.19
517.604	6016.99
517.972	6114.61
518.339	6147.38
518.706	6130.43
519.073	6193.71
519.44	6230.99
519.808	6261.95
520.175	6330.65
520.542	6374.04
520.909	6379.69
521.276	6363.42
521.643	6483.42
522.009	6521.38
522.376	6564.09
522.743	6584.66
523.11	6663.07
523.477	6715.73
523.843	6858.55
524.21	6816.97
524.577	6896.97
524.943	6970.41
525.31	6899
525.676	7030.52
526.043	7033.01
526.409	7153.23
526.776	7194.36
527.142	7239.1
527.508	7268.48
527.874	7367.01
528.241	7384.18
528.607	7413.34
528.973	7551.64
529.339	7494.24
529.705	7585.76
530.071	7645.65
530.437	7641.8
530.803	7664.85
531.169	7762.25
531.535	7754.57
531.901	7775.59
532.267	7843.16
532.632	7860.56
532.998	7952.08
533.364	7927.67
533.73	8021.23
534.095	7968.35
534.461	8033.88
534.826	8101.23
535.192	8146.2
535.557	8186.88
535.923	8152.98
536.288	8223.48
536.653	8244.95
537.019	8281.11
537.384	8301.9
537.749	8371.96
538.114	8430.03
538.479	8512.06
538.845	8487.43
539.21	8488.79
539.575	8541.44
539.94	8601.33
540.305	8674.55
540.67	8688.78
541.034	8673.42
541.399	8742.34
541.764	8846.07
542.129	8805.16
542.494	8779.85
542.858	8885.61
543.223	8965.84
543.587	8957.7
543.952	8951.83
544.316	9067.3
544.681	9037.25
545.045	9066.63
545.41	9176.91
545.774	9077.25
546.138	9152.5
546.503	9245.38
546.867	9223.01
547.231	9317.24
547.595	9332.61
547.959	9414.87
548.324	9402.21
548.688	9364.7
549.052	9448.54
549.416	9423
549.779	9442.44
550.143	9526.73
550.507	9600.17
550.871	9550.23
551.235	9655.09
551.599	9706.16
551.962	9734.63
552.326	9815.53
552.689	9865.93
553.053	9730.79
553.417	9845.81
553.78	9998.58
554.143	9964.91
554.507	10026.15
554.87	10056.88
555.234	10146.82
555.597	10123.1
555.96	10151.8
556.323	10198.12
556.686	10213.94
557.05	10304.11
557.413	10331.9
557.776	10390.66
558.139	10486.93
558.502	10394.27
558.865	10479.02
559.228	10621.16
559.59	10615.96
559.953	10669.07
560.316	10766.24
560.679	10761.95
561.041	10790.42
561.404	10816.41
561.767	10904.32
562.129	10948.84
562.492	11047.82
562.854	11004.43
563.217	11092.79
563.579	11147.02
563.941	11236.29
564.304	11304.76
564.666	11351.99
565.028	11456.39
565.39	11515.15
565.753	11512.89
566.115	11637.41
566.477	11660.23
566.839	11684.86
567.201	11875.82
567.563	11796.5
567.925	11924.86
568.287	12000.11
568.648	11959.88
569.01	12056.83
569.372	12186.77
569.734	12172.31
570.095	12295.92
570.457	12313.77
570.819	12345.64
571.18	12325.3
571.542	12458.63
571.903	12459.31
572.265	12431.28
572.626	12575.23
572.987	12482.36
573.349	12596.02
573.71	12634.67
574.071	12683.25
574.432	12689.36
574.794	12804.38
575.155	12733.42
575.516	12743.37
575.877	12782.01
576.238	12881.89
576.599	12843.25
576.96	12907.2
577.32	12963.7
577.681	12974.09
578.042	13005.28
578.403	12932.06
578.763	13048.89
579.124	12995.79
579.485	13084.15
579.845	13112.17
580.206	13067.88
580.566	13083.92
580.927	13075.33
581.287	13180.87
581.648	13126.63
582.008	13154.2
582.368	13128.89
582.728	13306.51
583.089	13187.42
583.449	13159.63
583.809	13237.36
584.169	13198.04
584.529	13182.45
584.889	13387.19
585.249	13326.63
585.609	13253.18
585.969	13219.96
586.329	13252.96
586.688	13242.34
587.048	13220.42
587.408	13212.96
587.768	13315.33
588.127	13311.03
588.487	13321.88
588.846	13437.58
589.206	13298.15
589.565	13357.59
589.925	13516.68
590.284	13417.92
590.643	13421.99
591.003	13427.19
591.362	13519.16
591.721	13500.63
592.08	13548.32
592.44	13548.32
592.799	13545.15
593.158	13559.16
593.517	13544.25
593.876	13684.58
594.235	13557.13
594.593	13539.05
594.952	13555.32
595.311	13612.5
595.67	13554.64
596.029	13708.31
596.387	13727.97
596.746	13652.27
597.104	13640.07
597.463	13575.66
597.822	13689.56
598.18	13695.88
598.538	13699.72
598.897	13750.57
599.255	13589.67
599.613	13770.91
599.972	13697.24
600.33	13798.25
600.688	13727.75
601.046	13749.67
601.404	13845.94
601.762	13777.46
602.12	13890.45
602.478	13810
602.836	13868.08
603.194	13792.83
603.552	13758.48
603.91	13813.17
604.268	13841.19
604.625	13892.04
604.983	13853.62
605.341	13859.04
605.698	13939.27
606.056	13831.7
606.413	13957.34
606.771	13950.79
607.128	13949.44
607.485	13883.22
607.843	13959.83
608.2	14031.47
608.557	14020.62
608.914	13952.6
609.272	14021.52
609.629	14155.08
609.986	14148.53
610.343	14118.7
610.7	14168.86
611.057	14159.15
611.414	14174.06
611.771	14238.47
612.127	14230.56
612.484	14286.83
612.841	14249.31
613.198	14251.12
613.554	14222.65
613.911	14288.64
614.267	14374.06
614.624	14328.41
614.98	14386.26
615.337	14415.41
615.693	14348.07
616.05	14436.43
616.406	14536.54
616.762	14445.69
617.118	14534.28
617.475	14366.37
617.831	14506.03
618.187	14497.22
618.543	14563.43
618.899	14624.45
619.255	14552.13
619.611	14581.74
619.967	14654.05
620.323	14691.79
620.678	14691.56
621.034	14598.68
621.39	14626.48
621.746	14587.61
622.101	14720.94
622.457	14529.76
622.812	14670.77
623.168	14616.76
623.523	14765.46
623.879	14741.28
624.234	14649.98
624.589	14717.78
624.945	14572.92
625.3	14694.5
625.655	14669.19
626.01	14653.15
626.365	14671.68
626.72	14690.21
627.075	14740.15
627.43	14737.89
627.785	14563.88
628.14	14632.81
628.495	14692.47
628.85	14697.21
629.205	14696.76
629.559	14674.39
629.914	14637.55
630.269	14563.2
630.623	14535.63
630.978	14673.26
631.332	14674.16
631.687	14657.21
632.041	14586.48
632.396	14553.94
632.75	14516.88
633.104	14624.9
633.459	14479.82
633.813	14420.61
634.167	14486.6
634.521	14464
634.875	14448.63
635.229	14415.64
635.583	14363.66
635.937	14350.1
636.291	14379.93
636.645	14416.32
636.999	14387.62
637.352	14354.4
637.706	14259.03
638.06	14369.54
638.413	14243.21
638.767	14304.23
639.121	14280.05
639.474	14212.93
639.828	14290.22
640.181	14211.58
640.534	14186.04
640.888	14152.82
641.241	14171.8
641.594	14202.08
641.947	14258.58
642.301	14122.99
642.654	14163.22
643.007	14250.44
643.36	14192.59
643.713	14215.19
644.066	14185.36
644.419	14109.21
644.771	14044.35
645.124	13748.54
645.477	13756.45
645.83	13708.54
646.182	13757.35
646.535	13704.02
646.888	13835.09
647.24	13708.99
647.593	13726.16
647.945	13710.12
648.298	13612.04
648.65	13661.99
649.002	13652.04
649.355	13648.65
649.707	13509.67
650.059	13597.81
650.411	13744.7
650.763	13816.56
651.115	13888.87
651.467	13828.31
651.819	13879.83
652.171	13819.04
652.523	13768.2
652.875	13758.03
653.227	13656.79
653.578	13895.65
653.93	13775.65
654.282	13791.7
654.633	13770.91
654.985	13677.35
655.337	13738.82
655.688	13691.59
656.039	13736.79
656.391	13567.07
656.742	13659.95
657.094	13574.3
657.445	13668.76
657.796	13596.45
658.147	13607.98
658.498	13641.65
658.849	13680.06
659.2	13584.7
659.551	13603.68
659.902	13623.34
660.253	13639.84
660.604	13643.23
660.955	13485.72
661.306	13548.09
661.656	13593.74
662.007	13675.77
662.358	13500.63
662.708	13612.04
663.059	13506.06
663.409	13462.89
663.76	13572.27
664.11	13685.49
664.461	13666.51
664.811	13663.12
665.161	13603.23
665.511	13471.93
665.862	13565.04
666.212	13631.7
666.562	13622.66
666.912	13580.86
667.262	13557.13
667.612	13620.63
667.962	13583.34
668.312	13523.46
668.662	13716
669.011	13580.18
669.361	13598.03
669.711	13532.5
670.06	13542.67
670.41	13430.35
670.76	13485.04
671.109	13473.74
671.459	13426.51
671.808	13494.76
672.157	13562.78
672.507	13383.12
672.856	13411.6
673.205	13407.75
673.554	13418.38
673.904	13418.83
674.253	13474.19
674.602	13337.47
674.951	13272.84
675.3	13056.58
675.649	13320.98
675.998	13435.32
676.346	13361.88
676.695	13313.07
677.044	13213.18
677.393	13261.54
677.741	13259.74
678.09	13266.97
678.438	13166.18
678.787	13318.27
679.135	13300.64
679.484	13224.71
679.832	13279.17
680.181	13157.14
680.529	13210.02
680.877	13212.28
681.225	13126.86
681.573	13200.98
681.922	13078.5
682.27	13121.89
682.618	13007.09
682.966	13088.44
683.314	13071.94
683.661	13080.08
684.009	12940.87
684.357	12978.39
684.705	12913.76
685.053	12937.48
685.4	12921.21
685.748	12934.32
686.095	12870.59
686.443	12882.57
686.79	12739.75
687.138	12826.08
687.485	12751.5
687.832	12729.81
688.18	12756.02
688.527	12664.05
688.874	12713.31
689.221	12719.19
689.568	12626.53
689.915	12553.31
690.262	12554.22
690.609	12521.22
690.956	12409.81
691.303	12413.43
691.65	12364.17
691.997	12382.02
692.344	12374.34
692.69	12335.24
693.037	12269.25
693.383	12189.71
693.73	12283.04
694.077	12205.07
694.423	12162.14
694.769	12161.23
695.116	12145.64
695.462	12056.6
695.808	12031.29
696.155	12008.47
696.501	11909.94
696.847	11925.76
697.193	11793.56
697.539	11903.84
697.885	11722.6
698.231	11798.08
698.577	11762.6
698.923	11758.53
699.269	11702.04
699.614	11750.4
699.96	11690.74
700.306	11627.24
700.651	11681.25
700.997	11556.05
701.342	11551.98
701.688	11633.56
702.033	11587.92
702.379	11586.79
702.724	11521.25
703.069	11618.42
703.415	11495.04
703.76	11460.69
704.105	11454.36
704.45	11397.86
704.795	11395.6
705.14	11408.71
705.485	11311.54
705.83	11387.69
706.175	11354.93
706.52	11306.12
706.865	11311.99
707.209	11338.43
707.554	11342.95
707.899	11351.31
708.243	11263.86
708.588	11172.11
708.932	11149.74
709.277	11151.99
709.621	11198.55
709.966	11101.6
710.31	11123.07
710.654	11052.11
710.998	11007.59
711.342	11072.22
711.687	11032.9
712.031	10986.8
712.375	10919.91
712.719	10999
713.063	10927.14
713.407	10978.89
713.75	10855.28
714.094	10807.82
714.438	10774.15
714.782	10848.27
715.125	10774.6
715.469	10811.44
715.812	10713.36
716.156	10693.02
716.499	10679.46
716.843	10725.34
717.186	10569.86
717.53	10632.69
717.873	10635.17
718.216	10569.19
718.559	10522.63
718.902	10384.11
719.246	10375.52
719.589	10401.05
719.932	10325.58
720.275	10334.16
720.617	10375.29
720.96	10268.85
721.303	10267.72
721.646	10312.02
721.989	10217.1
722.331	10170.78
722.674	10151.34
723.016	10159.03
723.359	10094.4
723.701	10158.12
724.044	10121.29
724.386	9990.9
724.729	10074.96
725.071	10022.99
725.413	10060.95
725.755	9919.48
726.097	9910.45
726.439	9917.23
726.782	9980.5
727.124	9998.35
727.465	9896.89
727.807	9865.25
728.149	9839.71
728.491	9829.54
728.833	9853.72
729.175	9824.8
729.516	9858.47
729.858	9771.24
730.199	9820.5
730.541	9792.03
730.882	9790.45
731.224	9862.76
731.565	9764.46
731.906	9715.42
732.248	9800.84
732.589	9756.78
732.93	9731.69
733.271	9733.5
733.612	9740.28
733.953	9737.12
734.294	9766.49
734.635	9781.64
734.976	9778.7
735.317	9732.6
735.658	9742.09
735.999	9782.31
736.339	9702.09
736.68	9698.25
737.021	9657.12
737.361	9612.6
737.702	9726.5
738.042	9677.46
738.383	9703.9
738.723	9738.7
739.063	9713.61
739.404	9639.49
739.744	9645.37
740.084	9575.77
740.424	9635.88
740.764	9613.28
741.104	9652.83
741.444	9550
741.784	9555.88
742.124	9563.79
742.464	9548.65
742.804	9484.47
743.143	9453.51
743.483	9535.09
743.823	9466.16
744.162	9436.56
744.502	9473.17
744.841	9397.24
745.181	9395.2
745.52	9358.37
745.86	9332.61
746.199	9343
746.538	9343
746.877	9356.79
747.216	9302.55
747.556	9361.99
747.895	9280.18
748.234	9244.47
748.573	9197.24
748.911	9207.87
749.25	9217.81
749.589	9128.32
749.928	9143.23
750.267	9167.64
750.605	9140.07
750.944	9102.56
751.283	9106.4
751.621	9116.79
751.96	9051.03
752.298	9101.43
752.636	8975.33
752.975	8983.69
753.313	9008.55
753.651	8955.44
753.989	8894.2
754.327	8901.21
754.666	8917.03
755.004	8894.65
755.342	8875.44
755.679	8818.95
756.017	8794.54
756.355	8825.95
756.693	8769.46
757.031	8753.87
757.368	8732.4
757.706	8770.81
758.044	8737.37
758.381	8704.38
758.719	8635.9
759.056	8718.16
759.394	8699.4
759.731	8618.95
760.068	8598.62
760.405	8510.48
760.743	8470.94
761.08	8552.06
761.417	8478.84
761.754	8458.28
762.091	8463.93
762.428	8439.07
762.765	8342.35
763.102	8376.7
763.438	8386.87
763.775	8341.67
764.112	8377.83
764.449	8362.69
764.785	8271.39
765.122	8177.38
765.458	8204.28
765.795	8269.13
766.131	8195.69
766.467	8173.54
766.804	8109.14
767.14	8047.9
767.476	8057.84
767.812	8021
768.148	8056.03
768.485	8044.96
768.821	8036.82
769.157	8016.48
769.492	7916.15
769.828	7921.57
770.164	7867.56
770.5	7767
770.836	7832.31
771.171	7757.73
771.507	7745.98
771.842	7704.85
772.178	7726.1
772.513	7757.28
772.849	7727.45
773.184	7611.52
773.519	7616.72
773.855	7554.58
774.19	7568.13
774.525	7488.14
774.86	7511.19
775.195	7439.78
775.53	7448.36
775.865	7407.46
776.2	7429.38
776.535	7345.54
776.87	7333.56
777.205	7272.1
777.539	7201.82
777.874	7238.2
778.209	7178.31
778.543	7140.57
778.878	7069.39
779.212	7108.03
779.547	7046.11
779.881	7047.02
780.215	7032.56
780.55	7017.87
780.884	6952.11
781.218	6957.3
781.552	6911.43
781.886	6940.58
782.22	6882.05
782.554	6892.45
782.888	6830.07
783.222	6772
783.556	6819.68
783.889	6776.52
784.223	6751.66
784.557	6746.91
784.89	6742.85
785.224	6670.08
785.557	6665.33
785.891	6569.52
786.224	6594.37
786.558	6661.27
786.891	6623.98
787.224	6572.68
787.557	6590.98
787.891	6537.43
788.224	6494.26
788.557	6565.9
788.89	6509.86
789.223	6496.3
789.556	6437.99
789.888	6463.53
790.221	6449.75
790.554	6414.49
790.887	6341.05
791.219	6391.44
791.552	6440.93
791.884	6318
792.217	6333.59
792.549	6303.76
792.882	6308.73
793.214	6265.34
793.546	6343.53
793.879	6277.32
794.211	6249.07
794.543	6261.05
794.875	6204.78
795.207	6256.3
795.539	6230.09
795.871	6169.53
796.203	6106.48
796.535	6141.96
796.867	6130.88
797.198	6096.31
797.53	6087.95
797.862	6087.95
798.193	6020.6
798.525	6045.46
798.856	6039.36
799.188	5994.39
799.519	5955.97
799.85	5934.05
800.182	5966.59
800.513	5934.73
800.844	5917.56
801.175	5941.74
801.506	5954.17
801.837	5894.28
802.168	5904.22
802.499	5825.36
802.83	5841.85
803.161	5818.58
803.491	5803.43
803.822	5792.81
804.153	5796.66
804.483	5734.28
804.814	5707.62
805.145	5682.99
805.475	5722.99
805.805	5712.36
806.136	5714.85
806.466	5682.08
806.796	5635.98
807.126	5611.12
807.457	5593.27
807.787	5607.96
808.117	5546.72
808.447	5497.68
808.777	5518.47
809.107	5510.11
809.436	5475.53
809.766	5496.78
810.096	5481.41
810.426	5401.19
810.755	5407.51
811.085	5443.67
811.414	5369.55
811.744	5390.11
812.073	5353.73
812.403	5334.75
812.732	5308.31
813.061	5312.15
813.39	5271.92
813.719	5324.35
814.049	5284.35
814.378	5294.07
814.707	5257.01
815.036	5238.25
815.365	5161.19
815.693	5153.96
816.022	5194.86
816.351	5090.91
816.68	5104.92
817.008	5204.35
817.337	5044.58
817.665	5085.71
817.994	5066.73
818.322	5035.09
818.651	5075.54
818.979	5069.89
819.307	5060.63
819.636	5016.79
819.964	5011.82
820.292	5006.85
820.62	5008.2
820.948	4952.38
821.276	5027.86
821.604	4957.58
821.932	4993.29
822.259	4971.59
822.587	4931.82
822.915	4963.91
823.243	4998.26
823.57	4937.02
823.898	4949.67
824.225	4934.98
824.553	4954.19
824.88	4942.44
825.207	4970.46
825.535	4954.87
825.862	4963.68
826.189	4942.67
826.516	5012.5
826.843	4925.49
827.17	4993.96
827.497	4983.34
827.824	4966.17
828.151	4988.09
828.478	4972.27
828.805	5006.39
829.131	4955.1
829.458	4945.6
829.785	4923.23
830.111	4994.19
830.438	4977.02
830.764	4937.47
831.09	4958.71
831.417	4953.97
831.743	4961.2
832.069	4981.99
832.395	4911.26
832.722	4918.94
833.048	4976.56
833.374	4974.53
833.7	4923.91
834.026	4947.41
834.351	4925.72
834.677	4961.88
835.003	4932.27
835.329	4923.23
835.654	4918.03
835.98	4887.07
836.306	4941.76
836.631	4883.01
836.956	4917.36
837.282	4951.93
837.607	4932.95
837.932	4891.82
838.258	4922.55
838.583	4895.66
838.908	4883.23
839.233	4879.62
839.558	4883.69
839.883	4813.18
840.208	4870.35
840.533	4839.62
840.858	4830.58
841.182	4845.27
841.507	4828.77
841.832	4830.58
842.156	4830.81
842.481	4813.63
842.805	4770.02
843.13	4820.64
843.454	4801.2
843.778	4740.41
844.103	4735.67
844.427	4786.06
844.751	4748.1
845.075	4753.07
845.399	4697.7
845.723	4703.35
846.047	4691.37
846.371	4662.9
846.695	4704.71
847.019	4663.8
847.343	4615.67
847.666	4562.79
847.99	4613.41
848.313	4560.53
848.637	4564.82
848.96	4580.19
849.284	4556.24
849.607	4583.13
849.931	4528.21
850.254	4519.85
850.577	4465.17
850.9	4408.67
851.223	4467.2
851.546	4482.34
851.869	4414.77
852.192	4405.51
852.515	4385.17
852.838	4362.79
853.161	4357.15
853.483	4340.65
853.806	4347.88
854.129	4344.72
854.451	4319.18
854.774	4285.96
855.096	4267.66
855.419	4264.72
855.741	4291.61
856.063	4237.83
856.385	4253.19
856.708	4271.27
857.03	4242.57
857.352	4198.51
857.674	4215.91
857.996	4230.14
858.318	4200.77
858.64	4151.73
858.961	4182.23
859.283	4147.43
859.605	4123.25
859.926	4104.72
860.248	4122.8
860.57	4089.58
860.891	4120.99
861.212	4074.21
861.534	4053.88
861.855	4078.06
862.176	4115.34
862.498	4074.21
862.819	4082.35
863.14	4077.6
863.461	4061.56
863.782	4057.27
864.103	4008.68
864.424	3983.6
864.745	4022.24
865.065	3969.36
865.386	3995.8
865.707	3977.72
866.027	3909.47
866.348	3953.77
866.668	3937.5
866.989	3920.55
867.309	3924.16
867.63	3939.08
867.95	3945.18
868.27	3881.23
868.59	3903.6
868.91	3926.2
869.23	3903.15
869.55	3882.81
869.87	3894.78
870.19	3861.79
870.51	3895.91
870.83	3862.7
871.15	3848.68
871.469	3810.72
871.789	3798.97
872.109	3801.45
872.428	3796.03
872.748	3803.49
873.067	3785.41
873.386	3781.12
873.706	3781.12
874.025	3746.99
874.344	3772.75
874.663	3793.09
874.982	3745.64
875.301	3748.57
875.62	3747.44
875.939	3701.12
876.258	3718.97
876.577	3693.43
876.896	3713.55
877.214	3683.72
877.533	3689.82
877.852	3692.08
878.17	3685.3
878.489	3673.32
878.807	3653.66
879.125	3709.93
879.444	3659.31
879.762	3648.69
880.08	3602.81
880.398	3615.7
880.716	3552.65
881.034	3596.26
881.352	3619.54
881.67	3622.7
881.988	3616.15
882.306	3588.35
882.624	3591.29
882.941	3545.42
883.259	3554.91
883.577	3525.08
883.894	3538.18
884.212	3514.91
884.529	3510.39
884.846	3498.86
885.164	3514.68
885.481	3492.99
885.798	3485.53
886.115	3475.81
886.432	3460.22
886.75	3448.47
887.067	3467
887.383	3468.58
887.7	3478.07
888.017	3429.26
888.334	3437.4
888.651	3455.7
888.967	3415.02
889.284	3406.89
889.6	3386.32
889.917	3374.57
890.233	3355.82
890.55	3355.14
890.866	3399.66
891.182	3345.19
891.498	3338.42
891.815	3325.53
892.131	3303.16
892.447	3316.27
892.763	3299.09
893.079	3303.84
893.395	3293.67
893.71	3293.9
894.026	3302.26
894.342	3274.69
894.657	3278.76
894.973	3263.39
895.289	3276.72
895.604	3243.5
895.92	3284.18
896.235	3234.46
896.55	3286.44
896.865	3203.28
897.181	3230.62
897.496	3218.87
897.811	3217.74
898.126	3196.5
898.441	3203.05
898.756	3210.73
899.071	3175.93
899.386	3161.02
899.7	3175.26
900.015	3115.6
900.33	3124.41
900.644	3108.36
900.959	3139.1
901.273	3121.25
901.588	3098.87
901.902	3095.94
902.216	3097.52
902.531	3106.78
902.845	3097.29
903.159	3052.77
903.473	3085.09
903.787	3076.95
904.101	3025.2
904.415	2977.29
904.729	3065.65
905.042	3039.21
905.356	3022.27
905.67	2992.66
905.984	3007.58
906.297	2988.82
906.611	2975.94
906.924	2975.94
907.237	2995.15
907.551	2951.76
907.864	2975.26
908.177	2999.67
908.491	2968.93
908.804	2961.48
909.117	2942.49
909.43	2899.56
909.743	2915.6
910.056	2910.18
910.368	2889.39
910.681	2860.91
910.994	2850.97
911.307	2871.53
911.619	2817.98
911.932	2827.47
912.244	2862.04
912.557	2832.67
912.869	2813.46
913.181	2837.86
913.494	2815.72
913.806	2801.71
914.118	2775.94
914.43	2753.57
914.742	2796.96
915.054	2735.27
915.366	2759.22
915.678	2718.77
915.99	2718.77
916.302	2661.37
916.613	2675.38
916.925	2714.7
917.236	2674.03
917.548	2664.31
917.859	2681.94
918.171	2660.92
918.482	2613.69
918.794	2583.86
919.105	2598.77
919.416	2655.04
919.727	2589.28
920.038	2608.49
920.349	2591.77
920.66	2529.62
920.971	2537.76
921.282	2571.43
921.593	2539.79
921.903	2493.01
922.214	2531.66
922.525	2545.89
922.835	2507.7
923.146	2472.9
923.456	2521.49
923.767	2436.97
924.077	2460.47
924.387	2426.8
924.697	2411.89
925.008	2412.11
925.318	2398.1
925.628	2415.28
925.938	2379.34
926.248	2371.66
926.558	2390.87
926.867	2359.91
927.177	2365.11
927.487	2324.43
927.796	2327.37
928.106	2295.96
928.416	2266.8
928.725	2281.49
929.034	2249.4
929.344	2274.94
929.653	2268.61
929.962	2260.7
930.271	2274.26
930.581	2219.35
930.89	2186.81
931.199	2199.01
931.508	2210.76
931.817	2168.05
932.125	2209.86
932.434	2188.16
932.743	2157.43
933.051	2123.53
933.36	2128.28
933.669	2104.78
933.977	2103.65
934.286	2119.69
934.594	2111.55
934.902	2091.67
935.21	2080.6
935.519	2112.23
935.827	2087.15
936.135	2088.5
936.443	2068.84
936.751	2034.72
937.059	2020.94
937.367	2026.59
937.674	2025.46
937.982	2017.32
938.29	1984.1
938.597	2003.31
938.905	1979.13
939.213	1973.71
939.52	1982.97
939.827	1972.35
940.135	1953.59
940.442	1923.76
940.749	1933.03
941.056	1913.14
941.363	1900.03
941.67	1921.96
941.977	1898.45
942.284	1877.21
942.591	1861.62
942.898	1868.62
943.205	1855.74
943.511	1861.17
943.818	1844.67
944.125	1828.85
944.431	1847.38
944.738	1827.27
945.044	1843.09
945.35	1806.03
945.657	1794.5
945.963	1788.4
946.269	1797.89
946.575	1791.11
946.881	1761.51
947.187	1773.48
947.493	1760.83
947.799	1769.64
948.105	1755.63
948.41	1738.01
948.716	1756.08
949.022	1731.23
949.327	1722.64
949.633	1727.38
949.938	1700.49
950.244	1718.34
950.549	1685.8
950.854	1697.78
951.16	1683.77
951.465	1692.36
951.77	1658.01
952.075	1662.98
952.38	1650.78
952.685	1638.8
952.99	1647.84
953.294	1625.92
953.599	1638.12
953.904	1647.84
954.209	1634.28
954.513	1646.93
954.818	1629.53
955.122	1642.64
955.426	1613.04
955.731	1602.64
956.035	1577.33
956.339	1573.49
956.643	1568.74
956.948	1591.12
957.252	1568.29
957.556	1552.02
957.86	1580.72
958.163	1591.57
958.467	1542.53
958.771	1551.57
959.075	1577.78
959.378	1554.51
959.682	1526.03
959.985	1514.51
960.289	1536.43
960.592	1538.46
960.896	1532.36
961.199	1529.65
961.502	1516.99
961.805	1488.07
962.108	1499.14
962.411	1486.26
962.714	1517.45
963.017	1498.46
963.32	1495.53
963.623	1488.97
963.926	1474.96
964.228	1456.2
964.531	1450.33
964.833	1495.75
965.136	1476.54
965.438	1490.33
965.741	1448.3
966.043	1444.23
966.345	1451.46
966.648	1439.93
966.95	1425.02
967.252	1427.96
967.554	1389.09
967.856	1420.95
968.158	1425.25
968.46	1368.52
968.761	1408.07
969.063	1431.8
969.365	1379.82
969.666	1386.83
969.968	1376.88
970.269	1363.1
970.571	1364.46
970.872	1370.33
971.174	1375.08
971.475	1364.91
971.776	1354.96
972.077	1357.45
972.378	1352.7
972.679	1342.08
972.98	1355.87
973.281	1359.26
973.582	1347.96
973.883	1344.57
974.183	1341.18
974.484	1302.99
974.785	1331.46
975.085	1318.13
975.386	1318.13
975.686	1317.68
975.986	1312.93
976.287	1294.85
976.587	1272.48
976.887	1303.89
977.187	1281.07
977.487	1258.92
977.787	1260.73
978.087	1252.37
978.387	1251.46
978.687	1253.27
978.987	1243.78
979.286	1259.37
979.586	1253.5
979.885	1218.7
980.185	1222.99
980.484	1223.89
980.784	1239.71
981.083	1228.19
981.382	1206.27
981.682	1242.88
981.981	1218.24
982.28	1202.43
982.579	1175.31
982.878	1193.84
983.177	1194.97
983.475	1198.13
983.774	1156.78
984.073	1198.13
984.372	1183.9
984.67	1165.82
984.969	1148.64
985.267	1141.41
985.566	1192.71
985.864	1132.37
986.162	1150
986.461	1157.68
986.759	1157.23
987.057	1122.88
987.355	1143.22
987.653	1145.48
987.951	1135.31
988.249	1142.09
988.547	1109.1
988.844	1122.43
989.142	1101.64
989.44	1100.51
989.737	1100.73
990.035	1088.98
990.332	1087.4
990.63	1076.1
990.927	1072.71
991.224	1083.33
991.521	1072.71
991.819	1073.39
992.116	1045.14
992.413	1057.57
992.71	1074.75
993.006	1062.32
993.303	1044.01
993.6	1040.85
993.897	1039.04
994.193	1037.23
994.49	1053.73
994.787	1014.86
995.083	1019.38
995.379	1015.31
995.676	1008.53
995.972	1004.24
996.268	1009.66
996.565	1010.11
996.861	998.36
997.157	1021.19
997.453	1011.92
997.749	976.22
998.044	980.51
998.34	966.95
998.636	969.21
998.932	977.35
999.227	947.29
999.523	973.51
999.818	959.95
1000.114	953.17
1000.409	964.69
1000.704	928.31
1001	920.85
1001.295	943.9
1001.59	931.7
1001.885	933.28
1002.18	948.2
1002.475	903.22
1002.77	927.63
1003.065	906.39
1003.359	883.11
1003.654	918.59
1003.949	899.38
1004.243	896.67
1004.538	905.71
1004.832	885.15
1005.127	905.48
1005.421	891.7
1005.715	871.14
1006.009	888.31
1006.304	895.54
1006.598	873.17
1006.892	897.8
1007.186	835.2
1007.48	855.32
1007.773	858.25
1008.067	853.96
1008.361	846.73
1008.655	823.23
1008.948	833.85
1009.242	834.98
1009.535	820.52
1009.829	836.33
1010.122	832.94
1010.415	820.52
1010.708	831.59
1011.001	809.22
1011.295	812.38
1011.588	804.24
1011.881	794.08
1012.173	780.52
1012.466	768.31
1012.759	783.91
1013.052	782.1
1013.344	793.62
1013.637	790.69
1013.93	780.74
1014.222	779.84
1014.514	769.44
1014.807	752.04
1015.099	753.62
1015.391	756.34
1015.683	756.11
1015.976	770.57
1016.268	739.16
1016.56	756.79
1016.851	728.99
1017.143	704.81
1017.435	732.38
1017.727	714.08
1018.018	718.82
1018.31	705.72
1018.602	737.35
1018.893	725.15
1019.185	724.7
1019.476	723.79
1019.767	704.13
1020.058	714.53
1020.35	683.34
1020.641	697.58
1020.932	703.68
1021.223	686.28
1021.514	683.8
1021.804	676.56
1022.095	676.56
1022.386	667.3
1022.677	675.21
1022.967	677.24
1023.258	670.69
1023.548	655.77
1023.839	672.5
1024.129	678.82
1024.419	654.87
1024.709	654.87
1025	645.15
1025.29	615.1
1025.58	648.99
1025.87	623.68
1026.16	631.59
1026.449	630.24
1026.739	635.21
1027.029	623.01
1027.319	629.11
1027.608	633.85
1027.898	607.19
1028.187	619.62
1028.477	628.43
1028.766	605.38
1029.055	606.96
1029.344	592.72
1029.634	580.52
1029.923	613.74
1030.212	606.28
1030.501	592.05
1030.79	614.19
1031.078	618.71
1031.367	589.56
1031.656	578.04
1031.945	583.91
1032.233	578.26
1032.522	584.59
1032.81	554.31
1033.099	571.48
1033.387	583.91
1033.675	580.97
1033.963	553.18
1034.251	583.91
1034.54	558.6
1034.828	581.2
1035.116	545.49
1035.403	554.99
1035.691	552.73
1035.979	568.54
1036.267	540.97
1036.554	550.01
1036.842	567.41
1037.129	532.84
1037.417	533.07
1037.704	518.6
1037.992	530.58
1038.279	550.47
1038.566	523.8
1038.853	523.8
1039.14	523.8
