Data from foam1_polythene_foam_FLMS001491_00100.txt Node
Date: Wed Feb 08 10:55:40 GMT 2017
User: dcchb
Spectrometer: FLMS00149
Trigger mode: 0
Integration Time (sec): 2.000000E-2
Scans to average: 10
Electric dark correction enabled: true
Nonlinearity correction enabled: false
Boxcar width: 0
XAxis mode: Wavelengths
Number of Pixels in Spectrum: 2048
>>>>>Begin Spectral Data<<<<<
341.393	-29.79
341.776	-29.79
342.16	-29.79
342.543	-55.55
342.927	-56.91
343.31	-71.37
343.693	-50.8
344.077	-53.52
344.46	-51.93
344.843	-65.49
345.226	-27.75
345.61	-43.35
345.993	1.4
346.376	-14.65
346.759	0.04
347.142	30.1
347.525	47.27
347.908	58.35
348.291	60.38
348.674	72.81
349.057	108.51
349.44	116.42
349.823	133.82
350.206	185.12
350.588	188.74
350.971	175.18
351.354	191.68
351.737	248.17
352.119	230.09
352.502	232.8
352.884	232.13
353.267	256.76
353.65	273.71
354.032	273.26
354.414	291.33
354.797	285.01
355.179	291.33
355.562	301.5
355.944	302.63
356.326	287.72
356.709	311.67
357.091	315.06
357.473	306.25
357.855	308.06
358.238	305.8
358.62	313.25
359.002	330.66
359.384	325.91
359.766	308.73
360.148	319.58
360.53	298.34
360.912	299.02
361.294	315.97
361.676	286.36
362.057	317.32
362.439	322.52
362.821	315.97
363.203	314.84
363.584	282.29
363.966	302.86
364.348	296.76
364.729	301.28
365.111	290.66
365.493	293.82
365.874	298.11
366.256	283.65
366.637	296.08
367.019	306.47
367.4	297.21
367.781	305.12
368.163	284.1
368.544	287.49
368.925	291.33
369.306	282.07
369.688	280.49
370.069	286.14
370.45	278.91
370.831	283.42
371.212	322.29
371.593	296.08
371.974	301.28
372.355	285.91
372.736	290.88
373.117	299.92
373.498	275.06
373.879	307.83
374.26	293.59
374.641	301.05
375.021	281.84
375.402	282.52
375.783	290.88
376.163	284.1
376.544	320.03
376.925	324.55
377.305	313.71
377.686	323.2
378.066	301.5
378.447	320.03
378.827	292.69
379.208	313.25
379.588	302.18
379.968	309.41
380.349	296.98
380.729	315.97
381.109	320.49
381.489	313.03
381.87	315.29
382.25	323.2
382.63	322.52
383.01	312.35
383.39	344.44
383.77	317.32
384.15	324.55
384.53	329.75
384.91	335.63
385.29	349.41
385.67	320.49
386.049	341.5
386.429	346.93
386.809	331.11
387.189	302.41
387.568	331.56
387.948	339.92
388.328	346.93
388.707	350.09
389.087	340.37
389.466	330.88
389.846	326.36
390.225	349.86
390.605	338.34
390.984	327.04
391.363	351.67
391.743	347.38
392.122	343.54
392.501	338.34
392.881	368.85
393.26	352.58
393.639	363.65
394.018	366.13
394.397	383.08
394.776	353.48
395.155	368.85
395.534	345.34
395.913	375.85
396.292	375.17
396.671	371.56
397.05	364.1
397.429	370.88
397.808	358.9
398.186	375.17
398.565	352.8
398.944	358
399.323	360.71
399.701	367.72
400.08	387.15
400.458	380.6
400.837	376.98
401.215	378.79
401.594	385.34
401.972	384.89
402.351	383.08
402.729	386.47
403.107	405
403.486	381.28
403.864	396.42
404.242	408.17
404.62	406.13
404.999	407.49
405.377	398
405.755	410.88
406.133	389.86
406.511	392.8
406.889	425.12
407.267	421.05
407.645	416.08
408.023	427.38
408.401	431.67
408.779	430.54
409.156	431.22
409.534	437.09
409.912	444.78
410.29	447.49
410.667	436.19
411.045	475.51
411.422	476.41
411.8	456.3
412.178	472.12
412.555	459.92
412.933	471.22
413.31	489.52
413.687	451.56
414.065	474.15
414.442	470.76
414.819	459.69
415.197	485.91
415.574	483.42
415.951	479.58
416.328	492.46
416.705	479.13
417.082	505.11
417.46	498.56
417.837	481.61
418.214	486.81
418.591	506.02
418.967	517.32
419.344	513.25
419.721	508.73
420.098	503.53
420.475	532.01
420.852	526.13
421.228	522.29
421.605	546.92
421.982	535.62
422.358	531.55
422.735	514.38
423.111	517.77
423.488	564.77
423.864	575.62
424.241	566.13
424.617	554.6
424.994	556.86
425.37	566.81
425.746	583.98
426.123	568.16
426.499	569.97
426.875	579.46
427.251	601.38
427.627	591.21
428.003	575.62
428.379	597.54
428.756	585.79
429.132	597.09
429.507	592.57
429.883	633.02
430.259	630.76
430.635	641.83
431.011	632.57
431.387	643.64
431.763	650.42
432.138	659.01
432.514	675.05
432.89	679.8
433.265	675.28
433.641	687.93
434.016	685.45
434.392	695.84
434.767	683.64
435.143	713.47
435.518	722.74
435.894	718.44
436.269	724.09
436.644	720.48
437.02	734.71
437.395	738.1
437.77	741.94
438.145	755.73
438.52	739.46
438.895	752.79
439.271	763.19
439.646	799.12
440.021	783.52
440.395	799.57
440.77	790.53
441.145	802.06
441.52	835.5
441.895	817.2
442.27	839.34
442.645	824.43
443.019	856.97
443.394	825.11
443.769	855.16
444.143	840.02
444.518	862.84
444.892	852.68
445.267	892
445.641	874.82
446.016	871.43
446.39	895.84
446.764	888.38
447.139	907.36
447.513	926.57
447.887	934.48
448.262	910.07
448.636	919.34
449.01	940.36
449.384	930.87
449.758	937.42
450.132	960.24
450.506	945.55
450.88	967.7
451.254	970.64
451.628	976.74
452.002	979.68
452.376	1010.19
452.75	1020.13
453.123	1013.35
453.497	1019.45
453.871	1025.1
454.244	1053.12
454.618	1045.89
454.992	1052.44
455.365	1066.23
455.739	1060.13
456.112	1077.75
456.486	1089.96
456.859	1071.88
457.232	1096.74
457.606	1111.65
457.979	1093.57
458.352	1133.8
458.725	1151.2
459.099	1153.23
459.472	1157.75
459.845	1154.59
460.218	1176.06
460.591	1179.22
460.964	1161.37
461.337	1207.69
461.71	1219.9
462.083	1234.13
462.456	1219.67
462.829	1221.25
463.201	1265.55
463.574	1252.21
463.947	1247.92
464.32	1283.85
464.692	1286.79
465.065	1308.26
465.438	1278.43
465.81	1338.09
466.183	1336.28
466.555	1346.22
466.928	1346.45
467.3	1354.81
467.672	1398.65
468.045	1384.86
468.417	1395.26
468.789	1402.04
469.161	1456.95
469.534	1428.93
469.906	1463.28
470.278	1465.09
470.65	1499.66
471.022	1510.29
471.394	1562.04
471.766	1538.31
472.138	1575.37
472.51	1597.74
472.882	1621.69
473.253	1620.79
473.625	1640.45
473.997	1666.44
474.369	1700.56
474.74	1724.06
475.112	1749.6
475.484	1757.51
475.855	1754.8
476.227	1791.41
476.598	1826.44
476.97	1857.62
477.341	1860.78
477.713	1881.57
478.084	1911.86
478.455	1957.28
478.827	1955.25
479.198	2007
479.569	2027.56
479.94	2060.1
480.311	2112.76
480.682	2100.1
481.053	2149.14
481.424	2192.98
481.795	2200.21
482.166	2251.51
482.537	2263.03
482.908	2310.72
483.279	2345.07
483.65	2349.59
484.021	2428.68
484.391	2445.63
484.762	2458.73
485.133	2497.6
485.503	2518.39
485.874	2577.83
486.244	2560.2
486.615	2612.86
486.985	2637.49
487.356	2691.95
487.726	2729.01
488.097	2763.13
488.467	2752.74
488.837	2816.24
489.207	2841.78
489.578	2869.57
489.948	2905.28
490.318	2967.65
490.688	2990.47
491.058	2993.41
491.428	3072.73
491.798	3077.02
492.168	3135.1
492.538	3145.72
492.908	3157.02
493.278	3246.51
493.648	3245.83
494.017	3247.41
494.387	3307.98
494.757	3345.27
495.126	3394.98
495.496	3386.62
495.866	3393.17
496.235	3460.52
496.605	3481.08
496.974	3490.35
497.344	3518.37
497.713	3547.07
498.082	3591.13
498.452	3641.98
498.821	3641.98
499.19	3650.34
499.559	3668.65
499.928	3689.44
500.298	3727.85
500.667	3768.53
501.036	3771.92
501.405	3792.94
501.774	3785.25
502.143	3820.28
502.512	3879.49
502.88	3940.05
503.249	3914.52
503.618	3922.88
503.987	3969.88
504.356	3967.62
504.724	4021.86
505.093	4041.74
505.462	4060.73
505.83	4105.47
506.199	4091.91
506.567	4153.61
506.936	4167.84
507.304	4204
507.672	4251.46
508.041	4282.19
508.409	4307.27
508.777	4330.55
509.145	4370.1
509.514	4388.4
509.882	4425.91
510.25	4469.76
510.618	4439.25
510.986	4486.7
511.354	4493.94
511.722	4562.86
512.09	4609.86
512.458	4621.39
512.826	4623.42
513.193	4687.15
513.561	4698.45
513.929	4755.85
514.297	4796.07
514.664	4790.88
515.032	4827.71
515.4	4894.6
515.767	4911.1
516.135	4895.51
516.502	4966.24
516.869	5078.1
517.237	5015.05
517.604	5056.18
517.972	5094.37
518.339	5120.81
518.706	5132.11
519.073	5235.61
519.44	5263.63
519.808	5281.26
520.175	5303.86
520.542	5352.44
520.909	5377.75
521.276	5414.36
521.643	5431.76
522.009	5431.54
522.376	5574.36
522.743	5543.85
523.11	5621.36
523.477	5624.08
523.843	5661.14
524.21	5762.38
524.577	5771.19
524.943	5848.02
525.31	5862.04
525.676	5935.03
526.043	5960.34
526.409	5998.75
526.776	6067.45
527.142	6055.48
527.508	6104.97
527.874	6173.21
528.241	6205.75
528.607	6170.73
528.973	6230.39
529.339	6301.35
529.705	6360.55
530.071	6443.49
530.437	6398.74
530.803	6453.88
531.169	6484.62
531.535	6453.43
531.901	6547.67
532.267	6593.99
532.632	6650.71
532.998	6596.48
533.364	6639.42
533.73	6743.37
534.095	6760.09
534.461	6745.18
534.826	6825.4
535.192	6854.55
535.557	6909.92
535.923	6914.89
536.288	6898.84
536.653	6943.14
537.019	6961.67
537.384	6952.18
537.749	7063.13
538.114	7043.92
538.479	7089.57
538.845	7111.27
539.21	7185.16
539.575	7187.88
539.94	7235.56
540.305	7256.12
540.67	7231.04
541.034	7248.44
541.399	7258.61
541.764	7320.75
542.129	7415.21
542.494	7347.87
542.858	7394.65
543.223	7453.18
543.587	7371.15
543.952	7445.5
544.316	7431.49
544.681	7500.86
545.045	7578.6
545.41	7600.52
545.774	7605.72
546.138	7628.99
546.503	7539.05
546.867	7603.46
547.231	7704.7
547.595	7725.94
547.959	7753.28
548.324	7756.9
548.688	7864.69
549.052	7808.2
549.416	7846.16
549.779	7807.75
550.143	7887.97
550.507	7924.81
550.871	8006.16
551.235	7972.94
551.599	8051.36
551.962	8107.4
552.326	8049.77
552.689	8101.75
553.053	8097
553.417	8137.46
553.78	8301.97
554.143	8240.73
554.507	8360.73
554.87	8332.7
555.234	8379.94
555.597	8331.57
555.96	8368.18
556.323	8432.81
556.686	8423.1
557.05	8513.26
557.413	8613.6
557.776	8568.18
558.139	8600.49
558.502	8569.99
558.865	8636.88
559.228	8689.76
559.59	8745.8
559.953	8829.41
560.316	8887.27
560.679	8883.42
561.041	8911.67
561.404	8944.67
561.767	9021.05
562.129	8959.58
562.492	9153.93
562.854	9113.7
563.217	9088.84
563.579	9195.73
563.941	9283.87
564.304	9243.42
564.666	9330.87
565.028	9263.75
565.39	9291.32
565.753	9330.19
566.115	9508.72
566.477	9574.03
566.839	9575.61
567.201	9580.81
567.563	9666.45
567.925	9633.46
568.287	9600.02
568.648	9660.81
569.01	9668.71
569.372	9761.82
569.734	9796.85
570.095	9867.58
570.457	9871.65
570.819	9948.03
571.18	9898.77
571.542	9974.92
571.903	9969.5
572.265	10015.37
572.626	10029.38
572.987	10044.52
573.349	10164.07
573.71	10134.47
574.071	10180.79
574.432	10176.5
574.794	10263.5
575.155	10248.36
575.516	10281.35
575.877	10299.21
576.238	10323.39
576.599	10311.18
576.96	10391.86
577.32	10464.17
577.681	10403.61
578.042	10400.9
578.403	10414.91
578.763	10375.36
579.124	10378.75
579.485	10474.8
579.845	10475.25
580.206	10448.81
580.566	10518.18
580.927	10583.94
581.287	10572.19
581.648	10446.32
582.008	10630.27
582.368	10529.03
582.728	10547.56
583.089	10607.67
583.449	10659.42
583.809	10677.95
584.169	10642.25
584.529	10677.05
584.889	10613.77
585.249	10557.05
585.609	10536.71
585.969	10634.11
586.329	10603.83
586.688	10618.52
587.048	10644.06
587.408	10606.32
587.768	10645.41
588.127	10627.33
588.487	10521.57
588.846	10635.69
589.206	10597.96
589.565	10602.93
589.925	10669.59
590.284	10633.89
590.643	10628.24
591.003	10755.24
591.362	10712.53
591.721	10707.11
592.08	10706.2
592.44	10687.44
592.799	10684.28
593.158	10710.27
593.517	10695.81
593.876	10676.15
594.235	10698.07
594.593	10740.32
594.952	10761.12
595.311	10644.28
595.67	10732.42
596.029	10711.85
596.387	10772.64
596.746	10773.54
597.104	10732.19
597.463	10654.45
597.822	10717.27
598.18	10730.16
598.538	10736.71
598.897	10821
599.255	10727.22
599.613	10907.33
599.972	10717.05
600.33	10809.25
600.688	10742.81
601.046	10812.64
601.404	10887.44
601.762	10899.87
602.12	10926.53
602.478	10933.54
602.836	10804.96
603.194	10841.57
603.552	10812.87
603.91	10795.46
604.268	10892.64
604.625	10788.69
604.983	10846.08
605.341	10827.78
605.698	10973.31
606.056	10955.69
606.413	10935.12
606.771	10956.14
607.128	11038.85
607.485	10906.87
607.843	10847.44
608.2	11006.76
608.557	11013.76
608.914	11002.24
609.272	11039.07
609.629	11085.85
609.986	11093.76
610.343	10984.84
610.7	11097.38
611.057	11055.34
611.414	11020.54
611.771	11089.69
612.127	11133.08
612.484	11186.19
612.841	11187.32
613.198	11131.05
613.554	11203.36
613.911	11196.58
614.267	11217.83
614.624	11151.61
614.98	11131.73
615.337	11198.39
615.693	11197.04
616.05	11136.25
616.406	11257.6
616.762	11257.15
617.118	11184.83
617.475	11255.34
617.831	11212.4
618.187	11250.14
618.543	11260.76
618.899	11345.96
619.255	11306.64
619.611	11190.03
619.967	11289.01
620.323	11307.32
620.678	11283.14
621.034	11349.8
621.39	11290.82
621.746	11267.09
622.101	11366.75
622.457	11282.46
622.812	11277.49
623.168	11315.23
623.523	11333.08
623.879	11333.3
624.234	11283.14
624.589	11348.67
624.945	11308.22
625.3	11421.44
625.655	11357.71
626.01	11424.37
626.365	11331.04
626.72	11257.15
627.075	11314.77
627.43	11277.49
627.785	11246.98
628.14	11303.25
628.495	11284.04
628.85	11338.5
629.205	11288.33
629.559	11279.75
629.914	11217.37
630.269	11315
630.623	11178.73
630.978	11148.9
631.332	11181.44
631.687	11174.89
632.041	11142.12
632.396	11209.24
632.75	11124.72
633.104	11177.38
633.459	11062.12
633.813	11094.21
634.167	11066.64
634.521	10976.02
634.875	11077.72
635.229	11054.21
635.583	10956.59
635.937	11065.06
636.291	11013.99
636.645	11018.06
636.999	10978.51
637.352	11051.5
637.706	10959.08
638.06	11053.54
638.413	10968.79
638.767	10908.23
639.121	10936.25
639.474	10814.67
639.828	10848.8
640.181	10853.99
640.534	10887.67
640.888	10788.23
641.241	10767.67
641.594	10815.13
641.947	10800.89
642.301	10743.26
642.654	10765.86
643.007	10729.25
643.36	10731.29
643.713	10724.05
644.066	10763.83
644.419	10687.9
644.771	10655.13
645.124	10626.43
645.477	10547.11
645.83	10458.3
646.182	10432.08
646.535	10331.07
646.888	10374.46
647.24	10337.17
647.593	10332.88
647.945	10351.18
648.298	10235.71
648.65	10273.44
649.002	10222.82
649.355	10329.71
649.707	10308.7
650.059	10339.88
650.411	10406.32
650.763	10417.4
651.115	10468.47
651.467	10452.65
651.819	10486.55
652.171	10442.03
652.523	10393.44
652.875	10376.94
653.227	10424.18
653.578	10429.15
653.93	10352.09
654.282	10362.03
654.633	10322.03
654.985	10352.54
655.337	10447.45
655.688	10416.94
656.039	10401.58
656.391	10262.82
656.742	10323.16
657.094	10291.98
657.445	10337.62
657.796	10390.05
658.147	10232.54
658.498	10299.43
658.849	10304.4
659.2	10235.25
659.551	10254.01
659.902	10284.52
660.253	10299.21
660.604	10253.33
660.955	10151.19
661.306	10214.69
661.656	10177.63
662.007	10196.84
662.358	10207.91
662.708	10239.55
663.059	10143.28
663.409	10098.08
663.76	10205.42
664.11	10129.95
664.461	10104.64
664.811	10095.6
665.161	10122.71
665.511	10056.05
665.862	10100.12
666.212	10145.31
666.562	10105.09
666.912	10061.47
667.262	10079.33
667.612	10092.21
667.962	10096.05
668.312	10115.03
668.662	10132.43
669.011	10110.29
669.361	10073.45
669.711	10080.46
670.06	10051.53
670.41	10014.47
670.76	9980.34
671.109	9984.19
671.459	10005.65
671.808	10057.18
672.157	10077.07
672.507	10026.67
672.856	9953.9
673.205	9987.58
673.554	9983.73
673.904	9920.46
674.253	10031.87
674.602	9959.1
674.951	9804.76
675.3	9705.55
675.649	9941.02
675.998	9959.78
676.346	9953.45
676.695	9998.88
677.044	9864.87
677.393	9931.76
677.741	9900.57
678.09	9898.99
678.438	9836.62
678.787	9821.93
679.135	9831.2
679.484	9800.24
679.832	9790.97
680.181	9743.51
680.529	9789.16
680.877	9742.39
681.225	9686.79
681.573	9845.43
681.922	9724.76
682.27	9720.46
682.618	9771.76
682.966	9717.08
683.314	9717.53
683.661	9678.66
684.009	9634.59
684.357	9588.72
684.705	9580.58
685.053	9588.26
685.4	9557.31
685.748	9578.1
686.095	9543.29
686.443	9499.68
686.79	9552.11
687.138	9509.4
687.485	9468.72
687.832	9471.66
688.18	9464.65
688.527	9445.22
688.874	9423.52
689.221	9387.82
689.568	9312.11
689.915	9392.34
690.262	9307.59
690.609	9296.3
690.956	9273.47
691.303	9219.01
691.65	9233.25
691.997	9168.84
692.344	9223.53
692.69	9132.91
693.037	9110.76
693.383	9057.43
693.73	9116.64
694.077	9019.47
694.423	9018.56
694.769	9016.98
695.116	8956.19
695.462	8998
695.808	8981.73
696.155	8941.95
696.501	8958.45
696.847	8913.93
697.193	8849.98
697.539	8905.34
697.885	8754.61
698.231	8815.4
698.577	8698.8
698.923	8710.1
699.269	8698.57
699.614	8704.45
699.96	8613.83
700.306	8652.7
700.651	8615.41
700.997	8602.3
701.342	8624.67
701.688	8571.34
702.033	8536.99
702.379	8528.18
702.724	8517.11
703.069	8489.76
703.415	8431.69
703.76	8403.89
704.105	8345.13
704.45	8393.27
704.795	8338.81
705.14	8308.98
705.485	8337.9
705.83	8292.25
706.175	8279.82
706.52	8271.92
706.865	8217.68
707.209	8238.02
707.554	8174.97
707.899	8200.96
708.243	8159.15
708.588	8159.38
708.932	8041.64
709.277	8140.85
709.621	8094.29
709.966	8066.72
710.31	8012.71
710.654	7976.33
710.998	8027.85
711.342	8053.62
711.687	7973.39
712.031	7930.46
712.375	7911.02
712.719	7974.75
713.063	7938.82
713.407	7915.99
713.75	7900.4
714.094	7840.06
714.438	7787.63
714.782	7816.33
715.125	7788.31
715.469	7804.81
715.812	7785.6
716.156	7800.52
716.499	7776.56
716.843	7814.53
717.186	7705.83
717.53	7725.04
717.873	7785.6
718.216	7705.83
718.559	7721.2
718.902	7662.67
719.246	7652.27
719.589	7590.8
719.932	7596.68
720.275	7526.85
720.617	7548.32
720.96	7530.92
721.303	7552.39
721.646	7550.13
721.989	7511.03
722.331	7610.46
722.674	7534.76
723.016	7495.66
723.359	7494.31
723.701	7519.17
724.044	7453.41
724.386	7374.54
724.729	7476
725.071	7443.69
725.413	7471.26
725.755	7398.94
726.097	7351.71
726.439	7365.05
726.782	7343.13
727.124	7380.64
727.465	7333.86
727.807	7349
728.149	7305.39
728.491	7218.84
728.833	7343.58
729.175	7257.03
729.516	7180.64
729.858	7191.72
730.199	7238.5
730.541	7233.98
730.882	7231.72
731.224	7196.24
731.565	7214.77
731.906	7171.15
732.248	7195.79
732.589	7125.28
732.93	7104.26
733.271	7112.17
733.612	7150.14
733.953	7126.41
734.294	7104.94
734.635	7089.8
734.976	7088.44
735.317	7065.39
735.658	7087.77
735.999	7029.91
736.339	7042.34
736.68	6993.08
737.021	7038.5
737.361	6987.66
737.702	7034.21
738.042	7047.31
738.383	6980.65
738.723	6979.29
739.063	6937.26
739.404	6977.26
739.744	6933.42
740.084	6895
740.424	6940.65
740.764	6885.51
741.104	6901.78
741.444	6901.78
741.784	6849.81
742.124	6877.15
742.464	6890.48
742.804	6830.15
743.143	6798.96
743.483	6782.24
743.823	6797.38
744.162	6747.89
744.502	6756.7
744.841	6728.23
745.181	6760.32
745.52	6770.49
745.86	6760.99
746.199	6755.12
746.538	6727.55
746.877	6764.16
747.216	6658.4
747.556	6736.14
747.895	6695.69
748.234	6648.68
748.573	6669.92
748.911	6692.97
749.25	6606.2
749.589	6588.34
749.928	6584.5
750.267	6610.49
750.605	6535.24
750.944	6543.6
751.283	6537.72
751.621	6570.04
751.96	6499.31
752.298	6538.4
752.636	6574.33
752.975	6568.46
753.313	6472.64
753.651	6467.22
753.989	6446.65
754.327	6429.03
754.666	6408.69
755.004	6414.11
755.342	6385.41
755.679	6452.75
756.017	6324.4
756.355	6322.36
756.693	6365.3
757.031	6355.58
757.368	6282.14
757.706	6295.47
758.044	6341.12
758.381	6289.14
758.719	6310.61
759.056	6282.14
759.394	6266.32
759.731	6194.68
760.068	6226.77
760.405	6153.33
760.743	6149.94
761.08	6159.65
761.417	6095.7
761.754	6061.35
762.091	6045.53
762.428	6015.48
762.765	6104.29
763.102	6064.06
763.438	5973.22
763.775	6014.8
764.112	6028.81
764.449	6070.62
764.785	5973.44
765.122	5888.25
765.458	5939.55
765.795	5941.58
766.131	5863.39
766.467	5889.61
766.804	5835.82
767.14	5789.72
767.476	5791.08
767.812	5764.18
768.148	5736.16
768.485	5754.02
768.821	5710.63
769.157	5709.95
769.492	5754.92
769.828	5790.62
770.164	5686.45
770.5	5641.25
770.836	5652.78
771.171	5642.61
771.507	5662.04
771.842	5549.73
772.178	5597.18
772.513	5606
772.849	5538.2
773.184	5500.46
773.519	5507.47
773.855	5508.6
774.19	5394.02
774.525	5456.85
774.86	5451.88
775.195	5376.62
775.53	5401.93
775.865	5344.31
776.2	5279.45
776.535	5342.05
776.87	5346.57
777.205	5349.73
777.539	5273.35
777.874	5310.64
778.209	5254.37
778.543	5233.58
778.878	5187.93
779.212	5145.9
779.547	5123.98
779.881	5160.36
780.215	5112.22
780.55	5103.86
780.884	5076.75
781.218	5031.77
781.552	5046.69
781.886	5087.59
782.22	5054.37
782.554	5079.23
782.888	5041.72
783.222	4996.75
783.556	4951.55
783.889	4954.04
784.223	4919.46
784.557	4915.17
784.89	4932.12
785.224	4866.36
785.557	4825.9
785.891	4850.76
786.224	4838.79
786.558	4788.84
786.891	4774.15
787.224	4742.29
787.557	4774.61
787.891	4738.45
788.224	4762.18
788.557	4728.28
788.89	4756.53
789.223	4694.83
789.556	4720.6
789.888	4692.12
790.221	4656.64
790.554	4692.8
790.887	4626.81
791.219	4631.11
791.552	4569.64
791.884	4551.34
792.217	4549.98
792.549	4507.04
792.882	4482.18
793.214	4428.63
793.546	4445.8
793.879	4434.05
794.211	4453.26
794.543	4452.81
794.875	4491.22
795.207	4471.11
795.539	4397.44
795.871	4458.23
796.203	4410.55
796.535	4397.89
796.867	4390.66
797.198	4408.06
797.53	4354.28
797.862	4346.14
798.193	4383.66
798.525	4278.8
798.856	4308.63
799.188	4294.84
799.519	4264.79
799.85	4196.99
800.182	4223.89
800.513	4186.6
800.844	4223.21
801.175	4196.99
801.506	4235.86
801.837	4162.19
802.168	4185.7
802.499	4151.35
802.83	4156.32
803.161	4175.98
803.491	4155.19
803.822	4099.6
804.153	4156.77
804.483	4087.62
804.814	4080.84
805.145	4054.63
805.475	4031.8
805.805	4001.97
806.136	4051.24
806.466	4040.16
806.796	3932.82
807.126	3894.4
807.457	3963.1
807.787	3959.03
808.117	3997.9
808.447	3944.35
808.777	3964.91
809.107	3966.72
809.436	3935.98
809.766	3931.46
810.096	3945.48
810.426	3907.28
810.755	3941.18
811.085	3886.49
811.414	3910.45
811.744	3839.04
812.073	3819.15
812.403	3853.27
812.732	3794.74
813.061	3811.92
813.39	3756.78
813.719	3796.1
814.049	3781.86
814.378	3808.53
814.707	3745.48
815.036	3766.05
815.365	3759.72
815.693	3739.61
816.022	3772.37
816.351	3732.15
816.68	3717.01
817.008	3746.16
817.337	3724.01
817.665	3712.94
817.994	3686.73
818.322	3681.75
818.651	3698.25
818.979	3637.23
819.307	3657.12
819.636	3637.01
819.964	3607.86
820.292	3631.36
820.62	3615.77
820.948	3616.9
821.276	3620.29
821.604	3585.94
821.932	3625.48
822.259	3628.65
822.587	3629.55
822.915	3639.49
823.243	3662.09
823.57	3650.34
823.898	3643.56
824.225	3612.38
824.553	3623.22
824.88	3639.95
825.207	3617.57
825.535	3637.46
825.862	3618.03
826.189	3590
826.516	3635.65
826.843	3637.91
827.17	3619.61
827.497	3584.35
827.824	3604.24
828.151	3612.83
828.478	3596.78
828.805	3634.98
829.131	3637.69
829.458	3599.04
829.785	3556.11
830.111	3629.1
830.438	3667.52
830.764	3617.8
831.09	3619.61
831.417	3597.01
831.743	3635.43
832.069	3611.92
832.395	3580.51
832.722	3547.07
833.048	3555.66
833.374	3568.99
833.7	3496.67
834.026	3510.23
834.351	3557.91
834.677	3519.5
835.003	3533.51
835.329	3551.36
835.654	3543
835.98	3559.95
836.306	3565.37
836.631	3532.38
836.956	3589.55
837.282	3534.64
837.607	3514.53
837.932	3521.76
838.258	3530.12
838.583	3536.45
838.908	3573.96
839.233	3513.85
839.558	3483.79
839.883	3496.9
840.208	3452.61
840.533	3436.79
840.858	3464.36
841.182	3420.97
841.507	3435.43
841.832	3436.34
842.156	3409.67
842.481	3460.29
842.805	3381.42
843.13	3390.24
843.454	3387.3
843.778	3412.83
844.103	3406.96
844.427	3394.98
844.751	3429.1
845.075	3405.38
845.399	3380.97
845.723	3381.65
846.047	3371.25
846.371	3336.68
846.695	3345.94
847.019	3357.24
847.343	3335.55
847.666	3271.14
847.99	3294.65
848.313	3297.81
848.637	3229.11
848.96	3190.24
849.284	3189.34
849.607	3228.21
849.931	3193.18
850.254	3183.01
850.577	3170.58
850.9	3151.6
851.223	3157.25
851.546	3163.58
851.869	3160.41
852.192	3175.1
852.515	3128.32
852.838	3111.15
853.161	3124.48
853.483	3126.97
853.806	3131.03
854.129	3055.56
854.451	3004.71
854.774	3048.1
855.096	2996.57
855.419	3012.39
855.741	3011.26
856.063	2980.53
856.385	2981.43
856.708	3006.74
857.03	2979.4
857.352	2957.93
857.674	2956.8
857.996	2968.33
858.318	2928.55
858.64	2950.93
858.961	2907.54
859.283	2922
859.605	2898.72
859.926	2921.77
860.248	2931.72
860.57	2907.76
860.891	2934.88
861.212	2931.94
861.534	2947.76
861.855	2861.89
862.176	2908.89
862.498	2864.37
862.819	2854.66
863.14	2852.4
863.461	2860.08
863.782	2821.89
864.103	2860.53
864.424	2827.76
864.745	2810.36
865.065	2871.38
865.386	2812.4
865.707	2815.56
866.027	2804.94
866.348	2813.53
866.668	2824.37
866.989	2828.89
867.309	2776.01
867.63	2785.28
867.95	2758.16
868.27	2792.29
868.59	2793.19
868.91	2783.25
869.23	2811.49
869.55	2755.68
869.87	2763.13
870.19	2785.73
870.51	2758.39
870.83	2755.68
871.15	2735.11
871.469	2719.97
871.789	2725.39
872.109	2735.11
872.428	2731.04
872.748	2667.09
873.067	2707.99
873.386	2706.86
873.706	2730.37
874.025	2721.55
874.344	2686.3
874.663	2692.85
874.982	2715.9
875.301	2724.26
875.62	2693.3
875.939	2720.87
876.258	2721.78
876.577	2711.16
876.896	2701.89
877.214	2693.98
877.533	2693.98
877.852	2710.48
878.17	2693.98
878.489	2667.77
878.807	2649.24
879.125	2690.82
879.444	2692.4
879.762	2669.12
880.08	2637.04
880.398	2640.88
880.716	2620.76
881.034	2606.3
881.352	2602.91
881.67	2627.09
881.988	2573.08
882.306	2629.35
882.624	2609.92
882.941	2597.26
883.259	2577.6
883.577	2569.47
883.894	2556.59
884.212	2616.02
884.529	2598.17
884.846	2597.71
885.164	2594.55
885.481	2577.38
885.798	2543.7
886.115	2549.81
886.432	2531.05
886.75	2554.33
887.067	2573.31
887.383	2527.21
887.7	2500.54
888.017	2481.56
888.334	2523.14
888.651	2497.83
888.967	2507.55
889.284	2483.59
889.6	2471.16
889.917	2447.89
890.233	2516.13
890.55	2456.93
890.866	2463.48
891.182	2455.35
891.498	2458.73
891.815	2443.14
892.131	2447.44
892.447	2431.84
892.763	2441.56
893.079	2414.67
893.395	2410.37
893.71	2421.67
894.026	2431.39
894.342	2414.89
894.657	2389.36
894.973	2407.44
895.289	2389.36
895.604	2390.26
895.92	2351.62
896.235	2316.82
896.55	2362.24
896.865	2332.86
897.181	2328.34
897.496	2311.39
897.811	2310.49
898.126	2322.69
898.441	2312.98
898.756	2275.46
899.071	2282.92
899.386	2286.08
899.7	2282.47
900.015	2262.13
900.33	2266.65
900.644	2263.71
900.959	2293.99
901.273	2266.42
901.588	2258.06
901.902	2266.42
902.216	2219.65
902.531	2239.31
902.845	2216.03
903.159	2235.01
903.473	2212.19
903.787	2192.98
904.101	2141
904.415	2179.87
904.729	2157.73
905.042	2136.03
905.356	2177.61
905.67	2174.45
905.984	2165.64
906.297	2110.27
906.611	2119.76
906.924	2110.5
907.237	2108.69
907.551	2101.68
907.864	2089.93
908.177	2128.35
908.491	2100.33
908.804	2068.46
909.117	2087.67
909.43	2077.73
909.743	2086.77
910.056	2046.77
910.368	2063.94
910.681	2079.31
910.994	2028.69
911.307	2045.64
911.619	2019.2
911.932	2018.29
912.244	1997.96
912.557	1988.46
912.869	1996.37
913.181	2025.53
913.494	1937.84
913.806	1965.87
914.118	1927.68
914.43	1954.12
914.742	1932.19
915.054	1917.28
915.366	1955.02
915.678	1936.71
915.99	1887.22
916.302	1923.83
916.613	1859.88
916.925	1896.04
917.236	1889.71
917.548	1886.09
917.859	1883.16
918.171	1908.24
918.482	1882.25
918.794	1872.31
919.105	1870.73
919.416	1859.65
919.727	1868.92
920.038	1841.58
920.349	1831.18
920.66	1829.15
920.971	1825.53
921.282	1813.55
921.593	1788.92
921.903	1792.31
922.214	1760.67
922.525	1781.92
922.835	1764.06
923.146	1748.47
923.456	1724.06
923.767	1721.13
924.077	1755.48
924.387	1738.53
924.697	1752.31
925.008	1717.29
925.318	1736.49
925.628	1729.49
925.938	1667.57
926.248	1695.59
926.558	1687.23
926.867	1709.83
927.177	1706.44
927.487	1694.24
927.796	1649.72
928.106	1681.13
928.416	1670.28
928.725	1668.25
929.034	1667.12
929.344	1663.28
929.653	1646.55
929.962	1649.94
930.271	1622.82
930.581	1637.29
930.89	1607.68
931.199	1593.9
931.508	1628.7
931.817	1589.61
932.125	1598.19
932.434	1592.77
932.743	1570.85
933.051	1566.55
933.36	1584.63
933.669	1576.5
933.977	1580.79
934.286	1556.61
934.594	1567.23
934.902	1557.74
935.21	1552.32
935.519	1556.84
935.827	1562.71
936.135	1572.88
936.443	1508.48
936.751	1525.2
937.059	1504.64
937.367	1528.59
937.674	1500.12
937.982	1515.71
938.29	1510.29
938.597	1493.56
938.905	1465.31
939.213	1466.67
939.52	1437.74
939.827	1456.05
940.135	1475.03
940.442	1444.98
940.749	1463.05
941.056	1464.18
941.363	1437.29
941.67	1433.45
941.977	1394.81
942.284	1406.79
942.591	1428.48
942.898	1411.53
943.205	1402.27
943.511	1413.11
943.818	1419.44
944.125	1403.85
944.431	1364.98
944.738	1383.06
945.044	1395.71
945.35	1392.55
945.657	1374.02
945.963	1384.86
946.269	1376.28
946.575	1375.37
946.881	1364.53
947.187	1371.53
947.493	1335.15
947.799	1349.39
948.105	1358.42
948.41	1336.96
948.716	1336.5
949.022	1327.47
949.327	1310.06
949.633	1304.64
949.938	1301.03
950.244	1293.79
950.549	1318.43
950.854	1282.72
951.16	1291.31
951.465	1264.19
951.77	1269.84
952.075	1257.64
952.38	1275.26
952.685	1271.65
952.99	1242.27
953.294	1238.65
953.599	1267.13
953.904	1269.61
954.209	1258.99
954.513	1252.89
954.818	1259.44
955.122	1233.23
955.426	1234.81
955.731	1223.96
956.035	1226.68
956.339	1234.36
956.643	1211.76
956.948	1206.56
957.252	1242.95
957.556	1224.42
957.86	1210.41
958.163	1189.84
958.467	1188.26
958.771	1174.25
959.075	1173.34
959.378	1203.85
959.682	1152.33
959.985	1180.35
960.289	1154.59
960.592	1173.34
960.896	1148.71
961.199	1140.35
961.502	1153.46
961.805	1147.81
962.108	1129.73
962.411	1134.48
962.714	1144.42
963.017	1111.65
963.32	1133.8
963.623	1141.26
963.926	1137.41
964.228	1150.07
964.531	1104.19
964.833	1112.78
965.136	1097.64
965.438	1115.72
965.741	1086.57
966.043	1115.95
966.345	1109.17
966.648	1078.88
966.95	1068.26
967.252	1091.09
967.554	1104.42
967.856	1071.2
968.158	1067.81
968.46	1086.34
968.761	1058.09
969.063	1048.83
969.365	1068.94
969.666	1039.34
969.968	1037.3
970.269	1056.06
970.571	1039.79
970.872	1056.96
971.174	1047.02
971.475	1044.08
971.776	1043.4
972.077	1032.78
972.378	1030.75
972.679	1017.42
972.98	1025.55
973.281	1004.54
973.582	1043.18
973.883	1014.03
974.183	1010.19
974.484	989.85
974.785	997.53
975.085	1004.08
975.386	994.14
975.686	981.49
975.986	966.34
976.287	978.55
976.587	949.17
976.887	972.67
977.187	958.89
977.487	979
977.787	989.17
978.087	973.12
978.387	955.72
978.687	939.68
978.987	957.76
979.286	970.86
979.586	929.51
979.885	954.82
980.185	938.1
980.484	924.76
980.784	942.84
981.083	913.24
981.382	936.06
981.682	920.7
981.981	929.28
982.28	922.05
982.579	914.37
982.878	922.05
983.177	914.82
983.475	893.35
983.774	904.88
984.073	906.46
984.372	904.43
984.67	908.95
984.969	903.97
985.267	904.88
985.566	895.61
985.864	903.97
986.162	880.47
986.461	902.17
986.759	896.74
987.057	884.54
987.355	873.24
987.653	882.51
987.951	841.83
988.249	860.81
988.547	864.65
988.844	857.65
989.142	826.91
989.44	868.04
989.737	840.47
990.035	853.81
990.332	846.35
990.63	859.68
990.927	830.3
991.224	829.17
991.521	828.95
991.819	833.69
992.116	818.55
992.413	832.34
992.71	815.61
993.006	815.84
993.303	831.43
993.6	826.91
993.897	821.04
994.193	813.13
994.49	812.68
994.787	829.85
995.083	783.75
995.379	812.9
995.676	783.52
995.972	799.57
996.268	783.07
996.565	779.68
996.861	777.2
997.157	787.37
997.453	793.02
997.749	757.76
998.044	755.95
998.34	757.99
998.636	753.92
998.932	742.62
999.227	733.81
999.523	769.51
999.818	760.47
1000.114	760.47
1000.409	759.34
1000.704	757.99
1001	750.76
1001.295	720.48
1001.59	756.86
1001.885	721.83
1002.18	736.29
1002.475	728.84
1002.77	733.81
1003.065	732.68
1003.359	712.34
1003.654	720.93
1003.949	724.09
1004.243	739.68
1004.538	731.32
1004.832	699.68
1005.127	693.36
1005.421	718.67
1005.715	730.87
1006.009	696.52
1006.304	702.4
1006.598	708.05
1006.892	709.18
1007.186	688.84
1007.48	680.25
1007.773	689.52
1008.067	683.41
1008.361	690.87
1008.655	681.38
1008.948	675.5
1009.242	671.66
1009.535	672.34
1009.829	669.4
1010.122	656.75
1010.415	671.44
1010.708	627.82
1011.001	656.07
1011.295	649.74
1011.588	646.35
1011.881	653.36
1012.173	669.63
1012.466	644.77
1012.759	645.68
1013.052	638.22
1013.344	646.58
1013.637	634.83
1013.93	634.6
1014.222	648.61
1014.514	637.09
1014.807	653.13
1015.099	621.72
1015.391	626.47
1015.683	605.68
1015.976	647.48
1016.268	655.84
1016.56	638.44
1016.851	623.98
1017.143	605
1017.435	616.98
1017.727	628.5
1018.018	612.23
1018.31	596.41
1018.602	590.08
1018.893	586.69
1019.185	599.12
1019.476	602.51
1019.767	615.85
1020.058	563.87
1020.35	589.18
1020.641	573.59
1020.932	580.14
1021.223	601.38
1021.514	577.2
1021.804	550.54
1022.095	566.58
1022.386	570.65
1022.677	565.68
1022.967	561.38
1023.258	574.72
1023.548	544.66
1023.839	562.29
1024.129	546.69
1024.419	571.55
1024.709	569.07
1025	548.95
1025.29	555.51
1025.58	549.41
1025.87	551.44
1026.16	550.99
1026.449	559.8
1026.739	549.18
1027.029	531.1
1027.319	552.12
1027.608	545.79
1027.898	527.26
1028.187	536.98
1028.477	538.11
1028.766	508.5
1029.055	519.35
1029.344	532.01
1029.634	538.56
1029.923	521.16
1030.212	517.32
1030.501	526.36
1030.79	546.47
1031.078	508.28
1031.367	517.32
1031.656	522.51
1031.945	497.66
1032.233	497.2
1032.522	503.31
1032.81	511.89
1033.099	494.72
1033.387	493.36
1033.675	499.24
1033.963	493.14
1034.251	490.42
1034.54	482.74
1034.828	471.67
1035.116	494.49
1035.403	476.64
1035.691	466.92
1035.979	482.29
1036.267	492.01
1036.554	510.31
1036.842	486.58
1037.129	488.84
1037.417	478.9
1037.704	477.54
1037.992	481.16
1038.279	477.32
1038.566	458.34
1038.853	458.34
1039.14	458.34
