Data from foam1_polythene_foam_FLMS001491_00028.txt Node
Date: Wed Feb 08 10:54:36 GMT 2017
User: dcchb
Spectrometer: FLMS00149
Trigger mode: 0
Integration Time (sec): 2.000000E-2
Scans to average: 10
Electric dark correction enabled: true
Nonlinearity correction enabled: false
Boxcar width: 0
XAxis mode: Wavelengths
Number of Pixels in Spectrum: 2048
>>>>>Begin Spectral Data<<<<<
341.393	10.93
341.776	10.93
342.16	10.93
342.543	-57.99
342.927	-58.22
343.31	-47.15
343.693	-80.59
344.077	-68.61
344.46	-65.9
344.843	-34.04
345.226	-31.1
345.61	-41.5
345.993	-7.82
346.376	2.57
346.759	19.29
347.142	40.99
347.525	17.94
347.908	39.18
348.291	71.72
348.674	87.77
349.057	97.26
349.44	101.33
349.823	134.32
350.206	171.38
350.588	186.52
350.971	199.63
351.354	216.8
351.737	236.91
352.119	229.23
352.502	233.75
352.884	259.74
353.267	279.85
353.65	295.67
354.032	282.11
354.414	289.34
354.797	304.48
355.179	313.52
355.562	309.23
355.944	297.93
356.326	310.13
356.709	323.69
357.091	330.7
357.473	304.94
357.855	324.82
358.238	319.17
358.62	326.86
359.002	298.16
359.384	322.56
359.766	333.41
360.148	327.99
360.53	329.34
360.912	320.75
361.294	325.27
361.676	306.52
362.057	315.1
362.439	334.31
362.821	315.1
363.203	317.14
363.584	316.69
363.966	310.59
364.348	312.62
364.729	293.64
365.111	286.18
365.493	309.91
365.874	300.87
366.256	320.3
366.637	303.13
367.019	299.96
367.4	308.33
367.781	281.43
368.163	294.99
368.544	287.53
368.925	291.6
369.306	283.47
369.688	296.57
370.069	271.94
370.45	293.64
370.831	285.27
371.212	299.29
371.593	302.22
371.974	306.07
372.355	297.03
372.736	297.48
373.117	297.48
373.498	306.07
373.879	285.73
374.26	278.04
374.641	306.29
375.021	299.74
375.402	298.83
375.783	290.92
376.163	295.67
376.544	306.07
376.925	311.04
377.305	315.78
377.686	304.48
378.066	304.71
378.447	310.36
378.827	323.92
379.208	332.73
379.588	311.71
379.968	320.53
380.349	313.75
380.729	306.52
381.109	328.44
381.489	321.43
381.87	307.87
382.25	329.12
382.63	319.62
383.01	327.99
383.39	342.22
383.77	321.43
384.15	316.46
384.53	356.69
384.91	327.76
385.29	319.85
385.67	342.9
386.049	345.61
386.429	359.4
386.809	337.25
387.189	349
387.568	314.2
387.948	332.73
388.328	346.52
388.707	343.13
389.087	346.06
389.466	324.82
389.846	348.55
390.225	333.64
390.605	360.98
390.984	335.44
391.363	353.75
391.743	334.09
392.122	371.15
392.501	350.58
392.881	363.92
393.26	364.82
393.639	350.58
394.018	345.16
394.397	342
394.776	371.37
395.155	366.4
395.534	347.42
395.913	355.33
396.292	354.88
396.671	377.25
397.05	354.43
397.429	375.89
397.808	395.1
398.186	374.76
398.565	370.47
398.944	379.74
399.323	396.01
399.701	379.96
400.08	381.32
400.458	387.42
400.837	386.97
401.215	389.68
401.594	382.9
401.972	415.44
402.351	385.39
402.729	395.78
403.107	389.68
403.486	413.63
403.864	407.31
404.242	413.41
404.62	399.85
404.999	406.4
405.377	412.28
405.755	413.86
406.133	414.76
406.511	410.92
406.889	427.64
407.267	406.85
407.645	415.89
408.023	433.07
408.401	430.58
408.779	411.37
409.156	431.94
409.534	433.29
409.912	444.82
410.29	430.36
410.667	446.4
411.045	429.68
411.422	433.97
411.8	436.91
412.178	440.98
412.555	444.14
412.933	463.58
413.31	476
413.687	468.1
414.065	464.25
414.442	458.6
414.819	481.43
415.197	482.11
415.574	491.15
415.951	479.17
416.328	485.5
416.705	497.02
417.082	475.1
417.46	500.64
417.837	504.03
418.214	478.72
418.591	498.83
418.967	504.48
419.344	497.47
419.721	499.51
420.098	513.52
420.475	491.82
420.852	527.75
421.228	532.95
421.605	505.61
421.982	523.01
422.358	508.32
422.735	527.3
423.111	516.46
423.488	523.23
423.864	531.6
424.241	528.88
424.617	532.73
424.994	554.65
425.37	541.54
425.746	525.49
426.123	556.68
426.499	575.89
426.875	573.18
427.251	560.52
427.627	580.18
428.003	580.63
428.379	583.12
428.756	591.93
429.132	591.03
429.507	621.99
429.883	621.76
430.259	628.99
430.635	608.2
431.011	619.28
431.387	632.16
431.763	632.38
432.138	625.38
432.514	616.79
432.89	659.95
433.265	654.98
433.641	672.16
434.016	690.24
434.392	676
434.767	702.89
435.143	686.39
435.518	693.63
435.894	687.75
436.269	724.81
436.644	698.82
437.02	711.93
437.395	741.31
437.77	733.62
438.145	732.27
438.52	744.47
438.895	747.86
439.271	746.96
439.646	749.44
440.021	775.43
440.395	753.29
440.77	768.88
441.145	770.69
441.52	793.06
441.895	798.93
442.27	791.48
442.645	787.63
443.019	804.58
443.394	829.22
443.769	806.39
444.143	850.91
444.518	847.52
444.892	831.02
445.267	848.65
445.641	872.6
446.016	854.75
446.39	858.37
446.764	852.49
447.139	889.78
447.513	864.47
447.887	890.46
448.262	927.52
448.636	898.59
449.01	903.11
449.384	904.69
449.758	920.74
450.132	929.55
450.506	941.98
450.88	935.65
451.254	960.74
451.628	960.29
452.002	958.48
452.376	985.14
452.75	965.26
453.123	986.05
453.497	996.22
453.871	1011.81
454.244	1030.34
454.618	1016.78
454.992	1025.82
455.365	1026.72
455.739	1049.32
456.112	1050.9
456.486	1045.71
456.859	1058.81
457.232	1059.49
457.606	1076.44
457.979	1076.67
458.352	1111.69
458.725	1125.7
459.099	1129.55
459.472	1130.9
459.845	1134.74
460.218	1136.1
460.591	1137.68
460.964	1144.46
461.337	1157.57
461.71	1184.46
462.083	1224.91
462.456	1172.94
462.829	1193.05
463.201	1210.45
463.574	1224.01
463.947	1228.98
464.32	1256.77
464.692	1240.28
465.065	1286.83
465.438	1282.76
465.81	1271.01
466.183	1282.99
466.555	1317.79
466.928	1323.44
467.3	1313.04
467.672	1337.22
468.045	1346.49
468.417	1377
468.789	1375.42
469.161	1392.82
469.534	1414.06
469.906	1406.83
470.278	1453.61
470.65	1449.99
471.022	1458.58
471.394	1477.56
471.766	1508.75
472.138	1512.59
472.51	1535.19
472.882	1544.9
473.253	1562.98
473.625	1577.22
473.997	1637.1
474.369	1635.97
474.74	1642.75
475.112	1669.65
475.484	1715.97
475.855	1736.99
476.227	1722.07
476.598	1738.57
476.97	1779.25
477.341	1795.07
477.713	1808.4
478.084	1849.3
478.455	1880.94
478.827	1888.17
479.198	1958.23
479.569	1920.49
479.94	1996.42
480.311	2027.83
480.682	2040.94
481.053	2097.2
481.424	2118.67
481.795	2170.88
482.166	2185.34
482.537	2171.1
482.908	2204.32
483.279	2259.46
483.65	2310.53
484.021	2328.39
484.391	2335.39
484.762	2379.68
485.133	2379.46
485.503	2393.47
485.874	2440.92
486.244	2500.36
486.615	2510.75
486.985	2530.41
487.356	2584.42
487.726	2601.82
488.097	2635.72
488.467	2670.3
488.837	2702.16
489.207	2741.71
489.578	2796.85
489.948	2816.51
490.318	2795.94
490.688	2874.59
491.058	2915.71
491.428	2919.33
491.798	2962.49
492.168	3005.88
492.538	3013.79
492.908	3047.69
493.278	3065.77
493.648	3096.73
494.017	3121.58
494.387	3167.23
494.757	3172.66
495.126	3231.19
495.496	3214.46
495.866	3286.1
496.235	3313.9
496.605	3311.18
496.974	3341.47
497.344	3364.29
497.713	3436.83
498.082	3448.13
498.452	3472.08
498.821	3488.81
499.19	3491.74
499.559	3545.75
499.928	3577.17
500.298	3592.98
500.667	3625.75
501.036	3592.08
501.405	3626.43
501.774	3616.03
502.143	3672.53
502.512	3681.12
502.88	3713.43
503.249	3745.75
503.618	3811.74
503.987	3827.33
504.356	3846.31
504.724	3854.9
505.093	3884.5
505.462	3886.76
505.83	3911.85
506.199	3971.96
506.567	3978.96
506.936	4028
507.304	4057.15
507.672	4089.02
508.041	4110.03
508.409	4136.47
508.777	4149.13
509.145	4178.51
509.514	4139.18
509.882	4228
510.25	4210.6
510.618	4256.24
510.986	4355
511.354	4358.39
511.722	4358.84
512.09	4418.5
512.458	4415.56
512.826	4455.79
513.193	4468.44
513.561	4448.1
513.929	4547.31
514.297	4597.25
514.664	4570.36
515.032	4628.66
515.4	4668.66
515.767	4699.85
516.135	4750.02
516.502	4713.86
516.869	4764.25
517.237	4860.75
517.604	4770.58
517.972	4825.95
518.339	4915.21
518.706	4863.23
519.073	4968.09
519.44	5003.79
519.808	5081.08
520.175	5002.21
520.542	5149.1
520.909	5128.31
521.276	5159.05
521.643	5198.14
522.009	5235.43
522.376	5266.84
522.743	5307.74
523.11	5389.32
523.477	5410.11
523.843	5417.57
524.21	5488.53
524.577	5553.84
524.943	5570.33
525.31	5582.31
525.676	5612.82
526.043	5686.94
526.409	5684.68
526.776	5735.98
527.142	5766.94
527.508	5810.1
527.874	5891.46
528.241	5890.33
528.607	5950.44
528.973	5978.91
529.339	5979.14
529.705	6004.67
530.071	6019.36
530.437	6096.42
530.803	6133.93
531.169	6159.7
531.535	6145.01
531.901	6199.24
532.267	6233.37
532.632	6272.46
532.998	6317.66
533.364	6348.17
533.73	6412.35
534.095	6392.69
534.461	6416.87
534.826	6483.76
535.192	6538.22
535.557	6504.55
535.923	6506.58
536.288	6591.1
536.653	6615.73
537.019	6575.96
537.384	6617.54
537.749	6619.57
538.114	6642.4
538.479	6697.54
538.845	6731.66
539.21	6728.27
539.575	6815.05
539.94	6782.05
540.305	6841.49
540.67	6845.1
541.034	6839.68
541.399	6891.65
541.764	6925.33
542.129	6916.51
542.494	6996.96
542.858	6986.12
543.223	6990.18
543.587	7041.26
543.952	7087.58
544.316	7037.64
544.681	7143.4
545.045	7140.46
545.41	7100.24
545.774	7238.09
546.138	7184.98
546.503	7196.73
546.867	7161.48
547.231	7299.78
547.595	7257.75
547.959	7341.59
548.324	7344.75
548.688	7350.63
549.052	7316.73
549.416	7368.48
549.779	7409.38
550.143	7341.81
550.507	7502.26
550.871	7436.95
551.235	7455.26
551.599	7628.36
551.962	7605.08
552.326	7593.56
552.689	7611.64
553.053	7664.52
553.417	7647.57
553.78	7793.1
554.143	7757.85
554.507	7836.94
554.87	7792.2
555.234	7792.87
555.597	7848.01
555.96	7867.22
556.323	7906.54
556.686	7944.51
557.05	8012.98
557.413	8002.36
557.776	8045.52
558.139	8023.6
558.502	8109.25
558.865	8200.1
559.228	8144.96
559.59	8214.56
559.953	8225.41
560.316	8298.17
560.679	8302.24
561.041	8369.81
561.404	8410.03
561.767	8441.67
562.129	8412.74
562.492	8522.8
562.854	8444.16
563.217	8481.9
563.579	8560.99
563.941	8584.72
564.304	8638.28
564.666	8675.79
565.028	8679.86
565.39	8771.38
565.753	8795.56
566.115	8841.21
566.477	8810.47
566.839	8864.03
567.201	8989
567.563	8996.01
567.925	8983.8
568.287	8995.55
568.648	9050.69
569.01	9101.99
569.372	9151.71
569.734	9158.94
570.095	9214.76
570.457	9214.08
570.819	9285.04
571.18	9196.68
571.542	9351.48
571.903	9290.69
572.265	9324.13
572.626	9415.43
572.987	9334.75
573.349	9428.31
573.71	9488.2
574.071	9527.97
574.432	9556.67
574.794	9539.95
575.155	9615.65
575.516	9507.41
575.877	9525.26
576.238	9656.1
576.599	9640.06
576.96	9652.94
577.32	9671.02
577.681	9748.75
578.042	9684.58
578.403	9741.3
578.763	9755.76
579.124	9757.57
579.485	9753.05
579.845	9805.25
580.206	9780.17
580.566	9760.96
580.927	9802.99
581.287	9829.66
581.648	9757.12
582.008	9909.2
582.368	9812.26
582.728	9854.97
583.089	9913.5
583.449	9844.35
583.809	9867.17
584.169	9892.93
584.529	9821.07
584.889	9960.27
585.249	9860.62
585.609	9809.77
585.969	9913.95
586.329	9823.33
586.688	9908.75
587.048	9896.1
587.408	9814.06
587.768	9864.01
588.127	9899.49
588.487	9919.6
588.846	9836.66
589.206	9870.33
589.565	9873.5
589.925	9932.48
590.284	9910.56
590.643	9998.24
591.003	9894.74
591.362	9981.29
591.721	9885.93
592.08	10009.09
592.44	9927.28
592.799	9918.47
593.158	9914.17
593.517	9959.6
593.876	9927.73
594.235	9911.91
594.593	9934.29
594.952	9965.7
595.311	9943.1
595.67	9941.07
596.029	10070.1
596.387	10008.64
596.746	9997.34
597.104	9958.47
597.463	9990.78
597.822	9961.4
598.18	10033.72
598.538	9985.81
598.897	10070.55
599.255	9958.02
599.613	10116.65
599.972	10028.75
600.33	10016.32
600.688	10060.84
601.046	10081.18
601.404	10119.82
601.762	10096.77
602.12	10122.3
602.478	10119.14
602.836	10141.29
603.194	10078.01
603.552	10080.72
603.91	10061.29
604.268	10097.9
604.625	10060.61
604.983	10116.43
605.341	10113.49
605.698	10073.27
606.056	10165.47
606.413	10096.54
606.771	10202.08
607.128	10222.41
607.485	10174.05
607.843	10121.17
608.2	10200.95
608.557	10267.61
608.914	10250.66
609.272	10299.93
609.629	10218.35
609.986	10329.76
610.343	10278.46
610.7	10361.17
611.057	10280.04
611.414	10265.58
611.771	10269.19
612.127	10407.49
612.484	10242.3
612.841	10359.59
613.198	10278.46
613.554	10323.88
613.911	10451.11
614.267	10400.49
614.624	10322.98
614.98	10363.2
615.337	10349.42
615.693	10367.72
616.05	10358
616.406	10374.95
616.762	10421.28
617.118	10327.5
617.475	10450.88
617.831	10477.1
618.187	10459.7
618.543	10496.08
618.899	10496.08
619.255	10454.73
619.611	10473.26
619.967	10492.46
620.323	10496.76
620.678	10416.53
621.034	10392.35
621.39	10398.23
621.746	10386.03
622.101	10481.17
622.457	10428.74
622.812	10494.5
623.168	10459.47
623.523	10441.84
623.879	10465.12
624.234	10456.98
624.589	10517.1
624.945	10497.66
625.3	10510.54
625.655	10506.7
626.01	10502.18
626.365	10543.08
626.72	10469.41
627.075	10475.74
627.43	10451.11
627.785	10487.49
628.14	10476.19
628.495	10356.65
628.85	10379.7
629.205	10414.27
629.559	10448.85
629.914	10414.05
630.269	10373.37
630.623	10399.36
630.978	10341.96
631.332	10472.58
631.687	10383.99
632.041	10329.98
632.396	10405.46
632.75	10328.4
633.104	10324.56
633.459	10407.04
633.813	10223.09
634.167	10335.63
634.521	10248.18
634.875	10195.3
635.229	10249.98
635.583	10080.72
635.937	10208.63
636.291	10192.81
636.645	10155.07
636.999	10143.09
637.352	10205.47
637.706	10150.78
638.06	10128.41
638.413	10117.11
638.767	10129.76
639.121	10130.67
639.474	10048.63
639.828	10042.98
640.181	10044.34
640.534	10052.25
640.888	9955.98
641.241	9933.16
641.594	9976.77
641.947	10003.66
642.301	9916.89
642.654	9983.33
643.007	10009.99
643.36	9959.82
643.713	9986.49
644.066	9900.62
644.419	9901.52
644.771	9810
645.124	9745.37
645.477	9817
645.83	9685.93
646.182	9607.29
646.535	9525.48
646.888	9588.99
647.24	9519.61
647.593	9537.91
647.945	9489.55
648.298	9433.96
648.65	9496.11
649.002	9418.59
649.355	9450.23
649.707	9461.3
650.059	9435.77
650.411	9622.2
650.763	9651.81
651.115	9746.72
651.467	9677.12
651.819	9671.69
652.171	9711.92
652.523	9603.67
652.875	9651.13
653.227	9518.48
653.578	9639.83
653.93	9567.52
654.282	9607.06
654.633	9560.29
654.985	9633.73
655.337	9624.01
655.688	9568.65
656.039	9589.21
656.391	9579.72
656.742	9528.87
657.094	9523.9
657.445	9545.6
657.796	9543.79
658.147	9494.75
658.498	9522.77
658.849	9471.93
659.2	9524.58
659.551	9439.84
659.902	9475.99
660.253	9440.97
660.604	9404.36
660.955	9459.72
661.306	9499.5
661.656	9440.74
662.007	9458.37
662.358	9442.55
662.708	9401.19
663.059	9442.32
663.409	9365.04
663.76	9373.62
664.11	9350.35
664.461	9292.04
664.811	9419.72
665.161	9394.87
665.511	9301.08
665.862	9355.54
666.212	9326.62
666.562	9385.6
666.912	9350.35
667.262	9316.68
667.612	9237.81
667.962	9330.91
668.312	9318.94
668.662	9300.18
669.011	9245.72
669.361	9281.42
669.711	9273.51
670.06	9174.08
670.41	9243.46
670.76	9232.61
671.109	9158.49
671.459	9227.86
671.808	9153.06
672.157	9175.21
672.507	9095.89
672.856	9162.56
673.205	9155.1
673.554	9161.43
673.904	9103.57
674.253	9186.28
674.602	9137.25
674.951	9027.64
675.3	8924.6
675.649	9111.71
675.998	9099.51
676.346	9100.41
676.695	9111.48
677.044	9048.43
677.393	9109.9
677.741	9106.51
678.09	9088.21
678.438	9000.3
678.787	9079.85
679.135	9069.45
679.484	9034.88
679.832	9137.02
680.181	9046.17
680.529	8973.86
680.877	8962.79
681.225	9034.42
681.573	9041.43
681.922	8980.64
682.27	8904.48
682.618	8962.11
682.966	8854.09
683.314	8902.22
683.661	8884.37
684.009	8837.82
684.357	8842.56
684.705	8858.61
685.053	8819.74
685.4	8829.68
685.748	8809.34
686.095	8866.52
686.443	8734.32
686.79	8710.14
687.138	8748.1
687.485	8691.16
687.832	8755.33
688.18	8708.56
688.527	8664.94
688.874	8661.55
689.221	8618.84
689.568	8602.12
689.915	8506.75
690.262	8539.75
690.609	8547.2
690.956	8503.82
691.303	8465.4
691.65	8483.48
691.997	8421.56
692.344	8393.08
692.69	8422.46
693.037	8360.32
693.383	8313.99
693.73	8345.4
694.077	8210.04
694.423	8306.08
694.769	8241.22
695.116	8207.1
695.462	8213.65
695.808	8095.47
696.155	8156.71
696.501	8114.45
696.847	8123.94
697.193	8091.62
697.539	8063.83
697.885	8036.03
698.231	7984.73
698.577	7959.42
698.923	8006.88
699.269	7936.6
699.614	7911.29
699.96	7871.52
700.306	7904.51
700.651	7880.33
700.997	7871.06
701.342	7808.92
701.688	7788.58
702.033	7745.19
702.379	7767.34
702.724	7760.11
703.069	7795.81
703.415	7749.26
703.76	7715.81
704.105	7679.2
704.45	7633.33
704.795	7614.8
705.14	7629.71
705.485	7665.19
705.83	7526.89
706.175	7559.66
706.52	7500.68
706.865	7545.88
707.209	7552.2
707.554	7513.79
707.899	7540.68
708.243	7462.26
708.588	7461.13
708.932	7407.57
709.277	7456.16
709.621	7377.29
709.966	7349.95
710.31	7380.23
710.654	7323.73
710.998	7324.19
711.342	7305.66
711.687	7298.88
712.031	7245.32
712.375	7298.2
712.719	7222.27
713.063	7227.69
713.407	7220.91
713.75	7204.42
714.094	7253.23
714.438	7246.9
714.782	7191.08
715.125	7161.48
715.469	7173.91
715.812	7217.07
716.156	7063.18
716.499	7131.42
716.843	7097.53
717.186	6976.4
717.53	7150.41
717.873	7053.91
718.216	7078.99
718.559	7041.26
718.902	7019.11
719.246	7044.87
719.589	6985.89
719.932	6962.39
720.275	6928.94
720.617	6985.21
720.96	6920.13
721.303	6943.41
721.646	6942.5
721.989	6888.27
722.331	6993.57
722.674	6908.38
723.016	6908.15
723.359	6874.25
723.701	6862.96
724.044	6823.41
724.386	6764.88
724.729	6815.72
725.071	6846.91
725.413	6749.06
725.755	6766.91
726.097	6752.22
726.439	6728.04
726.782	6765.78
727.124	6681.27
727.465	6753.58
727.807	6707.93
728.149	6687.59
728.491	6661.83
728.833	6720.81
729.175	6673.58
729.516	6583.19
729.858	6625
730.199	6632.45
730.541	6610.53
730.882	6577.09
731.224	6623.87
731.565	6565.56
731.906	6559.46
732.248	6569.63
732.589	6529.18
732.93	6483.53
733.271	6565.79
733.612	6422.74
733.953	6518.56
734.294	6468.39
734.635	6486.24
734.976	6472.91
735.317	6482.17
735.658	6410.76
735.999	6461.84
736.339	6396.07
736.68	6429.29
737.021	6436.53
737.361	6379.13
737.702	6422.51
738.042	6380.26
738.383	6336.19
738.723	6347.49
739.063	6384.78
739.404	6382.74
739.744	6325.34
740.084	6322.86
740.424	6342.06
740.764	6276.76
741.104	6302.07
741.444	6238.34
741.784	6313.37
742.124	6253.25
742.464	6228.17
742.804	6226.59
743.143	6236.3
743.483	6299.81
743.823	6162.86
744.162	6161.73
744.502	6214.61
744.841	6186.36
745.181	6197.44
745.52	6213.03
745.86	6184.33
746.199	6156.31
746.538	6220.03
746.877	6182.07
747.216	6177.55
747.556	6129.19
747.895	6148.62
748.234	6118.12
748.573	6100.26
748.911	6143.88
749.25	6082.18
749.589	6091.68
749.928	6070.21
750.267	6075.86
750.605	6101.39
750.944	6021.4
751.283	5980.04
751.621	6014.84
751.96	5958.57
752.298	5952.02
752.636	5994.05
752.975	5992.92
753.313	5898.91
753.651	5927.16
753.989	5901.62
754.327	5876.99
754.666	5850.33
755.004	5891
755.342	5893.26
755.679	5885.35
756.017	5838.58
756.355	5829.76
756.693	5808.97
757.031	5835.41
757.368	5783.89
757.706	5803.32
758.044	5798.12
758.381	5789.76
758.719	5768.07
759.056	5738.46
759.394	5694.85
759.731	5669.09
760.068	5713.38
760.405	5654.17
760.743	5612.37
761.08	5643.78
761.417	5579.6
761.754	5655.76
762.091	5594.06
762.428	5615.08
762.765	5545.7
763.102	5578.92
763.438	5528.07
763.775	5493.95
764.112	5510.9
764.449	5485.59
764.785	5454.18
765.122	5451.47
765.458	5379.6
765.795	5395.65
766.131	5386.61
766.467	5421.41
766.804	5382.09
767.14	5340.06
767.476	5334.41
767.812	5321.53
768.148	5306.84
768.485	5335.54
768.821	5294.41
769.157	5254.64
769.492	5241.98
769.828	5247.63
770.164	5175.32
770.5	5216.44
770.836	5174.86
771.171	5140.97
771.507	5131.02
771.842	5072.49
772.178	5117.69
772.513	5103
772.849	5070.46
773.184	5055.09
773.519	5025.26
773.855	5018.94
774.19	4967.64
774.525	4962.21
774.86	4961.54
775.195	4921.99
775.53	4906.85
775.865	4928.09
776.2	4877.24
776.535	4897.81
776.87	4854.19
777.205	4841.77
777.539	4831.37
777.874	4817.36
778.209	4799.05
778.543	4781.88
778.878	4796.79
779.212	4745.04
779.547	4707.98
779.881	4723.58
780.215	4728.32
780.55	4723.8
780.884	4686.52
781.218	4645.84
781.552	4666.85
781.886	4651.94
782.22	4599.29
782.554	4629.12
782.888	4548.44
783.222	4538.27
783.556	4561.32
783.889	4557.25
784.223	4491.49
784.557	4554.77
784.89	4518.84
785.224	4455.79
785.557	4514.99
785.891	4436.8
786.224	4476.13
786.558	4423.7
786.891	4365.39
787.224	4392.74
787.557	4409.46
787.891	4347.09
788.224	4395.45
788.557	4357.71
788.89	4310.03
789.223	4336.02
789.556	4267.54
789.888	4296.24
790.221	4298.73
790.554	4227.77
790.887	4228.67
791.219	4218.05
791.552	4254.66
791.884	4184.16
792.217	4169.92
792.549	4126.98
792.882	4148.68
793.214	4110.03
793.546	4121.56
793.879	4057.83
794.211	4093.54
794.543	4097.38
794.875	4108.23
795.207	4093.31
795.539	4066.87
795.871	4082.92
796.203	4051.05
796.535	4025.52
796.867	4007.44
797.198	4007.44
797.53	3949.13
797.862	3919.53
798.193	3955.91
798.525	3899.87
798.856	3983.03
799.188	3924.73
799.519	3884.05
799.85	3859.19
800.182	3840.21
800.513	3858.29
800.844	3825.97
801.175	3835.01
801.506	3815.8
801.837	3823.94
802.168	3764.28
802.499	3787.33
802.83	3831.17
803.161	3784.84
803.491	3750.72
803.822	3761.12
804.153	3736.03
804.483	3731.74
804.814	3721.12
805.145	3722.7
805.475	3680.89
805.805	3663.27
806.136	3689.71
806.466	3695.81
806.796	3669.14
807.126	3641.12
807.457	3634.79
807.787	3646.09
808.117	3634.57
808.447	3627.33
808.777	3630.27
809.107	3636.83
809.436	3567.67
809.766	3597.28
810.096	3577.84
810.426	3592.53
810.755	3541.23
811.085	3564.28
811.414	3541.69
811.744	3526.32
812.073	3515.7
812.403	3541.91
812.732	3481.35
813.061	3515.92
813.39	3492.42
813.719	3453.55
814.049	3484.29
814.378	3485.42
814.707	3465.76
815.036	3449.49
815.365	3421.69
815.693	3402.71
816.022	3415.59
816.351	3409.26
816.68	3409.26
817.008	3369.49
817.337	3386.89
817.665	3393.89
817.994	3410.16
818.322	3374.01
818.651	3331.75
818.979	3331.97
819.307	3379.2
819.636	3357.51
819.964	3329.49
820.292	3357.06
820.62	3353.44
820.948	3345.76
821.276	3357.74
821.604	3309.15
821.932	3330.62
822.259	3364.97
822.587	3341.47
822.915	3332.2
823.243	3338.3
823.57	3290.62
823.898	3322.71
824.225	3330.17
824.553	3294.69
824.88	3315.7
825.207	3299.43
825.535	3305.99
825.862	3307.79
826.189	3299.43
826.516	3352.54
826.843	3320.22
827.17	3296.5
827.497	3282.26
827.824	3329.71
828.151	3355.02
828.478	3318.19
828.805	3377.17
829.131	3343.5
829.458	3311.64
829.785	3294.24
830.111	3306.89
830.438	3355.02
830.764	3303.27
831.09	3310.28
831.417	3280.9
831.743	3329.71
832.069	3334.46
832.395	3317.51
832.722	3305.76
833.048	3312.31
833.374	3322.48
833.7	3276.38
834.026	3266.21
834.351	3293.33
834.677	3288.36
835.003	3289.04
835.329	3293.78
835.654	3230.96
835.98	3240.68
836.306	3254.91
836.631	3282.94
836.956	3256.27
837.282	3251.98
837.607	3234.8
837.932	3236.16
838.258	3239.55
838.583	3216.27
838.908	3208.36
839.233	3208.81
839.558	3203.16
839.883	3184.18
840.208	3172.88
840.533	3172.88
840.858	3195.03
841.182	3176.05
841.507	3160.91
841.832	3163.62
842.156	3169.49
842.481	3156.61
842.805	3131.3
843.13	3125.43
843.454	3124.52
843.778	3126.33
844.103	3084.52
844.427	3102.15
844.751	3065.99
845.075	3081.81
845.399	3074.13
845.723	3038.2
846.047	3058.31
846.371	3021.47
846.695	3039.1
847.019	3027.12
847.343	3024.86
847.666	2989.84
847.99	2947.8
848.313	2977.18
848.637	2952.1
848.96	2954.81
849.284	2941.7
849.607	2934.47
849.931	2945.32
850.254	2942.15
850.577	2883.17
850.9	2913
851.223	2866.22
851.546	2878.88
851.869	2844.98
852.192	2852.44
852.515	2816.28
852.838	2799.79
853.161	2781.93
853.483	2811.99
853.806	2805.43
854.129	2791.88
854.451	2778.09
854.774	2795.49
855.096	2758.2
855.419	2758.66
855.741	2749.62
856.063	2731.54
856.385	2712.1
856.708	2694.25
857.03	2725.89
857.352	2711.43
857.674	2715.72
857.996	2666
858.318	2667.59
858.64	2671.43
858.961	2663.74
859.283	2648.38
859.605	2682.27
859.926	2632.33
860.248	2662.61
860.57	2646.57
860.891	2593.69
861.212	2628.26
861.534	2631.43
861.855	2652.22
862.176	2659.68
862.498	2588.94
862.819	2604.54
863.14	2589.85
863.461	2616.51
863.782	2564.31
864.103	2628.49
864.424	2575.61
864.745	2573.8
865.065	2581.94
865.386	2590.75
865.707	2561.37
866.027	2562.28
866.348	2542.62
866.668	2535.16
866.989	2567.93
867.309	2516.85
867.63	2558.21
867.95	2537.65
868.27	2543.29
868.59	2557.08
868.91	2554.82
869.23	2528.15
869.55	2525.22
869.87	2532.22
870.19	2516.4
870.51	2508.04
870.83	2508.49
871.15	2510.98
871.469	2524.99
871.789	2524.31
872.109	2517.08
872.428	2518.66
872.748	2496.06
873.067	2501.04
873.386	2509.62
873.706	2476.86
874.025	2487.03
874.344	2503.07
874.663	2498.55
874.982	2468.72
875.301	2491.54
875.62	2463.97
875.939	2488.15
876.258	2455.84
876.577	2448.61
876.896	2451.09
877.214	2429.4
877.533	2441.6
877.852	2480.25
878.17	2452
878.489	2459.91
878.807	2409.06
879.125	2443.64
879.444	2446.12
879.762	2394.82
880.08	2396.18
880.398	2417.65
880.716	2424.65
881.034	2432.56
881.352	2437.31
881.67	2417.2
881.988	2381.72
882.306	2391.66
882.624	2382.17
882.941	2361.6
883.259	2398.21
883.577	2366.58
883.894	2357.99
884.212	2369.97
884.529	2343.3
884.846	2399.34
885.164	2360.7
885.481	2338.78
885.798	2367.25
886.115	2319.8
886.432	2331.1
886.75	2307.59
887.067	2321.83
887.383	2300.59
887.7	2331.77
888.017	2328.39
888.334	2288.61
888.651	2304.88
888.967	2297.65
889.284	2273.02
889.6	2279.57
889.917	2272.79
890.233	2267.82
890.55	2258.33
890.866	2262.17
891.182	2237.99
891.498	2299.91
891.815	2247.03
892.131	2229.86
892.447	2217.43
892.763	2242.74
893.079	2219.91
893.395	2235.05
893.71	2189.86
894.026	2221.72
894.342	2186.92
894.657	2205.9
894.973	2192.34
895.289	2157.09
895.604	2143.08
895.92	2125.23
896.235	2160.71
896.55	2149.18
896.865	2181.72
897.181	2137.2
897.496	2150.54
897.811	2132.23
898.126	2114.38
898.441	2118.45
898.756	2084.78
899.071	2104.89
899.386	2111.44
899.7	2081.16
900.015	2043.42
900.33	2081.84
900.644	2068.73
900.959	2056.53
901.273	2060.37
901.588	2075.74
901.902	2032.12
902.216	2019.47
902.531	2013.59
902.845	2008.39
903.159	2006.81
903.473	2002.07
903.787	2022.63
904.101	1991.44
904.415	1999.58
904.729	1968.17
905.042	1997.55
905.356	1962.07
905.67	1959.81
905.984	1929.07
906.297	1951.45
906.611	1909.64
906.924	1925.91
907.237	1899.47
907.551	1903.54
907.864	1943.99
908.177	1906.25
908.491	1893.59
908.804	1870.32
909.117	1891.33
909.43	1880.94
909.743	1859.7
910.056	1873.03
910.368	1842.52
910.681	1849.3
910.994	1831.45
911.307	1856.53
911.619	1812.24
911.932	1833.03
912.244	1825.12
912.557	1820.38
912.869	1812.24
913.181	1783.77
913.494	1792.58
913.806	1771.79
914.118	1767.72
914.43	1753.48
914.742	1783.99
915.054	1766.37
915.366	1766.82
915.678	1771.79
915.99	1763.65
916.302	1730.66
916.613	1731.79
916.925	1743.54
917.236	1729.3
917.548	1736.08
917.859	1715.75
918.171	1706.25
918.482	1718.91
918.794	1690.66
919.105	1709.19
919.416	1696.76
919.727	1688.18
920.038	1673.04
920.349	1660.83
920.66	1630.1
920.971	1658.12
921.282	1658.57
921.593	1605.47
921.903	1611.34
922.214	1619.25
922.525	1634.39
922.835	1631.68
923.146	1595.07
923.456	1623.32
923.767	1591.68
924.077	1576.54
924.387	1589.42
924.697	1556.43
925.008	1599.59
925.318	1585.13
925.628	1585.81
925.938	1569.08
926.248	1529.08
926.558	1550.1
926.867	1582.87
927.177	1573.6
927.487	1541.06
927.796	1509.65
928.106	1538.58
928.416	1522.08
928.725	1531.57
929.034	1525.92
929.344	1523.66
929.653	1515.53
929.962	1504.45
930.271	1530.21
930.581	1474.62
930.89	1489.76
931.199	1488.86
931.508	1481.63
931.817	1461.29
932.125	1461.97
932.434	1478.92
932.743	1434.4
933.051	1430.56
933.36	1426.94
933.669	1445.24
933.977	1467.84
934.286	1421.97
934.594	1419.71
934.902	1423.1
935.21	1407.05
935.519	1444.79
935.827	1412.93
936.135	1415.87
936.443	1386.49
936.751	1390.56
937.059	1376.09
937.367	1388.75
937.674	1387.84
937.982	1363.44
938.29	1350.33
938.597	1358.24
938.905	1345.81
939.213	1359.6
939.52	1344.46
939.827	1340.84
940.135	1360.05
940.442	1321.18
940.749	1310.56
941.056	1337.45
941.363	1309.2
941.67	1327.51
941.977	1321.63
942.284	1332.25
942.591	1280.28
942.898	1290.67
943.205	1315.76
943.511	1299.26
943.818	1327.06
944.125	1298.13
944.431	1257.9
944.738	1279.15
945.044	1274.18
945.35	1281.63
945.657	1274.18
945.963	1272.14
946.269	1273.05
946.575	1244.35
946.881	1249.77
947.187	1234.63
947.493	1240.73
947.799	1239.37
948.105	1223.78
948.41	1225.14
948.716	1212.71
949.022	1248.41
949.327	1216.55
949.633	1230.56
949.938	1205.25
950.244	1168.42
950.549	1184.46
950.854	1205.48
951.16	1186.27
951.465	1173.39
951.77	1179.26
952.075	1186.27
952.38	1185.59
952.685	1183.1
952.99	1163.44
953.294	1171.58
953.599	1171.81
953.904	1159.38
954.209	1158.47
954.513	1148.98
954.818	1151.24
955.122	1129.32
955.426	1139.49
955.731	1149.21
956.035	1119.6
956.339	1113.05
956.643	1112.6
956.948	1093.16
957.252	1113.28
957.556	1134.74
957.86	1116.67
958.163	1115.76
958.467	1118.25
958.771	1102.88
959.075	1088.42
959.378	1085.03
959.682	1079.15
959.985	1092.49
960.289	1089.77
960.592	1081.64
960.896	1102.43
961.199	1080.96
961.502	1076.21
961.805	1074.18
962.108	1079.38
962.411	1040.28
962.714	1063.33
963.017	1026.72
963.32	1041.41
963.623	1026.72
963.926	1045.26
964.228	1035.99
964.531	1037.8
964.833	1052.49
965.136	1001.41
965.438	1007.74
965.741	1028.53
966.043	1024.92
966.345	1019.04
966.648	1001.64
966.95	1010.91
967.252	1017.69
967.554	980.4
967.856	990.12
968.158	993.05
968.46	998.7
968.761	996.44
969.063	976.1
969.365	986.73
969.666	966.16
969.968	944.47
970.269	947.86
970.571	977.69
970.872	950.12
971.174	981.08
971.475	970.45
971.776	938.14
972.077	958.48
972.378	961.87
972.679	937.46
972.98	942.43
973.281	898.82
973.582	932.49
973.883	920.74
974.183	949.21
974.484	927.52
974.785	920.96
975.085	905.15
975.386	941.08
975.686	920.51
975.986	923.68
976.287	925.71
976.587	901.3
976.887	913.96
977.187	887.07
977.487	920.51
977.787	915.09
978.087	896.78
978.387	892.49
978.687	912.15
978.987	863.34
979.286	870.34
979.586	876.22
979.885	865.37
980.185	861.98
980.484	865.15
980.784	883.9
981.083	865.6
981.382	854.98
981.682	853.17
981.981	847.52
982.28	865.15
982.579	865.6
982.878	865.6
983.177	844.58
983.475	813.85
983.774	855.88
984.073	850.91
984.372	834.64
984.67	822.89
984.969	819.05
985.267	842.32
985.566	844.36
985.864	819.5
986.162	821.08
986.461	813.4
986.759	808.43
987.057	811.14
987.355	817.24
987.653	806.39
987.951	788.54
988.249	805.04
988.547	800.52
988.844	792.61
989.142	808.43
989.44	784.7
989.737	798.48
990.035	781.31
990.332	788.09
990.63	793.74
990.927	772.49
991.224	752.16
991.521	753.29
991.819	757.58
992.116	757.8
992.413	810.46
992.71	781.08
993.006	741.99
993.303	786.28
993.6	787.41
993.897	761.42
994.193	741.08
994.49	741.31
994.787	742.66
995.083	737.69
995.379	734.08
995.676	760.52
995.972	747.18
996.268	736.34
996.565	743.57
996.861	743.34
997.157	725.72
997.453	732.95
997.749	726.17
998.044	710.35
998.34	719.61
998.636	702.67
998.932	706.73
999.227	723.23
999.523	699.28
999.818	686.39
1000.114	716
1000.409	697.47
1000.704	692.04
1001	726.39
1001.295	693.17
1001.59	696.34
1001.885	697.47
1002.18	671.48
1002.475	646.85
1002.77	683.46
1003.065	669.67
1003.359	691.82
1003.654	700.41
1003.949	680.97
1004.243	673.51
1004.538	654.53
1004.832	665.15
1005.127	676.68
1005.421	666.73
1005.715	654.98
1006.009	640.75
1006.304	636.9
1006.598	637.81
1006.892	645.94
1007.186	667.41
1007.48	632.38
1007.773	660.18
1008.067	643.46
1008.361	627.41
1008.655	623.35
1008.948	615.44
1009.242	635.55
1009.535	619.28
1009.829	641.2
1010.122	618.15
1010.415	635.55
1010.708	637.58
1011.001	637.58
1011.295	603.46
1011.588	598.94
1011.881	619.73
1012.173	624.48
1012.466	618.6
1012.759	615.21
1013.052	623.8
1013.344	608.2
1013.637	604.14
1013.93	596.68
1014.222	610.92
1014.514	577.24
1014.807	601.65
1015.099	581.99
1015.391	607.53
1015.683	583.57
1015.976	580.86
1016.268	583.12
1016.56	596.45
1016.851	578.6
1017.143	569.56
1017.435	577.24
1017.727	557.36
1018.018	557.58
1018.31	551.26
1018.602	585.15
1018.893	579.73
1019.185	570.92
1019.476	579.28
1019.767	562.78
1020.058	561.2
1020.35	568.66
1020.641	552.39
1020.932	557.13
1021.223	557.81
1021.514	550.58
1021.804	556
1022.095	545.61
1022.386	556.68
1022.677	535.66
1022.967	536.79
1023.258	551.03
1023.548	528.43
1023.839	535.44
1024.129	533.86
1024.419	545.83
1024.709	529.11
1025	557.58
1025.29	517.59
1025.58	504.7
1025.87	527.98
1026.16	531.37
1026.449	512.39
1026.739	518.26
1027.029	518.04
1027.319	517.13
1027.608	515.78
1027.898	517.13
1028.187	488.43
1028.477	508.09
1028.766	508.32
1029.055	487.76
1029.344	498.83
1029.634	508.32
1029.923	490.92
1030.212	512.61
1030.501	498.15
1030.79	477.13
1031.078	491.37
1031.367	502.9
1031.656	515.1
1031.945	480.52
1032.233	484.82
1032.522	476.68
1032.81	488.21
1033.099	467.19
1033.387	475.33
1033.675	500.64
1033.963	471.26
1034.251	472.84
1034.54	455.44
1034.828	471.94
1035.116	475.78
1035.403	459.06
1035.691	465.84
1035.979	468.77
1036.267	445.72
1036.554	472.16
1036.842	470.81
1037.129	469.9
1037.417	460.64
1037.704	471.26
1037.992	443.46
1038.279	462.45
1038.566	476.91
1038.853	476.91
1039.14	476.91
