Data from foam_black_FLMS001491_00082.txt Node
Date: Wed Feb 08 10:44:50 GMT 2017
User: dcchb
Spectrometer: FLMS00149
Trigger mode: 0
Integration Time (sec): 2.000000E-2
Scans to average: 10
Electric dark correction enabled: true
Nonlinearity correction enabled: false
Boxcar width: 0
XAxis mode: Wavelengths
Number of Pixels in Spectrum: 2048
>>>>>Begin Spectral Data<<<<<
341.393	-21.61
341.776	-21.61
342.16	-21.61
342.543	-70.42
342.927	-53.93
343.31	-54.83
343.693	-71.78
344.077	-60.48
344.46	-65.22
344.843	-50.54
345.226	-43.08
345.61	-32
345.993	-16.19
346.376	4.83
346.759	22.46
347.142	21.55
347.525	55.9
347.908	51.16
348.291	53.19
348.674	79.4
349.057	105.62
349.44	129.57
349.823	156.46
350.206	136.58
350.588	181.32
350.971	192.4
351.354	223.81
351.737	222.68
352.119	235.33
352.502	272.17
352.884	277.82
353.267	277.82
353.65	291.6
354.032	306.97
354.414	293.18
354.797	339.74
355.179	302.9
355.562	297.93
355.944	338.38
356.326	360.75
356.709	342.9
357.091	352.39
357.473	349.45
357.855	357.82
358.238	364.37
358.62	326.4
359.002	345.84
359.384	326.4
359.766	346.52
360.148	344.03
360.53	351.49
360.912	332.05
361.294	317.14
361.676	323.47
362.057	321.66
362.439	327.31
362.821	327.99
363.203	333.64
363.584	332.96
363.966	329.57
364.348	316.69
364.729	308.1
365.111	322.34
365.493	305.39
365.874	302.68
366.256	303.58
366.637	301.09
367.019	330.25
367.4	316.91
367.781	327.08
368.163	339.51
368.544	308.55
368.925	326.4
369.306	312.17
369.688	316.01
370.069	323.01
370.45	313.52
370.831	297.48
371.212	322.11
371.593	332.73
371.974	332.73
372.355	325.05
372.736	330.47
373.117	338.83
373.498	306.29
373.879	310.36
374.26	339.74
374.641	319.62
375.021	323.69
375.402	356.01
375.783	351.26
376.163	354.88
376.544	347.19
376.925	325.95
377.305	331.38
377.686	332.28
378.066	337.7
378.447	346.74
378.827	360.53
379.208	348.78
379.588	366.4
379.968	348.1
380.349	357.36
380.729	353.07
381.109	336.57
381.489	357.59
381.87	366.63
382.25	370.24
382.63	364.14
383.01	356.69
383.39	367.98
383.77	352.84
384.15	372.73
384.53	367.76
384.91	364.82
385.29	385.84
385.67	366.4
386.049	378.61
386.429	378.61
386.809	381.77
387.189	383.35
387.568	372.96
387.948	381.54
388.328	393.75
388.707	377.7
389.087	405.5
389.466	369.79
389.846	400.53
390.225	417.47
390.605	405.05
390.984	411.83
391.363	390.36
391.743	426.51
392.122	418.83
392.501	409.11
392.881	415.89
393.26	431.71
393.639	413.41
394.018	428.77
394.397	427.64
394.776	440.98
395.155	421.09
395.534	439.4
395.913	438.04
396.292	443.46
396.671	433.29
397.05	437.14
397.429	436.46
397.808	461.32
398.186	442.56
398.565	449.79
398.944	457.25
399.323	447.3
399.701	446.85
400.08	457.47
400.458	452.05
400.837	461.54
401.215	461.99
401.594	483.69
401.972	466.97
402.351	485.04
402.729	471.71
403.107	489.34
403.486	491.15
403.864	475.33
404.242	487.76
404.62	489.11
404.999	501.77
405.377	520.07
405.755	506.74
406.133	497.02
406.511	506.96
406.889	513.52
407.267	527.3
407.645	509.45
408.023	509.9
408.401	534.31
408.779	525.27
409.156	536.12
409.534	507.87
409.912	552.16
410.29	565.27
410.667	537.7
411.045	556.91
411.422	550.13
411.8	556.91
412.178	567.53
412.555	568.66
412.933	584.02
413.31	570.92
413.687	595.78
414.065	583.35
414.442	618.37
414.819	586.51
415.197	595.1
415.574	623.57
415.951	622.89
416.328	613.63
416.705	594.42
417.082	620.41
417.46	609.11
417.837	636.9
418.214	631.48
418.591	661.76
418.967	646.17
419.344	635.55
419.721	644.59
420.098	648.2
420.475	658.15
420.852	690.46
421.228	671.48
421.605	676.68
421.982	664.7
422.358	682.1
422.735	715.32
423.111	711.03
423.488	713.51
423.864	698.37
424.241	704.25
424.617	727.07
424.994	720.52
425.37	732.27
425.746	726.17
426.123	717.58
426.499	725.04
426.875	751.25
427.251	739.5
427.627	734.75
428.003	770.01
428.379	803.68
428.756	791.25
429.132	784.24
429.507	796.9
429.883	808.88
430.259	822.89
430.635	811.36
431.011	820.85
431.387	838.48
431.763	835.32
432.138	866.5
432.514	869.89
432.89	876.22
433.265	879.84
433.641	900.17
434.016	890.23
434.392	908.08
434.767	937.24
435.143	919.38
435.518	962.32
435.894	928.87
436.269	939.72
436.644	939.5
437.02	953.96
437.395	994.86
437.77	982.88
438.145	1001.87
438.52	996.22
438.895	980.62
439.271	1006.16
439.646	1030.11
440.021	1006.84
440.395	1037.12
440.77	1041.87
441.145	1034.18
441.52	1054.97
441.895	1058.36
442.27	1076.44
442.645	1048.64
443.019	1071.02
443.394	1071.69
443.769	1096.33
444.143	1071.69
444.518	1094.07
444.892	1081.19
445.267	1096.1
445.641	1135.65
446.016	1110.34
446.39	1113.95
446.764	1132.94
447.139	1116.21
447.513	1131.81
447.887	1153.27
448.262	1136.1
448.636	1155.76
449.01	1183.56
449.384	1197.79
449.758	1187.4
450.132	1218.13
450.506	1208.64
450.88	1203.89
451.254	1219.71
451.628	1232.59
452.002	1250.67
452.376	1248.41
452.75	1300.39
453.123	1262.42
453.497	1292.03
453.871	1263.55
454.244	1325.25
454.618	1326.6
454.992	1350.33
455.365	1336.77
455.739	1360.5
456.112	1389.65
456.486	1406.38
456.859	1404.57
457.232	1434.4
457.606	1404.34
457.979	1428.52
458.352	1466.71
458.725	1496.32
459.099	1494.73
459.472	1513.27
459.845	1510.78
460.218	1517.33
460.591	1525.02
460.964	1571.34
461.337	1605.69
461.71	1595.07
462.083	1637.1
462.456	1640.04
462.829	1640.72
463.201	1666.26
463.574	1669.19
463.947	1682.98
464.32	1719.14
464.692	1715.97
465.065	1711.68
465.438	1778.34
465.81	1758.23
466.183	1807.72
466.555	1839.13
466.928	1821.96
467.3	1846.82
467.672	1854.27
468.045	1917.1
468.417	1923.88
468.789	1916.64
469.161	1956.87
469.534	1968.85
469.906	2020.6
470.278	2054.72
470.65	2054.95
471.022	2116.41
471.394	2104.44
471.766	2124.32
472.138	2171.33
472.51	2181.95
472.882	2250.87
473.253	2236.41
473.625	2261.49
473.997	2307.82
474.369	2309.18
474.74	2319.57
475.112	2394.82
475.484	2433.02
475.855	2477.31
476.227	2517.98
476.598	2560.92
476.97	2587.81
477.341	2614.48
477.713	2644.08
478.084	2665.1
478.455	2724.53
478.827	2712.33
479.198	2829.16
479.569	2816.06
479.94	2882.27
480.311	2919.33
480.682	2971.31
481.053	3096.73
481.424	3092.66
481.795	3069.16
482.166	3136.5
482.537	3203.39
482.908	3285.42
483.279	3280
483.65	3321.81
484.021	3393.22
484.391	3417.85
484.762	3441.58
485.133	3484.29
485.503	3499.2
485.874	3617.39
486.244	3652.64
486.615	3683.15
486.985	3677.95
487.356	3748.91
487.726	3798.85
488.097	3874.56
488.467	3862.13
488.837	3975.12
489.207	4006.76
489.578	4063.25
489.948	4101.67
490.318	4176.92
490.688	4152.97
491.058	4169.01
491.428	4250.37
491.798	4246.98
492.168	4331.27
492.538	4362.23
492.908	4421.89
493.278	4502.57
493.648	4482
494.017	4529.46
494.387	4577.14
494.757	4620.3
495.126	4649.68
495.496	4669.57
495.866	4679.06
496.235	4773.97
496.605	4794.53
496.974	4778.49
497.344	4882.22
497.713	4854.87
498.082	4921.76
498.452	4999.28
498.821	4964.93
499.19	4987.3
499.559	5043.12
499.928	5073.17
500.298	5096.67
500.667	5106.84
501.036	5167.63
501.405	5190.68
501.774	5257.12
502.143	5265.26
502.512	5271.58
502.88	5347.06
503.249	5361.53
503.618	5394.75
503.987	5427.96
504.356	5455.08
504.724	5476.55
505.093	5517
505.462	5572.37
505.83	5559.71
506.199	5539.15
506.567	5681.97
506.936	5634.74
507.304	5717.22
507.672	5771.91
508.041	5799.71
508.409	5795.86
508.777	5903.88
509.145	5869.53
509.514	5916.54
509.882	5954.73
510.25	5977.55
510.618	6076.08
510.986	6013.26
511.354	6153.37
511.722	6148.17
512.09	6187.27
512.458	6230.66
512.826	6302.52
513.193	6275.85
513.561	6348.84
513.929	6385.23
514.297	6441.27
514.664	6466.36
515.032	6515.39
515.4	6581.83
515.767	6634.71
516.135	6643.75
516.502	6628.84
516.869	6694.82
517.237	6767.82
517.604	6763.52
517.972	6758.78
518.339	6917.19
518.706	6862.05
519.073	6968.49
519.44	7004.42
519.808	7092.33
520.175	7126.45
520.542	7219.56
520.909	7179.56
521.276	7181.59
521.643	7318.31
522.009	7390.4
522.376	7410.74
522.743	7430.17
523.11	7538.19
523.477	7675.59
523.843	7655.02
524.21	7757.85
524.577	7796.72
524.943	7845.98
525.31	7906.77
525.676	7980.21
526.043	8007.11
526.409	8071.74
526.776	8179.08
527.142	8114
527.508	8193.54
527.874	8191.96
528.241	8231.28
528.607	8392.86
528.973	8410.49
529.339	8466.98
529.705	8534.55
530.071	8608.67
530.437	8692.06
530.803	8709.46
531.169	8766.63
531.535	8757.14
531.901	8773.19
532.267	8863.35
532.632	8907.65
532.998	8887.08
533.364	8985.61
533.73	8952.39
534.095	9124.36
534.461	9097.92
534.826	9186.96
535.192	9209.79
535.557	9323.68
535.923	9269.9
536.288	9300.63
536.653	9371.82
537.019	9327.3
537.384	9434.86
537.749	9459.72
538.114	9520.29
538.479	9517.35
538.845	9544.47
539.21	9557.35
539.575	9597.8
539.94	9604.13
540.305	9711.69
540.67	9752.82
541.034	9788.98
541.399	9801.86
541.764	9834.18
542.129	9921.41
542.494	9978.13
542.858	9959.37
543.223	9919.15
543.587	10078.01
543.952	10017.45
544.316	10064.68
544.681	10146.26
545.045	10130.21
545.41	10177.22
545.774	10257.89
546.138	10261.74
546.503	10355.07
546.867	10314.39
547.231	10484.1
547.595	10461.05
547.959	10424.44
548.324	10550.77
548.688	10471.9
549.052	10580.37
549.416	10596.42
549.779	10655.85
550.143	10654.04
550.507	10725.45
550.871	10688.39
551.235	10825.34
551.599	10814.04
551.962	10850.42
552.326	10995.28
552.689	11004.77
553.053	10976.07
553.417	11085.22
553.78	11229.39
554.143	11180.58
554.507	11228.72
554.87	11152.11
555.234	11409.73
555.597	11273.46
555.96	11484.98
556.323	11470.52
556.686	11545.32
557.05	11593.68
557.413	11651.98
557.776	11688.14
558.139	11765.88
558.502	11818.08
558.865	11870.73
559.228	12025.31
559.59	12067.79
559.953	11991.63
560.316	12194.79
560.679	12143.27
561.041	12266.65
561.404	12340.33
561.767	12407.67
562.129	12328.35
562.492	12524.05
562.854	12487.21
563.217	12554.1
563.579	12669.36
563.941	12721.11
564.304	12766.75
564.666	12926.75
565.028	13003.58
565.39	12947.54
565.753	13067.09
566.115	13048.1
566.477	13123.81
566.839	13189.57
567.201	13339.17
567.563	13328.55
567.925	13494.87
568.287	13398.38
568.648	13437.7
569.01	13636.79
569.372	13685.37
569.734	13678.14
570.095	13692.38
570.457	13777.35
570.819	13798.82
571.18	13893.5
571.542	13929.66
571.903	14007.85
572.265	14084.23
572.626	14050.34
572.987	14034.29
573.349	14121.07
573.71	14284.91
574.071	14226.6
574.432	14313.15
574.794	14455.52
575.155	14400.38
575.516	14337.11
575.877	14425.02
576.238	14493.49
576.599	14613.94
576.96	14605.58
577.32	14590.21
577.681	14639.47
578.042	14678.79
578.403	14671.79
578.763	14727.16
579.124	14752.01
579.485	14752.92
579.845	14801.05
580.206	14823.42
580.566	14827.04
580.927	14917.66
581.287	14902.29
581.648	14916.08
582.008	15008.5
582.368	15018.22
582.728	14966.92
583.089	14984.55
583.449	14955.85
583.809	14961.05
584.169	15037.66
584.529	15012.12
584.889	15089.86
585.249	15028.16
585.609	15013.93
585.969	15135.28
586.329	15044.21
586.688	15114.94
587.048	15217.54
587.408	15096.18
587.768	15086.69
588.127	15181.83
588.487	15022.29
588.846	15201.27
589.206	15101.61
589.565	15115.39
589.925	15176.41
590.284	15205.56
590.643	15142.29
591.003	15245.11
591.362	15248.72
591.721	15208.5
592.08	15235.84
592.44	15361.04
592.799	15246.46
593.158	15248.72
593.517	15258.21
593.876	15310.42
594.235	15296.86
594.593	15270.19
594.952	15336.86
595.311	15250.08
595.67	15264.32
596.029	15269.51
596.387	15325.33
596.746	15445.1
597.104	15385.44
597.463	15384.76
597.822	15454.37
598.18	15388.83
598.538	15352
598.897	15483.29
599.255	15440.13
599.613	15605.1
599.972	15540.02
600.33	15615.04
600.688	15440.36
601.046	15588.83
601.404	15593.35
601.762	15570.75
602.12	15558.09
602.478	15612.33
602.836	15497.08
603.194	15578.43
603.552	15587.7
603.91	15569.62
604.268	15626.79
604.625	15529.39
604.983	15625.44
605.341	15677.41
605.698	15738.88
606.056	15728.48
606.413	15776.85
606.771	15850.29
607.128	15783.17
607.485	15708.37
607.843	15822.04
608.2	15795.6
608.557	15925.09
608.914	15911.3
609.272	15938.42
609.629	15977.07
609.986	16012.09
610.343	15903.17
610.7	16117.85
611.057	15974.58
611.414	15947.69
611.771	16010.51
612.127	16116.5
612.484	16085.31
612.841	16064.3
613.198	15993.56
613.554	15948.14
613.911	16098.42
614.267	16096.61
614.624	16041.24
614.98	16131.41
615.337	16220.22
615.693	16058.42
616.05	16163.28
616.406	16239.66
616.762	16233.33
617.118	16213.22
617.475	16339.77
617.831	16255.7
618.187	16244.86
618.543	16265.42
618.899	16287.79
619.255	16265.42
619.611	16330.95
619.967	16346.1
620.323	16441.69
620.678	16311.29
621.034	16298.19
621.39	16321.46
621.746	16261.8
622.101	16514.23
622.457	16351.97
622.812	16356.49
623.168	16388.81
623.523	16366.43
623.879	16385.64
624.234	16217.29
624.589	16351.97
624.945	16443.95
625.3	16490.05
625.655	16346.77
626.01	16371.41
626.365	16362.14
626.72	16342.93
627.075	16341.8
627.43	16395.36
627.785	16353.33
628.14	16328.92
628.495	16322.82
628.85	16372.76
629.205	16391.29
629.559	16441.23
629.914	16325.76
630.269	16364.85
630.623	16226.55
630.978	16295.7
631.332	16264.74
631.687	16274.46
632.041	16186.33
632.396	16220
632.75	16212.31
633.104	16388.81
633.459	16119.89
633.813	16174.12
634.167	16163.95
634.521	16274.91
634.875	16228.81
635.229	16115.37
635.583	16046.89
635.937	16137.97
636.291	16017.74
636.645	16067.23
636.999	16057.29
637.352	16122.82
637.706	16009.38
638.06	16074.24
638.413	16036.95
638.767	16010.51
639.121	15957.18
639.474	15949.72
639.828	15983.17
640.181	15987.69
640.534	15983.85
640.888	15809.16
641.241	15773.23
641.594	15826.56
641.947	15813.45
642.301	15770.29
642.654	15777.97
643.007	15763.29
643.36	15754.7
643.713	15779.78
644.066	15778.88
644.419	15639.67
644.771	15502.95
645.124	15379.57
645.477	15293.92
645.83	15295.95
646.182	15254.6
646.535	15173.92
646.888	15298.44
647.24	15202.17
647.593	15354.26
647.945	15212.34
648.298	15078.11
648.65	15139.35
649.002	15098.44
649.355	15107.26
649.707	15021.61
650.059	14996.3
650.411	15170.31
650.763	15166.01
651.115	15339.79
651.467	15330.98
651.819	15278.78
652.171	15282.39
652.523	15161.27
652.875	15250.76
653.227	15137.99
653.578	15243.75
653.93	15278.33
654.282	15142.29
654.633	15127.37
654.985	15154.71
655.337	15241.49
655.688	15150.42
656.039	15201.94
656.391	15077.65
656.742	15104.09
657.094	15104.32
657.445	15215.05
657.796	15113.59
658.147	15144.55
658.498	15093.47
658.849	15148.39
659.2	15110.2
659.551	15038.79
659.902	15101.83
660.253	15017.54
660.604	15078.33
660.955	14975.96
661.306	15041.05
661.656	15015.51
662.007	15005.79
662.358	14990.88
662.708	15028.84
663.059	15021.16
663.409	14844.21
663.76	14978.22
664.11	14961.5
664.461	14945.68
664.811	15039.01
665.161	14966.24
665.511	14922.86
665.862	14921.5
666.212	14924.21
666.562	14904.33
666.912	14919.69
667.262	14912.46
667.612	14926.47
667.962	14876.76
668.312	14844.89
668.662	14935.74
669.011	14889.86
669.361	14929.64
669.711	14899.35
670.06	14850.54
670.41	14862.07
670.76	14912.46
671.109	14842.18
671.459	14808.51
671.808	14855.06
672.157	14882.86
672.507	14739.13
672.856	14754.95
673.205	14856.64
673.554	14846.02
673.904	14796.76
674.253	14890.77
674.602	14772.8
674.951	14579.81
675.3	14483.55
675.649	14708.17
675.998	14602.19
676.346	14692.58
676.695	14669.3
677.044	14521.74
677.393	14613.49
677.741	14646.71
678.09	14555.63
678.438	14555.86
678.787	14600.38
679.135	14641.96
679.484	14469.53
679.832	14602.41
680.181	14479.7
680.529	14552.02
680.877	14428.41
681.225	14454.85
681.573	14439.48
681.922	14300.27
682.27	14279.26
682.618	14297.34
682.966	14414.85
683.314	14376.88
683.661	14317.45
684.009	14165.59
684.357	14201.52
684.705	14124.23
685.053	14174.4
685.4	14181.18
685.748	14048.75
686.095	14056.21
686.443	14069.32
686.79	14086.27
687.138	14043.33
687.485	14033.61
687.832	13979.6
688.18	13977.12
688.527	13824.58
688.874	13893.73
689.221	13807.86
689.568	13853.73
689.915	13778.25
690.262	13757.46
690.609	13786.84
690.956	13732.83
691.303	13671.59
691.65	13618.26
691.997	13576.9
692.344	13535.55
692.69	13487.19
693.037	13477.02
693.383	13351.37
693.73	13397.25
694.077	13355.67
694.423	13320.19
694.769	13301.43
695.116	13256.01
695.462	13180.53
695.808	13134.65
696.155	13188.44
696.501	13057.14
696.847	13060.53
697.193	12953.42
697.539	12989.57
697.885	12830.03
698.231	12887.66
698.577	12831.39
698.923	12838.84
699.269	12776.92
699.614	12693.76
699.96	12609.7
700.306	12647.66
700.651	12643.14
700.997	12553.43
701.342	12550.04
701.688	12532.18
702.033	12454.67
702.379	12541.9
702.724	12416.93
703.069	12503.03
703.415	12241.8
703.76	12236.6
704.105	12280.67
704.45	12319.53
704.795	12236.37
705.14	12174.68
705.485	12193.44
705.83	12150.27
706.175	12085.87
706.52	12091.97
706.865	12075.93
707.209	12018.75
707.554	11989.6
707.899	11907.34
708.243	11895.14
708.588	11916.61
708.932	11816.05
709.277	11774.69
709.621	11779.66
709.966	11746.44
710.31	11746.89
710.654	11600.01
710.998	11580.12
711.342	11652.43
711.687	11555.26
712.031	11547.13
712.375	11483.62
712.719	11474.59
713.063	11491.53
713.407	11501.7
713.75	11426.68
714.094	11431.2
714.438	11408.15
714.782	11362.95
715.125	11307.81
715.469	11368.15
715.812	11273.01
716.156	11196.17
716.499	11152.56
716.843	11209.73
717.186	11204.99
717.53	11214.03
717.873	11193.46
718.216	11124.76
718.559	11091.54
718.902	11035.5
719.246	10983.07
719.589	11022.85
719.932	10954.37
720.275	10962.06
720.617	10911.66
720.96	10949.18
721.303	11027.37
721.646	10998.21
721.989	10883.19
722.331	10881.83
722.674	10817.2
723.016	10828.73
723.359	10845.22
723.701	10820.82
724.044	10777.43
724.386	10752.12
724.729	10749.18
725.071	10743.53
725.413	10742.63
725.755	10704.44
726.097	10697.43
726.439	10592.35
726.782	10602.74
727.124	10680.26
727.465	10541.73
727.807	10544.44
728.149	10497.66
728.491	10536.76
728.833	10501.05
729.175	10476.19
729.516	10461.05
729.858	10460.6
730.199	10438.23
730.541	10412.92
730.882	10454.27
731.224	10469.64
731.565	10375.41
731.906	10350.77
732.248	10291.79
732.589	10306.48
732.93	10278.91
733.271	10288.4
733.612	10264
733.953	10211.79
734.294	10217.9
734.635	10210.21
734.976	10219.7
735.317	10170.89
735.658	10108.07
735.999	10113.94
736.339	10135.64
736.68	10167.5
737.021	10099.25
737.361	10124.56
737.702	10089.09
738.042	10078.46
738.383	10020.84
738.723	10104.23
739.063	10054.28
739.404	10042.98
739.744	10019.26
740.084	9957.34
740.424	9911.91
740.764	9935.19
741.104	10002.76
741.444	9919.82
741.784	9880.28
742.124	9876.66
742.464	9885.02
742.804	9893.84
743.143	9879.37
743.483	9878.47
743.823	9788.53
744.162	9800.51
744.502	9777.91
744.841	9726.83
745.181	9735.42
745.52	9659.72
745.86	9673.95
746.199	9692.94
746.538	9627.85
746.877	9668.76
747.216	9688.64
747.556	9634.63
747.895	9601.41
748.234	9605.03
748.573	9612.49
748.911	9491.81
749.25	9614.3
749.589	9549.89
749.928	9553.96
750.267	9534.07
750.605	9464.47
750.944	9509.44
751.283	9446.39
751.621	9439.84
751.96	9344.47
752.298	9396
752.636	9412.49
752.975	9315.55
753.313	9279.61
753.651	9250.24
753.989	9250.46
754.327	9250.01
754.666	9149.22
755.004	9214.53
755.342	9188.32
755.679	9182.89
756.017	9102.9
756.355	9186.74
756.693	9207.07
757.031	9138.83
757.368	9038.94
757.706	9085.5
758.044	9036.46
758.381	8986.52
758.719	8938.83
759.056	8954.43
759.394	9018.38
759.731	8845.05
760.068	8873.98
760.405	8806.41
760.743	8793.07
761.08	8792.4
761.417	8756.69
761.754	8784.49
762.091	8771.83
762.428	8673.3
762.765	8682.34
763.102	8630.82
763.438	8570.93
763.775	8570.71
764.112	8544.94
764.449	8606.86
764.785	8514.89
765.122	8481.9
765.458	8446.42
765.795	8480.54
766.131	8411.16
766.467	8382.69
766.804	8340.2
767.14	8356.02
767.476	8330.94
767.812	8334.55
768.148	8278.51
768.485	8240.77
768.821	8194.45
769.157	8181.34
769.492	8254.33
769.828	8172.07
770.164	8072.41
770.5	8081.45
770.836	8039.2
771.171	8013.66
771.507	7985.64
771.842	7857.96
772.178	7945.19
772.513	7900.44
772.849	7896.15
773.184	7798.98
773.519	7840.33
773.855	7843.27
774.19	7767.56
774.525	7695.02
774.86	7739.99
775.195	7741.8
775.53	7720.56
775.865	7647.34
776.2	7653.44
776.535	7555.37
776.87	7615.48
777.205	7621.13
777.539	7562.15
777.874	7535.25
778.209	7472.2
778.543	7499.77
778.878	7436.5
779.212	7361.47
779.547	7390.62
779.881	7424.97
780.215	7275.37
780.55	7302.49
780.884	7270.63
781.218	7287.8
781.552	7269.5
781.886	7183.62
782.22	7181.36
782.554	7177.98
782.888	7116.28
783.222	7072.22
783.556	7006.45
783.889	7051.65
784.223	6979.79
784.557	6949.96
784.89	6933.01
785.224	6932.78
785.557	6869.51
785.891	6879.68
786.224	6867.7
786.558	6862.5
786.891	6790.87
787.224	6778.21
787.557	6820.24
787.891	6738.21
788.224	6717.65
788.557	6707.25
788.89	6731.43
789.223	6709.06
789.556	6667.48
789.888	6602.4
790.221	6630.64
790.554	6514.26
790.887	6531.44
791.219	6594.94
791.552	6450.08
791.884	6502.29
792.217	6500.25
792.549	6445.34
792.882	6452.12
793.214	6397.43
793.546	6371.22
793.879	6357.43
794.211	6323.53
794.543	6329.64
794.875	6286.93
795.207	6296.42
795.539	6307.49
795.871	6298.9
796.203	6225.23
796.535	6191.79
796.867	6205.8
797.198	6196.98
797.53	6166.25
797.862	6163.31
798.193	6115.4
798.525	6073.37
798.856	6094.61
799.188	6074.95
799.519	6049.19
799.85	5961.06
800.182	6039.47
800.513	6034.28
800.844	5928.29
801.175	6018.91
801.506	5987.72
801.837	5904.34
802.168	5909.31
802.499	5934.62
802.83	5828.41
803.161	5860.27
803.491	5831.34
803.822	5840.16
804.153	5863.21
804.483	5759.93
804.814	5774.4
805.145	5757.45
805.475	5801.97
805.805	5744.57
806.136	5723.55
806.466	5773.49
806.796	5713.38
807.126	5702.53
807.457	5674.06
807.787	5690.1
808.117	5650.56
808.447	5642.42
808.777	5620.5
809.107	5599.71
809.436	5580.5
809.766	5579.6
810.096	5601.97
810.426	5512.71
810.755	5582.31
811.085	5546.38
811.414	5498.7
811.744	5487.62
812.073	5447.63
812.403	5495.76
812.732	5468.19
813.061	5460.05
813.39	5474.52
813.719	5444.69
814.049	5366.05
814.378	5469.77
814.707	5442.88
815.036	5388.42
815.365	5366.05
815.693	5308.65
816.022	5353.84
816.351	5303.45
816.68	5307.74
817.008	5288.99
817.337	5249.44
817.665	5244.01
817.994	5291.47
818.322	5266.16
818.651	5245.82
818.979	5223
819.307	5211.7
819.636	5200.85
819.964	5163.56
820.292	5150.68
820.62	5169.44
820.948	5135.54
821.276	5174.86
821.604	5147.07
821.932	5137.8
822.259	5172.38
822.587	5194.52
822.915	5097.58
823.243	5103.68
823.57	5141.19
823.898	5187.52
824.225	5154.75
824.553	5088.76
824.88	5135.54
825.207	5137.12
825.535	5120.63
825.862	5132.83
826.189	5101.42
826.516	5129.89
826.843	5155.2
827.17	5110.91
827.497	5156.79
827.824	5145.26
828.151	5117.46
828.478	5094.64
828.805	5109.1
829.131	5140.97
829.458	5099.61
829.785	5115.66
830.111	5128.76
830.438	5144.58
830.764	5127.41
831.09	5132.83
831.417	5142.32
831.743	5158.14
832.069	5133.74
832.395	5109.78
832.722	5171.93
833.048	5065.94
833.374	5141.42
833.7	5091.93
834.026	5114.53
834.351	5136.9
834.677	5089.67
835.003	5067.75
835.329	5067.07
835.654	5101.87
835.98	5089.44
836.306	5055.09
836.631	5035.66
836.956	5081.99
837.282	4969.67
837.607	5000.18
837.932	5013.96
838.258	4944.81
838.583	4987.3
838.908	4962.44
839.233	4947.07
839.558	4992.72
839.883	5021.87
840.208	4901.42
840.533	4953.85
840.858	4987.75
841.182	5016.45
841.507	5005.38
841.832	4919.96
842.156	4921.54
842.481	4882.67
842.805	4928.99
843.13	4840.41
843.454	4889.45
843.778	4834.76
844.103	4862.78
844.427	4859.84
844.751	4866.85
845.075	4837.02
845.399	4885.15
845.723	4800.41
846.047	4800.18
846.371	4748.66
846.695	4737.81
847.019	4700.07
847.343	4730.58
847.666	4679.06
847.99	4629.12
848.313	4681.09
848.637	4665.95
848.96	4648.32
849.284	4641.54
849.607	4552.73
849.931	4612.17
850.254	4590.7
850.577	4521.77
850.9	4528.33
851.223	4510.7
851.546	4468.22
851.869	4456.24
852.192	4510.93
852.515	4463.92
852.838	4456.24
853.161	4442.91
853.483	4431.83
853.806	4405.84
854.129	4355.22
854.451	4346.86
854.774	4340.08
855.096	4324.72
855.419	4311.38
855.741	4355
856.063	4332.17
856.385	4272.97
856.708	4261.67
857.03	4288.11
857.352	4290.59
857.674	4248.56
857.996	4235
858.318	4161.11
858.64	4209.69
858.961	4173.99
859.283	4201.56
859.605	4141.9
859.926	4180.54
860.248	4134.21
860.57	4170.6
860.891	4140.99
861.212	4112.74
861.534	4116.36
861.855	4101.22
862.176	4114.33
862.498	4136.02
862.819	4107.32
863.14	4098.96
863.461	4066.19
863.782	4041.11
864.103	4046.98
864.424	3997.04
864.745	4068.45
865.065	4036.59
865.386	4031.62
865.707	3999.3
866.027	3986.65
866.348	3999.98
866.668	4011.05
866.989	3969.7
867.309	3996.14
867.63	3984.16
867.95	4002.69
868.27	3972.41
868.59	3959.98
868.91	3952.3
869.23	3962.01
869.55	3948.46
869.87	3947.55
870.19	3924.73
870.51	3927.21
870.83	3929.02
871.15	3936.93
871.469	3911.62
871.789	3895.58
872.109	3948.23
872.428	3877.95
872.748	3884.95
873.067	3870.72
873.386	3907.55
873.706	3903.94
874.025	3893.77
874.344	3855.35
874.663	3881.11
874.982	3839.76
875.301	3883.82
875.62	3846.76
875.939	3806.54
876.258	3828.91
876.577	3835.92
876.896	3797.05
877.214	3809.25
877.533	3828.01
877.852	3778.29
878.17	3796.37
878.489	3804.73
878.807	3841.11
879.125	3803.6
879.444	3778.52
879.762	3749.59
880.08	3760.89
880.398	3732.87
880.716	3740.78
881.034	3695.58
881.352	3734.68
881.67	3769.03
881.988	3713.89
882.306	3730.38
882.624	3684.73
882.941	3642.93
883.259	3667.78
883.577	3606.09
883.894	3630.05
884.212	3662.81
884.529	3655.58
884.846	3648.8
885.164	3629.82
885.481	3646.99
885.798	3625.98
886.115	3620.1
886.432	3605.19
886.75	3614.9
887.067	3576.04
887.383	3623.27
887.7	3569.26
888.017	3561.57
888.334	3578.52
888.651	3557.96
888.967	3563.38
889.284	3565.19
889.6	3534
889.917	3489.03
890.233	3514.57
890.55	3527
890.866	3500.56
891.182	3472.31
891.498	3471.18
891.815	3477.06
892.131	3446.55
892.447	3443.38
892.763	3433.67
893.079	3443.61
893.395	3380.79
893.71	3402.93
894.026	3409.71
894.342	3392.31
894.657	3355.25
894.973	3329.94
895.289	3345.76
895.604	3358.41
895.92	3342.14
896.235	3308.92
896.55	3289.72
896.865	3331.97
897.181	3337.17
897.496	3302.6
897.811	3270.06
898.126	3236.61
898.441	3258.76
898.756	3287.91
899.071	3254.91
899.386	3224.86
899.7	3191.19
900.015	3227.57
900.33	3218.98
900.644	3179.44
900.959	3212.88
901.273	3173.79
901.588	3168.36
901.902	3171.07
902.216	3158.19
902.531	3137.86
902.845	3097.63
903.159	3116.84
903.473	3109.83
903.787	3114.58
904.101	3086.11
904.415	3067.57
904.729	3043.85
905.042	3023.28
905.356	3050.17
905.67	2996.62
905.984	3051.3
906.297	3008.59
906.611	3004.07
906.924	3000.23
907.237	2995.03
907.551	2949.39
907.864	2971.31
908.177	2952.55
908.491	2942.38
908.804	2907.58
909.117	2933.79
909.43	2888.6
909.743	2880.46
910.056	2869.16
910.368	2861.25
910.681	2884.98
910.994	2855.38
911.307	2835.72
911.619	2808.6
911.932	2809.28
912.244	2791.88
912.557	2780.12
912.869	2790.75
913.181	2758.2
913.494	2759.33
913.806	2756.4
914.118	2791.65
914.43	2735.61
914.742	2729.73
915.054	2756.85
915.366	2672.1
915.678	2709.84
915.99	2686.57
916.302	2677.75
916.613	2680.01
916.925	2684.53
917.236	2659.9
917.548	2661.94
917.859	2649.96
918.171	2616.06
918.482	2629.39
918.794	2632.56
919.105	2616.74
919.416	2600.47
919.727	2564.31
920.038	2602.05
920.349	2561.15
920.66	2560.7
920.971	2546.68
921.282	2552.33
921.593	2514.14
921.903	2494.26
922.214	2464.65
922.525	2486.57
922.835	2479.12
923.146	2475.05
923.456	2459.91
923.767	2470.98
924.077	2458.33
924.387	2458.1
924.697	2457.87
925.008	2417.87
925.318	2404.77
925.628	2400.02
925.938	2384.2
926.248	2422.85
926.558	2333.81
926.867	2379.68
927.177	2352.79
927.487	2348.27
927.796	2322.28
928.106	2369.74
928.416	2327.93
928.725	2330.19
929.034	2294.49
929.344	2281.38
929.653	2291.1
929.962	2284.09
930.271	2255.62
930.581	2190.08
930.89	2251.1
931.199	2219.46
931.508	2210.42
931.817	2227.82
932.125	2215.85
932.434	2205
932.743	2167.26
933.051	2194.15
933.36	2161.38
933.669	2156.19
933.977	2193.7
934.286	2183.3
934.594	2165.68
934.902	2165.9
935.21	2113.7
935.519	2136.98
935.827	2141.05
936.135	2158.9
936.443	2119.35
936.751	2089.3
937.059	2099.24
937.367	2068.28
937.674	2077.54
937.982	2077.54
938.29	2061.27
938.597	2056.53
938.905	2057.21
939.213	2037.77
939.52	2007.04
939.827	2042.29
940.135	2011.33
940.442	2005
940.749	2021.95
941.056	1967.94
941.363	1973.59
941.67	1949.41
941.977	1957.77
942.284	1963.42
942.591	1962.75
942.898	1964.55
943.205	1960.94
943.511	1936.31
943.818	1924.33
944.125	1903.54
944.431	1900.37
944.738	1910.77
945.044	1913.71
945.35	1848.17
945.657	1876.42
945.963	1871.45
946.269	1854.05
946.575	1861.5
946.881	1858.11
947.187	1849.08
947.493	1819.92
947.799	1810.88
948.105	1818.79
948.41	1822.86
948.716	1835.52
949.022	1804.78
949.327	1793.94
949.633	1802.75
949.938	1783.09
950.244	1769.98
950.549	1800.94
950.854	1776.54
951.16	1774.95
951.465	1750.77
951.77	1755.97
952.075	1756.87
952.38	1731.34
952.685	1732.92
952.99	1708.29
953.294	1712.36
953.599	1741.51
953.904	1686.14
954.209	1687.05
954.513	1667.39
954.818	1678.91
955.122	1676.88
955.426	1698.12
955.731	1669.87
956.035	1638.23
956.339	1675.97
956.643	1635.07
956.948	1642.3
957.252	1615.64
957.556	1619.03
957.86	1640.95
958.163	1616.09
958.467	1616.31
958.771	1635.52
959.075	1614.73
959.378	1577.22
959.682	1579.25
959.985	1580.38
960.289	1569.99
960.592	1571.34
960.896	1555.52
961.199	1566.82
961.502	1542.87
961.805	1531.8
962.108	1554.17
962.411	1512.59
962.714	1506.03
963.017	1517.56
963.32	1529.76
963.623	1498.12
963.926	1525.92
964.228	1490.22
964.531	1493.6
964.833	1494.96
965.136	1465.13
965.438	1485.47
965.741	1489.99
966.043	1475.3
966.345	1437.34
966.648	1454.28
966.95	1464.23
967.252	1461.74
967.554	1471.01
967.856	1428.52
968.158	1413.15
968.46	1403.44
968.761	1432.14
969.063	1410.44
969.365	1393.27
969.666	1423.55
969.968	1416.32
970.269	1381.74
970.571	1393.04
970.872	1391.23
971.174	1405.47
971.475	1362.31
971.776	1360.5
972.077	1389.65
972.378	1392.82
972.679	1374.96
972.98	1369.54
973.281	1371.57
973.582	1355.98
973.883	1306.94
974.183	1333.16
974.484	1307.4
974.785	1309.43
975.085	1308.98
975.386	1289.77
975.686	1306.49
975.986	1329.32
976.287	1317.79
976.587	1313.27
976.887	1271.46
977.187	1280.96
977.487	1305.81
977.787	1276.44
978.087	1270.33
978.387	1266.72
978.687	1282.08
978.987	1275.08
979.286	1278.47
979.586	1221.75
979.885	1226.04
980.185	1233.72
980.484	1223.1
980.784	1220.17
981.083	1203.67
981.382	1206.83
981.682	1212.71
981.981	1223.78
982.28	1198.7
982.579	1212.48
982.878	1200.73
983.177	1178.58
983.475	1176.78
983.774	1169.32
984.073	1162.54
984.372	1149.21
984.67	1143.11
984.969	1135.87
985.267	1168.42
985.566	1176.1
985.864	1153.27
986.162	1147.17
986.461	1126.38
986.759	1109.89
987.057	1097.68
987.355	1113.05
987.653	1131.81
987.951	1116.21
988.249	1115.08
988.547	1120.51
988.844	1119.83
989.142	1115.08
989.44	1090.9
989.737	1080.28
990.035	1084.12
990.332	1104.69
990.63	1078.02
990.927	1085.48
991.224	1082.32
991.521	1060.62
991.819	1067.18
992.116	1067.4
992.413	1045.03
992.71	1057.01
993.006	1056.55
993.303	1043.9
993.6	1037.8
993.897	1045.03
994.193	1054.52
994.49	1033.96
994.787	1038.7
995.083	1012.26
995.379	1012.71
995.676	1021.3
995.972	983.56
996.268	1011.13
996.565	987.63
996.861	1005.71
997.157	992.83
997.453	1001.87
997.749	998.02
998.044	998.48
998.34	962.32
998.636	999.15
998.932	970.45
999.227	964.58
999.523	985.6
999.818	945.14
1000.114	979.95
1000.409	944.69
1000.704	965.94
1001	956.44
1001.295	945.37
1001.59	935.65
1001.885	931.36
1002.18	941.08
1002.475	908.99
1002.77	925.71
1003.065	938.37
1003.359	915.99
1003.654	910.34
1003.949	919.83
1004.243	899.27
1004.538	887.29
1004.832	917.57
1005.127	905.37
1005.421	910.12
1005.715	872.15
1006.009	912.38
1006.304	867.63
1006.598	875.32
1006.892	837.58
1007.186	888.42
1007.48	835.99
1007.773	859.72
1008.067	852.27
1008.361	844.81
1008.655	832.15
1008.948	837.35
1009.242	841.19
1009.535	836.45
1009.829	842.1
1010.122	808.88
1010.415	822.44
1010.708	826.5
1011.001	809.78
1011.295	800.74
1011.588	806.39
1011.881	800.52
1012.173	786.05
1012.466	783.79
1012.759	795.77
1013.052	803
1013.344	800.06
1013.637	803.91
1013.93	772.72
1014.222	772.27
1014.514	777.24
1014.807	760.74
1015.099	788.09
1015.391	766.84
1015.683	784.92
1015.976	775.66
1016.268	742.21
1016.56	771.59
1016.851	754.19
1017.143	753.96
1017.435	763.68
1017.727	746.96
1018.018	740.86
1018.31	729.56
1018.602	734.08
1018.893	728.88
1019.185	723.68
1019.476	704.7
1019.767	726.17
1020.058	730.69
1020.35	700.86
1020.641	709.22
1020.932	717.58
1021.223	696.56
1021.514	689.11
1021.804	683.68
1022.095	686.62
1022.386	685.26
1022.677	689.78
1022.967	678.48
1023.258	701.54
1023.548	702.67
1023.839	675.77
1024.129	674.19
1024.419	646.62
1024.709	650.46
1025	641.42
1025.29	649.56
1025.58	632.16
1025.87	671.48
1026.16	642.1
1026.449	636.9
1026.739	641.88
1027.029	643.68
1027.319	635.32
1027.608	605.72
1027.898	642.78
1028.187	628.54
1028.477	638.94
1028.766	621.54
1029.055	601.65
1029.344	618.6
1029.634	618.6
1029.923	606.17
1030.212	622.67
1030.501	598.49
1030.79	615.44
1031.078	603.68
1031.367	609.33
1031.656	598.94
1031.945	605.27
1032.233	552.84
1032.522	597.13
1032.81	588.54
1033.099	588.54
1033.387	578.6
1033.675	577.7
1033.963	571.14
1034.251	583.8
1034.54	569.79
1034.828	546.51
1035.116	549.9
1035.403	560.52
1035.691	561.65
1035.979	567.3
1036.267	563.01
1036.554	588.77
1036.842	538.83
1037.129	557.81
1037.417	547.64
1037.704	567.53
1037.992	527.53
1038.279	537.47
1038.566	534.08
1038.853	534.08
1039.14	534.08
