Data from foam2_polystyrene_foam_FLMS001491_00030.txt Node
Date: Wed Feb 08 10:57:45 GMT 2017
User: dcchb
Spectrometer: FLMS00149
Trigger mode: 0
Integration Time (sec): 2.000000E-2
Scans to average: 10
Electric dark correction enabled: true
Nonlinearity correction enabled: false
Boxcar width: 0
XAxis mode: Wavelengths
Number of Pixels in Spectrum: 2048
>>>>>Begin Spectral Data<<<<<
341.393	-3.66
341.776	-3.66
342.16	-3.66
342.543	-62.64
342.927	-78.68
343.31	-66.93
343.693	-81.85
344.077	-67.39
344.46	-66.71
344.843	-32.81
345.226	-24
345.61	-35.52
345.993	-30.78
346.376	-6.6
346.759	1.31
347.142	40.41
347.525	35.44
347.908	54.87
348.291	75.21
348.674	92.16
349.057	113.17
349.44	130.58
349.823	146.39
350.206	161.08
350.588	217.58
350.971	215.77
351.354	240.18
351.737	235.21
352.119	262.78
352.502	264.81
352.884	275.88
353.267	288.99
353.65	273.4
354.032	289.22
354.414	328.31
354.797	329.67
355.179	324.69
355.562	333.73
355.944	343
356.326	347.75
356.709	340.29
357.091	369.44
357.473	363.34
357.855	356.33
358.238	358.82
358.62	331.25
359.002	353.62
359.384	362.21
359.766	356.56
360.148	344.36
360.53	346.16
360.912	371.25
361.294	343.45
361.676	357.91
362.057	368.76
362.439	350.91
362.821	357.91
363.203	343.23
363.584	345.94
363.966	347.52
364.348	340.51
364.729	341.19
365.111	338.25
365.493	363.56
365.874	359.5
366.256	369.44
366.637	341.87
367.019	331.25
367.4	348.88
367.781	337.8
368.163	360.63
368.544	350.91
368.925	350
369.306	375.31
369.688	339.38
370.069	366.5
370.45	331.02
370.831	359.04
371.212	373.28
371.593	345.94
371.974	357.91
372.355	352.49
372.736	370.12
373.117	359.5
373.498	364.02
373.879	352.94
374.26	372.6
374.641	363.79
375.021	378.25
375.402	387.97
375.783	398.82
376.163	408.53
376.544	378.25
376.925	393.85
377.305	413.05
377.686	403.79
378.066	397.01
378.447	394.3
378.827	407.18
379.208	394.75
379.588	400.85
379.968	422.09
380.349	407.86
380.729	413.96
381.109	409.21
381.489	410.57
381.87	419.61
382.25	427.07
382.63	424.81
383.01	437.23
383.39	416.22
383.77	439.72
384.15	432.26
384.53	451.02
384.91	441.75
385.29	437.46
385.67	454.63
386.049	457.12
386.429	479.49
386.809	480.17
387.189	479.72
387.568	463.22
387.948	471.58
388.328	485.37
388.707	482.2
389.087	474.52
389.466	466.16
389.846	503.45
390.225	495.99
390.605	509.1
390.984	523.11
391.363	511.58
391.743	496.67
392.122	532.37
392.501	543.22
392.881	534.63
393.26	543.45
393.639	546.61
394.018	553.62
394.397	577.57
394.776	559.04
395.155	562.43
395.534	566.72
395.913	553.16
396.292	566.72
396.671	579.15
397.05	595.65
397.429	575.54
397.808	590.45
398.186	592.03
398.565	598.59
398.944	628.19
399.323	618.47
399.701	614.86
400.08	627.06
400.458	621.64
400.837	597.91
401.215	636.78
401.594	626.16
401.972	673.16
402.351	657.57
402.729	660.05
403.107	684.91
403.486	679.49
403.864	680.62
404.242	700.5
404.62	682.2
404.999	689.43
405.377	695.98
405.755	724.68
406.133	720.39
406.511	724.91
406.889	769.65
407.267	755.87
407.645	758.58
408.023	748.86
408.401	754.06
408.779	770.11
409.156	782.99
409.534	795.64
409.912	794.51
410.29	833.16
410.667	818.92
411.045	838.81
411.422	849.65
411.8	860.27
412.178	860.73
412.555	858.01
412.933	869.09
413.31	898.24
413.687	908.41
414.065	895.75
414.442	917.22
414.819	910.22
415.197	955.19
415.574	948.86
415.951	964.23
416.328	954.96
416.705	953.15
417.082	973.27
417.46	974.17
417.837	999.25
418.214	1000.61
418.591	1025.92
418.967	1010.78
419.344	1032.25
419.721	1039.25
420.098	1027.05
420.475	1061.85
420.852	1096.65
421.228	1076.77
421.605	1061.62
421.982	1121.96
422.358	1090.1
422.735	1111.79
423.111	1145.24
423.488	1159.48
423.864	1158.35
424.241	1171.68
424.617	1163.99
424.994	1195.18
425.37	1201.28
425.746	1204.67
426.123	1243.31
426.499	1214.16
426.875	1242.64
427.251	1290.09
427.627	1309.75
428.003	1269.75
428.379	1309.3
428.756	1335.74
429.132	1340.94
429.507	1399.69
429.883	1380.49
430.259	1422.75
430.635	1397.66
431.011	1416.87
431.387	1456.42
431.763	1463.65
432.138	1488.28
432.514	1516.98
432.89	1525.79
433.265	1545.91
433.641	1581.16
434.016	1593.59
434.392	1594.27
434.767	1625.45
435.143	1628.84
435.518	1677.88
435.894	1692.34
436.269	1668.16
436.644	1740.7
437.02	1730.31
437.395	1756.07
437.77	1774.83
438.145	1760.82
438.52	1812.34
438.895	1827.48
439.271	1839.23
439.646	1868.61
440.021	1886.46
440.395	1897.76
440.77	1880.59
441.145	1901.15
441.52	1956.74
441.895	1940.7
442.27	1962.84
442.645	1979.11
443.019	2001.26
443.394	1988.15
443.769	2036.97
444.143	2068.15
444.518	2060.47
444.892	2046.46
445.267	2062.28
445.641	2085.1
446.016	2084.65
446.39	2131.2
446.764	2165.1
447.139	2143.4
447.513	2150.18
447.887	2185.89
448.262	2216.62
448.636	2194.48
449.01	2227.02
449.384	2238.32
449.758	2286.23
450.132	2316.73
450.506	2352.66
450.88	2338.65
451.254	2347.01
451.628	2374.58
452.002	2414.81
452.376	2398.09
452.75	2439.22
453.123	2443.28
453.497	2512.89
453.871	2492.32
454.244	2570.51
454.618	2596.27
454.992	2604.18
455.365	2596.95
455.739	2684.63
456.112	2700
456.486	2709.94
456.859	2734.35
457.232	2779.55
457.606	2752.43
457.979	2822.93
458.352	2893.67
458.725	2935.93
459.099	2937.73
459.472	2976.6
459.845	3036.04
460.218	3031.52
460.591	3068.35
460.964	3082.36
461.337	3170.95
461.71	3182.25
462.083	3222.7
462.456	3257.5
462.829	3287.33
463.201	3294.11
463.574	3335.24
463.947	3348.34
464.32	3470.6
464.692	3475.12
465.065	3489.13
465.438	3556.02
465.81	3584.95
466.183	3649.58
466.555	3666.98
466.928	3720.54
467.3	3707.43
467.672	3756.92
468.045	3839.63
468.417	3880.31
468.789	3899.97
469.161	3983.36
469.534	4029.91
469.906	4132.28
470.278	4113.52
470.65	4229.68
471.022	4254.99
471.394	4339.73
471.766	4356.45
472.138	4401.65
472.51	4471.48
472.882	4561.42
473.253	4606.16
473.625	4681.42
473.997	4770
474.369	4815.65
474.74	4886.38
475.112	4954.4
475.484	5108.98
475.855	5129.31
476.227	5167.05
476.598	5353.72
476.97	5355.07
477.341	5464.67
477.713	5545.57
478.084	5571.79
478.455	5740.82
478.827	5795.96
479.198	5969.74
479.569	5972.46
479.94	6066.46
480.311	6169.06
480.682	6313.24
481.053	6485.89
481.424	6623.74
481.795	6611.08
482.166	6738.54
482.537	6776.95
482.908	6932.88
483.279	7020.79
483.65	7136.04
484.021	7229.82
484.391	7380.33
484.762	7416.03
485.133	7512.75
485.503	7586.88
485.874	7755.46
486.244	7884.27
486.615	7977.6
486.985	8100.08
487.356	8229.12
487.726	8294.2
488.097	8489.9
488.467	8558.38
488.837	8747.3
489.207	8808.77
489.578	8900.97
489.948	8934.41
490.318	9149.55
490.688	9164.01
491.058	9258.92
491.428	9465.7
491.798	9523.55
492.168	9717.22
492.538	9744.56
492.908	9865.23
493.278	9901.17
493.648	10012.35
494.017	10210.31
494.387	10250.08
494.757	10301.83
495.126	10437.88
495.496	10506.35
495.866	10535.95
496.235	10686.46
496.605	10826.57
496.974	10883.97
497.344	10907.47
497.713	11061.81
498.082	11126.9
498.452	11265.2
498.821	11300.9
499.19	11367.34
499.559	11426.32
499.928	11509.03
500.298	11557.17
500.667	11684.17
501.036	11657.96
501.405	11889.36
501.774	11832.64
502.143	11943.37
502.512	12008.23
502.88	12163.48
503.249	12215
503.618	12301.1
503.987	12401.89
504.356	12498.16
504.724	12483.47
505.093	12608.89
505.462	12667.2
505.83	12732.96
506.199	12821.09
506.567	13033.51
506.936	13031.03
507.304	13177.46
507.672	13193.51
508.041	13276.22
508.409	13406.61
508.777	13457.91
509.145	13582.2
509.514	13703.1
509.882	13781.97
510.25	13791.91
510.618	13882.53
510.986	13996.43
511.354	14244.55
511.722	14338.56
512.09	14458.11
512.458	14412.46
512.826	14578.78
513.193	14626.01
513.561	14697.88
513.929	14865.1
514.297	14984.65
514.664	15153.23
515.032	15152.33
515.4	15283.4
515.767	15299.44
516.135	15525.2
516.502	15402.94
516.869	15698.98
517.237	15736.49
517.604	15750.5
517.972	16092.19
518.339	16107.1
518.706	16093.55
519.073	16252.41
519.44	16434.1
519.808	16585.28
520.175	16500.54
520.542	16912.28
520.909	16992.73
521.276	16979.62
521.643	17126.51
522.009	17214.65
522.376	17424.81
522.743	17595.2
523.11	17722.2
523.477	17814.63
523.843	17981.63
524.21	18181.17
524.577	18269.99
524.943	18425.24
525.31	18453.48
525.676	18699.13
526.043	18840.14
526.409	18922.85
526.776	19110.42
527.142	19175.27
527.508	19284.2
527.874	19515.83
528.241	19489.61
528.607	19621.59
528.973	19839.21
529.339	19764.86
529.705	20101.12
530.071	20198.75
530.437	20266.09
530.803	20436.48
531.169	20604.61
531.535	20604.84
531.901	20537.72
532.267	20852.06
532.632	20796.47
532.998	20979.07
533.364	21205.05
533.73	21132.74
534.095	21400.98
534.461	21276.01
534.826	21504.48
535.192	21713.51
535.557	21764.58
535.923	21682.1
536.288	21865.37
536.653	22018.59
537.019	21953.05
537.384	22107.85
537.749	22239.37
538.114	22283.44
538.479	22407.5
538.845	22494.73
539.21	22487.95
539.575	22645.92
539.94	22744.22
540.305	22894.5
540.67	22853.59
541.034	23070.76
541.399	23077.32
541.764	23141.95
542.129	23220.82
542.494	23337.2
542.858	23478.89
543.223	23520.47
543.587	23617.87
543.952	23604.76
544.316	23688.37
544.681	23673.46
545.045	23801.14
545.41	23903.74
545.774	24053.79
546.138	24142.15
546.503	24113.67
546.867	24316.61
547.231	24413.1
547.595	24514.34
547.959	24626.65
548.324	24541.46
548.688	24692.42
549.052	24859.19
549.416	24877.72
549.779	24879.3
550.143	24904.61
550.507	25173.98
550.871	25318.84
551.235	25282.91
551.599	25410.36
551.962	25527.65
552.326	25580.98
552.689	25755.66
553.053	25759.51
553.417	25911.82
553.78	26095.32
554.143	26107.07
554.507	26295.09
554.87	26472.26
555.234	26688.75
555.597	26516.55
555.96	26659.14
556.323	26691.69
556.686	26829.08
557.05	27023.2
557.413	27187.49
557.776	27160.6
558.139	27344.55
558.502	27509.97
558.865	27605.33
559.228	27665.22
559.59	27809.4
559.953	27829.28
560.316	28215.03
560.679	28175.04
561.041	28355.37
561.404	28454.35
561.767	28672.42
562.129	28646.44
562.492	28977.27
562.854	28879.2
563.217	29035.58
563.579	29188.34
563.941	29307.44
564.304	29436.7
564.666	29652.74
565.028	29571.84
565.39	29748.78
565.753	30117.81
566.115	30124.36
566.477	30243.91
566.839	30366.16
567.201	30559.38
567.563	30567.52
567.925	30826.04
568.287	30708.98
568.648	30841.18
569.01	31011.12
569.372	31151.91
569.734	31147.39
570.095	31246.14
570.457	31514.16
570.819	31458.34
571.18	31539.47
571.542	31762.74
571.903	31768.84
572.265	31903.53
572.626	32014.71
572.987	32017.19
573.349	32112.79
573.71	32248.6
574.071	32329.28
574.432	32349.16
574.794	32735.14
575.155	32597.29
575.516	32502.61
575.877	32749.15
576.238	32729.94
576.599	32952.54
576.96	32946.21
577.32	33038.64
577.681	33025.76
578.042	33315.24
578.403	33195.24
578.763	33258.29
579.124	33256.48
579.485	33449.47
579.845	33347.78
580.206	33290.16
580.566	33404.95
580.927	33474.11
581.287	33515.46
581.648	33469.13
582.008	33519.3
582.368	33593.65
582.728	33609.24
583.089	33498.29
583.449	33603.82
583.809	33734.66
584.169	33743.03
584.529	33679.75
584.889	33984.6
585.249	33760.88
585.609	33697.6
585.969	33958.16
586.329	33799.07
586.688	33871.38
587.048	33908.67
587.408	33694.66
587.768	33783.93
588.127	33823.93
588.487	33832.97
588.846	34044.03
589.206	33729.92
589.565	33867.99
589.925	33973.75
590.284	33839.07
590.643	33879.74
591.003	34011.94
591.362	34124.48
591.721	33877.71
592.08	33898.95
592.44	33956.13
592.799	33962.91
593.158	33895.34
593.517	33914.32
593.876	34038.61
594.235	34002.45
594.593	34038.16
594.952	34016.92
595.311	33980.53
595.67	34169.68
596.029	34146.63
596.387	34319.51
596.746	34337.81
597.104	34173.07
597.463	34063.02
597.822	34369.9
598.18	34249.23
598.538	34197.02
598.897	34440.41
599.255	34195.89
599.613	34673.62
599.972	34381.88
600.33	34492.84
600.688	34394.31
601.046	34631.82
601.404	34560.63
601.762	34484.25
602.12	34700.06
602.478	34725.37
602.836	34595.66
603.194	34562.89
603.552	34678.37
603.91	34611.02
604.268	34778.25
604.625	34631.36
604.983	34751.81
605.341	34610.35
605.698	34793.17
606.056	34882.43
606.413	34825.03
606.771	34975.31
607.128	34908.42
607.485	34819.61
607.843	35018.02
608.2	35098.7
608.557	35178.69
608.914	35056.66
609.272	35225.7
609.629	35255.98
609.986	35397.44
610.343	35105.7
610.7	35505.69
611.057	35368.29
611.414	35360.84
611.771	35392.02
612.127	35464.11
612.484	35535.75
612.841	35572.13
613.198	35474.05
613.554	35379.37
613.911	35666.82
614.267	35632.92
614.624	35603.09
614.98	35611
615.337	35819.58
615.693	35765.57
616.05	35627.5
616.406	35880.37
616.762	35872.23
617.118	35891.44
617.475	35924.44
617.831	36061.83
618.187	36026.81
618.543	36106.35
618.899	36211.21
619.255	36155.17
619.611	36218.89
619.967	36319
620.323	36304.99
620.678	36144.77
621.034	35992.23
621.39	36160.36
621.746	36172.34
622.101	36489.17
622.457	36252.11
622.812	36296.18
623.168	36447.36
623.523	36424.54
623.879	36616.62
624.234	36439
624.589	36383.63
624.945	36531.88
625.3	36403.29
625.655	36364.88
626.01	36464.76
626.365	36473.35
626.72	36312.45
627.075	36510.18
627.43	36410.3
627.785	36346.8
628.14	36408.27
628.495	36402.16
628.85	36470.41
629.205	36245.78
629.559	36468.6
629.914	36382.05
630.269	36266.12
630.623	36035.62
630.978	36041.72
631.332	36206.69
631.687	36235.84
632.041	36004.66
632.396	36154.26
632.75	35940.93
633.104	35992.23
633.459	35725.35
633.813	35832.46
634.167	35757.21
634.521	35853.03
634.875	35781.84
635.229	35756.08
635.583	35561.96
635.937	35625.46
636.291	35629.3
636.645	35625.01
636.999	35451.45
637.352	35631.56
637.706	35390.89
638.06	35523.09
638.413	35506.82
638.767	35336.88
639.121	35369.65
639.474	35143.89
639.828	35037.23
640.181	35201.74
640.534	35266.15
640.888	34986.83
641.241	34832.94
641.594	34911.58
641.947	34921.07
642.301	34944.8
642.654	34940.06
643.007	34963.78
643.36	34842.88
643.713	34610.12
644.066	34821.41
644.419	34535.32
644.771	34376.45
645.124	34020.76
645.477	33940.31
645.83	33621.9
646.182	33567.44
646.535	33453.77
646.888	33515.23
647.24	33451.73
647.593	33705.74
647.945	33539.64
648.298	33390.94
648.65	33403.6
649.002	33248.35
649.355	33464.61
649.707	33234.11
650.059	33407.21
650.411	33681.78
650.763	33806.75
651.115	34100.53
651.467	34087.65
651.819	34111.15
652.171	33945.05
652.523	33970.59
652.875	33892.63
653.227	33656.25
653.578	34042.23
653.93	33864.83
654.282	33749.8
654.633	33621.22
654.985	33672.74
655.337	33747.54
655.688	33715.23
656.039	33777.37
656.391	33461.45
656.742	33556.36
657.094	33575.57
657.445	33635.68
657.796	33513.43
658.147	33535.57
658.498	33406.54
658.849	33494.67
659.2	33460.32
659.551	33269.82
659.902	33551.17
660.253	33462.58
660.604	33423.03
660.955	33199.99
661.306	33274.79
661.656	33190.27
662.007	33152.53
662.358	33270.27
662.708	33233.43
663.059	33161.57
663.409	33026.43
663.76	33208.35
664.11	33075.7
664.461	33097.17
664.811	33152.76
665.161	33094.91
665.511	32818.08
665.862	33065.08
666.212	33011.07
666.562	33037.96
666.912	32909.6
667.262	33028.02
667.612	32892.65
667.962	32944.18
668.312	32876.83
668.662	32910.73
669.011	32931.3
669.361	32820.34
669.711	32911.63
670.06	32786.89
670.41	32863.95
670.76	32728.14
671.109	32813.33
671.459	32786.67
671.808	32553.68
672.157	32631.19
672.507	32491.31
672.856	32489.72
673.205	32573.34
673.554	32614.69
673.904	32462.15
674.253	32582.83
674.602	32546.9
674.951	32024.2
675.3	31904.43
675.649	32327.47
675.998	32297.19
676.346	32303.74
676.695	32331.99
677.044	31910.53
677.393	32140.13
677.741	32175.16
678.09	32049.96
678.438	31925.45
678.787	32041.83
679.135	32056.06
679.484	31849.52
679.832	32024.43
680.181	31866.01
680.529	31979
680.877	31760.03
681.225	31779.01
681.573	31906.46
681.922	31787.6
682.27	31746.47
682.618	31830.99
682.966	31750.08
683.314	31776.07
683.661	31549.41
684.009	31570.43
684.357	31346.03
684.705	31537.89
685.053	31439.13
685.4	31449.53
685.748	31255.86
686.095	31252.02
686.443	31134.96
686.79	31098.57
687.138	31000.27
687.485	30915.53
687.832	30846.83
688.18	30680.51
688.527	30697.91
688.874	30675.54
689.221	30687.74
689.568	30599.83
689.915	30433.06
690.262	30325.04
690.609	30320.06
690.956	30249.33
691.303	30213.4
691.65	30278.26
691.997	30152.16
692.344	29809.57
692.69	29841.66
693.037	29830.59
693.383	29750.59
693.73	29879.4
694.077	29698.61
694.423	29627.2
694.769	29620.42
695.116	29474.21
695.462	29502.46
695.808	29357.6
696.155	29324.16
696.501	29169.36
696.847	29069.93
697.193	28990.38
697.539	29108.57
697.885	28862.25
698.231	28653.22
698.577	28790.39
698.923	28787.45
699.269	28637.17
699.614	28425.42
699.96	28383.17
700.306	28468.81
700.651	28357.86
700.997	28184.75
701.342	28158.99
701.688	28090.52
702.033	27957.64
702.379	27828.83
702.724	27749.06
703.069	27896.63
703.415	27533.02
703.76	27586.12
704.105	27585.22
704.45	27409.18
704.795	27175.51
705.14	27188.17
705.485	27210.77
705.83	27134.61
706.175	27069.98
706.52	27076.08
706.865	26989.3
707.209	26849.2
707.554	26860.95
707.899	26735.3
708.243	26749.76
708.588	26633.83
708.932	26504.8
709.277	26466.83
709.621	26468.64
709.966	26310
710.31	26430.68
710.654	26188.65
710.998	26237.23
711.342	26341.19
711.687	26162.43
712.031	26016
712.375	25961.53
712.719	25995.88
713.063	25871.37
713.407	25937.13
713.75	25844.48
714.094	25875.44
714.438	25809.22
714.782	25661.43
715.125	25481.77
715.469	25570.36
715.812	25433.41
716.156	25249.69
716.499	25390.02
716.843	25247.2
717.186	25281.78
717.53	25258.05
717.873	25251.72
718.216	25138.96
718.559	25090.82
718.902	24887.44
719.246	24907.78
719.589	24917.49
719.932	24778.97
720.275	24829.36
720.617	24788.91
720.96	24762.7
721.303	24739.19
721.646	24735.58
721.989	24568.35
722.331	24630.72
722.674	24543.95
723.016	24663.04
723.359	24622.81
723.701	24602.47
724.044	24409.71
724.386	24272.77
724.729	24393.89
725.071	24355.02
725.413	24305.76
725.755	24330.62
726.097	24146.67
726.439	24063.51
726.782	24155.03
727.124	24174.46
727.465	24040.91
727.807	24092.21
728.149	24046.11
728.491	23911.65
728.833	23896.5
729.175	23790.97
729.516	23691.54
729.858	23734.02
730.199	23735.38
730.541	23688.15
730.882	23689.96
731.224	23663.29
731.565	23534.03
731.906	23485.22
732.248	23615.38
732.589	23480.47
732.93	23392.79
733.271	23424.88
733.612	23292
733.953	23404.54
734.294	23192.34
734.635	23135.85
734.976	23229.63
735.317	23063.31
735.658	23105.79
735.999	23105.34
736.339	23073.25
736.68	23128.62
737.021	22997.77
737.361	22998.45
737.702	23051.1
738.042	22913.48
738.383	22907.6
738.723	22960.03
739.063	22794.39
739.404	22962.52
739.744	22837.78
740.084	22800.94
740.424	22816.76
740.764	22694.73
741.104	22779.92
741.444	22570.21
741.784	22514.85
742.124	22609.31
742.464	22633.94
742.804	22571.34
743.143	22527.5
743.483	22592.36
743.823	22371.8
744.162	22459.71
744.502	22402.53
744.841	22343.1
745.181	22401.4
745.52	22311.01
745.86	22286.38
746.199	22201.63
746.538	22206.15
746.877	22148.75
747.216	22195.76
747.556	22046.61
747.895	22036.21
748.234	21952.15
748.573	21907.4
748.911	21950.34
749.25	21880.96
749.589	21760.52
749.928	21710.12
750.267	21707.86
750.605	21667.64
750.944	21534.31
751.283	21546.28
751.621	21563.68
751.96	21500.86
752.298	21364.59
752.636	21338.15
752.975	21309.45
753.313	21334.31
753.651	21334.99
753.989	21149.68
754.327	21207.76
754.666	21015.45
755.004	21113.53
755.342	21209.8
755.679	21031.27
756.017	20942.23
756.355	20934.55
756.693	20879.63
757.031	20869.01
757.368	20723.25
757.706	20712.18
758.044	20613.43
758.381	20633.54
758.719	20542.02
759.056	20539.98
759.394	20440.55
759.731	20250.72
760.068	20376.82
760.405	20178.18
760.743	20192.42
761.08	20216.83
761.417	19971.64
761.754	20039.66
762.091	19901.81
762.428	19953.33
762.765	19734.35
763.102	19811.87
763.438	19692.1
763.775	19644.19
764.112	19702.26
764.449	19630.18
764.785	19542.27
765.122	19397.64
765.458	19332.1
765.795	19343.4
766.131	19267.47
766.467	19229.51
766.804	19150.64
767.14	18934.38
767.476	19010.08
767.812	18949.29
768.148	18917.88
768.485	18839.69
768.821	18732.57
769.157	18738
769.492	18717.66
769.828	18683.08
770.164	18427.27
770.5	18453.26
770.836	18426.59
771.171	18353.6
771.507	18356.76
771.842	18204.22
772.178	18125.36
772.513	18196.99
772.849	18079.26
773.184	17975.98
773.519	17990.9
773.855	17887.4
774.19	17747.97
774.525	17689.44
774.86	17655.31
775.195	17619.61
775.53	17540.51
775.865	17623
776.2	17377.81
776.535	17295.32
776.87	17281.31
777.205	17138.72
777.539	17091.26
777.874	17144.37
778.209	16956.12
778.543	16940.98
778.878	16855.33
779.212	16787.76
779.547	16675.68
779.881	16767.2
780.215	16672.74
780.55	16631.16
780.884	16492.18
781.218	16508.68
781.552	16416.02
781.886	16397.72
782.22	16304.84
782.554	16280.66
782.888	15996.6
783.222	16026.43
783.556	15955.24
783.889	15894.45
784.223	15771.29
784.557	15848.13
784.89	15864.63
785.224	15819.2
785.557	15588.25
785.891	15594.8
786.224	15535.59
786.558	15531.98
786.891	15461.7
787.224	15328.82
787.557	15323.17
787.891	15403.17
788.224	15270.29
788.557	15258.77
788.89	15161.59
789.223	15186
789.556	15000.69
789.888	14981.48
790.221	14964.31
790.554	14904.88
790.887	14877.76
791.219	14776.52
791.552	14856.74
791.884	14649.06
792.217	14546.02
792.549	14604.77
792.882	14472.8
793.214	14390.54
793.546	14400.71
793.879	14355.51
794.211	14299.47
794.543	14374.49
794.875	14323.2
795.207	14326.59
795.539	14255.63
795.871	14197.32
796.203	13984.45
796.535	13916.65
796.867	13951.23
797.198	13903.55
797.53	13918.46
797.862	13882.98
798.193	13785.13
798.525	13705.13
798.856	13731.35
799.188	13587.85
799.519	13525.48
799.85	13512.14
800.182	13448.64
800.513	13417.91
800.844	13419.94
801.175	13453.84
801.506	13381.07
801.837	13325.26
802.168	13215.2
802.499	13236.22
802.83	13282.77
803.161	13090.46
803.491	13190.12
803.822	13060.41
804.153	13033.97
804.483	12936.11
804.814	12874.2
805.145	12950.13
805.475	12848.89
805.805	12895.44
806.136	12867.64
806.466	12834.2
806.796	12776.8
807.126	12649.12
807.457	12582.23
807.787	12645.95
808.117	12609.8
808.447	12588.78
808.777	12587.42
809.107	12483.47
809.436	12466.97
809.766	12417.48
810.096	12419.97
810.426	12354.89
810.755	12290.71
811.085	12273.99
811.414	12228.34
811.744	12188.56
812.073	12148.34
812.403	12162.58
812.732	12100.43
813.061	12067.89
813.39	11942.47
813.719	11987.67
814.049	11991.73
814.378	11997.16
814.707	11927.1
815.036	11944.28
815.365	11834.67
815.693	11808.69
816.022	11762.13
816.351	11721.46
816.68	11660.89
817.008	11709.03
817.337	11617.51
817.665	11582.03
817.994	11647.79
818.322	11570.73
818.651	11522.37
818.979	11505.64
819.307	11483.05
819.636	11409.6
819.964	11424.29
820.292	11455.93
820.62	11400.34
820.948	11412.76
821.276	11499.99
821.604	11394.01
821.932	11389.49
822.259	11460.9
822.587	11441.24
822.915	11328.47
823.243	11444.63
823.57	11397.85
823.898	11425.19
824.225	11322.37
824.553	11345.2
824.88	11400.56
825.207	11459.32
825.535	11401.92
825.862	11394.46
826.189	11291.19
826.516	11453.67
826.843	11430.84
827.17	11503.38
827.497	11395.82
827.824	11400.56
828.151	11408.25
828.478	11321.92
828.805	11458.64
829.131	11369.38
829.458	11374.35
829.785	11354.01
830.111	11375.03
830.438	11383.16
830.764	11316.27
831.09	11346.55
831.417	11284.41
831.743	11339.09
832.069	11354.01
832.395	11320.79
832.722	11334.12
833.048	11208.48
833.374	11276.95
833.7	11266.78
834.026	11228.81
834.351	11281.69
834.677	11234.46
835.003	11190.62
835.329	11170.96
835.654	11205.31
835.98	11131.19
836.306	11186.1
836.631	11128.7
836.956	11190.85
837.282	11175.48
837.607	11221.58
837.932	11040.8
838.258	11033.79
838.583	11033.57
838.908	11019.55
839.233	11021.81
839.558	11010.06
839.883	11028.82
840.208	10946.56
840.533	11021.59
840.858	10984.53
841.182	10960.12
841.507	10974.36
841.832	10878.99
842.156	10861.37
842.481	10895.94
842.805	10893.46
843.13	10817.53
843.454	10841.48
843.778	10755.16
844.103	10764.87
844.427	10721.71
844.751	10704.99
845.075	10722.84
845.399	10618.66
845.723	10598.55
846.047	10611.66
846.371	10555.84
846.695	10518.55
847.019	10423.86
847.343	10388.16
847.666	10370.08
847.99	10256.86
848.313	10308.39
848.637	10189.75
848.96	10211.89
849.284	10118.79
849.607	10073.59
849.931	10028.17
850.254	10034.04
850.577	9953.37
850.9	9831.11
851.223	9780.72
851.546	9765.12
851.869	9705.01
852.192	9756.09
852.515	9741.17
852.838	9671.34
853.161	9641.74
853.483	9621.85
853.806	9642.19
854.129	9557.9
854.451	9596.99
854.774	9421.4
855.096	9460.73
855.419	9401.97
855.741	9407.17
856.063	9334.18
856.385	9349.54
856.708	9304.57
857.03	9310.22
857.352	9328.75
857.674	9270.67
857.996	9284.69
858.318	9161.52
858.64	9167.85
858.961	9216.89
859.283	9177.34
859.605	9108.42
859.926	9140.73
860.248	9137.34
860.57	8946.16
860.891	9086.05
861.212	9019.61
861.534	9069.55
861.855	8918.37
862.176	8952.04
862.498	8993.39
862.819	8990.68
863.14	8877.01
863.461	8880.63
863.782	8847.63
864.103	8805.15
864.424	8811.93
864.745	8896.45
865.065	8784.13
865.386	8740.52
865.707	8803.57
866.027	8807.86
866.348	8730.58
866.668	8770.12
866.989	8692.84
867.309	8651.71
867.63	8695.77
867.95	8708.88
868.27	8624.59
868.59	8664.14
868.91	8553.86
869.23	8591.6
869.55	8574.42
869.87	8621.2
870.19	8560.18
870.51	8507.08
870.83	8550.47
871.15	8499.62
871.469	8514.99
871.789	8498.72
872.109	8439.28
872.428	8486.97
872.748	8488.55
873.067	8472.73
873.386	8469.34
873.706	8463.92
874.025	8315.45
874.344	8355.67
874.663	8350.25
874.982	8329
875.301	8392.05
875.62	8291.72
875.939	8282.68
876.258	8325.16
876.577	8245.84
876.896	8306.63
877.214	8265.28
877.533	8236.13
877.852	8174.88
878.17	8218.05
878.489	8209.69
878.807	8192.06
879.125	8189.35
879.444	8158.39
879.762	8149.12
880.08	8067.09
880.398	8079.75
880.716	8107.54
881.034	8077.49
881.352	8057.37
881.67	8086.3
881.988	8093.3
882.306	8011.27
882.624	8021.22
882.941	7995.91
883.259	7933.31
883.577	7944.83
883.894	7931.95
884.212	7877.94
884.529	7914.1
884.846	7885.17
885.164	7849.92
885.481	7889.69
885.798	7864.61
886.115	7835.91
886.432	7783.03
886.75	7804.5
887.067	7735.12
887.383	7721.79
887.7	7757.49
888.017	7725.4
888.334	7699.42
888.651	7680.21
888.967	7610.6
889.284	7625.97
889.6	7531.51
889.917	7562.47
890.233	7590.49
890.55	7489.93
890.866	7518.63
891.182	7506.43
891.498	7464.17
891.815	7418.75
892.131	7445.64
892.447	7422.14
892.763	7381.23
893.079	7374.23
893.395	7362.48
893.71	7351.18
894.026	7246.77
894.342	7265.53
894.657	7266.21
894.973	7184.63
895.289	7196.83
895.604	7183.05
895.92	7204.29
896.235	7126.78
896.55	7078.64
896.865	7061.24
897.181	7062.6
897.496	7046.55
897.811	6988.7
898.126	6996.38
898.441	6926.33
898.756	6963.84
899.071	6908.02
899.386	6958.42
899.7	6871.64
900.015	6865.31
900.33	6741.48
900.644	6823.96
900.959	6832.77
901.273	6754.81
901.588	6716.62
901.902	6700.57
902.216	6637.52
902.531	6723.85
902.845	6632.78
903.159	6652.89
903.473	6572.89
903.787	6584.42
904.101	6537.19
904.415	6517.75
904.729	6503.06
905.042	6401.82
905.356	6460.8
905.67	6474.36
905.984	6416.29
906.297	6407.02
906.611	6346.46
906.924	6344.88
907.237	6277.31
907.551	6293.8
907.864	6267.82
908.177	6303.75
908.491	6211.09
908.804	6187.59
909.117	6182.62
909.43	6151.66
909.743	6063.53
910.056	6118.21
910.368	6058.1
910.681	5980.82
910.994	6026.47
911.307	6007.94
911.619	5896.75
911.932	5957.54
912.244	5889.07
912.557	5894.72
912.869	5857.43
913.181	5841.16
913.494	5825.34
913.806	5803.65
914.118	5790.09
914.43	5725.23
914.742	5732.91
915.054	5640.26
915.366	5732.69
915.678	5669.19
915.99	5678.9
916.302	5559.36
916.613	5579.25
916.925	5580.6
917.236	5574.95
917.548	5493.6
917.859	5525.24
918.171	5499.02
918.482	5458.35
918.794	5436.88
919.105	5392.36
919.416	5316.65
919.727	5374.05
920.038	5323.66
920.349	5323.89
920.66	5325.02
920.971	5280.27
921.282	5230.33
921.593	5253.38
921.903	5165.7
922.214	5211.35
922.525	5128.41
922.835	5118.24
923.146	5065.81
923.456	5082.31
923.767	5044.12
924.077	5071.24
924.387	5065.36
924.697	4955.53
925.008	5034.4
925.318	4953.95
925.628	4960.96
925.938	4962.09
926.248	4895.42
926.558	4867.63
926.867	4883.45
927.177	4857.68
927.487	4851.58
927.796	4798.02
928.106	4751.47
928.416	4765.26
928.725	4775.65
929.034	4738.36
929.344	4706.05
929.653	4709.89
929.962	4692.26
930.271	4662.43
930.581	4644.36
930.89	4625.82
931.199	4572.27
931.508	4579.72
931.817	4548.31
932.125	4560.97
932.434	4548.99
932.743	4492.95
933.051	4477.81
933.36	4467.86
933.669	4429.67
933.977	4428.09
934.286	4433.06
934.594	4376.34
934.902	4378.6
935.21	4371.82
935.519	4338.15
935.827	4324.36
936.135	4278.26
936.443	4239.17
936.751	4241.65
937.059	4293.4
937.367	4195.55
937.674	4275.55
937.982	4236.46
938.29	4205.04
938.597	4168.21
938.905	4123.24
939.213	4105.16
939.52	4116.69
939.827	4131.37
940.135	4067.87
940.442	4055.9
940.749	4031.49
941.056	4013.86
941.363	4031.04
941.67	4025.39
941.977	4013.64
942.284	3947.2
942.591	3911.72
942.898	3907.65
943.205	3941.1
943.511	3906.3
943.818	3863.58
944.125	3872.62
944.431	3860.2
944.738	3843.02
945.044	3867.88
945.35	3795.34
945.657	3794.43
945.963	3782.01
946.269	3760.31
946.575	3761.21
946.881	3706.3
947.187	3703.59
947.493	3668.11
947.799	3706.3
948.105	3674.44
948.41	3644.38
948.716	3688.22
949.022	3625.85
949.327	3633.99
949.633	3539.07
949.938	3583.82
950.244	3611.16
950.549	3577.49
950.854	3544.5
951.16	3547.43
951.465	3506.98
951.77	3490.26
952.075	3469.02
952.38	3442.35
952.685	3489.13
952.99	3439.19
953.294	3434.22
953.599	3407.55
953.904	3387.21
954.209	3379.76
954.513	3375.24
954.818	3345.63
955.122	3352.41
955.426	3320.1
955.731	3303.6
956.035	3266.76
956.339	3286.2
956.643	3245.52
956.948	3244.84
957.252	3175.47
957.556	3236.48
957.86	3175.47
958.163	3191.29
958.467	3182.25
958.771	3163.94
959.075	3138.86
959.378	3138.18
959.682	3125.75
959.985	3115.36
960.289	3085.75
960.592	3074.68
960.896	3094.34
961.199	3041.91
961.502	3033.55
961.805	3038.75
962.108	2990.61
962.411	3004.17
962.714	2991.29
963.017	2935.02
963.32	2951.52
963.623	2945.64
963.926	2935.47
964.228	2930.95
964.531	2928.02
964.833	2911.97
965.136	2875.36
965.438	2880.56
965.741	2868.13
966.043	2895.93
966.345	2831.3
966.648	2817.51
966.95	2828.36
967.252	2824.29
967.554	2794.69
967.856	2761.47
968.158	2777.29
968.46	2784.07
968.761	2743.61
969.063	2758.3
969.365	2721.69
969.666	2688.25
969.968	2695.71
970.269	2681.47
970.571	2686.89
970.872	2671.75
971.174	2643.05
971.475	2659.77
971.776	2633.56
972.077	2599.66
972.378	2628.59
972.679	2609.38
972.98	2575.26
973.281	2567.57
973.582	2580
973.883	2579.1
974.183	2524.86
974.484	2510.63
974.785	2540.46
975.085	2532.09
975.386	2516.28
975.686	2516.5
975.986	2488.93
976.287	2459.33
976.587	2443.51
976.887	2470.85
977.187	2460.01
977.487	2474.02
977.787	2427.46
978.087	2447.35
978.387	2426.33
978.687	2408.03
978.987	2402.61
979.286	2364.87
979.586	2351.99
979.885	2353.79
980.185	2323.51
980.484	2335.94
980.784	2326.45
981.083	2323.29
981.382	2304.3
981.682	2305.43
981.981	2255.94
982.28	2271.08
982.579	2248.26
982.878	2214.14
983.177	2231.54
983.475	2238.54
983.774	2216.17
984.073	2224.76
984.372	2189.28
984.67	2209.17
984.969	2171.43
985.267	2202.39
985.566	2202.84
985.864	2124.65
986.162	2154.48
986.461	2110.64
986.759	2128.04
987.057	2104.99
987.355	2122.16
987.653	2082.39
987.951	2088.49
988.249	2057.98
988.547	2084.42
988.844	2036.29
989.142	2040.81
989.44	2050.75
989.737	2041.71
990.035	1983.41
990.332	2014.59
990.63	1984.99
990.927	2032.9
991.224	2013.69
991.521	1978.66
991.819	1959.23
992.116	1968.72
992.413	1931.43
992.71	1945.67
993.006	1945.22
993.303	1955.84
993.6	1937.76
993.897	1926.91
994.193	1922.62
994.49	1896.18
994.787	1902.28
995.083	1865.45
995.379	1854.6
995.676	1879.23
995.972	1849.17
996.268	1882.39
996.565	1867.48
996.861	1848.04
997.157	1815.28
997.453	1813.92
997.749	1792.9
998.044	1775.28
998.34	1768.05
998.636	1773.24
998.932	1769.63
999.227	1738.67
999.523	1738.22
999.818	1750.42
1000.114	1706.81
1000.409	1728.05
1000.704	1719.01
1001	1709.29
1001.295	1711.33
1001.59	1667.03
1001.885	1691.21
1002.18	1667.26
1002.475	1673.13
1002.77	1637.65
1003.065	1637.43
1003.359	1632.68
1003.654	1616.86
1003.949	1635.39
1004.243	1650.54
1004.538	1624.1
1004.832	1625
1005.127	1595.17
1005.421	1585.68
1005.715	1583.64
1006.009	1564.44
1006.304	1561.27
1006.598	1538.22
1006.892	1557.66
1007.186	1533.25
1007.48	1537.77
1007.773	1504.55
1008.067	1504.55
1008.361	1463.42
1008.655	1469.98
1008.948	1491.67
1009.242	1465.91
1009.535	1466.13
1009.829	1455.51
1010.122	1435.85
1010.415	1447.83
1010.708	1432.46
1011.001	1448.51
1011.295	1419.58
1011.588	1428.85
1011.881	1413.71
1012.173	1397.21
1012.466	1397.89
1012.759	1363.09
1013.052	1406.7
1013.344	1356.76
1013.637	1330.09
1013.93	1334.16
1014.222	1336.65
1014.514	1333.03
1014.807	1305.01
1015.099	1313.14
1015.391	1309.53
1015.683	1295.06
1015.976	1275.18
1016.268	1279.47
1016.56	1289.64
1016.851	1283.31
1017.143	1259.13
1017.435	1265.91
1017.727	1264.33
1018.018	1236.54
1018.31	1233.37
1018.602	1249.42
1018.893	1221.85
1019.185	1220.72
1019.476	1222.07
1019.767	1197.67
1020.058	1212.13
1020.35	1192.02
1020.641	1177.55
1020.932	1173.94
1021.223	1170.32
1021.514	1154.73
1021.804	1162.41
1022.095	1142.07
1022.386	1112.7
1022.677	1113.83
1022.967	1108.63
1023.258	1109.08
1023.548	1093.26
1023.839	1088.52
1024.129	1109.53
1024.419	1084.67
1024.709	1088.74
1025	1093.71
1025.29	1081.29
1025.58	1077.9
1025.87	1046.48
1026.16	1028.86
1026.449	1067.95
1026.739	1034.28
1027.029	1019.37
1027.319	1037.9
1027.608	994.73
1027.898	1014.85
1028.187	986.37
1028.477	1025.69
1028.766	1004.23
1029.055	980.5
1029.344	990.67
1029.634	964.9
1029.923	994.06
1030.212	986.82
1030.501	977.11
1030.79	955.41
1031.078	945.24
1031.367	952.7
1031.656	957.9
1031.945	921.97
1032.233	935.75
1032.522	912.93
1032.81	909.76
1033.099	890.78
1033.387	913.83
1033.675	877
1033.963	863.44
1034.251	875.41
1034.54	896.21
1034.828	872.03
1035.116	867.05
1035.403	874.51
1035.691	878.8
1035.979	875.87
1036.267	849.2
1036.554	844
1036.842	840.61
1037.129	827.28
1037.417	836.55
1037.704	820.28
1037.992	798.35
1038.279	831.8
1038.566	791.58
1038.853	791.58
1039.14	791.58
