Data from foam1_polythene_foam_FLMS001491_00020.txt Node
Date: Wed Feb 08 10:54:28 GMT 2017
User: dcchb
Spectrometer: FLMS00149
Trigger mode: 0
Integration Time (sec): 2.000000E-2
Scans to average: 10
Electric dark correction enabled: true
Nonlinearity correction enabled: false
Boxcar width: 0
XAxis mode: Wavelengths
Number of Pixels in Spectrum: 2048
>>>>>Begin Spectral Data<<<<<
341.393	-2.05
341.776	-2.05
342.16	-2.05
342.543	-62.61
342.927	-75.72
343.31	-65.78
343.693	-59
344.077	-69.39
344.46	-61.48
344.843	-44.08
345.226	-38.66
345.61	-25.55
345.993	-18.77
346.376	8.8
346.759	3.38
347.142	28.91
347.525	46.99
347.908	31.62
348.291	58.52
348.674	90.38
349.057	114.11
349.44	143.03
349.823	138.06
350.206	167.89
350.588	177.38
350.971	190.49
351.354	228
351.737	234.33
352.119	230.71
352.502	263.26
352.884	248.11
353.267	277.27
353.65	277.27
354.032	275.23
354.414	295.8
354.797	308.45
355.179	312.52
355.562	299.19
355.944	310.03
356.326	331.28
356.709	342.58
357.091	318.85
357.473	321.79
357.855	319.75
358.238	309.13
358.62	319.3
359.002	322.92
359.384	336.47
359.766	333.31
360.148	298.51
360.53	329.69
360.912	319.75
361.294	346.64
361.676	312.97
362.057	314.78
362.439	320.2
362.821	331.05
363.203	305.29
363.584	321.33
363.966	326.76
364.348	329.92
364.729	309.58
365.111	312.52
365.493	315.46
365.874	298.96
366.256	304.16
366.637	299.19
367.019	315.46
367.4	316.14
367.781	282.01
368.163	272.3
368.544	299.41
368.925	294.44
369.306	308.45
369.688	308.68
370.069	287.66
370.45	288.57
370.831	319.07
371.212	313.42
371.593	310.26
371.974	310.49
372.355	307.77
372.736	300.09
373.117	314.33
373.498	318.62
373.879	317.04
374.26	312.29
374.641	291.96
375.021	297.61
375.402	319.07
375.783	304.16
376.163	306.64
376.544	314.55
376.925	297.15
377.305	315.91
377.686	314.78
378.066	329.92
378.447	333.76
378.827	311.16
379.208	320.66
379.588	324.72
379.968	328.34
380.349	322.92
380.729	319.98
381.109	310.03
381.489	336.7
381.87	347.32
382.25	327.66
382.63	325.4
383.01	324.72
383.39	340.09
383.77	338.73
384.15	339.64
384.53	332.41
384.91	331.5
385.29	346.19
385.67	313.2
386.049	352.97
386.429	333.08
386.809	342.58
387.189	331.5
387.568	344.38
387.948	330.15
388.328	350.94
388.707	341.45
389.087	325.85
389.466	347.1
389.846	343.93
390.225	365.63
390.605	338.28
390.984	343.25
391.363	350.03
391.743	357.94
392.122	340.77
392.501	360.43
392.881	368.56
393.26	353.2
393.639	358.39
394.018	338.51
394.397	348.45
394.776	366.76
395.155	375.8
395.534	385.51
395.913	373.99
396.292	361.56
396.671	387.09
397.05	358.85
397.429	376.93
397.808	379.18
398.186	384.61
398.565	382.12
398.944	361.11
399.323	393.65
399.701	364.72
400.08	369.24
400.458	371.05
400.837	394.33
401.215	357.49
401.594	393.65
401.972	395
402.351	389.58
402.729	402.69
403.107	387.77
403.486	410.82
403.864	398.39
404.242	373.54
404.62	395.46
404.999	400.88
405.377	408.11
405.755	382.12
406.133	376.02
406.511	394.78
406.889	413.08
407.267	418.73
407.645	417.38
408.023	419.41
408.401	429.58
408.779	410.14
409.156	414.44
409.534	431.84
409.912	416.47
410.29	422.57
410.667	422.35
411.045	416.92
411.422	437.26
411.8	445.85
412.178	428.9
412.555	425.29
412.933	421.9
413.31	442.91
413.687	447.88
414.065	432.97
414.442	445.85
414.819	432.06
415.197	436.58
415.574	464.15
415.951	447.21
416.328	466.19
416.705	454.89
417.082	458.96
417.46	458.96
417.837	461.67
418.214	486.98
418.591	456.7
418.967	485.62
419.344	470.26
419.721	473.65
420.098	466.19
420.475	472.29
420.852	491.72
421.228	470.26
421.605	500.54
421.982	476.58
422.358	521.55
422.735	505.28
423.111	523.59
423.488	509.58
423.864	492.63
424.241	499.41
424.617	510.71
424.994	516.13
425.37	507.32
425.746	525.4
426.123	513.19
426.499	529.92
426.875	515
427.251	523.14
427.627	516.36
428.003	537.82
428.379	530.82
428.756	547.77
429.132	549.8
429.507	565.62
429.883	529.69
430.259	552.29
430.635	559.07
431.011	574.43
431.387	573.76
431.763	571.72
432.138	575.56
432.514	574.89
432.89	578.95
433.265	567.43
433.641	594.77
434.016	600.2
434.392	606.98
434.767	599.07
435.143	620.31
435.518	643.36
435.894	637.94
436.269	615.11
436.644	625.28
437.02	620.99
437.395	619.18
437.77	637.94
438.145	651.49
438.52	611.04
438.895	640.42
439.271	647.88
439.646	673.87
440.021	675
440.395	686.52
440.77	662.57
441.145	689.01
441.52	684.49
441.895	688.1
442.27	703.02
442.645	683.81
443.019	694.2
443.394	723.13
443.769	703.7
444.143	707.09
444.518	721.32
444.892	723.36
445.267	725.39
445.641	741.44
446.016	740.08
446.39	743.92
446.764	754.54
447.139	747.08
447.513	745.95
447.887	760.87
448.262	755.22
448.636	774.2
449.01	767.2
449.384	788.44
449.758	762.9
450.132	783.24
450.506	794.77
450.88	804.94
451.254	785.05
451.628	824.37
452.002	809.68
452.376	830.25
452.75	842.68
453.123	821.21
453.497	839.74
453.871	832.96
454.244	888.32
454.618	855.33
454.992	874.31
455.365	859.17
455.739	861.43
456.112	880.64
456.486	887.42
456.859	873.18
457.232	867.08
457.606	868.66
457.979	870.7
458.352	918.83
458.725	904.14
459.099	904.14
459.472	931.26
459.845	923.35
460.218	919.74
460.591	902.79
460.964	928.32
461.337	939.62
461.71	959.73
462.083	926.97
462.456	921.09
462.829	945.95
463.201	940.07
463.574	963.58
463.947	943.24
464.32	964.25
464.692	984.82
465.065	1008.09
465.438	981.43
465.81	982.11
466.183	996.12
466.555	992.05
466.928	1022.33
467.3	1027.08
467.672	1032.73
468.045	1018.26
468.417	1058.49
468.789	1075.89
469.161	1054.65
469.534	1105.27
469.906	1103.91
470.278	1108.43
470.65	1089.9
471.022	1131.71
471.394	1135.55
471.766	1092.16
472.138	1139.62
472.51	1144.81
472.882	1141.88
473.253	1164.25
473.625	1199.28
473.997	1180.29
474.369	1188.2
474.74	1190.46
475.112	1229.11
475.484	1230.24
475.855	1254.87
476.227	1267.07
476.598	1287.64
476.97	1290.8
477.341	1312.95
477.713	1293.51
478.084	1336.67
478.455	1340.29
478.827	1358.37
479.198	1422.77
479.569	1362.44
479.94	1418.93
480.311	1424.58
480.682	1418.71
481.053	1470.46
481.424	1486.5
481.795	1509.55
482.166	1498.48
482.537	1523.79
482.908	1551.13
483.279	1552.71
483.65	1584.8
484.021	1604.01
484.391	1633.62
484.762	1653.05
485.133	1675.87
485.503	1707.96
485.874	1701.41
486.244	1699.38
486.615	1700.28
486.985	1739.6
487.356	1759.94
487.726	1787.74
488.097	1818.02
488.467	1810.33
488.837	1820.5
489.207	1869.54
489.578	1874.96
489.948	1902.08
490.318	1911.12
490.688	1943.89
491.058	1968.07
491.428	2007.39
491.798	1992.93
492.168	2060.72
492.538	1992.93
492.908	2025.02
493.278	2070.67
493.648	2051.01
494.017	2086.94
494.387	2138.91
494.757	2091.46
495.126	2135.97
495.496	2149.31
495.866	2172.58
496.235	2193.83
496.605	2205.58
496.974	2184.79
497.344	2245.12
497.713	2231.11
498.082	2235.86
498.452	2278.57
498.821	2303.65
499.19	2296.2
499.559	2312.92
499.928	2335.74
500.298	2378.45
500.667	2338.23
501.036	2379.36
501.405	2374.39
501.774	2392.24
502.143	2380.26
502.512	2443.99
502.88	2440.6
503.249	2433.37
503.618	2457.55
503.987	2493.48
504.356	2487.38
504.724	2498.9
505.093	2539.81
505.462	2540.48
505.83	2575.29
506.199	2601.73
506.567	2583.65
506.936	2596.98
507.304	2580.71
507.672	2638.33
508.041	2647.83
508.409	2633.36
508.777	2675.4
509.145	2726.69
509.514	2726.92
509.882	2700.48
510.25	2718.33
510.618	2718.33
510.986	2757.2
511.354	2740.25
511.722	2812.34
512.09	2809.18
512.458	2811.66
512.826	2843.75
513.193	2855.5
513.561	2871.77
513.929	2839.46
514.297	2925.78
514.664	2949.06
515.032	2955.61
515.4	2975.27
515.767	2966.91
516.135	2993.81
516.502	3002.39
516.869	3041.94
517.237	3081.49
517.604	3059.57
517.972	3106.8
518.339	3123.97
518.706	3112.45
519.073	3128.49
519.44	3173.69
519.808	3202.39
520.175	3162.61
520.542	3190.64
520.909	3220.69
521.276	3233.8
521.643	3305.44
522.009	3286.68
522.376	3339.56
522.743	3344.3
523.11	3331.65
523.477	3377.52
523.843	3431.76
524.21	3406.45
524.577	3464.98
524.943	3469.95
525.31	3513.34
525.676	3512.21
526.043	3599.44
526.409	3587.46
526.776	3602.83
527.142	3583.85
527.508	3615.94
527.874	3664.75
528.241	3686.22
528.607	3703.39
528.973	3723.73
529.339	3736.38
529.705	3774.58
530.071	3823.84
530.437	3810.73
530.803	3835.14
531.169	3827.68
531.535	3857.29
531.901	3838.08
532.267	3909.04
532.632	3925.31
532.998	3885.08
533.364	3922.14
533.73	3924.4
534.095	3982.71
534.461	3958.53
534.826	4044.63
535.192	4013.89
535.557	4092.76
535.923	4071.07
536.288	4053.66
536.653	4059.99
537.019	4093.89
537.384	4064.29
537.749	4120.56
538.114	4130.5
538.479	4131.4
538.845	4207.56
539.21	4188.35
539.575	4210.27
539.94	4202.36
540.305	4203.94
540.67	4224.51
541.034	4261.34
541.399	4269.93
541.764	4274.45
542.129	4338.63
542.494	4370.94
542.858	4374.79
543.223	4359.87
543.587	4392.41
543.952	4338.85
544.316	4376.14
544.681	4406.65
545.045	4385.86
545.41	4445.52
545.774	4458.85
546.138	4485.97
546.503	4502.92
546.867	4502.47
547.231	4554.67
547.595	4528.68
547.959	4568.91
548.324	4584.72
548.688	4588.79
549.052	4640.32
549.416	4599.41
549.779	4627.66
550.143	4649.13
550.507	4662.46
550.871	4719.64
551.235	4666.76
551.599	4698.62
551.962	4688.22
552.326	4674.89
552.689	4770.48
553.053	4794.21
553.417	4823.81
553.78	4909.69
554.143	4873.98
554.507	4862.91
554.87	4889.35
555.234	4895.45
555.597	4891.38
555.96	4911.27
556.323	4979.74
556.686	4946.97
557.05	4976.8
557.413	5024.94
557.776	5025.16
558.139	5076.01
558.502	5083.69
558.865	5099.51
559.228	5116.46
559.59	5116.46
559.953	5156.01
560.316	5165.73
560.679	5186.06
561.041	5299.73
561.404	5291.6
561.767	5329.34
562.129	5333.63
562.492	5377.02
562.854	5334.76
563.217	5326.4
563.579	5355.55
563.941	5424.48
564.304	5506.73
564.666	5504.7
565.028	5540.86
565.39	5575.21
565.753	5601.42
566.115	5624.24
566.477	5634.87
566.839	5653.17
567.201	5686.16
567.563	5703.79
567.925	5701.76
568.287	5681.87
568.648	5718.03
569.01	5762.32
569.372	5879.61
569.734	5756.44
570.095	5826.5
570.457	5866.27
570.819	5893.39
571.18	5886.16
571.542	5918.47
571.903	5894.52
572.265	5891.13
572.626	6029.43
572.987	5915.76
573.349	6008.42
573.71	6063.78
574.071	6054.52
574.432	6056.55
574.794	6098.81
575.155	6077.79
575.516	6090.22
575.877	6099.71
576.238	6082.09
576.599	6184.23
576.96	6132.03
577.32	6186.94
577.681	6186.72
578.042	6217.9
578.403	6210.9
578.763	6232.82
579.124	6201.63
579.485	6231.23
579.845	6219.48
580.206	6220.61
580.566	6205.92
580.927	6257.22
581.287	6340.61
581.648	6316.43
582.008	6342.64
582.368	6287.73
582.728	6304
583.089	6293.61
583.449	6259.71
583.809	6281.63
584.169	6317.56
584.529	6302.42
584.889	6327.96
585.249	6347.62
585.609	6291.8
585.969	6340.84
586.329	6320.5
586.688	6305.58
587.048	6314.17
587.408	6257.67
587.768	6288.63
588.127	6303.32
588.487	6264.45
588.846	6351.46
589.206	6298.58
589.565	6367.28
589.925	6364.34
590.284	6346.26
590.643	6382.19
591.003	6329.76
591.362	6340.38
591.721	6338.35
592.08	6363.43
592.44	6388.52
592.799	6382.19
593.158	6384.45
593.517	6384
593.876	6290.44
594.235	6326.37
594.593	6407.05
594.952	6435.3
595.311	6384.22
595.67	6389.42
596.029	6447.05
596.387	6431.23
596.746	6441.62
597.104	6399.82
597.463	6402.98
597.822	6401.17
598.18	6332.93
598.538	6441.62
598.897	6475.75
599.255	6383.77
599.613	6493.6
599.972	6441.85
600.33	6468.97
600.688	6438.91
601.046	6434.62
601.404	6458.35
601.762	6471.45
602.12	6455.86
602.478	6481.85
602.836	6464.45
603.194	6430.78
603.552	6458.35
603.91	6436.65
604.268	6488.18
604.625	6534.5
604.983	6499.25
605.341	6488.4
605.698	6511.91
606.056	6481.85
606.413	6530.44
606.771	6512.13
607.128	6521.4
607.485	6508.97
607.843	6540.15
608.2	6510.55
608.557	6573.15
608.914	6529.31
609.272	6557.55
609.629	6514.84
609.986	6568.17
610.343	6582.64
610.7	6573.82
611.057	6607.72
611.414	6611.11
611.771	6532.24
612.127	6593.94
612.484	6632.13
612.841	6645.69
613.198	6637.1
613.554	6589.42
613.911	6695.4
614.267	6690.21
614.624	6630.32
614.98	6613.15
615.337	6731.56
615.693	6684.78
616.05	6676.65
616.406	6696.08
616.762	6619.25
617.118	6665.8
617.475	6607.95
617.831	6664.44
618.187	6677.78
618.543	6678.68
618.899	6711.67
619.255	6697.44
619.611	6725.01
619.967	6678.68
620.323	6721.17
620.678	6681.62
621.034	6694.05
621.39	6639.81
621.746	6669.87
622.101	6723.42
622.457	6695.86
622.812	6721.39
623.168	6644.33
623.523	6743.76
623.879	6733.37
624.234	6661.51
624.589	6749.86
624.945	6693.37
625.3	6682.52
625.655	6671.67
626.01	6673.26
626.365	6698.57
626.72	6682.75
627.075	6658.34
627.43	6647.04
627.785	6682.52
628.14	6718
628.495	6689.3
628.85	6654.5
629.205	6598
629.559	6711
629.914	6587.16
630.269	6629.19
630.623	6623.77
630.978	6618.34
631.332	6628.29
631.687	6617.21
632.041	6627.38
632.396	6648.4
632.75	6578.8
633.104	6639.36
633.459	6575.41
633.813	6574.28
634.167	6538.57
634.521	6571.11
634.875	6531.57
635.229	6549.19
635.583	6448.63
635.937	6466.48
636.291	6464
636.645	6504.45
636.999	6489.31
637.352	6538.8
637.706	6447.95
638.06	6471
638.413	6440.72
638.767	6441.62
639.121	6424
639.474	6407.95
639.828	6401.4
640.181	6395.3
640.534	6440.27
640.888	6432.81
641.241	6338.8
641.594	6384.22
641.947	6342.64
642.301	6319.37
642.654	6340.16
643.007	6406.15
643.36	6414.96
643.713	6327.28
644.066	6383.55
644.419	6334.28
644.771	6285.47
645.124	6068.07
645.477	6059.26
645.83	6106.04
646.182	6085.93
646.535	6122.08
646.888	6144.68
647.24	6149.43
647.593	6160.05
647.945	6161.18
648.298	6132.25
648.65	6157.56
649.002	6120.28
649.355	6203.44
649.707	6053.16
650.059	6024.01
650.411	6149.43
650.763	6099.71
651.115	6157.56
651.467	6146.72
651.819	6158.69
652.171	6137.23
652.523	6146.26
652.875	6134.29
653.227	6135.87
653.578	6116.21
653.93	6113.27
654.282	6087.74
654.633	6047.74
654.985	6118.24
655.337	6098.58
655.688	6056.32
656.039	6086.83
656.391	6032.82
656.742	6040.05
657.094	6056.78
657.445	6010.9
657.796	6034.4
658.147	6041.86
658.498	6053.39
658.849	6065.36
659.2	6050.22
659.551	6015.19
659.902	6048.87
660.253	6010.45
660.604	6035.76
660.955	5984.24
661.306	6009.32
661.656	5982.2
662.007	6042.31
662.358	5968.64
662.708	6008.19
663.059	6005.48
663.409	5961.64
663.76	6031.01
664.11	6063.1
664.461	6024.46
664.811	6000.73
665.161	5975.42
665.511	5968.64
665.862	5960.73
666.212	6000.96
666.562	6003.44
666.912	5949.21
667.262	5886.38
667.612	5918.02
667.962	5944.46
668.312	5947.4
668.662	5918.25
669.011	5860.17
669.361	5910.34
669.711	5900.85
670.06	5864.01
670.41	5952.82
670.76	5924.8
671.109	5965.48
671.459	5939.72
671.808	5898.59
672.157	5902.43
672.507	5859.04
672.856	5869.89
673.205	5917.57
673.554	5838.48
673.904	5851.58
674.253	5895.65
674.602	5877.8
674.951	5766.61
675.3	5785.37
675.649	5825.37
675.998	5854.52
676.346	5863.79
676.695	5883.67
677.044	5812.49
677.393	5810.91
677.741	5856.1
678.09	5861.75
678.438	5833.73
678.787	5850.23
679.135	5821.98
679.484	5683.68
679.832	5812.26
680.181	5743.11
680.529	5767.07
680.877	5785.6
681.225	5731.36
681.573	5802.77
681.922	5761.19
682.27	5750.57
682.618	5756.9
682.966	5741.08
683.314	5722.55
683.661	5681.19
684.009	5662.21
684.357	5670.57
684.705	5661.53
685.053	5627.18
685.4	5623.57
685.748	5532.72
686.095	5605.71
686.443	5553.06
686.79	5596.45
687.138	5582.44
687.485	5560.74
687.832	5563.23
688.18	5615.66
688.527	5538.15
688.874	5606.84
689.221	5499.73
689.568	5547.18
689.915	5469.67
690.262	5508.54
690.609	5480.52
690.956	5431.48
691.303	5468.32
691.65	5383.35
691.997	5428.77
692.344	5360.3
692.69	5395.55
693.037	5412.95
693.383	5347.42
693.73	5334.53
694.077	5412.95
694.423	5379.05
694.769	5348.09
695.116	5305.38
695.462	5335.89
695.808	5258.6
696.155	5252.05
696.501	5237.81
696.847	5250.47
697.193	5229.9
697.539	5229.23
697.885	5207.98
698.231	5168.66
698.577	5128.89
698.923	5191.94
699.269	5133.18
699.614	5176.12
699.96	5121.43
700.306	5097.93
700.651	5124.6
700.997	5118.95
701.342	5048.21
701.688	5066.75
702.033	5042.79
702.379	5005.73
702.724	5045.5
703.069	4993.75
703.415	5016.13
703.76	4951.04
704.105	4951.95
704.45	4959.18
704.795	4945.17
705.14	4910.82
705.485	4943.81
705.83	4949.91
706.175	4965.96
706.52	4967.09
706.865	4892.51
707.209	4912.4
707.554	4889.57
707.899	4885.51
708.243	4874.21
708.588	4860.88
708.932	4787.43
709.277	4807.77
709.621	4793.53
709.966	4734.55
710.31	4754.44
710.654	4738.84
710.998	4764.38
711.342	4780.2
711.687	4731.61
712.031	4737.71
712.375	4735.45
712.719	4777.49
713.063	4748.11
713.407	4728.45
713.75	4730.48
714.094	4723.48
714.438	4645.97
714.782	4679.64
715.125	4623.14
715.469	4659.75
715.812	4633.08
716.156	4589.7
716.499	4650.94
716.843	4593.09
717.186	4598.06
717.53	4628.79
717.873	4615.23
718.216	4626.08
718.559	4543.82
718.902	4627.43
719.246	4588.57
719.589	4561.45
719.932	4557.83
720.275	4533.2
720.617	4573.65
720.96	4526.42
721.303	4523.48
721.646	4514.67
721.989	4446.42
722.331	4422.02
722.674	4496.36
723.016	4473.99
723.359	4454.78
723.701	4490.94
724.044	4462.69
724.386	4445.07
724.729	4460.43
725.071	4436.25
725.413	4426.31
725.755	4506.31
726.097	4389.25
726.439	4423.15
726.782	4386.99
727.124	4408.23
727.465	4390.15
727.807	4370.94
728.149	4366.2
728.491	4333.43
728.833	4345.63
729.175	4304.96
729.516	4332.3
729.858	4337.95
730.199	4377.72
730.541	4330.49
730.882	4311.74
731.224	4331.85
731.565	4287.56
731.906	4335.24
732.248	4323.04
732.589	4323.49
732.93	4305.41
733.271	4282.81
733.612	4278.07
733.953	4297.95
734.294	4226.99
734.635	4238.74
734.976	4258.18
735.317	4261.57
735.658	4250.04
735.999	4229.03
736.339	4220.67
736.68	4227.67
737.021	4183.38
737.361	4185.41
737.702	4254.11
738.042	4223.83
738.383	4203.04
738.723	4254.34
739.063	4185.86
739.404	4207.11
739.744	4199.65
740.084	4208.24
740.424	4217.05
740.764	4201.68
741.104	4169.37
741.444	4154.45
741.784	4174.79
742.124	4145.19
742.464	4120.33
742.804	4130.05
743.143	4059.31
743.483	4102.48
743.823	4061.35
744.162	4078.97
744.502	4120.78
744.841	4123.49
745.181	4126.88
745.52	4068.58
745.86	4081.91
746.199	4095.7
746.538	4083.27
746.877	4076.04
747.216	4053.89
747.556	4068.13
747.895	4072.42
748.234	4050.5
748.573	4041.69
748.911	4041.46
749.25	4017.51
749.589	3995.36
749.928	3960.56
750.267	3982.03
750.605	4000.11
750.944	3951.52
751.283	3928.24
751.621	3978.19
751.96	3965.08
752.298	3984.97
752.636	3954.91
752.975	3933.89
753.313	3936.38
753.651	3937.28
753.989	3929.37
754.327	3891.18
754.666	3859.32
755.004	3856.61
755.342	3883.05
755.679	3884.18
756.017	3879.21
756.355	3831.75
756.693	3816.16
757.031	3819.55
757.368	3811.19
757.706	3818.64
758.044	3835.37
758.381	3844.18
758.719	3812.54
759.056	3832.65
759.394	3800.79
759.731	3762.6
760.068	3777.51
760.405	3751.53
760.743	3742.26
761.08	3787.23
761.417	3747.91
761.754	3706.33
762.091	3747.23
762.428	3695.03
762.765	3645.31
763.102	3693.67
763.438	3685.99
763.775	3673.56
764.112	3645.09
764.449	3643.51
764.785	3617.52
765.122	3610.74
765.458	3606.44
765.795	3602.38
766.131	3620.23
766.467	3602.83
766.804	3585.2
767.14	3546.11
767.476	3569.38
767.812	3535.49
768.148	3545.43
768.485	3554.69
768.821	3501.14
769.157	3498.65
769.492	3486.45
769.828	3493
770.164	3469.5
770.5	3456.62
770.836	3473.57
771.171	3408.26
771.507	3436.28
771.842	3377.3
772.178	3386.79
772.513	3315.38
772.849	3354.7
773.184	3385.21
773.519	3400.8
773.855	3358.77
774.19	3353.8
774.525	3364.19
774.86	3331.65
775.195	3353.34
775.53	3340.91
775.865	3341.37
776.2	3284.65
776.535	3271.76
776.87	3265.21
777.205	3259.79
777.539	3229.73
777.874	3238.09
778.209	3229.05
778.543	3208.04
778.878	3196.51
779.212	3179.34
779.547	3150.19
779.881	3200.35
780.215	3179.34
780.55	3111.32
780.884	3121.03
781.218	3143.63
781.552	3156.97
781.886	3127.36
782.22	3110.64
782.554	3131.43
782.888	3054.37
783.222	3062.5
783.556	3108.83
783.889	3067.25
784.223	3003.75
784.557	3046.91
784.89	3028.38
785.224	3024.31
785.557	3026.57
785.891	3013.47
786.224	3004.43
786.558	2974.6
786.891	2967.37
787.224	2946.35
787.557	2965.56
787.891	2933.47
788.224	2982.05
788.557	2931.21
788.89	2977.76
789.223	2950.19
789.556	2908.61
789.888	2925.56
790.221	2889.85
790.554	2896.63
790.887	2902.28
791.219	2877.65
791.552	2862.51
791.884	2843.98
792.217	2873.36
792.549	2813.92
792.882	2781.16
793.214	2782.06
793.546	2796.07
793.879	2782.06
794.211	2750.42
794.543	2781.38
794.875	2781.16
795.207	2798.33
795.539	2761.72
795.871	2737.77
796.203	2735.96
796.535	2723.53
796.867	2704.32
797.198	2729.41
797.53	2737.54
797.862	2682.4
798.193	2719.01
798.525	2694.83
798.856	2692.34
799.188	2672.68
799.519	2668.84
799.85	2664.77
800.182	2657.77
800.513	2647.37
800.844	2640.37
801.175	2629.3
801.506	2618.9
801.837	2620.93
802.168	2589.07
802.499	2590.88
802.83	2600.6
803.161	2591.33
803.491	2587.71
803.822	2579.35
804.153	2577.77
804.483	2557.66
804.814	2575.06
805.145	2597.88
805.475	2577.32
805.805	2582.52
806.136	2561.05
806.466	2561.73
806.796	2532.8
807.126	2495.06
807.457	2530.31
807.787	2472.24
808.117	2477.89
808.447	2486.47
808.777	2479.24
809.107	2481.95
809.436	2457.55
809.766	2415.97
810.096	2453.93
810.426	2457.55
810.755	2449.41
811.085	2459.36
811.414	2445.8
811.744	2406.25
812.073	2426.59
812.403	2442.86
812.732	2449.64
813.061	2421.17
813.39	2386.36
813.719	2438.34
814.049	2437.66
814.378	2424.1
814.707	2415.74
815.036	2465.68
815.365	2406.02
815.693	2376.19
816.022	2350.21
816.351	2380.26
816.68	2381.62
817.008	2349.08
817.337	2351.34
817.665	2321.05
817.994	2346.82
818.322	2342.3
818.651	2289.87
818.979	2321.28
819.307	2307.72
819.636	2333.94
819.964	2305.69
820.292	2303.43
820.62	2312.92
820.948	2304.33
821.276	2307.27
821.604	2314.95
821.932	2314.73
822.259	2349.53
822.587	2279.93
822.915	2303.65
823.243	2323.09
823.57	2311.11
823.898	2298.46
824.225	2281.96
824.553	2284.9
824.88	2308.4
825.207	2292.13
825.535	2247.84
825.862	2226.59
826.189	2283.77
826.516	2270.66
826.843	2279.25
827.17	2305.01
827.497	2356.08
827.824	2254.39
828.151	2320.15
828.478	2298.23
828.805	2299.13
829.131	2288.51
829.458	2281.96
829.785	2323.09
830.111	2294.16
830.438	2320.83
830.764	2334.61
831.09	2284.22
831.417	2276.76
831.743	2294.84
832.069	2308.4
832.395	2294.61
832.722	2290.77
833.048	2259.59
833.374	2284.22
833.7	2238.12
834.026	2264.79
834.351	2244.22
834.677	2251.45
835.003	2229.76
835.329	2237.67
835.654	2274.95
835.98	2238.35
836.306	2233.37
836.631	2221.17
836.956	2276.76
837.282	2249.42
837.607	2269.08
837.932	2270.66
838.258	2236.09
838.583	2268.85
838.908	2217.55
839.233	2236.76
839.558	2224.11
839.883	2218.01
840.208	2236.09
840.533	2233.37
840.858	2217.33
841.182	2215.97
841.507	2211
841.832	2213.71
842.156	2207.39
842.481	2182.53
842.805	2186.82
843.13	2191.79
843.454	2172.58
843.778	2168.29
844.103	2151.12
844.427	2164.9
844.751	2179.59
845.075	2185.69
845.399	2172.58
845.723	2138.23
846.047	2166.71
846.371	2145.47
846.695	2143.88
847.019	2134.84
847.343	2142.3
847.666	2138.69
847.99	2151.34
848.313	2116.54
848.637	2113.38
848.96	2138.46
849.284	2080.16
849.607	2094.17
849.931	2078.12
850.254	2065.47
850.577	2052.59
850.9	2053.49
851.223	1992.02
851.546	2024.11
851.869	1989.76
852.192	2025.7
852.515	1995.64
852.838	1964.68
853.161	2009.65
853.483	1993.38
853.806	2003.55
854.129	2013.04
854.451	1976.21
854.774	1991.8
855.096	1984.57
855.419	1960.39
855.741	1984.79
856.063	1974.62
856.385	1968.75
856.708	1971.46
857.03	1963.32
857.352	1966.94
857.674	1983.44
857.996	1970.1
858.318	1952.48
858.64	1942.31
858.961	1930.1
859.283	1919.03
859.605	1905.25
859.926	1910.44
860.248	1905.02
860.57	1907.05
860.891	1891.69
861.212	1897.34
861.534	1883.1
861.855	1856.89
862.176	1891.69
862.498	1870.45
862.819	1876.09
863.14	1861.86
863.461	1869.32
863.782	1875.64
864.103	1873.16
864.424	1862.31
864.745	1867.51
865.065	1877.22
865.386	1888.98
865.707	1878.58
866.027	1865.25
866.348	1856.43
866.668	1870.45
866.989	1835.87
867.309	1838.36
867.63	1852.37
867.95	1854.85
868.27	1835.19
868.59	1832.48
868.91	1813.05
869.23	1821.41
869.55	1790
869.87	1797
870.19	1771.46
870.51	1789.77
870.83	1794.97
871.15	1788.19
871.469	1773.05
871.789	1788.19
872.109	1771.46
872.428	1803.55
872.748	1799.26
873.067	1773.95
873.386	1811.24
873.706	1789.54
874.025	1791.35
874.344	1790.9
874.663	1780.05
874.982	1773.72
875.301	1802.2
875.62	1779.15
875.939	1794.74
876.258	1787.51
876.577	1764.23
876.896	1778.02
877.214	1751.8
877.533	1784.8
877.852	1752.71
878.17	1791.8
878.489	1780.96
878.807	1743.89
879.125	1723.56
879.444	1740.96
879.762	1730.11
880.08	1732.82
880.398	1715.87
880.716	1738.25
881.034	1723.33
881.352	1737.57
881.67	1733.05
881.988	1722.2
882.306	1734.4
882.624	1732.14
882.941	1747.28
883.259	1736.44
883.577	1742.54
883.894	1703.67
884.212	1697.79
884.529	1714.29
884.846	1704.57
885.164	1685.82
885.481	1704.8
885.798	1721.07
886.115	1698.25
886.432	1698.02
886.75	1665.93
887.067	1699.38
887.383	1691.69
887.7	1660.28
888.017	1639.49
888.334	1643.11
888.651	1659.15
888.967	1650.11
889.284	1641.75
889.6	1626.38
889.917	1607.18
890.233	1616.21
890.55	1632.26
890.866	1633.84
891.182	1630.68
891.498	1619.83
891.815	1625.93
892.131	1615.31
892.447	1644.91
892.763	1597.68
893.079	1623.9
893.395	1623.22
893.71	1627.74
894.026	1612.15
894.342	1605.59
894.657	1577.8
894.973	1627.06
895.289	1609.89
895.604	1587.74
895.92	1580.51
896.235	1580.74
896.55	1585.48
896.865	1596.55
897.181	1547.97
897.496	1547.29
897.811	1560.85
898.126	1515.2
898.441	1528.08
898.756	1507.29
899.071	1514.75
899.386	1515.43
899.7	1468.42
900.015	1531.02
900.33	1498.48
900.644	1493.73
900.959	1498.03
901.273	1491.7
901.588	1486.05
901.902	1469.1
902.216	1478.37
902.531	1478.14
902.845	1502.09
903.159	1516.78
903.473	1458.7
903.787	1479.72
904.101	1479.27
904.415	1479.27
904.729	1447.41
905.042	1479.72
905.356	1434.52
905.67	1455.77
905.984	1458.7
906.297	1454.64
906.611	1442.89
906.924	1413.51
907.237	1443.11
907.551	1414.41
907.864	1416.67
908.177	1390.91
908.491	1424.36
908.804	1374.19
909.117	1355.88
909.43	1370.35
909.743	1347.52
910.056	1361.98
910.368	1373.74
910.681	1372.15
910.994	1357.92
911.307	1352.72
911.619	1340.06
911.932	1356.11
912.244	1328.99
912.557	1351.81
912.869	1354.07
913.181	1334.64
913.494	1348.65
913.806	1326.28
914.118	1345.04
914.43	1346.62
914.742	1330.35
915.054	1313.85
915.366	1313.17
915.678	1325.83
915.99	1307.07
916.302	1307.07
916.613	1299.16
916.925	1284.02
917.236	1280.86
917.548	1254.19
917.859	1283.79
918.171	1260.07
918.482	1260.74
918.794	1251.7
919.105	1247.41
919.416	1239.5
919.727	1233.85
920.038	1255.55
920.349	1224.13
920.66	1224.81
920.971	1205.6
921.282	1246.96
921.593	1208.32
921.903	1237.24
922.214	1215.55
922.525	1178.49
922.835	1197.02
923.146	1186.85
923.456	1212.38
923.767	1208.77
924.077	1189.33
924.387	1190.92
924.697	1221.2
925.008	1183.91
925.318	1172.84
925.628	1186.17
925.938	1174.87
926.248	1211.03
926.558	1151.14
926.867	1191.59
927.177	1173.06
927.487	1177.13
927.796	1157.92
928.106	1121.31
928.416	1128.54
928.725	1143.23
929.034	1115.89
929.344	1109.79
929.653	1101.65
929.962	1103.23
930.271	1116.11
930.581	1095.78
930.89	1089.67
931.199	1096.91
931.508	1086.96
931.817	1072.73
932.125	1075.44
932.434	1070.24
932.743	1081.77
933.051	1069.34
933.36	1076.57
933.669	1081.77
933.977	1061.43
934.286	1055.78
934.594	1072.05
934.902	1064.36
935.21	1083.35
935.519	1050.81
935.827	1086.74
936.135	1069.79
936.443	1066.85
936.751	1051.48
937.059	1051.03
937.367	1037.92
937.674	1026.63
937.982	1016
938.29	1027.3
938.597	1022.33
938.905	1030.02
939.213	1021.65
939.52	1018.49
939.827	1016.91
940.135	994.08
940.442	996.34
940.749	994.31
941.056	984.14
941.363	954.99
941.67	978.49
941.977	1002.22
942.284	970.58
942.591	981.65
942.898	971.03
943.205	969
943.511	971.49
943.818	977.59
944.125	944.82
944.431	971.03
944.738	940.98
945.044	943.69
945.35	938.27
945.657	970.58
945.963	930.58
946.269	957.7
946.575	954.31
946.881	957.47
947.187	928.55
947.493	939.4
947.799	933.07
948.105	951.83
948.41	919.51
948.716	936.68
949.022	928.32
949.327	912.73
949.633	930.81
949.938	924.71
950.244	917.48
950.549	931.94
950.854	912.5
951.16	895.1
951.465	903.24
951.77	892.62
952.075	903.46
952.38	898.04
952.685	888.32
952.99	866.63
953.294	877.48
953.599	859.17
953.904	883.13
954.209	858.49
954.513	893.75
954.818	861.43
955.122	860.3
955.426	855.78
955.731	865.73
956.035	856.69
956.339	853.52
956.643	865.27
956.948	854.65
957.252	830.7
957.556	856.23
957.86	839.29
958.163	840.64
958.467	857.59
958.771	843.81
959.075	839.74
959.378	829.79
959.682	843.35
959.985	821.66
960.289	821.66
960.592	823.47
960.896	787.54
961.199	844.71
961.502	840.87
961.805	786.63
962.108	812.85
962.411	800.42
962.714	827.76
963.017	807.42
963.32	787.99
963.623	794.99
963.926	790.93
964.228	798.83
964.531	781.21
964.833	777.59
965.136	782.11
965.438	793.86
965.741	767.65
966.043	772.39
966.345	771.27
966.648	786.18
966.95	787.54
967.252	757.71
967.554	799.06
967.856	773.07
968.158	759.74
968.46	762.68
968.761	771.49
969.063	782.34
969.365	757.25
969.666	759.51
969.968	764.26
970.269	746.18
970.571	751.15
970.872	760.42
971.174	734.43
971.475	767.42
971.776	732.4
972.077	740.98
972.378	730.59
972.679	743.02
972.98	731.49
973.281	733.75
973.582	716.35
973.883	730.14
974.183	734.88
974.484	722.9
974.785	711.83
975.085	711.38
975.386	717.71
975.686	707.54
975.986	722.9
976.287	738.5
976.587	698.05
976.887	705.96
977.187	722.68
977.487	715.9
977.787	695.79
978.087	686.3
978.387	684.04
978.687	715
978.987	706.86
979.286	694.66
979.586	721.1
979.885	683.58
980.185	674.09
980.484	686.75
980.784	691.04
981.083	665.73
981.382	681.1
981.682	688.56
981.981	705.96
982.28	671.61
982.579	680.19
982.878	675
983.177	659.18
983.475	656.24
983.774	682.23
984.073	694.2
984.372	671.15
984.67	669.35
984.969	665.73
985.267	656.24
985.566	650.82
985.864	647.65
986.162	663.02
986.461	666.64
986.759	649.91
987.057	647.88
987.355	650.36
987.653	638.16
987.951	630.48
988.249	624.15
988.547	640.2
988.844	634.32
989.142	629.12
989.44	628.22
989.737	627.31
990.035	625.73
990.332	629.8
990.63	620.99
990.927	603.13
991.224	616.47
991.521	602.68
991.819	587.32
992.116	622.57
992.413	600.87
992.71	612.63
993.006	603.59
993.303	600.42
993.6	627.31
993.897	597.71
994.193	617.6
994.49	607.88
994.787	602.68
995.083	611.5
995.379	609.69
995.676	609.91
995.972	592.96
996.268	578.05
996.565	584.38
996.861	585.73
997.157	587.77
997.453	603.59
997.749	587.99
998.044	592.06
998.34	576.92
998.636	576.24
998.932	557.94
999.227	580.08
999.523	579.63
999.818	583.7
1000.114	572.17
1000.409	560.65
1000.704	561.55
1001	599.52
1001.295	543.02
1001.59	541.89
1001.885	574.21
1002.18	546.64
1002.475	573.3
1002.77	553.42
1003.065	546.41
1003.359	570.14
1003.654	562.68
1003.949	559.52
1004.243	564.72
1004.538	545.06
1004.832	543.02
1005.127	539.41
1005.421	534.21
1005.715	559.75
1006.009	541.44
1006.304	523.14
1006.598	543.25
1006.892	533.08
1007.186	539.86
1007.48	540.08
1007.773	530.37
1008.067	553.19
1008.361	518.16
1008.655	512.74
1008.948	516.58
1009.242	542.57
1009.535	520.65
1009.829	536.24
1010.122	516.13
1010.415	514.55
1010.708	508.22
1011.001	513.64
1011.295	510.71
1011.588	544.83
1011.881	524.94
1012.173	510.93
1012.466	528.79
1012.759	489.01
1013.052	508
1013.344	499.41
1013.637	499.18
1013.93	510.03
1014.222	501.44
1014.514	494.44
1014.807	496.7
1015.099	496.02
1015.391	482.46
1015.683	494.21
1015.976	491.72
1016.268	486.3
1016.56	463.25
1016.851	475.45
1017.143	497.83
1017.435	487.2
1017.727	506.19
1018.018	486.53
1018.31	493.76
1018.602	491.72
1018.893	491.72
1019.185	466.87
1019.476	499.41
1019.767	471.16
1020.058	471.84
1020.35	465.51
1020.641	467.77
1020.932	470.03
1021.223	479.07
1021.514	455.34
1021.804	484.49
1022.095	482.23
1022.386	460.99
1022.677	459.63
1022.967	470.93
1023.258	463.02
1023.548	460.99
1023.839	463.02
1024.129	453.99
1024.419	441.33
1024.709	439.75
1025	444.49
1025.29	433.42
1025.58	437.04
1025.87	446.75
1026.16	449.24
1026.449	424.61
1026.739	437.26
1027.029	430.71
1027.319	431.84
1027.608	437.71
1027.898	434.32
1028.187	430.93
1028.477	460.31
1028.766	456.92
1029.055	441.33
1029.344	439.07
1029.634	432.06
1029.923	453.08
1030.212	412.63
1030.501	424.61
1030.79	425.74
1031.078	424.83
1031.367	408.79
1031.656	416.7
1031.945	397.49
1032.233	429.58
1032.522	428.68
1032.81	430.71
1033.099	442.23
1033.387	430.48
1033.675	423.25
1033.963	430.93
1034.251	408.34
1034.54	431.39
1034.828	406.53
1035.116	403.82
1035.403	410.14
1035.691	399.75
1035.979	417.38
1036.267	419.64
1036.554	399.07
1036.842	388.22
1037.129	393.2
1037.417	417.38
1037.704	401.11
1037.992	401.56
1038.279	405.85
1038.566	415.57
1038.853	415.57
1039.14	415.57
